-1.25 	347.5528258147341 	0.003077885566730026 	101325.0345575164
-1.247497497497497 	300.0834015480023 	0.003078739991053939 	101325.0287354168
-1.244994994994995 	300.002729867459 	0.002926211396205517 	101325.0330430007
-1.242492492492492 	300.0000873512851 	0.002773947388877706 	101325.0296952153
-1.23998998998999 	300.0000278760011 	0.002615802746513535 	101325.0319049309
-1.237487487487487 	300.0000258837605 	0.002459139880347955 	101325.0306349529
-1.234984984984985 	300.0000268234 	0.002299485371108519 	101325.0316751105
-1.232482482482482 	300.0000265888661 	0.002145297843992457 	101325.0314680624
-1.22997997997998 	300.0000270474675 	0.001986308974656886 	101325.031950106
-1.227477477477477 	300.0000275378996 	0.001835121841383627 	101325.0325808286
-1.224974974974975 	300.0000274404915 	0.001680344896965363 	101325.0324255626
-1.222472472472472 	300.00002797885 	0.001535674206719532 	101325.0330976369
-1.21996996996997 	300.0000277114943 	0.001387372324663892 	101325.0327442015
-1.217467467467467 	300.0000290196082 	0.001251374308768865 	101325.0343216294
-1.214964964964965 	300.000027813029 	0.001113885003121781 	101325.0328720939
-1.212462462462462 	300.0000290608332 	0.0009909225616213115 	101325.0343621979
-1.20995995995996 	300.0000277324191 	0.0008610636631360806 	101325.0327802741
-1.207457457457457 	300.0000291162874 	0.0007480289905010106 	101325.0344254498
-1.204954954954955 	300.0000273547671 	0.0006300548727564824 	101325.0323431055
-1.202452452452452 	300.0000289833173 	0.0005306501674707724 	101325.034263854
-1.19994994994995 	300.0000269240884 	0.0004243149706458753 	101325.0318319407
-1.197447447447447 	300.0000292209097 	0.000338990646164144 	101325.0345362768
-1.194944944944945 	300.0000268697901 	0.0002464184727225497 	101325.0317695642
-1.192442442442442 	300.0000296482987 	0.0001785693465407678 	101325.0350400874
-1.18993993993994 	300.000027150985 	0.0001099097990118402 	101325.0321140103
-1.187437437437437 	300.0000300876613 	6.276853786940715e-05 	101325.0355612155
-1.184934934934935 	300.0000278795218 	0.0001032144261228543 	101325.0329771432
-1.182432432432432 	300.0000303717233 	7.386908224600746e-05 	101325.0358890833
-1.17992992992993 	300.0000292658456 	8.21978809616286e-05 	101325.0346131705
-1.177427427427427 	300.0000302428876 	9.570611093191655e-05 	101325.0357345203
-1.174924924924925 	300.0000298913847 	7.564722389085452e-05 	101325.0353532642
-1.172422422422422 	300.0000303608801 	0.0001015586378957647 	101325.0358732778
-1.16991991991992 	300.0000299913153 	7.135013698391503e-05 	101325.0354725638
-1.167417417417417 	300.0000301479406 	0.0001049727888164893 	101325.0356263758
-1.164914914914915 	300.0000297957388 	0.0001028078904981184 	101325.0352421936
-1.162412412412412 	300.000029780577 	0.0001382337924957748 	101325.0351908674
-1.15990990990991 	300.0000295927427 	0.0001492300115783496 	101325.0350016923
-1.157407407407407 	300.0000295991597 	0.0001832073531932626 	101325.034976861
-1.154904904904904 	300.0000297215157 	0.0001897600893954143 	101325.0351530792
-1.152402402402403 	300.0000298352782 	0.0002211268236911392 	101325.0352577309
-1.1498998998999 	300.0000302140611 	0.0002215270860617705 	101325.0357352041
-1.147397397397397 	300.000030392211 	0.0002484260372305091 	101325.0359172635
-1.144894894894895 	300.0000308457526 	0.0002405990001472136 	101325.0364786104
-1.142392392392392 	300.0000310490406 	0.0002574403917577581 	101325.0366918204
-1.13988988988989 	300.0000313392607 	0.0002361801505938254 	101325.0370596505
-1.137387387387387 	300.0000314713336 	0.0002463064048264995 	101325.0371922629
-1.134884884884885 	300.0000315860287 	0.0002219907087408787 	101325.0373501004
-1.132382382382382 	300.0000315621151 	0.0002311322289614481 	101325.0373016107
-1.12987987987988 	300.0000315118633 	0.0002058221784524313 	101325.037268033
-1.127377377377377 	300.0000313924032 	0.0002150378774720399 	101325.0371028617
-1.124874874874875 	300.0000312950644 	0.0001892406969527697 	101325.037007764
-1.122372372372372 	300.000031208797 	0.0001993712731467598 	101325.0368872688
-1.11986986986987 	300.0000312034331 	0.0001730207750704265 	101325.0368985592
-1.117367367367367 	300.0000312669532 	0.0001847422152756991 	101325.0369544775
-1.114864864864865 	300.0000314162448 	0.0001576599372860804 	101325.0371483445
-1.112362362362362 	300.000031623195 	0.0001712414477425459 	101325.0373769311
-1.10985985985986 	300.0000318687084 	0.0001434372306317878 	101325.0376834499
-1.107357357357357 	300.0000321094032 	0.0001586591785285361 	101325.0379524422
-1.104854854854855 	300.0000323205263 	0.0001303659230748221 	101325.0382156592
-1.102352352352353 	300.000032462018 	0.0001467217420900933 	101325.0383688534
-1.09984984984985 	300.0000325393677 	0.0001181982937438636 	101325.0384728756
-1.097347347347347 	300.000032536679 	0.000135283156940812 	101325.0384571264
-1.094844844844845 	300.0000324997434 	0.000106544891283063 	101325.0384256968
-1.092342342342342 	300.0000324320486 	0.000124351018182112 	101325.0383362591
-1.08983983983984 	300.0000323991538 	9.509558184552495e-05 	101325.0383089883
-1.087337337337337 	300.0000323954135 	0.0001139413738695522 	101325.0382953578
-1.084834834834835 	300.0000324674895 	8.39303658211204e-05 	101325.038388584
-1.082332332332332 	300.0000325761121 	0.0001040689712591003 	101325.038508148
-1.07982982982983 	300.0000327385073 	8.563916929430413e-05 	101325.0387060347
-1.077327327327327 	300.0000328926953 	0.0001040232217784019 	101325.038880905
-1.074824824824825 	300.0000330458727 	8.74564710787006e-05 	101325.0390679349
-1.072322322322323 	300.0000331440866 	0.0001037893942031855 	101325.0391786503
-1.06981981981982 	300.0000332116194 	8.887084562829087e-05 	101325.0392636006
-1.067317317317317 	300.0000332207409 	0.0001030761249447729 	101325.0392701443
-1.064814814814815 	300.0000332195428 	8.983287152612232e-05 	101325.039273194
-1.062312312312312 	300.0000332028712 	0.0001021282739915628 	101325.0392502164
-1.05980980980981 	300.0000332248319 	9.077184019794812e-05 	101325.0392799649
-1.057307307307307 	300.0000332781215 	0.0001014819482452289 	101325.0393409244
-1.054804804804805 	300.000033395764 	9.214270105935476e-05 	101325.0394824617
-1.052302302302302 	300.0000335452975 	0.0001014045984803267 	101325.03965649
-1.0497997997998 	300.0000337229072 	9.389067211587206e-05 	101325.0398677813
-1.047297297297297 	300.0000338743376 	0.0001015322868066635 	101325.0400450442
-1.044794794794795 	300.0000339827496 	9.538219192407543e-05 	101325.040174315
-1.042292292292292 	300.0000340058974 	0.0001011512834030137 	101325.0402006346
-1.03978978978979 	300.0000339521653 	9.599510292004475e-05 	101325.0401379675
-1.037287287287287 	300.0000338222745 	9.995328359119286e-05 	101325.0399835264
-1.034784784784785 	300.0000336625949 	9.582166155432889e-05 	101325.03979506
-1.032282282282283 	300.0000335075389 	9.84769743207465e-05 	101325.0396118085
-1.02977977977978 	300.0000334150396 	9.570655884209643e-05 	101325.0395031071
-1.027277277277277 	300.0000334149266 	9.772342959203005e-05 	101325.0395032417
-1.024774774774775 	300.0000335335465 	9.653670031730828e-05 	101325.0396434747
-1.022272272272272 	300.0000337587964 	9.828766411201662e-05 	101325.0399095705
-1.01976976976977 	300.0000340604138 	9.840321604741569e-05 	101325.0402664909
-1.017267267267267 	300.0000343808335 	9.973120700240531e-05 	101325.0406460256
-1.014764764764765 	300.0000346568217 	0.0001003370559572039 	101325.0409723333
-1.012262262262262 	300.0000348275094 	0.0001007860382013695 	101325.0411733581
-1.00975975975976 	300.0000348540701 	0.0001010106581191237 	101325.041203523
-1.007257257257257 	300.0000347295339 	0.0001004396210335479 	101325.0410553353
-1.004754754754755 	300.000034481032 	9.994923117691794e-05 	101325.0407614419
-1.002252252252252 	300.0000341664688 	9.894272272174824e-05 	101325.0403906352
-0.9997497497497498 	300.000033860026 	9.812441292563208e-05 	101325.0400293397
-0.9972472472472473 	300.0000336358906 	9.749062712459924e-05 	101325.0397644691
-0.9947447447447449 	300.0000335494422 	9.724838991437802e-05 	101325.0396616722
-0.9922422422422421 	300.0000336239355 	9.745626963071464e-05 	101325.0397488123
-0.9897397397397399 	300.0000338427445 	9.807172458721713e-05 	101325.040007639
-0.9872372372372376 	300.0000341534325 	9.89465668760609e-05 	101325.0403762268
-0.9847347347347346 	300.0000344803505 	9.986813277611035e-05 	101325.0407643057
-0.9822322322322323 	300.0000347455822 	0.0001006147094527338 	101325.0410781074
-0.9797297297297296 	300.0000348881063 	0.0001010133547970439 	101325.0412452698
-0.9772272272272275 	300.0000348792972 	0.0001009873565062527 	101325.0412328622
-0.9747247247247248 	300.0000347299778 	0.0001005688987577485 	101325.0410549629
-0.9722222222222224 	300.0000344865313 	9.988980287145774e-05 	101325.0407676193
-0.9697197197197196 	300.0000342185367 	9.914307895011098e-05 	101325.0404521228
-0.9672172172172175 	300.0000339967868 	9.852412010331352e-05 	101325.0401916173
-0.9647147147147147 	300.0000338748376 	9.818117096570478e-05 	101325.0400483955
-0.9622122122122124 	300.0000338744864 	9.817556862675137e-05 	101325.0400479941
-0.9597097097097099 	300.000033981913 	9.846916711051058e-05 	101325.0401742859
-0.9572072072072073 	300.0000341546066 	9.894682333335878e-05 	101325.0403775171
-0.9547047047047047 	300.0000343375259 	9.945504291453667e-05 	101325.0405924218
-0.9522022022022023 	300.0000344793592 	9.985303670484207e-05 	101325.0407595822
-0.9496996996996998 	300.0000345506112 	0.000100057913980143 	101325.040843398
-0.9471971971971973 	300.0000345493918 	0.0001000614308377528 	101325.0408412919
-0.9446946946946947 	300.000034498129 	9.992582058298447e-05 	101325.0407805458
-0.9421921921921923 	300.0000344338617 	9.975163389601863e-05 	101325.0407041464
-0.93968968968969 	300.0000343899047 	9.962937879501523e-05 	101325.0406517886
-0.9371871871871872 	300.0000343824703 	9.960566879688484e-05 	101325.0406431691
-0.9346846846846848 	300.0000344042672 	9.966052434769068e-05 	101325.0406696717
-0.9321821821821823 	300.000034427318 	9.971423417836869e-05 	101325.0406976355
-0.9296796796796799 	300.0000344128371 	9.966067552302508e-05 	101325.0406810131
-0.9271771771771771 	300.0000343249979 	9.940104101676783e-05 	101325.0405779137
-0.9246746746746748 	300.0000341458467 	9.888527066854935e-05 	101325.0403664349
-0.9221721721721724 	300.0000338834893 	9.81387343722916e-05 	101325.040056165
-0.9196696696696698 	300.0000335747368 	9.726608227588504e-05 	101325.0396912116
-0.9171671671671672 	300.000033279229 	9.643405551245746e-05 	101325.0393418117
-0.9146646646646649 	300.0000330633963 	9.582707245614449e-05 	101325.039085945
-0.9121621621621623 	300.0000329794352 	9.55910583064833e-05 	101325.0389862263
-0.9096596596596597 	300.0000330492767 	9.578758252991772e-05 	101325.0390689812
-0.9071571571571573 	300.0000332555463 	9.636456164735955e-05 	101325.0393126786
-0.9046546546546547 	300.0000335414725 	9.716289777633117e-05 	101325.0396506553
-0.9021521521521524 	300.0000338262201 	9.795908598227782e-05 	101325.0399879304
-0.8996496496496498 	300.0000340274069 	9.85190569995419e-05 	101325.0402262007
-0.8971471471471473 	300.0000340808143 	9.866292596306649e-05 	101325.040289438
-0.894644644644645 	300.0000339577794 	9.831299827840585e-05 	101325.0401442114
-0.892142142142142 	300.0000336747701 	9.751399512733779e-05 	101325.0398097236
-0.8896396396396397 	300.0000332892791 	9.642764047464011e-05 	101325.0393538833
-0.8871371371371374 	300.0000328843322 	9.528738991883447e-05 	101325.0388753609
-0.8846346346346349 	300.0000325475245 	9.4335837486711e-05 	101325.0384769528
-0.8821321321321324 	300.0000323464337 	9.376445491914815e-05 	101325.0382387804
-0.8796296296296297 	300.0000323124197 	9.366205517709548e-05 	101325.0381984771
-0.8771271271271271 	300.0000324347338 	9.399889837760807e-05 	101325.0383432656
-0.8746246246246248 	300.0000326654628 	9.464194062254446e-05 	101325.0386160873
-0.8721221221221224 	300.0000329339195 	9.539369070015331e-05 	101325.0389337795
-0.8696196196196196 	300.0000331681895 	9.605281395306904e-05 	101325.0392110879
-0.8671171171171175 	300.0000333130274 	9.646294696794472e-05 	101325.0393824408
-0.8646146146146148 	300.0000333407132 	9.654537651563668e-05 	101325.0394156487
-0.8621121121121121 	300.0000332555788 	9.630947231564508e-05 	101325.0393149954
-0.8596096096096097 	300.0000330860677 	9.583276114344608e-05 	101325.0391141609
-0.857107107107107 	300.0000328731723 	9.523039404242672e-05 	101325.0388622408
-0.8546046046046049 	300.0000326584134 	9.461804380121401e-05 	101325.0386077956
-0.8521021021021022 	300.0000324710409 	9.40784336591493e-05 	101325.0383857971
-0.8495995995995997 	300.0000323228271 	9.364743887034674e-05 	101325.0382107279
-0.8470970970970974 	300.0000322090224 	9.33136292885011e-05 	101325.0380769085
-0.8445945945945946 	300.0000321143372 	9.30325393974559e-05 	101325.037965201
-0.8420920920920922 	300.0000320202817 	9.275405700725123e-05 	101325.0378534683
-0.8395895895895897 	300.0000319134688 	9.24441617117096e-05 	101325.0377270154
-0.8370870870870872 	300.0000317937107 	9.210145828703314e-05 	101325.0375854218
-0.8345845845845846 	300.0000316736257 	9.176199579003072e-05 	101325.0374435294
-0.8320820820820823 	300.0000315740743 	9.148318086172286e-05 	101325.037326381
-0.8295795795795798 	300.0000315174792 	9.132580380176629e-05 	101325.0372599796
-0.8270770770770772 	300.0000315184358 	9.132879797997479e-05 	101325.0372610363
-0.8245745745745746 	300.0000315760447 	9.148922239983186e-05 	101325.0373291628
-0.8220720720720721 	300.0000316736287 	9.176005206539125e-05 	101325.0374442397
-0.8195695695695699 	300.0000317803325 	9.205458282872153e-05 	101325.0375700148
-0.817067067067067 	300.0000318586148 	9.226902157839987e-05 	101325.0376628091
-0.8145645645645651 	300.0000318750219 	9.230915258631732e-05 	101325.0376825144
-0.8120620620620621 	300.0000318077918 	9.211147412628564e-05 	101325.037602726
-0.8095595595595597 	300.0000316510951 	9.166198749445124e-05 	101325.0374173328
-0.8070570570570572 	300.0000314178246 	9.09976962100687e-05 	101325.0371419011
-0.8045545545545546 	300.0000311367674 	9.019676194474906e-05 	101325.0368096601
-0.8020520520520523 	300.0000308446383 	8.936200988989742e-05 	101325.0364634661
-0.7995495495495494 	300.0000305770917 	8.859560993906682e-05 	101325.0361462609
-0.7970470470470474 	300.0000303627669 	8.798049618336257e-05 	101325.0358927223
-0.7945445445445446 	300.0000302197441 	8.756855747950562e-05 	101325.0357238527
-0.7920420420420423 	300.0000301525196 	8.737278870471797e-05 	101325.0356451628
-0.7895395395395397 	300.0000301540566 	8.737440753274845e-05 	101325.0356482171
-0.7870370370370371 	300.000030209237 	8.75296400140062e-05 	101325.0357145389
-0.7845345345345348 	300.0000302987488 	8.778160675468071e-05 	101325.035820494
-0.7820320320320323 	300.0000304023375 	8.807264955978551e-05 	101325.0359418693
-0.7795295295295296 	300.0000305010134 	8.835070087856529e-05 	101325.0360573092
-0.7770270270270272 	300.0000305807306 	8.857519420252628e-05 	101325.0361503032
-0.7745245245245247 	300.0000306315425 	8.871985072168518e-05 	101325.0362098803
-0.7720220220220222 	300.0000306486215 	8.876961188358848e-05 	101325.0362303441
-0.7695195195195199 	300.0000306307118 	8.872114293796101e-05 	101325.0362103318
-0.767017017017017 	300.0000305800406 	8.85778119812943e-05 	101325.0361514503
-0.7645145145145147 	300.0000304996228 	8.834657587324084e-05 	101325.0360567906
-0.7620120120120122 	300.0000303918204 	8.803583706708366e-05 	101325.035929701
-0.7595095095095097 	300.0000302587722 	8.765303437709775e-05 	101325.0357732061
-0.7570070070070072 	300.0000301033968 	8.720551126042895e-05 	101325.0355902713
-0.7545045045045048 	300.000029928988 	8.670378052687461e-05 	101325.0353847463
-0.7520020020020022 	300.0000297399507 	8.616149983145013e-05 	101325.0351624398
-0.7494994994994997 	300.0000295444316 	8.559926102619834e-05 	101325.0349315988
-0.7469969969969972 	300.0000293511488 	8.504072701355615e-05 	101325.0347022616
-0.7444944944944945 	300.0000291679714 	8.450962572714821e-05 	101325.0344844773
-0.7419919919919924 	300.0000290013779 	8.402452164351958e-05 	101325.0342859893
-0.7394894894894897 	300.0000288533793 	8.359345435297168e-05 	101325.0341102998
-0.7369869869869872 	300.0000287233339 	8.321319385682125e-05 	101325.0339559614
-0.7344844844844846 	300.0000286059994 	8.287112258879025e-05 	101325.0338174269
-0.7319819819819822 	300.0000284955324 	8.254911544539391e-05 	101325.0336870974
-0.7294794794794797 	300.0000283854577 	8.223039015678934e-05 	101325.0335577243
-0.7269769769769773 	300.0000282720378 	8.190298154770862e-05 	101325.0334242873
-0.7244744744744747 	300.000028153564 	8.156174465563452e-05 	101325.0332848781
-0.721971971971972 	300.00002803129 	8.120981927733335e-05 	101325.033140649
-0.7194694694694695 	300.0000279090756 	8.0855117585153e-05 	101325.0329951913
-0.7169669669669674 	300.0000277905871 	8.05101616025307e-05 	101325.0328536984
-0.7144644644644647 	300.0000276811884 	8.018929549432377e-05 	101325.0327220632
-0.711961961961962 	300.0000275846513 	7.990554164080056e-05 	101325.032605894
-0.7094594594594597 	300.0000275036957 	7.966963798878627e-05 	101325.0325094615
-0.7069569569569573 	300.0000274402557 	7.948604545645832e-05 	101325.0324347237
-0.7044544544544545 	300.0000273938226 	7.935227994679096e-05 	101325.0323806904
-0.7019519519519523 	300.0000273611367 	7.925909642106745e-05 	101325.0323433482
-0.6994494494494495 	300.0000273369587 	7.919021628303644e-05 	101325.0323161852
-0.6969469469469471 	300.00002731532 	7.912659613890557e-05 	101325.03229117
-0.6944444444444446 	300.0000272886123 	7.904782582276246e-05 	101325.0322599182
-0.6919419419419421 	300.0000272505318 	7.893525003105942e-05 	101325.0322148174
-0.6894394394394396 	300.0000271950225 	7.877516041515595e-05 	101325.0321499788
-0.6869369369369374 	300.0000271202056 	7.855872524798417e-05 	101325.032061937
-0.6844344344344344 	300.000027025187 	7.828498700428917e-05 	101325.0319500609
-0.6819319319319321 	300.0000269117777 	7.795950597762402e-05 	101325.0318166476
-0.6794294294294296 	300.0000267849092 	7.759396378911091e-05 	101325.0316666373
-0.6769269269269272 	300.0000266500141 	7.720560695058962e-05 	101325.0315069549
-0.6744244244244245 	300.0000265143867 	7.681291864686658e-05 	101325.0313455949
-0.6719219219219222 	300.0000263836928 	7.643588891950086e-05 	101325.031190647
-0.6694194194194195 	300.000026264835 	7.609179272562957e-05 	101325.0310494112
-0.6669169169169172 	300.0000261619859 	7.579430486825935e-05 	101325.0309276375
-0.6644144144144146 	300.0000260779827 	7.55527173249614e-05 	101325.0308289398
-0.661911911911912 	300.0000260145526 	7.536912143048149e-05 	101325.0307544362
-0.6594094094094097 	300.000025970547 	7.524075969918349e-05 	101325.0307026592
-0.656906906906907 	300.0000259426096 	7.515794333708099e-05 	101325.0306697101
-0.6544044044044046 	300.0000259258762 	7.510624186942322e-05 	101325.0306496165
-0.6519019019019021 	300.0000259139374 	7.506786836710156e-05 	101325.0306348717
-0.6493993993993996 	300.0000258994232 	7.502182641025125e-05 	101325.0306171054
-0.6468968968968971 	300.0000258747217 	7.494804195647825e-05 	101325.0305878071
-0.6443943943943946 	300.0000258333809 	7.48265714891754e-05 	101325.0305390371
-0.6418918918918921 	300.0000257702802 	7.464142036776956e-05 	101325.030464091
-0.6393893893893897 	300.0000256811589 	7.438097141656289e-05 	101325.0303581434
-0.6368868868868871 	300.0000255637678 	7.403949235531891e-05 	101325.030218873
-0.6343843843843846 	300.0000254185936 	7.361949828677965e-05 	101325.0300470487
-0.6318818818818821 	300.0000252487283 	7.313141777164475e-05 	101325.0298469954
-0.6293793793793795 	300.0000250618836 	7.259517880043196e-05 	101325.0296267768
-0.6268768768768773 	300.0000248674075 	7.203856064087203e-05 	101325.0293978581
-0.6243743743743745 	300.0000246773864 	7.149473814424343e-05 	101325.0291740742
-0.6218718718718721 	300.0000245050548 	7.099873222806124e-05 	101325.0289699166
-0.6193693693693696 	300.0000243599953 	7.058130548137864e-05 	101325.0287983618
-0.6168668668668671 	300.0000242507986 	7.026460188968003e-05 	101325.028668628
-0.6143643643643645 	300.0000241796866 	7.005726167402778e-05 	101325.0285843683
-0.6118618618618621 	300.0000241439957 	6.995228731558594e-05 	101325.0285427777
-0.6093593593593596 	300.0000241369346 	6.992854251407807e-05 	101325.0285348706
-0.6068568568568571 	300.000024146748 	6.995256939880967e-05 	101325.0285468739
-0.6043543543543546 	300.0000241601114 	6.99852600809758e-05 	101325.0285623701
-0.6018518518518521 	300.000024162864 	6.998634498298701e-05 	101325.0285646855
-0.5993493493493496 	300.0000241419586 	6.992013497849741e-05 	101325.0285390809
-0.5968468468468471 	300.0000240877964 	6.976024574232427e-05 	101325.0284745285
-0.5943443443443446 	300.000023995207 	6.949193345200272e-05 	101325.0283650274
-0.591841841841842 	300.0000238637247 	6.911503250256666e-05 	101325.0282104205
-0.5893393393393397 	300.0000236991211 	6.864390138095099e-05 	101325.0280166586
-0.5868368368368371 	300.0000235116964 	6.81066070661243e-05 	101325.0277953599
-0.5843343343343346 	300.0000233146615 	6.754159742084502e-05 	101325.0275625027
-0.5818318318318321 	300.0000231232273 	6.699263673055105e-05 	101325.0273362625
-0.5793293293293297 	300.0000229520513 	6.650229309745875e-05 	101325.0271343599
-0.5768268268268271 	300.0000228142466 	6.61059875219217e-05 	101325.0269714836
-0.5743243243243245 	300.0000227178379 	6.582700612483776e-05 	101325.0268572358
-0.5718218218218221 	300.000022665266 	6.567258349754879e-05 	101325.0267947889
-0.5693193193193196 	300.000022653768 	6.563341882788385e-05 	101325.0267801816
-0.5668168168168171 	300.0000226729099 	6.568203864588621e-05 	101325.0268022364
-0.5643143143143147 	300.000022708275 	6.577596944068535e-05 	101325.0268433258
-0.5618118118118121 	300.0000227415103 	6.586207434610791e-05 	101325.0268813257
-0.5593093093093094 	300.0000227516607 	6.58838341343765e-05 	101325.0268928119
-0.5568068068068072 	300.00002272116 	6.579195853622559e-05 	101325.0268570603
-0.5543043043043046 	300.0000226383742 	6.555277167918819e-05 	101325.026760023
-0.551801801801802 	300.0000224993548 	6.515565912809151e-05 	101325.0265972638
-0.5492992992992995 	300.0000223107672 	6.461630813384658e-05 	101325.0263751212
-0.5467967967967969 	300.0000220858686 	6.397369330830631e-05 	101325.0261099532
-0.5442942942942947 	300.0000218450149 	6.328589230586196e-05 	101325.0258257743
-0.5417917917917919 	300.0000216117328 	6.262079752421334e-05 	101325.0255507551
-0.5392892892892895 	300.0000214104351 	6.20454182031666e-05 	101325.0253130351
-0.536786786786787 	300.0000212609108 	6.161693445681881e-05 	101325.0251361852
-0.5342842842842846 	300.0000211749626 	6.136910824924674e-05 	101325.0250347753
-0.531781781781782 	300.0000211546975 	6.130699040532727e-05 	101325.0250109141
-0.5292792792792794 	300.0000211904429 	6.14021410998311e-05 	101325.025052764
-0.526776776776777 	300.0000212611978 	6.159470205305708e-05 	101325.0251357209
-0.5242742742742745 	300.000021338951 	6.1805686954024e-05 	101325.0252263513
-0.521771771771772 	300.0000213927469 	6.194769285000379e-05 	101325.0252884144
-0.5192692692692695 	300.0000213946568 	6.194414864170405e-05 	101325.0252897874
-0.516766766766767 	300.0000213274883 	6.174508532476091e-05 	101325.0252091195
-0.5142642642642645 	300.0000211854393 	6.13361549260487e-05 	101325.0250408622
-0.511761761761762 	300.0000209797393 	6.074847758543962e-05 	101325.0247973236
-0.5092592592592596 	300.0000207341348 	6.004881544662216e-05 	101325.0245069111
-0.506756756756757 	300.0000204811004 	5.933069355150489e-05 	101325.0242086673
-0.5042542542542544 	300.0000202568559 	5.869435716363204e-05 	101325.0239443128
-0.5017517517517521 	300.0000200912328 	5.822360268615917e-05 	101325.0237495733
-0.4992492492492494 	300.0000200026881 	5.797165011056375e-05 	101325.0236462952
-0.496746746746747 	300.0000199935171 	5.794285674828018e-05 	101325.0236368712
-0.4942442442442445 	300.0000200480758 	5.809230376137751e-05 	101325.0237025685
-0.4917417417417421 	300.0000201355897 	5.833364540741225e-05 	101325.0238067749
-0.4892392392392395 	300.0000202165991 	5.855401623128248e-05 	101325.0239028004
-0.486736736736737 	300.0000202515025 	5.864449188832494e-05 	101325.0239441962
-0.4842342342342345 	300.0000202099462 	5.851888036986796e-05 	101325.0238951532
-0.481731731731732 	300.0000200786842 	5.813811719215516e-05 	101325.0237390335
-0.4792292292292296 	300.0000198625378 	5.752125783404062e-05 	101325.0234831949
-0.4767267267267268 	300.0000195878181 	5.674008372224863e-05 	101325.0231585124
-0.4742242242242246 	300.0000192960367 	5.591054514210345e-05 	101325.0228129491
-0.471721721721722 	300.0000190316028 	5.515902409236492e-05 	101325.0225002975
-0.4692192192192195 	300.0000188345705 	5.459598412627587e-05 	101325.0222670979
-0.4667167167167169 	300.0000187276544 	5.428770316685184e-05 	101325.0221408668
-0.4642142142142145 	300.000018712834 	5.423418750917728e-05 	101325.0221226588
-0.461711711711712 	300.0000187670295 	5.437728452813463e-05 	101325.022186651
-0.4592092092092094 	300.0000188524864 	5.46082484510263e-05 	101325.0222876223
-0.456706706706707 	300.0000189260724 	5.480701696265117e-05 	101325.0223742978
-0.4542042042042045 	300.0000189505982 	5.487285950131713e-05 	101325.0224038839
-0.451701701701702 	300.0000189078766 	5.474833944645262e-05 	101325.0223531887
-0.4491991991991995 	300.0000187980257 	5.44377723913068e-05 	101325.022223277
-0.4466966966966969 	300.000018640018 	5.398983747413508e-05 	101325.0220363224
-0.4441941941941945 	300.0000184624957 	5.348448831688922e-05 	101325.0218259424
-0.441691691691692 	300.0000182923 	5.299873677831851e-05 	101325.0216248348
-0.4391891891891895 	300.0000181485425 	5.258246420836463e-05 	101325.0214545861
-0.436686686686687 	300.000018035529 	5.225388917530797e-05 	101325.0213212043
-0.4341841841841846 	300.0000179476385 	5.199448598316073e-05 	101325.0212173597
-0.431681681681682 	300.000017873056 	5.177630432481753e-05 	101325.02112966
-0.4291791791791794 	300.0000178030224 	5.157358992388704e-05 	101325.0210471368
-0.426676676676677 	300.0000177348828 	5.137762010219134e-05 	101325.0209667161
-0.4241741741741744 	300.0000176729744 	5.120055413234079e-05 	101325.0208931551
-0.421671671671672 	300.0000176232281 	5.105558426703528e-05 	101325.0208338251
-0.4191691691691694 	300.0000175876735 	5.094924014353152e-05 	101325.020791345
-0.4166666666666669 	300.0000175599427 	5.086264109865974e-05 	101325.0207582174
-0.4141641641641645 	300.0000175243339 	5.075333504586996e-05 	101325.0207167356
-0.411661661661662 	300.0000174638286 	5.057219236638459e-05 	101325.0206448032
-0.4091591591591594 	300.0000173626711 	5.027831217806115e-05 	101325.0205254538
-0.406656656656657 	300.0000172189851 	4.986839501959312e-05 	101325.0203560156
-0.4041541541541545 	300.0000170472289 	4.938029337390006e-05 	101325.0201525805
-0.401651651651652 	300.0000168727114 	4.88883099322993e-05 	101325.0199470651
-0.3991491491491494 	300.0000167293049 	4.84830160748925e-05 	101325.0197773879
-0.396646646646647 	300.000016641751 	4.823383282641162e-05 	101325.0196743513
-0.3941441441441444 	300.0000166209413 	4.817003047850399e-05 	101325.0196498746
-0.3916416416416419 	300.0000166552516 	4.825989098540178e-05 	101325.0196910625
-0.3891391391391395 	300.0000167158964 	4.842083041398716e-05 	101325.0197629092
-0.3866366366366368 	300.0000167634007 	4.85454894558429e-05 	101325.0198191073
-0.3841341341341344 	300.0000167615793 	4.853072309898683e-05 	101325.019816738
-0.381631631631632 	300.0000166877469 	4.831746012078869e-05 	101325.0197296616
-0.3791291291291294 	300.0000165418189 	4.790024985111772e-05 	101325.0195564797
-0.3766266266266269 	300.0000163426334 	4.733471108308021e-05 	101325.0193205187
-0.3741241241241244 	300.0000161244274 	4.671573482038346e-05 	101325.0190619733
-0.371621621621622 	300.0000159245562 	4.61466692865837e-05 	101325.0188253447
-0.3691191191191194 	300.000015774201 	4.571672398156473e-05 	101325.0186470669
-0.366616616616617 	300.0000156897492 	4.547091803042307e-05 	101325.0185469677
-0.3641141141141143 	300.0000156711258 	4.54122051024225e-05 	101325.018525194
-0.3616116116116119 	300.0000157046049 	4.550033305831713e-05 	101325.0185646187
-0.3591091091091095 	300.0000157660822 	4.566763496402168e-05 	101325.0186371481
-0.356606606606607 	300.0000158285582 	4.584182823221018e-05 	101325.0187114761
-0.3541041041041044 	300.0000158692623 	4.595356160456276e-05 	101325.0187598037
-0.3516016016016019 	300.0000158710259 	4.59565763582539e-05 	101325.0187622153
-0.3490990990990994 	300.0000158255231 	4.582610113982325e-05 	101325.0187087967
-0.346596596596597 	300.0000157335118 	4.556225945176729e-05 	101325.018600063
-0.3440940940940944 	300.0000156031313 	4.519154042556988e-05 	101325.0184461989
-0.3415915915915919 	300.0000154497778 	4.475477884114954e-05 	101325.0182652769
-0.3390890890890895 	300.0000152932013 	4.430949083391087e-05 	101325.0180803532
-0.3365865865865869 	300.0000151540466 	4.39118865873084e-05 	101325.0179154529
-0.3340840840840844 	300.0000150486696 	4.360997201381728e-05 	101325.0177908699
-0.3315815815815819 	300.000014987672 	4.343342264319236e-05 	101325.0177185405
-0.3290790790790794 	300.0000149708148 	4.338012183055756e-05 	101325.0176986658
-0.3265765765765769 	300.0000149875054 	4.342331961038791e-05 	101325.0177189436
-0.3240740740740744 	300.0000150201743 	4.350837045896521e-05 	101325.0177572009
-0.3215715715715718 	300.0000150455246 	4.357405457723678e-05 	101325.017787073
-0.3190690690690695 	300.0000150434529 	4.356531488124775e-05 	101325.0177850848
-0.3165665665665668 	300.0000150031727 	4.344681658035617e-05 	101325.0177370776
-0.3140640640640644 	300.0000149230472 	4.321926144682245e-05 	101325.017642192
-0.311561561561562 	300.0000148135986 	4.290978973597711e-05 	101325.0175131466
-0.3090590590590593 	300.000014695194 	4.257380990385184e-05 	101325.0173726125
-0.3065565565565568 	300.000014588979 	4.227297112132197e-05 	101325.0172467939
-0.3040540540540545 	300.0000145142338 	4.205927799879605e-05 	101325.0171582954
-0.3015515515515518 	300.0000144822329 	4.196680335079563e-05 	101325.0171202456
-0.2990490490490494 	300.0000144926587 	4.199373665192669e-05 	101325.0171331028
-0.2965465465465469 	300.0000145366964 	4.211451659985282e-05 	101325.0171849386
-0.2940440440440444 	300.0000145960046 	4.227929209364891e-05 	101325.0172550466
-0.2915415415415418 	300.0000146507045 	4.243119413883075e-05 	101325.0173197478
-0.2890390390390395 	300.0000146833733 	4.2523336215188e-05 	101325.0173585447
-0.2865365365365368 	300.0000146835732 	4.252331535440938e-05 	101325.017358967
-0.2840340340340343 	300.0000146497164 	4.2428353192389e-05 	101325.01731902
-0.2815315315315318 	300.0000145881638 	4.225587277783115e-05 	101325.0172467541
-0.2790290290290295 	300.0000145124055 	4.204152412474066e-05 	101325.017157246
-0.2765265265265269 	300.0000144372131 	4.182816172185782e-05 	101325.0170680684
-0.2740240240240244 	300.0000143753586 	4.165101202215166e-05 	101325.0169947443
-0.2715215215215219 	300.0000143353703 	4.153690672798176e-05 	101325.0169474872
-0.2690190190190194 	300.0000143201477 	4.149280440544666e-05 	101325.0169298518
-0.2665165165165169 	300.0000143285505 	4.151379686724129e-05 	101325.0169392397
-0.2640140140140144 	300.0000143534522 	4.158378421376694e-05 	101325.0169687081
-0.2615115115115119 	300.0000143880022 	4.167966111667752e-05 	101325.0170092205
-0.2590090090090094 	300.0000144235131 	4.178141719247115e-05 	101325.0170515744
-0.2565065065065068 	300.0000144543483 	4.186701585301389e-05 	101325.0170875828
-0.2540040040040044 	300.0000144737375 	4.19215345665028e-05 	101325.0171105374
-0.2515015015015019 	300.0000144778295 	4.193238040295753e-05 	101325.01711529
-0.2489989989989994 	300.0000144633755 	4.188992587002163e-05 	101325.017098365
-0.2464964964964968 	300.0000144291445 	4.179305501015735e-05 	101325.0170583542
-0.2439939939939944 	300.0000143768759 	4.164299778396893e-05 	101325.0169965968
-0.2414914914914919 	300.0000143100744 	4.145312550330444e-05 	101325.01691791
-0.2389889889889893 	300.0000142367073 	4.124434188485405e-05 	101325.0168309757
-0.2364864864864869 	300.0000141668604 	4.104494062894162e-05 	101325.016748
-0.2339839839839843 	300.0000141119069 	4.089184735687533e-05 	101325.0166834617
-0.2314814814814819 	300.0000140857021 	4.081788448430515e-05 	101325.0166520295
-0.2289789789789792 	300.0000140972315 	4.085418942304046e-05 	101325.0166659541
-0.2264764764764769 	300.0000141537155 	4.101746967341788e-05 	101325.0167324846
-0.2239739739739743 	300.0000142549163 	4.130740618608995e-05 	101325.0168519191
-0.2214714714714718 	300.0000143941903 	4.17077388323056e-05 	101325.0170168222
-0.2189689689689693 	300.0000145599309 	4.218141653000652e-05 	101325.0172126645
-0.2164664664664669 	300.0000147351524 	4.268260764743356e-05 	101325.0174197815
-0.2139639639639643 	300.0000149008607 	4.31577226475943e-05 	101325.0176161978
-0.2114614614614618 	300.0000150400476 	4.355494918994232e-05 	101325.0177806473
-0.2089589589589593 	300.0000151371201 	4.383265641488211e-05 	101325.0178953252
-0.2064564564564568 	300.000015181632 	4.396008934583694e-05 	101325.0179481521
-0.2039539539539543 	300.0000151695756 	4.392745635703374e-05 	101325.0179343794
-0.2014514514514518 	300.0000151047288 	4.374219177790627e-05 	101325.0178574098
-0.1989489489489494 	300.0000149960524 	4.34322057293225e-05 	101325.0177286997
-0.1964464464464468 	300.0000148592965 	4.304267353096713e-05 	101325.0175666569
-0.1939439439439443 	300.0000147137797 	4.262822431885548e-05 	101325.017394541
-0.1914414414414418 	300.0000145807362 	4.225149574730548e-05 	101325.0172375864
-0.1889389389389393 	300.0000144815631 	4.19687580676048e-05 	101325.0171198049
-0.1864364364364368 	300.000014431844 	4.182816281918657e-05 	101325.0170608322
-0.1839339339339343 	300.0000144418764 	4.186005007412782e-05 	101325.0170731422
-0.1814314314314318 	300.0000145154776 	4.207081001305092e-05 	101325.0171600946
-0.1789289289289293 	300.0000146461744 	4.244726282537456e-05 	101325.0173152808
-0.1764264264264268 	300.0000148225189 	4.29503915537665e-05 	101325.0175234148
-0.1739239239239243 	300.0000150245497 	4.352930271426285e-05 	101325.0177627079
-0.1714214214214218 	300.0000152327435 	4.412423590278679e-05 	101325.0180083435
-0.1689189189189193 	300.0000154254335 	4.467639827106866e-05 	101325.0182364029
-0.1664164164164168 	300.0000155874 	4.514152381974228e-05 	101325.0184275299
-0.1639139139139143 	300.0000157078757 	4.548903700206733e-05 	101325.0185699171
-0.1614114114114118 	300.0000157852048 	4.571488778904867e-05 	101325.0186611569
-0.1589089089089093 	300.0000158250886 	4.583613134997305e-05 	101325.0187084946
-0.1564064064064068 	300.0000158408913 	4.588789250012041e-05 	101325.0187272201
-0.1539039039039043 	300.0000158495869 	4.592056612171237e-05 	101325.0187374112
-0.1514014014014018 	300.0000158686769 	4.598057260676901e-05 	101325.0187597221
-0.1488988988988993 	300.0000159120852 	4.611094566877974e-05 	101325.0188112058
-0.1463963963963968 	300.0000159889138 	4.633461533453772e-05 	101325.0189019251
-0.1438938938938943 	300.0000160993359 	4.665330755077905e-05 	101325.0190328637
-0.1413913913913918 	300.0000162368444 	4.704871885393019e-05 	101325.0191955551
-0.1388888888888893 	300.0000163876345 	4.747932533729898e-05 	101325.0193736062
-0.1363863863863868 	300.0000165330098 	4.789749795442402e-05 	101325.0195459988
-0.1338838838838843 	300.0000166560866 	4.825168408358409e-05 	101325.0196915263
-0.1313813813813818 	300.0000167427914 	4.850193514772707e-05 	101325.0197934223
-0.1288788788788793 	300.0000167846637 	4.862990477607026e-05 	101325.0198432079
-0.1263763763763768 	300.0000167844343 	4.86380097637596e-05 	101325.019842765
-0.1238738738738743 	300.0000167515221 	4.855751357648236e-05 	101325.019804077
-0.1213713713713717 	300.0000167031993 	4.843335458390281e-05 	101325.0197466831
-0.1188688688688693 	300.0000166586032 	4.832195582504939e-05 	101325.019693586
-0.1163663663663668 	300.0000166353009 	4.827713538978424e-05 	101325.0196667505
-0.1138638638638643 	300.0000166495823 	4.833880232566601e-05 	101325.0196831821
-0.1113613613613618 	300.0000167078565 	4.85324312999559e-05 	101325.0197520944
-0.1088588588588592 	300.000016810397 	4.885674588587065e-05 	101325.0198734794
-0.1063563563563568 	300.0000169496104 	4.929268614236992e-05 	101325.0200382758
-0.1038538538538543 	300.0000171119377 	4.980273285717797e-05 	101325.0202301848
-0.1013513513513517 	300.0000172803241 	5.033832963471441e-05 	101325.0204289017
-0.09884884884884926 	300.0000174365449 	5.085556001226556e-05 	101325.0206141798
-0.09634634634634676 	300.0000175680426 	5.13150903572459e-05 	101325.0207697874
-0.09384384384384425 	300.0000176668878 	5.169942424201184e-05 	101325.0208864758
-0.09134134134134177 	300.0000177325425 	5.200815335170804e-05 	101325.0209632798
-0.08883883883883925 	300.0000177693551 	5.225903049658309e-05 	101325.0210068263
-0.08633633633633674 	300.0000177876663 	5.248515030975097e-05 	101325.0210289086
-0.08383383383383426 	300.0000177999734 	5.271929424919105e-05 	101325.0210430406
-0.08133133133133173 	300.0000178148474 	5.299549862639654e-05 	101325.0210609752
-0.07882882882882926 	300.0000178390101 	5.333339136007164e-05 	101325.0210900086
-0.07632632632632676 	300.0000178744265 	5.374042130746154e-05 	101325.0211315505
-0.07382382382382424 	300.0000179161204 	5.42112940512884e-05 	101325.0211811892
-0.07132132132132173 	300.0000179580911 	5.472698366478141e-05 	101325.0212301651
-0.06881881881881925 	300.0000179897206 	5.526850914446604e-05 	101325.0212678788
-0.06631631631631671 	300.0000180038089 	5.58136376877813e-05 	101325.0212847681
-0.06381381381381425 	300.0000179957298 	5.635222000692424e-05 	101325.0212748589
-0.06131131131131173 	300.0000179640753 	5.688361977541146e-05 	101325.0212374434
-0.05880880880880923 	300.0000179132164 	5.741906757240099e-05 	101325.0211775155
-0.05630630630630672 	300.000017851907 	5.79836693918165e-05 	101325.0211048551
-0.05380380380380424 	300.0000177905491 	5.860213362361423e-05 	101325.0210318675
-0.05130130130130173 	300.0000177384548 	5.930239658752289e-05 	101325.0209704724
-0.04879879879879922 	300.0000177025874 	6.009685527833416e-05 	101325.0209286454
-0.04629629629629672 	300.0000176846943 	6.098229022442682e-05 	101325.0209075479
-0.04379379379379422 	300.0000176786894 	6.193626550960064e-05 	101325.0209002504
-0.04129129129129173 	300.0000176724111 	6.291414704588204e-05 	101325.0208927425
-0.03878878878878922 	300.0000176511286 	6.386779947270611e-05 	101325.0208672976
-0.03628628628628671 	300.000017600361 	6.474468104592177e-05 	101325.020807412
-0.03378378378378422 	300.0000175118347 	6.551269221960146e-05 	101325.0207030887
-0.03128128128128172 	300.0000173868794 	6.616322764025841e-05 	101325.0205550883
-0.02877877877877922 	300.0000172361439 	6.67158292558853e-05 	101325.0203766757
-0.0262762762762767 	300.0000170795351 	6.722172684702107e-05 	101325.0201920396
-0.02377377377377422 	300.0000169442329 	6.774070346926784e-05 	101325.0200314938
-0.0212712712712717 	300.0000168531306 	6.833929857575403e-05 	101325.0199244689
-0.01876876876876921 	300.000016825967 	6.906040586439116e-05 	101325.0198919988
-0.01626626626626671 	300.0000168672427 	6.991694388994664e-05 	101325.0199405535
-0.0137637637637642 	300.0000169670241 	7.088364535708862e-05 	101325.0200588292
-0.0112612612612617 	300.0000171026675 	7.189388356386642e-05 	101325.0202188795
-0.008758758758759198 	300.0000172402096 	7.286397197629491e-05 	101325.0203817091
-0.006256256256256697 	300.0000173447972 	7.36987423665289e-05 	101325.0205057077
-0.003753753753754195 	300.0000173877497 	7.432683137607984e-05 	101325.0205560606
-0.001251251251251693 	300.0000173517315 	7.471031647858494e-05 	101325.020513287
0.00125125125125081 	300.000017237931 	7.486028910290231e-05 	101325.0203786618
0.003753753753753312 	300.0000170657552 	7.484233155738836e-05 	101325.0201752291
0.006256256256255817 	300.0000168695033 	7.475592543215732e-05 	101325.0199436797
0.008758758758758317 	300.0000166921263 	7.472811818749401e-05 	101325.0197337034
0.01126126126126082 	300.0000165733792 	7.487252432220788e-05 	101325.0195932533
0.01376376376376332 	300.0000165431973 	7.527679038025165e-05 	101325.0195579798
0.01626626626626582 	300.0000166149472 	7.597445433436997e-05 	101325.0196425321
0.01876876876876833 	300.0000167784127 	7.693450476811222e-05 	101325.0198360041
0.02127127127127083 	300.0000170045342 	7.807199851279874e-05 	101325.0201033489
0.02377377377377332 	300.0000172498063 	7.925274262213534e-05 	101325.0203927322
0.02627627627627583 	300.0000174647638 	8.033863486866354e-05 	101325.0206473166
0.02877877877877833 	300.0000176100693 	8.120271893480036e-05 	101325.0208184055
0.03128128128128083 	300.0000176590861 	8.177070262295926e-05 	101325.0208767337
0.03378378378378333 	300.0000176103849 	8.203195720386637e-05 	101325.0208194448
0.03628628628628584 	300.0000174848769 	8.203965186663583e-05 	101325.0206707467
0.03878878878878834 	300.0000173199955 	8.190572457611425e-05 	101325.0204756469
0.04129129129129084 	300.0000171613732 	8.175805653264307e-05 	101325.0202884184
0.04379379379379333 	300.0000170517735 	8.172539951085415e-05 	101325.0201589851
0.04629629629629585 	300.0000170192506 	8.189067616803307e-05 	101325.0201208774
0.04879879879879834 	300.0000170723981 	8.228427327288001e-05 	101325.0201835542
0.05130130130130085 	300.0000171974768 	8.28749124078908e-05 	101325.0203309698
0.05380380380380335 	300.0000173635804 	8.357974673927504e-05 	101325.0205271006
0.05630630630630584 	300.000017532495 	8.429871959533727e-05 	101325.0207271033
0.05880880880880836 	300.0000176706158 	8.493231513070536e-05 	101325.0208904829
0.06131131131131085 	300.0000177568317 	8.542241654062347e-05 	101325.0209921684
0.06381381381381336 	300.0000177875218 	8.575282141384078e-05 	101325.0210284869
0.06631631631631586 	300.0000177768981 	8.5959331577222e-05 	101325.0210163865
0.06881881881881835 	300.0000177514978 	8.610697636339261e-05 	101325.0209862154
0.07132132132132088 	300.0000177383893 	8.626673963573255e-05 	101325.0209705034
0.07382382382382337 	300.0000177566239 	8.649254121391953e-05 	101325.0209926449
0.07632632632632587 	300.0000178134252 	8.679717548018206e-05 	101325.0210593447
0.07882882882882837 	300.0000178979176 	8.715787246969419e-05 	101325.0211592169
0.08133133133133086 	300.000017990134 	8.751699011919026e-05 	101325.0212678513
0.08383383383383337 	300.0000180662206 	8.781548002286579e-05 	101325.0213575155
0.08633633633633589 	300.0000181085393 	8.800778697226298e-05 	101325.021408076
0.08883883883883838 	300.0000181151913 	8.809038408469354e-05 	101325.0214153957
0.09134134134134086 	300.0000180970705 	8.810273546239151e-05 	101325.0213942982
0.09384384384384339 	300.0000180798443 	8.81168661035372e-05 	101325.0213744895
0.09634634634634588 	300.0000180935586 	8.821767724982186e-05 	101325.0213903917
0.09884884884884838 	300.0000181593604 	8.846086524490878e-05 	101325.0214681463
0.1013513513513509 	300.000018283151 	8.886042459629188e-05 	101325.0216140601
0.1038538538538534 	300.0000184478487 	8.936139157506782e-05 	101325.0218091522
0.1063563563563559 	300.0000186202017 	8.98641189961572e-05 	101325.0220125558
0.1088588588588584 	300.0000187565971 	9.024454207268345e-05 	101325.0221735596
0.1113613613613609 	300.0000188195075 	9.039949407779826e-05 	101325.0222485703
0.1138638638638634 	300.0000187933072 	9.02861820710152e-05 	101325.0222174983
0.1163663663663659 	300.000018688598 	8.993678915600956e-05 	101325.0220937323
0.1188688688688684 	300.0000185442437 	8.946657955382867e-05 	101325.0219229829
0.1213713713713709 	300.0000184151234 	8.902747814551996e-05 	101325.021770233
0.1238738738738734 	300.0000183544808 	8.877656886899159e-05 	101325.0216991705
0.1263763763763759 	300.0000183989654 	8.881223659098914e-05 	101325.0217515095
0.1288788788788784 	300.0000185524178 	8.915152527511343e-05 	101325.0219330675
0.1313813813813809 	300.000018788056 	8.971956899186754e-05 	101325.0222116229
0.1338838838838834 	300.0000190555857 	9.037243685775035e-05 	101325.0225277269
0.1363863863863859 	300.0000192984533 	9.095087763431525e-05 	101325.0228143755
0.1388888888888884 	300.0000194709879 	9.13195830685299e-05 	101325.0230178978
0.1413913913913909 	300.0000195514447 	9.141779876832481e-05 	101325.0231129733
0.1438938938938934 	300.0000195467323 	9.12578283773081e-05 	101325.0231074488
0.1463963963963959 	300.0000194860631 	9.092377629541801e-05 	101325.0230360128
0.1488988988988985 	300.0000194093553 	9.052661349236221e-05 	101325.0229456782
0.1514014014014009 	300.0000193530983 	9.01717320813306e-05 	101325.0228792243
0.1539039039039035 	300.0000193390788 	8.992773539939173e-05 	101325.0228630582
0.1564064064064059 	300.0000193725241 	8.981156365304906e-05 	101325.0229031136
0.1589089089089084 	300.0000194451447 	8.980544308418276e-05 	101325.0229889336
0.1614114114114109 	300.0000195415587 	8.986567650209524e-05 	101325.0231029406
0.1639139139139134 	300.0000196489908 	8.995813165563733e-05 	101325.0232300364
0.166416416416416 	300.0000197623744 	9.005875616631059e-05 	101325.0233631717
0.1689189189189185 	300.0000198811404 	9.016529640265131e-05 	101325.0235028808
0.1714214214214209 	300.000020007341 	9.027845957856193e-05 	101325.0236518262
0.1739239239239235 	300.000020139324 	9.038961287924702e-05 	101325.0238077158
0.1764264264264259 	300.0000202670221 	9.047268925313739e-05 	101325.0239585864
0.1789289289289284 	300.0000203726918 	9.047798192572356e-05 	101325.0240832593
0.181431431431431 	300.0000204350554 	9.03563904438095e-05 	101325.0241574756
0.1839339339339334 	300.0000204400038 	9.006825163201548e-05 	101325.0241636225
0.186436436436436 	300.0000203858487 	8.96162449172021e-05 	101325.0241001839
0.1889389389389385 	300.0000202897509 	8.904530122259099e-05 	101325.0239866433
0.191441441441441 	300.000020183252 	8.844407815387052e-05 	101325.0238610341
0.1939439439439434 	300.0000201060002 	8.792055134717107e-05 	101325.0237702
0.196446446446446 	300.0000200940018 	8.756831449975286e-05 	101325.0237559393
0.1989489489489485 	300.000020166684 	8.744153761843118e-05 	101325.0238415527
0.2014514514514509 	300.0000203206015 	8.752806978087766e-05 	101325.0240232261
0.2039539539539535 	300.0000205292254 	8.775683390073582e-05 	101325.0242695012
0.2064564564564559 	300.0000207492307 	8.800842551191238e-05 	101325.0245294567
0.2089589589589585 	300.0000209337967 	8.815603454186683e-05 	101325.0247470759
0.211461461461461 	300.0000210435026 	8.80940091141701e-05 	101325.0248769136
0.2139639639639635 	300.0000210604231 	8.776994339713785e-05 	101325.0248964718
0.2164664664664659 	300.0000209890177 	8.719795321492739e-05 	101325.0248118713
0.2189689689689684 	300.0000208564896 	8.644954685513368e-05 	101325.0246553306
0.221471471471471 	300.0000207041545 	8.563875268108935e-05 	101325.0244755338
0.2239739739739735 	300.0000205757938 	8.488459175256131e-05 	101325.0243242212
0.226476476476476 	300.0000205073649 	8.428844499352964e-05 	101325.0242434416
0.2289789789789785 	300.0000205185636 	8.390715862662453e-05 	101325.0242567649
0.231481481481481 	300.000020610663 	8.37490316042356e-05 	101325.0243659594
0.2339839839839835 	300.0000207691466 	8.377600008778842e-05 	101325.0245532773
0.236486486486486 	300.000020967994 	8.391695968453051e-05 	101325.0247880092
0.2389889889889885 	300.0000211767073 	8.408960226860077e-05 	101325.0250349105
0.241491491491491 	300.0000213684325 	8.421450040048845e-05 	101325.0252618689
0.2439939939939935 	300.000021523693 	8.423198037051411e-05 	101325.0254449623
0.246496496496496 	300.0000216300587 	8.410455700452027e-05 	101325.0255704993
0.2489989989989985 	300.0000216845803 	8.382187935152481e-05 	101325.02563461
0.251501501501501 	300.0000216903485 	8.339263898184076e-05 	101325.0256413876
0.2540040040040035 	300.000021655757 	8.284226309237421e-05 	101325.0256006438
0.256506506506506 	300.0000215927517 	8.220700451748217e-05 	101325.0255260101
0.2590090090090086 	300.0000215139982 	8.152787836134632e-05 	101325.0254335874
0.261511511511511 	300.0000214359895 	8.085018636790635e-05 	101325.0253408628
0.2640140140140135 	300.0000213719157 	8.02141314047922e-05 	101325.0252653376
0.2665165165165161 	300.0000213354766 	7.965662048418328e-05 	101325.0252225187
0.2690190190190185 	300.0000213365154 	7.919979015242198e-05 	101325.0252232888
0.271521521521521 	300.0000213772199 	7.884983896964346e-05 	101325.025271296
0.2740240240240235 	300.0000214533796 	7.859456515599022e-05 	101325.0253613024
0.276526526526526 	300.0000215530723 	7.840032034242043e-05 	101325.0254793209
0.2790290290290286 	300.0000216589376 	7.822217014286505e-05 	101325.025604859
0.281531531531531 	300.0000217519987 	7.800704776565062e-05 	101325.025714944
0.2840340340340335 	300.0000218148639 	7.770866834719307e-05 	101325.0257890131
0.2865365365365361 	300.0000218355646 	7.72950469195666e-05 	101325.0258134982
0.2890390390390385 	300.0000218115886 	7.675598246497959e-05 	101325.0257849524
0.291541541541541 	300.0000217489224 	7.610814576725609e-05 	101325.0257108855
0.2940440440440436 	300.0000216619258 	7.538875773505138e-05 	101325.0256081274
0.296546546546546 	300.000021569684 	7.46516397148204e-05 	101325.0254992136
0.2990490490490486 	300.0000214920021 	7.395347573662245e-05 	101325.0254077738
0.3015515515515511 	300.0000214469998 	7.334455745163982e-05 	101325.0253540917
0.3040540540540535 	300.0000214448602 	7.286001056779769e-05 	101325.0253516911
0.3065565565565562 	300.0000214902869 	7.251171942307536e-05 	101325.0254054044
0.3090590590590585 	300.0000215796365 	7.229097260765682e-05 	101325.0255110082
0.3115615615615611 	300.0000217022567 	7.21665073831219e-05 	101325.0256562271
0.3140640640640635 	300.0000218435878 	7.209352566803699e-05 	101325.025822763
0.316566566566566 	300.0000219841487 	7.201959654200454e-05 	101325.0259889738
0.3190690690690687 	300.0000221054551 	7.189129817867092e-05 	101325.0261327795
0.3215715715715711 	300.0000221918012 	7.166284940797961e-05 	101325.0262344368
0.3240740740740735 	300.0000222293332 	7.129921539919118e-05 	101325.0262789837
0.326576576576576 	300.0000222113413 	7.078189890734287e-05 	101325.0262582118
0.3290790790790786 	300.0000221388865 	7.011032507572048e-05 	101325.0261719381
0.3315815815815811 	300.0000220174841 	6.930301184720045e-05 	101325.0260283474
0.3340840840840836 	300.000021860692 	6.839664365944988e-05 	101325.0258432229
0.3365865865865861 	300.0000216873296 	6.744170787301585e-05 	101325.0256380445
0.3390890890890886 	300.0000215174314 	6.649732944015293e-05 	101325.0254371839
0.3415915915915911 	300.000021371215 	6.562259583429108e-05 	101325.0252646868
0.3440940940940935 	300.0000212665935 	6.486937155399622e-05 	101325.0251412232
0.3465965965965962 	300.0000212166819 	6.427495952721762e-05 	101325.0250816127
0.3490990990990985 	300.0000212265124 	6.385744816451638e-05 	101325.0250931976
0.3516016016016011 	300.0000212958547 	6.361432188298553e-05 	101325.025175207
0.3541041041041035 	300.0000214175651 	6.352353871473034e-05 	101325.0253191381
0.3566066066066061 	300.0000215786854 	6.354805139442502e-05 	101325.0255100871
0.3591091091091085 	300.0000217636404 	6.364144582385481e-05 	101325.0257288669
0.3616116116116112 	300.0000219546606 	6.375432312337215e-05 	101325.0259546409
0.3641141141141137 	300.0000221346485 	6.384036283918392e-05 	101325.0261676421
0.3666166166166161 	300.0000222901472 	6.386125006153778e-05 	101325.0263514717
0.3691191191191185 	300.0000224118435 	6.378909890277488e-05 	101325.026494602
0.371621621621621 	300.0000224932367 	6.360890271443229e-05 	101325.0265909035
0.3741241241241237 	300.0000225343362 	6.33169336652532e-05 	101325.0266392331
0.3766266266266261 	300.000022536889 	6.291984089733142e-05 	101325.0266423721
0.3791291291291286 	300.0000225057357 	6.243148580778044e-05 	101325.0266057286
0.3816316316316311 	300.0000224465704 	6.186974525725239e-05 	101325.0265361485
0.3841341341341336 	300.0000223664498 	6.125354645248707e-05 	101325.0264410261
0.3866366366366362 	300.0000222704486 	6.06007747164796e-05 	101325.0263277272
0.3891391391391387 	300.0000221649619 	5.992759302710341e-05 	101325.0262031995
0.391641641641641 	300.0000220555913 	5.924767630103283e-05 	101325.026073663
0.3941441441441436 	300.0000219462704 	5.857303047694924e-05 	101325.025944386
0.3966466466466462 	300.0000218407118 	5.791475478959912e-05 	101325.0258196115
0.3991491491491486 	300.0000217415405 	5.728212640302976e-05 	101325.0257026638
0.4016516516516512 	300.000021651389 	5.66831231375621e-05 	101325.0255961796
0.4041541541541536 	300.0000215722316 	5.612357877253361e-05 	101325.0255023246
0.4066566566566561 	300.0000215050276 	5.560666451245978e-05 	101325.0254228498
0.4091591591591587 	300.0000214511672 	5.513386630251985e-05 	101325.0253589279
0.4116616616616612 	300.0000214105576 	5.47041403877093e-05 	101325.0253108673
0.4141641641641635 	300.0000213827381 	5.431499614960677e-05 	101325.0252778832
0.4166666666666662 	300.0000213657102 	5.396234029601229e-05 	101325.0252580633
0.4191691691691687 	300.0000213573021 	5.363950416979531e-05 	101325.0252485605
0.421671671671671 	300.0000213553491 	5.333885571272972e-05 	101325.0252459256
0.4241741741741737 	300.0000213556104 	5.305023435415424e-05 	101325.0252464771
0.4266766766766761 	300.0000213556825 	5.276467408516036e-05 	101325.025246644
0.4291791791791785 	300.0000213533135 	5.24749644976645e-05 	101325.0252433046
0.4316816816816812 	300.0000213455118 	5.217503464856986e-05 	101325.0252341179
0.4341841841841836 	300.0000213317142 	5.1864543892371e-05 	101325.0252177866
0.4366866866866862 	300.0000213113702 	5.154315689778737e-05 	101325.0251941075
0.4391891891891885 	300.0000212860328 	5.121352498395336e-05 	101325.0251637099
0.4416916916916913 	300.0000212553935 	5.087889702582086e-05 	101325.0251275247
0.4441941941941936 	300.0000212202751 	5.053986131491079e-05 	101325.0250861785
0.4466966966966961 	300.0000211803608 	5.019830380792419e-05 	101325.0250395414
0.4491991991991987 	300.0000211358268 	4.985126722750734e-05 	101325.0249865873
0.4517017017017012 	300.0000210840795 	4.949512108054275e-05 	101325.0249255822
0.4542042042042035 	300.0000210240837 	4.912485053401593e-05 	101325.0248544706
0.4567067067067062 	300.0000209538867 	4.873366598047728e-05 	101325.0247713636
0.4592092092092087 	300.0000208721319 	4.831947886338905e-05 	101325.0246750838
0.4617117117117112 	300.0000207802506 	4.788024857422562e-05 	101325.0245657188
0.4642142142142137 	300.0000206780077 	4.742074480350136e-05 	101325.0244450851
0.4667167167167162 	300.0000205699714 	4.694999091426477e-05 	101325.0243169511
0.4692192192192187 	300.0000204597275 	4.648009290262806e-05 	101325.0241868976
0.4717217217217212 	300.0000203541581 	4.602927211546683e-05 	101325.0240617765
0.4742242242242236 	300.0000202581264 	4.561317602098446e-05 	101325.0239488075
0.4767267267267262 	300.0000201782309 	4.524797607599645e-05 	101325.0238543532
0.4792292292292287 	300.000020117696 	4.494395138327738e-05 	101325.0237825061
0.4817317317317312 	300.0000200764838 	4.470161837242025e-05 	101325.0237337661
0.4842342342342336 	300.0000200512245 	4.451400536325702e-05 	101325.0237042141
0.4867367367367362 	300.0000200353094 	4.436085253311213e-05 	101325.0236855757
0.4892392392392387 	300.0000200193522 	4.421613717742854e-05 	101325.0236663364
0.4917417417417412 	300.0000199917382 	4.404956596482059e-05 	101325.0236337089
0.4942442442442437 	300.0000199422959 	4.383210286615933e-05 	101325.0235759946
0.4967467467467462 	300.000019865173 	4.354482851782063e-05 	101325.0234848824
0.4992492492492487 	300.0000197571065 	4.317910962968589e-05 	101325.0233572804
0.5017517517517511 	300.0000196210157 	4.274296047605378e-05 	101325.0231962802
0.5042542542542537 	300.0000194643335 	4.225643785142201e-05 	101325.0230109339
0.5067567567567562 	300.0000192981666 	4.175026612245277e-05 	101325.0228147965
0.5092592592592589 	300.000019136367 	4.126167079212166e-05 	101325.0226236094
0.5117617617617611 	300.0000189918325 	4.082628802087316e-05 	101325.0224527644
0.5142642642642637 	300.0000188753875 	4.047671651155164e-05 	101325.0223150253
0.5167667667667663 	300.0000187937563 	4.023263001065571e-05 	101325.0222185887
0.5192692692692688 	300.0000187484391 	4.010002052759906e-05 	101325.0221653991
0.5217717717717714 	300.0000187355911 	4.006657265364859e-05 	101325.0221498427
0.5242742742742736 	300.0000187429048 	4.009940863020197e-05 	101325.0221583238
0.5267767767767763 	300.0000187532701 	4.015150386955113e-05 	101325.0221704022
0.5292792792792789 	300.0000187460987 	4.016390476807965e-05 	101325.0221618663
0.5317817817817813 	300.0000187017041 	4.008126980411073e-05 	101325.0221094342
0.5342842842842837 	300.0000186064755 	3.98629953123973e-05 	101325.0219962736
0.5367867867867864 	300.0000184549622 	3.9494533463613e-05 	101325.0218171057
0.5392892892892888 	300.0000182553151 	3.899858280041614e-05 	101325.0215812434
0.5417917917917912 	300.000018027903 	3.84281279101758e-05 	101325.0213120248
0.5442942942942938 	300.0000177995632 	3.786093375070616e-05 	101325.0210420669
0.5467967967967964 	300.0000175994474 	3.737783946409378e-05 	101325.0208054006
0.5492992992992988 	300.0000174501644 	3.704209877857204e-05 	101325.0206287804
0.5518018018018012 	300.0000173620277 	3.688536601615672e-05 	101325.0205244414
0.5543043043043039 	300.000017330193 	3.689306359240854e-05 	101325.0204863855
0.5568068068068063 	300.0000173345248 	3.701344205730102e-05 	101325.0204916599
0.5593093093093087 	300.0000173466984 	3.716752738777402e-05 	101325.0205066013
0.5618118118118114 	300.0000173378569 	3.727150462491022e-05 	101325.0204960958
0.5643143143143137 	300.0000172840456 	3.726118415304943e-05 	101325.0204327311
0.5668168168168163 	300.0000171746978 	3.710190964725534e-05 	101325.0203033013
0.5693193193193188 	300.0000170123847 	3.680133507524549e-05 	101325.0201112264
0.5718218218218213 	300.000016812075 	3.639945070216563e-05 	101325.0198744222
0.5743243243243239 	300.0000165964149 	3.595748225085675e-05 	101325.0196194739
0.5768268268268262 	300.000016388758 	3.55419630625675e-05 	101325.019374145
0.5793293293293288 	300.000016207869 	3.520419839411632e-05 	101325.0191606286
0.5818318318318314 	300.0000160645056 	3.497604446219795e-05 	101325.0189911632
0.5843343343343338 	300.000015959357 	3.486001760191048e-05 	101325.0188665368
0.5868368368368363 	300.0000158837717 	3.483567705589304e-05 	101325.0187773291
0.5893393393393387 	300.0000158241139 	3.486674112042736e-05 	101325.0187071877
0.5918418418418413 	300.0000157648179 	3.490715898520861e-05 	101325.0186370662
0.5943443443443439 	300.0000156908209 	3.49165568684153e-05 	101325.0185493152
0.5968468468468463 	300.000015590653 	3.486173214236892e-05 	101325.0184308393
0.5993493493493487 	300.0000154589994 	3.472571138143681e-05 	101325.018275066
0.6018518518518514 	300.000015296091 	3.450950273940001e-05 	101325.0180827499
0.6043543543543537 	300.000015109192 	3.422806695704524e-05 	101325.0178616394
0.6068568568568564 	300.0000149090175 	3.391385190777044e-05 	101325.0176250701
0.6093593593593587 	300.0000147095266 	3.3604871812839e-05 	101325.0173895763
0.6118618618618614 	300.0000145253542 	3.334163261690866e-05 	101325.0171717645
0.6143643643643638 	300.0000143676893 	3.315799930325452e-05 	101325.0169848673
0.6168668668668662 	300.0000142411731 	3.306952576957787e-05 	101325.0168355119
0.6193693693693688 	300.0000141445906 	3.307384790908905e-05 	101325.0167215089
0.6218718718718714 	300.0000140684584 	3.314361894911739e-05 	101325.0166315796
0.6243743743743737 	300.0000139971077 	3.323602470331817e-05 	101325.0165475756
0.6268768768768762 	300.0000139135853 	3.330275385118941e-05 	101325.0164489008
0.629379379379379 	300.0000138029166 	3.329857930853997e-05 	101325.0163178837
0.6318818818818812 	300.0000136564148 	3.319958592087834e-05 	101325.0161445571
0.6343843843843838 	300.0000134746631 	3.300401286037463e-05 	101325.0159294785
0.6368868868868864 	300.000013266656 	3.273641460547775e-05 	101325.0156836734
0.6393893893893888 	300.0000130481261 	3.244124427119653e-05 	101325.0154256464
0.6418918918918912 	300.0000128376268 	3.21665177531957e-05 	101325.0151763537
0.6443943943943939 	300.0000126492556 	3.195791044390646e-05 	101325.0149537457
0.6468968968968963 	300.0000124926031 	3.184117021548353e-05 	101325.0147683998
0.6493993993993988 	300.0000123681244 	3.181985573322469e-05 	101325.0146212222
0.6519019019019012 	300.0000122688471 	3.187651482870759e-05 	101325.0145037123
0.6544044044044038 	300.0000121812128 	3.197330586279938e-05 	101325.0144005926
0.6569069069069065 	300.0000120911803 	3.20697628083442e-05 	101325.014293995
0.6594094094094087 	300.0000119846259 	3.212654614938429e-05 	101325.0141679154
0.6619119119119113 	300.0000118524908 	3.211683801580499e-05 	101325.0140117816
0.664414414414414 	300.0000116923987 	3.203345364558911e-05 	101325.0138224238
0.6669169169169162 	300.0000115076525 	3.188287928258661e-05 	101325.0136041439
0.6694194194194188 	300.000011306821 	3.168998219091175e-05 	101325.0133670226
0.6719219219219214 	300.0000111009145 	3.1484384978283e-05 	101325.0131240381
0.674424424424424 	300.000010901237 	3.129585613798134e-05 	101325.0128878505
0.6769269269269262 	300.0000107150888 	3.114963395975298e-05 	101325.0126681164
0.679429429429429 	300.0000105477477 	3.105612853641257e-05 	101325.0124698682
0.6819319319319311 	300.0000103981526 	3.101831730304265e-05 	101325.0122931399
0.6844344344344341 	300.0000102633614 	3.102597443545933e-05 	101325.0121337397
0.686936936936936 	300.0000101373261 	3.106259624396246e-05 	101325.0119847861
0.6894394394394392 	300.0000100135798 	3.111085062819597e-05 	101325.0118384885
0.6919419419419413 	300.0000098859086 	3.115027823493846e-05 	101325.0116876563
0.694444444444444 	300.0000097493501 	3.116851465084875e-05 	101325.01152668
0.6969469469469463 	300.0000096016571 	3.115504179766403e-05 	101325.0113520188
0.6994494494494489 	300.0000094413981 	3.110575315999601e-05 	101325.011162385
0.7019519519519515 	300.0000092695344 	3.102440011153088e-05 	101325.0109588134
0.7044544544544538 	300.0000090883493 	3.091716990431353e-05 	101325.0107446633
0.7069569569569564 	300.0000089033026 	3.080001242334169e-05 	101325.0105254244
0.7094594594594589 	300.0000087193757 	3.068966774026774e-05 	101325.0103080841
0.7119619619619615 	300.0000085431021 	3.060357480205124e-05 	101325.0100998823
0.7144644644644638 	300.0000083798368 	3.055703852577273e-05 	101325.0099065782
0.7169669669669665 	300.0000082308677 	3.055373464531128e-05 	101325.0097306537
0.7194694694694688 	300.0000080954159 	3.059050934251829e-05 	101325.0095700976
0.7219719719719715 	300.0000079669595 	3.065165623264485e-05 	101325.0094183699
0.7244744744744737 	300.0000078379567 	3.071377547093516e-05 	101325.009265826
0.7269769769769764 	300.0000076996282 	3.075494614975135e-05 	101325.009102344
0.7294794794794791 	300.0000075456703 	3.075511625359924e-05 	101325.0089204124
0.7319819819819813 	300.0000073741274 	3.070928987779951e-05 	101325.0087177031
0.7344844844844839 	300.000007188161 	3.062597592131715e-05 	101325.0084981914
0.7369869869869864 	300.0000069963869 	3.052464960917801e-05 	101325.008271241
0.739489489489489 	300.0000068083443 	3.043532068619515e-05 	101325.0080488121
0.7419919919919914 	300.0000066331207 	3.038291040853968e-05 	101325.0078417059
0.7444944944944939 	300.0000064763863 	3.038379619166273e-05 	101325.0076561119
0.7469969969969963 	300.0000063372137 	3.043818973019458e-05 	101325.0074915638
0.7494994994994989 	300.0000062095364 	3.052786894122511e-05 	101325.0073409315
0.7520020020020015 	300.0000060840852 	3.062652208107291e-05 	101325.0071925048
0.7545045045045039 	300.0000059495619 	3.07031183951482e-05 	101325.007033576
0.7570070070070062 	300.00000579789 	3.073517254315493e-05 	101325.0068544734
0.7595095095095092 	300.0000056264766 	3.071541789438187e-05 	101325.0066518632
0.7620120120120112 	300.0000054392759 	3.065155785307368e-05 	101325.0064301976
0.7645145145145138 	300.0000052450486 	3.056947839671607e-05 	101325.0062006592
0.7670170170170165 	300.0000050563251 	3.050136501916228e-05 	101325.0059778404
0.7695195195195191 	300.0000048851 	3.047811664226529e-05 	101325.0057753192
0.7720220220220213 	300.0000047382793 	3.052183674871109e-05 	101325.0056015863
0.7745245245245239 	300.0000046163303 	3.063373765307185e-05 	101325.0054574653
0.7770270270270263 	300.0000045134888 	3.079920446504995e-05 	101325.0053356475
0.779529529529529 	300.0000044178415 	3.098643622563633e-05 	101325.005222401
0.7820320320320313 	300.0000043150186 	3.115596117652002e-05 	101325.0051009606
0.784534534534534 	300.0000041923038 	3.127404463773727e-05 	101325.0049557093
0.7870370370370364 	300.0000040402778 	3.131461417037907e-05 	101325.0047761319
0.7895395395395389 	300.0000038569793 	3.127282385829062e-05 	101325.0045595625
0.7920420420420413 	300.0000036474594 	3.116161530990265e-05 	101325.0043119403
0.794544544544544 	300.0000034227525 	3.100812002425407e-05 	101325.0040463703
0.7970470470470463 	300.0000031976272 	3.085331453098272e-05 	101325.0037800458
0.799549549549549 	300.0000029865303 	3.07360949998248e-05 	101325.003530503
0.8020520520520515 	300.0000028017383 	3.069017018829148e-05 	101325.0033121089
0.8045545545545539 	300.0000026502812 	3.073624156860021e-05 	101325.0031332979
0.8070570570570563 	300.0000025334183 	3.08750336867125e-05 	101325.0029949519
0.8095595595595589 	300.0000024447867 	3.109407461124326e-05 	101325.0028903216
0.8120620620620614 	300.0000023739093 	3.136441978719645e-05 	101325.0028065899
0.8145645645645638 	300.000002307381 	3.164876559005494e-05 	101325.0027276158
0.8170670670670666 	300.0000022307704 	3.191046529099218e-05 	101325.0026370568
0.8195695695695689 	300.0000021326001 	3.211463056589799e-05 	101325.0025211901
0.8220720720720714 	300.0000020054342 	3.224144487701462e-05 	101325.0023711821
0.8245745745745739 	300.0000018478569 	3.22841813110967e-05 	101325.0021846514
0.8270770770770765 	300.0000016630684 	3.225120588778821e-05 	101325.0019662215
0.8295795795795788 	300.0000014605618 	3.216937702117899e-05 	101325.0017268803
0.8320820820820815 	300.0000012539292 	3.207316919603442e-05 	101325.0014822397
0.834584584584584 	300.0000010574844 	3.200681592372969e-05 	101325.0012500707
0.8370870870870865 	300.0000008858352 	3.201177380884043e-05 	101325.001047398
0.8395895895895891 	300.0000007503211 	3.211762766914727e-05 	101325.0008872959
0.8420920920920915 	300.0000006561639 	3.234127821526825e-05 	101325.0007758115
0.844594594594594 	300.0000006004033 	3.267399146467734e-05 	101325.000709905
0.8470970970970964 	300.0000005728303 	3.308737462447042e-05 	101325.0006772385
0.8495995995995991 	300.0000005569283 	3.35354060463435e-05 	101325.0006581307
0.8521021021021015 	300.0000005324601 	3.39592392349174e-05 	101325.0006292809
0.8546046046046039 	300.00000048093 	3.430771282300184e-05 	101325.0005684606
0.8571071071071066 	300.0000003886478 	3.45406455046635e-05 	101325.0004592371
0.8596096096096089 	300.0000002493273 	3.46409636736522e-05 	101325.0002947562
0.8621121121121116 	300.000000067167 	3.462114951871974e-05 	101325.0000795945
0.8646146146146139 	299.9999998555147 	3.451518101812013e-05 	101324.9998290682
0.8671171171171166 	299.9999996328348 	3.437959849208986e-05 	101324.9995660186
0.8696196196196189 	299.9999994209816 	3.427508345048851e-05 	101324.9993157604
0.8721221221221216 	299.9999992391481 	3.425379235025955e-05 	101324.9991004911
0.874624624624624 	299.9999990989409 	3.435240071809292e-05 	101324.9989345857
0.8771271271271264 	299.9999990036057 	3.457779100588362e-05 	101324.9988218484
0.879629629629629 	299.9999989474373 	3.491540234399619e-05 	101324.998755368
0.8821321321321317 	299.9999989173202 	3.532955575711933e-05 	101324.9987199507
0.8846346346346339 	299.9999988970329 	3.577295673598621e-05 	101324.9986963696
0.8871371371371364 	299.9999988715325 	3.620322418268497e-05 	101324.9986661351
0.8896396396396391 	299.9999988285676 	3.658471806681249e-05 	101324.9986153362
0.8921421421421414 	299.9999987620362 	3.690045802428116e-05 	101324.9985366755
0.8946446446446441 	299.9999986715364 	3.714983108523777e-05 	101324.9984295562
0.8971471471471464 	299.999998560815 	3.73408327918018e-05 	101324.9982985145
0.8996496496496489 	299.9999984357014 	3.749085890989821e-05 	101324.9981506835
0.9021521521521517 	299.9999983024773 	3.76163690073622e-05 	101324.9979932408
0.9046546546546541 	299.9999981659877 	3.773173865102275e-05 	101324.9978317512
0.9071571571571564 	299.99999802881 	3.784567798436975e-05 	101324.9976698526
0.9096596596596589 	299.9999978936632 	3.796208173517605e-05 	101324.9975101201
0.9121621621621616 	299.9999977631727 	3.809141196712676e-05 	101324.9973555238
0.9146646646646639 	299.9999976404874 	3.824486987103989e-05 	101324.9972106574
0.9171671671671666 	299.9999975314233 	3.843676155911345e-05 	101324.9970819525
0.9196696696696689 	299.999997442494 	3.868775184630293e-05 	101324.9969765227
0.9221721721721714 	299.9999973777109 	3.901398928882877e-05 	101324.9968999517
0.9246746746746741 	299.9999973383722 	3.941791095508067e-05 	101324.9968537978
0.9271771771771765 	299.9999973214651 	3.988922945390265e-05 	101324.9968337202
0.9296796796796791 	299.9999973176816 	4.040352552445345e-05 	101324.9968290832
0.9321821821821816 	299.9999973136073 	4.092242400201735e-05 	101324.9968244176
0.9346846846846838 	299.9999972949557 	4.140077365727669e-05 	101324.9968025264
0.9371871871871866 	299.9999972495141 	4.180328270554371e-05 	101324.9967485324
0.9396896896896891 	299.9999971694136 	4.210867690473769e-05 	101324.9966538994
0.9421921921921914 	299.9999970555164 	4.231614583303786e-05 	101324.9965193383
0.9446946946946939 	299.9999969168195 	4.245199007782331e-05 	101324.9963555587
0.9471971971971965 	299.999996769266 	4.256133262329592e-05 	101324.9961813316
0.9496996996996991 	299.9999966322808 	4.270011799713878e-05 	101324.9960191774
0.9522022022022016 	299.9999965230077 	4.291715996567612e-05 	101324.9958897964
0.9547047047047038 	299.999996452846 	4.324592752503108e-05 	101324.995806754
0.9572072072072064 	299.9999964241445 	4.369469960893158e-05 	101324.9957728583
0.9597097097097093 	299.9999964296589 	4.423894226976815e-05 	101324.995779327
0.9622122122122114 	299.9999964540557 	4.483893204453903e-05 	101324.9958081487
0.964714714714714 	299.9999964784201 	4.544202647932847e-05 	101324.9958369992
0.9672172172172167 	299.9999964853332 	4.599623175124272e-05 	101324.9958452015
0.969719719719719 	299.9999964632761 	4.646843579860021e-05 	101324.9958189896
0.9722222222222214 	299.9999964088815 	4.684783398900307e-05 	101324.9957547063
0.9747247247247239 	299.9999963279819 	4.714912538352989e-05 	101324.995659106
0.9772272272272267 	299.9999962330269 	4.739895867373295e-05 	101324.9955466959
0.9797297297297292 	299.9999961384187 	4.764198163353992e-05 	101324.9954349788
0.9822322322322313 	299.9999960574129 	4.791643070781319e-05 	101324.9953392055
0.9847347347347344 	299.9999959974801 	4.824068995974744e-05 	101324.995268349
0.9872372372372363 	299.9999959592978 	4.861959651017356e-05 	101324.9952234483
0.9897397397397389 	299.9999959384133 	4.903878033366279e-05 	101324.9951986514
0.9922422422422417 	299.9999959262926 	4.947653140803407e-05 	101324.9951843742
0.9947447447447441 	299.9999959153969 	4.991023024753369e-05 	101324.9951713552
0.9972472472472468 	299.9999959008107 	5.032299585737069e-05 	101324.9951540895
0.999749749749749 	299.9999958824964 	5.071221606268747e-05 	101324.9951324842
1.002252252252252 	299.9999958646112 	5.109435332048047e-05 	101324.995111307
1.004754754754754 	299.9999958531963 	5.148799620372246e-05 	101324.9950977491
1.007257257257256 	299.9999958532789 	5.190655374313442e-05 	101324.9950980426
1.009759759759759 	299.9999958669529 	5.236104595157545e-05 	101324.9951142999
1.012262262262261 	299.9999958909389 	5.284566316870541e-05 	101324.9951426714
1.014764764764764 	299.9999959169202 	5.33376987987388e-05 	101324.9951735642
1.017267267267267 	299.9999959341716 	5.381125973005563e-05 	101324.9951940497
1.019769769769769 	299.9999959325103 	5.423824481409635e-05 	101324.9951918622
1.022272272272272 	299.9999959054803 	5.460408207218629e-05 	101324.9951597936
1.024774774774774 	299.9999958541446 	5.491488301395939e-05 	101324.9950990355
1.027277277277277 	299.9999957874024 	5.519433265447082e-05 	101324.9950201623
1.029779779779779 	299.9999957206849 	5.548515306473453e-05 	101324.994941138
1.032282282282282 	299.9999956713065 	5.583389991726031e-05 	101324.9948827684
1.034784784784784 	299.9999956543865 	5.627955777176074e-05 	101324.9948628458
1.037287287287286 	299.9999956777142 	5.684102908536223e-05 	101324.9948905917
1.039789789789789 	299.9999957390514 	5.750779697874652e-05 	101324.9949630666
1.042292292292291 	299.9999958252717 	5.824061542617271e-05 	101324.9950648339
1.044794794794794 	299.9999959154395 	5.897830964535211e-05 	101324.995171318
1.047297297297296 	299.9999959864062 	5.965481486949997e-05 	101324.9952551522
1.049799799799799 	299.9999960187723 	6.021586138401675e-05 	101324.9952937464
1.052302302302302 	299.9999960035257 	6.063437690289632e-05 	101324.9952759607
1.054804804804804 	299.9999959441354 	6.092077127067141e-05 	101324.9952058992
1.057307307307306 	299.9999958566119 	6.112096505965521e-05 	101324.9951024697
1.059809809809809 	299.9999957656154 	6.130559043710047e-05 	101324.9949946592
1.062312312312312 	299.9999956972457 	6.155102835538437e-05 	101324.9949138473
1.064814814814814 	299.999995673154 	6.191882401177457e-05 	101324.9948853739
1.067317317317317 	299.999995703714 	6.243983682609951e-05 	101324.9949216204
1.069819819819819 	299.9999957856165 	6.310479022972305e-05 	101324.9950184388
1.072322322322321 	299.9999959023912 	6.386667750578296e-05 	101324.995156109
1.074824824824824 	299.9999960282898 	6.465503319066828e-05 	101324.9953047778
1.077327327327327 	299.9999961367175 	6.539255893931854e-05 	101324.995432808
1.079829829829829 	299.9999962067305 	6.601842894983484e-05 	101324.995515511
1.082332332332332 	299.9999962286561 	6.65046484626643e-05 	101324.9955417139
1.084834834834834 	299.9999962069361 	6.685993970926813e-05 	101324.9955162388
1.087337337337337 	299.9999961570659 	6.712591936464335e-05 	101324.9954574916
1.089839839839839 	299.999996100733 	6.736176232343308e-05 	101324.9953909824
1.092342342342342 	299.9999960587176 	6.762521451210467e-05 	101324.9953411142
1.094844844844844 	299.9999960443722 	6.795582976815276e-05 	101324.9953241564
1.097347347347347 	299.9999960616238 	6.836671688822622e-05 	101324.9953446937
1.099849849849849 	299.9999961053886 	6.884601260824424e-05 	101324.9953964704
1.102352352352352 	299.9999961651868 	6.93671869431043e-05 	101324.9954669547
1.104854854854854 	299.9999962301189 	6.990309583575094e-05 	101324.9955435602
1.107357357357357 	299.999996293691 	7.043782639370817e-05 	101324.9956188144
1.109859859859859 	299.999996355802 	7.097079945570989e-05 	101324.9956922969
1.112362362362362 	299.9999964207343 	7.151243688601927e-05 	101324.9957686787
1.114864864864865 	299.9999964920431 	7.20729720895651e-05 	101324.9958529652
1.117367367367367 	299.9999965699659 	7.26509703991501e-05 	101324.9959453639
1.119869869869869 	299.9999966485065 	7.322682375786763e-05 	101324.9960384023
1.122372372372372 	299.9999967159788 	7.376559927761172e-05 	101324.9961179376
1.124874874874874 	299.9999967583091 	7.422813880305439e-05 	101324.9961679894
1.127377377377377 	299.99999676645 	7.458797555858943e-05 	101324.9961775995
1.129879879879879 	299.9999967407101 	7.484467408740463e-05 	101324.9961468953
1.132382382382382 	299.9999966923777 	7.503114157982128e-05 	101324.9960896366
1.134884884884884 	299.9999966424289 	7.520628353755094e-05 	101324.9960307698
1.137387387387387 	299.9999966160255 	7.54367320169705e-05 	101324.99599955
1.139889889889889 	299.9999966335603 	7.578407449905842e-05 	101324.9960206063
1.142392392392392 	299.999996705799 	7.628005651946338e-05 	101324.9961060667
1.144894894894894 	299.9999968291079 	7.691380758797641e-05 	101324.9962514327
1.147397397397397 	299.9999969856993 	7.763695591328238e-05 	101324.99643665
1.149899899899899 	299.9999971506506 	7.838270079837343e-05 	101324.9966319964
1.152402402402402 	299.9999972982826 	7.907706912023101e-05 	101324.9968065882
1.154904904904904 	299.9999974084089 	7.965995442390505e-05 	101324.9969365924
1.157407407407407 	299.9999974711129 	8.01045431155476e-05 	101324.9970107549
1.159909909909909 	299.999997488895 	8.041351827039721e-05 	101324.9970319888
1.162412412412412 	299.99999747456 	8.061925956931015e-05 	101324.9970150869
1.164914914914914 	299.9999974465799 	8.077304541117877e-05 	101324.9969817974
1.167417417417417 	299.9999974240426 	8.092812447443954e-05 	101324.9969550865
1.169919919919919 	299.9999974236478 	8.113153052146025e-05 	101324.9969542761
1.172422422422422 	299.9999974557232 	8.141735874361294e-05 	101324.996991955
1.174924924924925 	299.9999975238106 	8.179897438877169e-05 	101324.9970727188
1.177427427427427 	299.9999976256997 	8.227177478664688e-05 	101324.9971933294
1.179929929929929 	299.9999977532478 	8.281453529343662e-05 	101324.9973438111
1.182432432432432 	299.9999978932657 	8.339266582090867e-05 	101324.9975091853
1.184934934934934 	299.9999980305402 	8.396378208809185e-05 	101324.9976717867
1.187437437437437 	299.9999981507357 	8.448405504860475e-05 	101324.9978141477
1.189939939939939 	299.9999982421052 	8.491769297966127e-05 	101324.9979222575
1.192442442442442 	299.9999982981658 	8.524400870964479e-05 	101324.9979887152
1.194944944944944 	299.9999983204021 	8.54634129168687e-05 	101324.9980149871
1.197447447447447 	299.9999983181084 	8.559912570223106e-05 	101324.9980119125
1.199949949949949 	299.9999983064168 	8.569384395055844e-05 	101324.9979978965
1.202452452452452 	299.9999983036586 	8.580155830701084e-05 	101324.9979949051
1.204954954954955 	299.9999983275755 	8.597226234876467e-05 	101324.998023178
1.207457457457457 	299.9999983893848 	8.623949852925957e-05 	101324.9980960258
1.20995995995996 	299.9999984909603 	8.66139840608936e-05 	101324.9982161041
1.212462462462462 	299.9999986247738 	8.707677983221994e-05 	101324.9983742667
1.214964964964964 	299.9999987746392 	8.758200495804415e-05 	101324.9985514941
1.217467467467467 	299.9999989200685 	8.807195769516805e-05 	101324.9987234709
1.219969969969969 	299.9999990409009 	8.848647653154191e-05 	101324.9988665242
1.222472472472472 	299.9999991230321 	8.877963107097766e-05 	101324.9989633964
1.224974974974975 	299.9999991604853 	8.893312287472458e-05 	101324.9990074889
1.227477477477477 	299.9999991577247 	8.895761280569621e-05 	101324.9990045347
1.229979979979979 	299.9999991296025 	8.889234850481485e-05 	101324.99897132
1.232482482482482 	299.9999990961136 	8.879599601853202e-05 	101324.9989318435
1.234984984984984 	299.9999990792718 	8.873384934162212e-05 	101324.9989118536
1.237487487487487 	299.9999990974096 	8.875999809906841e-05 	101324.9989330444
1.239989989989989 	299.9999991611014 	8.891802105391553e-05 	101324.9990082476
1.242492492492492 	299.9999992714252 	8.9201389634428e-05 	101324.9991385407
1.244994994994994 	299.9999993978602 	8.956621210430999e-05 	101324.999312868
1.247497497497497 	299.9999945711278 	9.002573374135583e-05 	101324.9995104265
1.249999999999999 	299.9989405665587 	9.050301100945107e-05 	101324.9997015599
