-1.25 	349.9013364214136 	0.003280083239665004 	101325.0025132741
-1.247497497497497 	300.0879413959288 	0.00317096375990353 	101325.0042888613
-1.244994994994995 	300.0000948704242 	0.002944318044075345 	101325.0022996518
-1.242492492492492 	300.0000041948583 	0.002729244365668233 	101325.0049315649
-1.23998998998999 	300.0000019374168 	0.002520040099934325 	101325.002248049
-1.237487487487487 	300.0000043842924 	0.002319735667301496 	101325.0052268266
-1.234984984984985 	300.0000019877801 	0.002127279931776755 	101325.0023169564
-1.232482482482482 	300.0000045174094 	0.001945339568505991 	101325.0053743708
-1.22997997997998 	300.0000022321854 	0.001772328784354123 	101325.0026128403
-1.227477477477477 	300.0000046942886 	0.001610614888659303 	101325.0055751656
-1.224974974974975 	300.0000026318813 	0.001458041329682208 	101325.0030910728
-1.222472472472472 	300.0000048315281 	0.001317156972383976 	101325.0057313352
-1.21996996996997 	300.000002987369 	0.001184946977980134 	101325.0035167618
-1.217467467467467 	300.0000048505806 	0.001064319167076866 	101325.0057490098
-1.214964964964965 	300.0000032614226 	0.0009515712676108624 	101325.0038436643
-1.212462462462462 	300.0000048107603 	0.0008501075510322694 	101325.0056980591
-1.20995995995996 	300.0000035279904 	0.0007553257653864632 	101325.0041618024
-1.207457457457457 	300.000004850922 	0.0006711852005147174 	101325.0057428292
-1.204954954954955 	300.000003929311 	0.000592653873626379 	101325.0046384217
-1.202452452452452 	300.0000050075827 	0.0005238730550193352 	101325.0059251093
-1.19994994994995 	300.0000043046964 	0.0004595413485452951 	101325.0050838278
-1.197447447447447 	300.0000051086837 	0.0004041136677578331 	101325.0060447642
-1.194944944944945 	300.0000045343807 	0.0003521241153409713 	101325.0053567809
-1.192442442442442 	300.0000051262507 	0.0003084269133516573 	101325.0060638877
-1.18993993993994 	300.0000046471736 	0.0002666681753093624 	101325.0054908733
-1.187437437437437 	300.0000051989359 	0.000232967103934388 	101325.0061487069
-1.184934934934935 	300.0000049590839 	0.0001987123363875884 	101325.0058596396
-1.182432432432432 	300.0000054781359 	0.0001709562180759133 	101325.0064775574
-1.17992992992993 	300.0000051003781 	0.0001413924589275027 	101325.0060272179
-1.177427427427427 	300.0000057260016 	0.0001177108296021964 	101325.0067705253
-1.174924924924925 	300.0000051755244 	9.221815997397521e-05 	101325.0061170416
-1.172422422422422 	300.0000059570237 	7.300637387985713e-05 	101325.0070434298
-1.16991991991992 	300.0000052828476 	5.192904080590356e-05 	101325.0062444589
-1.167417417417417 	300.0000061116901 	3.805050595048651e-05 	101325.0072256388
-1.164914914914915 	300.0000054642638 	2.207937297635246e-05 	101325.0064590653
-1.162412412412412 	300.0000061443673 	1.414796642559748e-05 	101325.0072637258
-1.15990990990991 	300.0000057146341 	1.990823963315495e-05 	101325.0067553566
-1.157407407407407 	300.0000060919063 	1.64205434741575e-05 	101325.007201601
-1.154904904904904 	300.0000061050877 	1.777553856690644e-05 	101325.007217132
-1.152402402402403 	300.000006164642 	1.786062278163311e-05 	101325.0072875729
-1.1498998998999 	300.0000062267471 	1.804424048571196e-05 	101325.0073610246
-1.147397397397397 	300.0000062999924 	1.825455620265167e-05 	101325.0074476613
-1.144894894894895 	300.000006379091 	1.847855844650039e-05 	101325.0075412764
-1.142392392392392 	300.0000064503024 	1.868150982835457e-05 	101325.0076255722
-1.13988988988989 	300.0000065050131 	1.884198175807535e-05 	101325.0076902065
-1.137387387387387 	300.0000065493697 	1.897584415462163e-05 	101325.0077424341
-1.134884884884885 	300.0000065989278 	1.912207408594027e-05 	101325.0078008097
-1.132382382382382 	300.0000066623923 	1.930371365675579e-05 	101325.0078758022
-1.12987987987988 	300.0000067344835 	1.950796104102521e-05 	101325.0079613026
-1.127377377377377 	300.0000068017997 	1.970035690435155e-05 	101325.0080412808
-1.124874874874875 	300.000006855812 	1.986013842966067e-05 	101325.0081052748
-1.122372372372372 	300.0000069042694 	2.00054891861734e-05 	101325.0081622256
-1.11986986986987 	300.0000069615326 	2.01705754162954e-05 	101325.0082293224
-1.117367367367367 	300.0000070292235 	2.036127321696507e-05 	101325.0083089762
-1.114864864864865 	300.000007095445 	2.054805975617981e-05 	101325.0083875144
-1.112362362362362 	300.0000071453193 	2.069164580202912e-05 	101325.0084472594
-1.10985985985986 	300.0000071727076 	2.077824004106373e-05 	101325.0084804246
-1.107357357357357 	300.0000071923715 	2.084476144386606e-05 	101325.0085038075
-1.104854854854855 	300.0000072274798 	2.09445830990748e-05 	101325.0085446484
-1.102352352352353 	300.0000072772216 	2.107704123570227e-05 	101325.0086023932
-1.09984984984985 	300.000007319402 	2.119525758763936e-05 	101325.0086513823
-1.097347347347347 	300.0000073493482 	2.129015490434738e-05 	101325.0086865583
-1.094844844844845 	300.0000073881978 	2.140822468511013e-05 	101325.0087330209
-1.092342342342342 	300.0000074464046 	2.157069724903487e-05 	101325.0088027975
-1.08983983983984 	300.0000075029724 	2.172569944993216e-05 	101325.0088705365
-1.087337337337337 	300.0000075305854 	2.180622822000825e-05 	101325.0089034954
-1.084834834834835 	300.0000075288726 	2.18110234706406e-05 	101325.0089011646
-1.082332332332332 	300.0000075246678 	2.180668369648925e-05 	101325.008895518
-1.07982982982983 	300.0000075422572 	2.18549472065855e-05 	101325.008915637
-1.077327327327327 	300.0000075791581 	2.195257511109171e-05 	101325.0089589097
-1.074824824824825 	300.0000076141985 	2.204940555096383e-05 	101325.0090003614
-1.072322322322323 	300.0000076354219 	2.211527132370598e-05 	101325.0090256741
-1.06981981981982 	300.0000076525351 	2.217169701627468e-05 	101325.009046143
-1.067317317317317 	300.000007681477 	2.225652763249609e-05 	101325.0090805768
-1.064814814814815 	300.0000077234146 	2.237161247673145e-05 	101325.0091302825
-1.062312312312312 	300.0000077608564 	2.247173370181681e-05 	101325.0091745826
-1.05980980980981 	300.0000077719578 	2.250157109678606e-05 	101325.0091877195
-1.057307307307307 	300.0000077512936 	2.245046992905436e-05 	101325.0091633059
-1.054804804804805 	300.0000077224348 	2.23822417750289e-05 	101325.0091291583
-1.052302302302302 	300.0000077253681 	2.239785648503956e-05 	101325.0091325727
-1.0497997997998 	300.0000077774906 	2.253505952183371e-05 	101325.0091941764
-1.047297297297297 	300.0000078419523 	2.269455762651158e-05 	101325.0092704519
-1.044794794794795 	300.0000078484337 	2.269965831601812e-05 	101325.0092782869
-1.042292292292292 	300.0000077631231 	2.247289175051019e-05 	101325.0091775719
-1.03978978978979 	300.0000076401283 	2.215865514075669e-05 	101325.0090321687
-1.037287287287287 	300.0000075881308 	2.20334394024422e-05 	101325.0089705497
-1.034784784784785 	300.0000076708241 	2.225330937620781e-05 	101325.0090681531
-1.032282282282283 	300.000007835192 	2.267789746654689e-05 	101325.009262473
-1.02977977977978 	300.0000079470897 	2.296328187738441e-05 	101325.0093949428
-1.027277277277277 	300.0000079075826 	2.285870175985216e-05 	101325.0093484829
-1.024774774774775 	300.0000077444366 	2.243754499458631e-05 	101325.0091556814
-1.022272272272272 	300.0000075923925 	2.204651323890755e-05 	101325.0089757859
-1.01976976976977 	300.0000075791987 	2.201394316330509e-05 	101325.0089599618
-1.017267267267267 	300.0000077172655 	2.236975148956171e-05 	101325.0091230779
-1.014764764764765 	300.0000078897212 	2.280887365622219e-05 	101325.0093270475
-1.012262262262262 	300.0000079389721 	2.29186923062727e-05 	101325.0093855277
-1.00975975975976 	300.0000077828176 	2.248604712154679e-05 	101325.0092011841
-1.007257257257257 	300.0000074776315 	2.166322890477424e-05 	101325.008840468
-1.004754754754755 	300.0000071871037 	2.088838160956261e-05 	101325.0084967993
-1.002252252252252 	300.0000070857395 	2.06327930952787e-05 	101325.0083765921
-0.9997497497497498 	300.0000072655288 	2.114177203029586e-05 	101325.0085887506
-0.9972472472472473 	300.0000076844588 	2.229729166683639e-05 	101325.0090837909
-0.9947447447447449 	300.0000081824684 	2.366471565599427e-05 	101325.0096726248
-0.9922422422422421 	300.000008557558 	2.468693457891923e-05 	101325.0101163948
-0.9897397397397399 	300.0000086425688 	2.489496320412735e-05 	101325.0102174171
-0.9872372372372376 	300.000008349168 	2.403922940828028e-05 	101325.0098711372
-0.9847347347347346 	300.0000076816835 	2.213042519266246e-05 	101325.009082554
-0.9822322322322323 	300.0000067251575 	1.940438418728945e-05 	101325.0079520748
-0.9797297297297296 	300.0000056122557 	1.622939355266286e-05 	101325.0066365055
-0.9772272272272275 	300.0000044804381 	1.29891455739716e-05 	101325.0052983915
-0.9747247247247248 	300.0000034362127 	9.986679880680499e-06 	101325.0040637126
-0.9722222222222224 	300.0000025412135 	7.403116706814144e-06 	101325.0030054329
-0.9697197197197196 	300.0000018177436 	5.307512434414593e-06 	101325.0021499039
-0.9672172172172175 	300.00000126078 	3.689288986006164e-06 	101325.0014912268
-0.9647147147147147 	300.0000008497065 	2.491623181175797e-06 	101325.0010050511
-0.9622122122122124 	300.0000005574268 	1.637892023135385e-06 	101325.0006593612
-0.9597097097097099 	300.0000003565036 	1.049589394998334e-06 	101325.0004217101
-0.9572072072072073 	300.0000002225644 	6.565482810350308e-07 	101325.0002632929
-0.9547047047047047 	300.000000135815 	4.013646139437361e-07 	101325.0001606603
-0.9522022022022023 	300.0000000810718 	2.400458431685055e-07 	101325.0000959125
-0.9496996996996998 	300.0000000473919 	1.405838486838797e-07 	101325.0000560716
-0.9471971971971973 	300.0000000271583 	8.069390149771224e-08 	101325.0000321274
-0.9446946946946947 	300.0000000152395 	4.542848734826354e-08 	101325.000018055
-0.9421921921921923 	300.0000000084083 	2.51028746185115e-08 	101325.0000099584
-0.93968968968969 	300.0000000045623 	1.362371713781412e-08 	101325.0000053942
-0.9371871871871872 	300.0000000024245 	7.266756204047036e-09 	101325.0000028709
-0.9346846846846848 	300.0000000012497 	3.811708061908753e-09 	101325.0000015019
-0.9321821821821823 	300.0000000006421 	1.966570896609926e-09 	101325.0000007722
-0.9296796796796799 	300.0000000003342 	9.993630157180671e-10 	101325.0000003902
-0.9271771771771771 	300.0000000001612 	4.991929790224805e-10 	101325.0000001933
-0.9246746746746748 	300.0000000000697 	2.465697213913135e-10 	101325.0000000933
-0.9221721721721724 	300.0000000000412 	1.188494264088296e-10 	101325.0000000435
-0.9196696696696698 	300.000000000015 	5.773811344794649e-11 	101325.0000000188
-0.9171671671671672 	299.999999999986 	2.703172171130894e-11 	101325.000000007
-0.9146646646646649 	299.9999999999986 	1.268537279225902e-11 	101325.0000000014
-0.9121621621621623 	300.0000000000097 	6.51444296368792e-12 	101324.999999999
-0.9096596596596597 	299.9999999999825 	3.550960767967523e-12 	101324.999999998
-0.9071571571571573 	299.9999999999923 	2.394364188252417e-12 	101324.9999999974
-0.9046546546546547 	300.0000000000064 	1.452109677460018e-12 	101324.999999997
-0.9021521521521524 	299.9999999999854 	1.813896734864768e-12 	101324.999999997
-0.8996496496496498 	299.9999999999928 	1.279478134969973e-12 	101324.9999999969
-0.8971471471471473 	300.0000000000032 	1.252804442230927e-12 	101324.999999997
-0.894644644644645 	300.0000000000033 	1.64427074051019e-12 	101324.9999999971
-0.892142142142142 	300.0000000000001 	6.213848774391318e-13 	101324.9999999971
-0.8896396396396397 	300.0000000000062 	1.70074279201313e-12 	101324.9999999971
-0.8871371371371374 	299.9999999999814 	1.637760937008115e-12 	101324.999999997
-0.8846346346346349 	299.9999999999714 	2.545734648237041e-12 	101324.999999997
-0.8821321321321324 	299.9999999999732 	2.782178201800669e-12 	101324.9999999969
-0.8796296296296297 	299.9999999999777 	3.030402107620446e-12 	101324.9999999967
-0.8771271271271271 	299.9999999999793 	3.031047255148199e-12 	101324.9999999967
-0.8746246246246248 	299.9999999999944 	2.650277820827091e-12 	101324.9999999967
-0.8721221221221224 	300.0000000000011 	1.996006845949463e-12 	101324.9999999968
-0.8696196196196196 	299.9999999999882 	2.17588996122011e-12 	101324.9999999968
-0.8671171171171175 	299.999999999996 	1.453478174430634e-12 	101324.9999999969
-0.8646146146146148 	299.9999999999756 	1.237587856843346e-12 	101324.9999999969
-0.8621121121121121 	299.9999999999885 	8.501290689093723e-13 	101324.999999997
-0.8596096096096097 	300.0000000000078 	4.770182470315121e-13 	101324.9999999971
-0.857107107107107 	299.9999999999852 	3.506935420408927e-13 	101324.9999999972
-0.8546046046046049 	299.9999999999931 	3.90551350527043e-13 	101324.9999999971
-0.8521021021021022 	300.0000000000021 	1.768634788108972e-13 	101324.9999999971
-0.8495995995995997 	299.999999999998 	9.145235260976522e-13 	101324.9999999972
-0.8470970970970974 	299.9999999999718 	7.192374362538802e-13 	101324.9999999971
-0.8445945945945946 	299.9999999999836 	1.263440134526073e-12 	101324.999999997
-0.8420920920920922 	300.0000000000043 	8.158440674983158e-13 	101324.9999999971
-0.8395895895895897 	299.9999999999985 	2.719407469281149e-12 	101324.9999999972
-0.8370870870870872 	299.9999999999998 	1.546786220243192e-12 	101324.9999999974
-0.8345845845845846 	300.0000000000028 	1.890444590887024e-12 	101324.9999999975
-0.8320820820820823 	299.9999999999786 	1.113999425416233e-12 	101324.9999999974
-0.8295795795795798 	299.9999999999652 	8.067078175350655e-13 	101324.9999999973
-0.8270770770770772 	299.9999999999787 	1.141424034893877e-12 	101324.9999999972
-0.8245745745745746 	299.9999999999676 	9.042277554219459e-13 	101324.9999999972
-0.8220720720720721 	299.9999999999804 	7.018765816309435e-13 	101324.9999999973
-0.8195695695695699 	299.9999999999959 	8.716465720239891e-13 	101324.9999999972
-0.817067067067067 	299.9999999999787 	1.577447247774363e-12 	101324.9999999972
-0.8145645645645651 	299.9999999999672 	1.53353467626619e-12 	101324.9999999973
-0.8120620620620621 	299.9999999999918 	1.174608324699316e-12 	101324.9999999972
-0.8095595595595597 	300.0000000000009 	6.777959306732041e-13 	101324.9999999971
-0.8070570570570572 	299.9999999999715 	3.076983593387627e-13 	101324.999999997
-0.8045545545545546 	299.9999999999718 	2.459557987893554e-13 	101324.9999999969
-0.8020520520520523 	299.9999999999966 	1.751793518936175e-12 	101324.9999999967
-0.7995495495495494 	300.0000000000102 	2.21998923027023e-12 	101324.9999999966
-0.7970470470470474 	300.0000000000001 	2.766565572270204e-12 	101324.9999999965
-0.7945445445445446 	300.0000000000021 	2.83227615984334e-12 	101324.9999999964
-0.7920420420420423 	300.0000000000057 	3.199682121773894e-12 	101324.9999999961
-0.7895395395395397 	300.0000000000051 	3.305510168270785e-12 	101324.999999996
-0.7870370370370371 	300 	2.311674582800071e-12 	101324.999999996
-0.7845345345345348 	299.9999999999858 	3.026826470700974e-12 	101324.999999996
-0.7820320320320323 	299.9999999999866 	2.63563366516667e-12 	101324.9999999962
-0.7795295295295296 	299.9999999999646 	3.110260903708545e-12 	101324.9999999965
-0.7770270270270272 	299.9999999999591 	3.242299964634909e-12 	101324.9999999965
-0.7745245245245247 	299.9999999999553 	2.408394320710057e-12 	101324.9999999965
-0.7720220220220222 	299.9999999999731 	3.061502633953923e-12 	101324.9999999966
-0.7695195195195199 	299.9999999999757 	2.158530874325619e-12 	101324.9999999966
-0.767017017017017 	299.9999999999906 	3.190725102613301e-12 	101324.9999999965
-0.7645145145145147 	300.0000000000052 	3.017465851131185e-12 	101324.9999999965
-0.7620120120120122 	300.0000000000078 	3.404110839733263e-12 	101324.9999999964
-0.7595095095095097 	299.9999999999669 	4.361594760422015e-12 	101324.9999999966
-0.7570070070070072 	299.9999999999703 	4.858958921631849e-12 	101324.9999999967
-0.7545045045045048 	299.9999999999951 	4.68504131681392e-12 	101324.9999999967
-0.7520020020020022 	299.9999999999818 	4.317102087130885e-12 	101324.9999999966
-0.7494994994994997 	299.9999999999796 	3.146463709370649e-12 	101324.9999999963
-0.7469969969969972 	299.9999999999971 	2.79055991763147e-12 	101324.9999999961
-0.7444944944944945 	299.9999999999923 	1.57980378098575e-12 	101324.9999999959
-0.7419919919919924 	299.9999999999948 	1.346819138740736e-12 	101324.9999999958
-0.7394894894894897 	299.9999999999791 	6.284914095248982e-13 	101324.9999999957
-0.7369869869869872 	299.9999999999955 	7.27746398374579e-13 	101324.9999999958
-0.7344844844844846 	299.999999999982 	1.795768666860332e-12 	101324.9999999959
-0.7319819819819822 	299.9999999999997 	8.150188497531954e-13 	101324.9999999963
-0.7294794794794797 	299.9999999999945 	2.222278426820943e-12 	101324.9999999966
-0.7269769769769773 	300.0000000000046 	8.888198182366217e-13 	101324.9999999965
-0.7244744744744747 	300.0000000000097 	1.116371338584148e-12 	101324.9999999966
-0.721971971971972 	299.9999999999786 	9.461904062627612e-13 	101324.9999999967
-0.7194694694694695 	299.9999999999907 	1.366986777331146e-12 	101324.9999999967
-0.7169669669669674 	299.9999999999686 	1.398946972249107e-12 	101324.9999999966
-0.7144644644644647 	299.9999999999872 	1.40909298317727e-12 	101324.9999999965
-0.711961961961962 	300.0000000000036 	1.312055168740733e-12 	101324.9999999966
-0.7094594594594597 	300.0000000000049 	6.0634104465122e-13 	101324.9999999968
-0.7069569569569573 	300.0000000000115 	1.293794056784024e-12 	101324.9999999968
-0.7044544544544545 	300.0000000000145 	5.645773644657939e-13 	101324.9999999967
-0.7019519519519523 	300.0000000000048 	5.403912650671684e-13 	101324.9999999965
-0.6994494494494495 	299.9999999999666 	8.122875824392778e-13 	101324.9999999963
-0.6969469469469471 	299.9999999999751 	1.598633062784277e-12 	101324.9999999963
-0.6944444444444446 	299.9999999999852 	1.586495883501528e-12 	101324.9999999964
-0.6919419419419421 	300.0000000000142 	1.691766316040855e-12 	101324.9999999966
-0.6894394394394396 	299.9999999999966 	1.340042924872126e-12 	101324.9999999965
-0.6869369369369374 	300.0000000000041 	1.299879549787194e-12 	101324.9999999964
-0.6844344344344344 	300.0000000000099 	5.514368356015491e-13 	101324.9999999964
-0.6819319319319321 	299.9999999999811 	3.73192660230799e-13 	101324.9999999963
-0.6794294294294296 	299.9999999999724 	2.967256852900843e-13 	101324.9999999962
-0.6769269269269272 	299.9999999999587 	3.538186594204353e-13 	101324.9999999962
-0.6744244244244245 	299.9999999999824 	2.011947434147014e-13 	101324.9999999963
-0.6719219219219222 	299.999999999981 	1.387567113810043e-13 	101324.9999999963
-0.6694194194194195 	299.9999999999994 	8.24355725432222e-13 	101324.9999999964
-0.6669169169169172 	300.0000000000078 	7.134757342305387e-13 	101324.9999999966
-0.6644144144144146 	299.9999999999829 	1.347746090084704e-12 	101324.9999999967
-0.661911911911912 	299.9999999999844 	1.44181864308806e-12 	101324.9999999969
-0.6594094094094097 	299.9999999999891 	2.007258056572971e-12 	101324.9999999969
-0.656906906906907 	299.9999999999702 	1.529584991370462e-12 	101324.9999999969
-0.6544044044044046 	299.9999999999749 	2.522064766297765e-12 	101324.9999999967
-0.6519019019019021 	299.9999999999969 	1.395895112929361e-12 	101324.9999999966
-0.6493993993993996 	300.0000000000128 	2.434866685757918e-12 	101324.9999999964
-0.6468968968968971 	300.0000000000161 	1.676832113366694e-12 	101324.9999999965
-0.6443943943943946 	299.9999999999985 	2.031572600642577e-12 	101324.9999999964
-0.6418918918918921 	299.9999999999965 	1.183206908930916e-12 	101324.9999999963
-0.6393893893893897 	299.9999999999979 	1.230522371438435e-12 	101324.9999999964
-0.6368868868868871 	299.999999999988 	7.329313475181514e-13 	101324.9999999965
-0.6343843843843846 	299.9999999999974 	8.699486475656929e-13 	101324.9999999966
-0.6318818818818821 	299.9999999999816 	6.906668050477407e-13 	101324.9999999967
-0.6293793793793795 	300.0000000000026 	7.638225896445072e-13 	101324.9999999966
-0.6268768768768773 	300.0000000000092 	1.074901201660976e-12 	101324.9999999967
-0.6243743743743745 	299.9999999999874 	5.026407931434547e-13 	101324.9999999968
-0.6218718718718721 	300.0000000000009 	1.70926313091451e-12 	101324.9999999969
-0.6193693693693696 	299.9999999999712 	1.141492936860271e-12 	101324.9999999969
-0.6168668668668671 	299.9999999999899 	2.069595172217068e-12 	101324.999999997
-0.6143643643643645 	300.0000000000064 	1.17218156866816e-12 	101324.9999999971
-0.6118618618618621 	299.9999999999901 	1.061133013229446e-12 	101324.9999999971
-0.6093593593593596 	299.9999999999931 	5.151303800559172e-13 	101324.9999999971
-0.6068568568568571 	299.999999999995 	6.905435021286314e-13 	101324.999999997
-0.6043543543543546 	299.9999999999798 	9.256091357116446e-13 	101324.9999999969
-0.6018518518518521 	299.9999999999836 	1.330111695165271e-12 	101324.9999999971
-0.5993493493493496 	299.9999999999732 	1.487223772190474e-12 	101324.9999999969
-0.5968468468468471 	299.9999999999776 	2.161131803787328e-12 	101324.9999999969
-0.5943443443443446 	299.9999999999951 	1.20269431137117e-12 	101324.9999999968
-0.591841841841842 	299.9999999999799 	1.455823732780322e-12 	101324.9999999965
-0.5893393393393397 	299.9999999999778 	8.58569068033461e-13 	101324.9999999966
-0.5868368368368371 	299.999999999998 	1.555323139899884e-12 	101324.9999999966
-0.5843343343343346 	300.0000000000005 	1.497388346161189e-12 	101324.9999999965
-0.5818318318318321 	300.0000000000112 	2.449568093435579e-12 	101324.9999999964
-0.5793293293293297 	299.9999999999918 	1.128934172000902e-12 	101324.9999999961
-0.5768268268268271 	300.0000000000018 	1.88772868672095e-12 	101324.9999999961
-0.5743243243243245 	300.0000000000087 	1.072002654924807e-12 	101324.9999999962
-0.5718218218218221 	300.000000000007 	1.392157490426628e-12 	101324.9999999963
-0.5693193193193196 	300.0000000000189 	1.374415255649281e-12 	101324.9999999964
-0.5668168168168171 	299.999999999993 	5.676392963166287e-13 	101324.9999999963
-0.5643143143143147 	299.9999999999754 	1.326094113546282e-12 	101324.9999999965
-0.5618118118118121 	300.0000000000063 	5.039191772430502e-13 	101324.9999999966
-0.5593093093093094 	300.0000000000161 	1.069027495610914e-12 	101324.9999999967
-0.5568068068068072 	300.0000000000094 	7.384964246193988e-13 	101324.9999999967
-0.5543043043043046 	300.0000000000088 	7.782346694905703e-13 	101324.9999999969
-0.551801801801802 	299.9999999999799 	5.462770552557537e-13 	101324.9999999968
-0.5492992992992995 	299.9999999999998 	9.954386601458929e-13 	101324.999999997
-0.5467967967967969 	300.0000000000073 	8.007207170022926e-13 	101324.9999999972
-0.5442942942942947 	300.0000000000024 	7.490801353856666e-13 	101324.9999999975
-0.5417917917917919 	299.9999999999821 	6.175322320001131e-13 	101324.9999999977
-0.5392892892892895 	299.9999999999704 	9.557154178250401e-13 	101324.9999999977
-0.536786786786787 	299.9999999999807 	6.324168031642246e-13 	101324.9999999978
-0.5342842842842846 	299.9999999999836 	4.364393569642892e-13 	101324.9999999976
-0.531781781781782 	299.99999999997 	1.102536037157816e-12 	101324.9999999976
-0.5292792792792794 	299.999999999965 	1.383758634691502e-12 	101324.9999999971
-0.526776776776777 	299.9999999999566 	1.549092742532084e-12 	101324.9999999968
-0.5242742742742745 	299.9999999999856 	3.029234764380382e-12 	101324.9999999963
-0.521771771771772 	300.0000000000059 	2.655226127841417e-12 	101324.9999999963
-0.5192692692692695 	299.9999999999792 	3.850838379155981e-12 	101324.9999999963
-0.516766766766767 	300.0000000000012 	2.635727318964616e-12 	101324.9999999964
-0.5142642642642645 	299.9999999999851 	3.18708887516361e-12 	101324.9999999967
-0.511761761761762 	299.9999999999766 	1.657792206654471e-12 	101324.9999999969
-0.5092592592592596 	299.9999999999885 	2.936127573807728e-12 	101324.999999997
-0.506756756756757 	299.9999999999764 	1.160505674743994e-12 	101324.999999997
-0.5042542542542544 	299.9999999999943 	2.713552492905465e-12 	101324.9999999968
-0.5017517517517521 	300.0000000000098 	1.159924756507433e-12 	101324.9999999967
-0.4992492492492494 	300.000000000012 	1.348275179492188e-12 	101324.9999999967
-0.496746746746747 	299.9999999999935 	4.702158155997689e-13 	101324.9999999967
-0.4942442442442445 	299.9999999999725 	1.0270740602613e-12 	101324.9999999968
-0.4917417417417421 	299.9999999999734 	2.708080137932516e-13 	101324.9999999969
-0.4892392392392395 	299.9999999999778 	7.24568355596157e-13 	101324.9999999968
-0.486736736736737 	299.9999999999776 	1.987405529399515e-13 	101324.9999999967
-0.4842342342342345 	299.9999999999629 	1.524650023130726e-12 	101324.9999999969
-0.481731731731732 	300.0000000000165 	7.028140429819049e-13 	101324.999999997
-0.4792292292292296 	300.0000000000114 	2.075342157136668e-12 	101324.9999999968
-0.4767267267267268 	299.9999999999837 	9.502996521806501e-13 	101324.9999999968
-0.4742242242242246 	300.000000000001 	2.628407851009702e-12 	101324.999999997
-0.471721721721722 	299.9999999999808 	1.031888952773146e-12 	101324.999999997
-0.4692192192192195 	299.9999999999916 	1.872534502747043e-12 	101324.9999999968
-0.4667167167167169 	299.9999999999608 	5.983204335334615e-13 	101324.9999999968
-0.4642142142142145 	299.9999999999998 	1.482902389982822e-12 	101324.9999999971
-0.461711711711712 	300.0000000000105 	7.782490025151249e-13 	101324.999999997
-0.4592092092092094 	300.0000000000058 	4.888095801376591e-13 	101324.999999997
-0.456706706706707 	300.0000000000248 	4.600032618415961e-13 	101324.999999997
-0.4542042042042045 	299.9999999999715 	2.570248790959142e-13 	101324.9999999969
-0.451701701701702 	299.9999999999785 	5.767288747146989e-14 	101324.9999999969
-0.4491991991991995 	299.9999999999827 	3.622668877429126e-13 	101324.9999999968
-0.4466966966966969 	299.9999999999786 	1.052232197608135e-13 	101324.9999999969
-0.4441941941941945 	299.9999999999955 	1.413957342178109e-12 	101324.9999999968
-0.441691691691692 	299.9999999999813 	6.434914120708323e-13 	101324.999999997
-0.4391891891891895 	299.9999999999942 	2.71052319130065e-12 	101324.9999999972
-0.436686686686687 	299.9999999999849 	1.128171895666804e-12 	101324.9999999972
-0.4341841841841846 	300.0000000000005 	2.613262990593054e-12 	101324.9999999972
-0.431681681681682 	299.9999999999817 	1.494087227857604e-12 	101324.9999999973
-0.4291791791791794 	299.9999999999677 	1.535947906325877e-12 	101324.9999999975
-0.426676676676677 	299.9999999999626 	8.215712203388274e-13 	101324.9999999976
-0.4241741741741744 	299.9999999999841 	1.437564141751302e-12 	101324.9999999978
-0.421671671671672 	300.0000000000026 	5.674465265210704e-13 	101324.9999999977
-0.4191691691691694 	300.0000000000219 	1.378787240107613e-12 	101324.9999999976
-0.4166666666666669 	300.0000000000256 	9.155714828340341e-13 	101324.9999999974
-0.4141641641641645 	299.999999999974 	1.115614101927472e-12 	101324.9999999971
-0.411661661661662 	300.0000000000026 	8.967504158468536e-13 	101324.9999999971
-0.4091591591591594 	300.0000000000039 	2.817305419796508e-13 	101324.9999999971
-0.406656656656657 	299.9999999999816 	3.344219917433476e-13 	101324.9999999969
-0.4041541541541545 	300.0000000000067 	1.802321278336542e-13 	101324.9999999969
-0.401651651651652 	299.9999999999663 	1.497187012958276e-12 	101324.9999999968
-0.3991491491491494 	300.0000000000007 	1.277344588217219e-12 	101324.9999999967
-0.396646646646647 	299.9999999999804 	2.119036890071833e-12 	101324.9999999967
-0.3941441441441444 	299.9999999999877 	2.451702321665579e-12 	101324.9999999966
-0.3916416416416419 	299.9999999999673 	1.530112177518013e-12 	101324.9999999966
-0.3891391391391395 	299.9999999999819 	1.983297585230717e-12 	101324.9999999967
-0.3866366366366368 	299.9999999999835 	4.476918861056599e-13 	101324.9999999965
-0.3841341341341344 	299.9999999999992 	1.335932532681707e-12 	101324.9999999967
-0.381631631631632 	299.99999999998 	9.341040985681608e-13 	101324.9999999967
-0.3791291291291294 	300.0000000000032 	4.590298642043963e-13 	101324.9999999967
-0.3766266266266269 	300.0000000000099 	1.871182137837827e-13 	101324.9999999969
-0.3741241241241244 	300.0000000000102 	1.03449220078157e-12 	101324.9999999972
-0.371621621621622 	300.0000000000091 	5.232387702315122e-13 	101324.9999999971
-0.3691191191191194 	300.0000000000019 	1.75003563210327e-12 	101324.9999999972
-0.366616616616617 	300.0000000000024 	1.830930239755496e-12 	101324.999999997
-0.3641141141141143 	299.9999999999886 	1.256928215249314e-12 	101324.9999999969
-0.3616116116116119 	299.9999999999754 	1.406044909633725e-12 	101324.9999999971
-0.3591091091091095 	299.9999999999914 	9.944574352806632e-13 	101324.9999999971
-0.356606606606607 	299.9999999999959 	3.543191893414007e-13 	101324.9999999972
-0.3541041041041044 	299.9999999999998 	9.92944498583595e-14 	101324.9999999973
-0.3516016016016019 	300.0000000000126 	1.435218261391635e-13 	101324.9999999975
-0.3490990990990994 	299.9999999999987 	6.669416266221236e-13 	101324.9999999977
-0.346596596596597 	300.0000000000131 	1.065861096973004e-12 	101324.9999999974
-0.3440940940940944 	300.0000000000157 	7.796901417686398e-13 	101324.9999999972
-0.3415915915915919 	300.0000000000132 	1.195702960948118e-12 	101324.9999999968
-0.3390890890890895 	299.9999999999924 	4.449191048507712e-13 	101324.9999999967
-0.3365865865865869 	300.000000000007 	2.35513612779095e-13 	101324.9999999968
-0.3340840840840844 	299.9999999999957 	5.630612005487036e-13 	101324.9999999967
-0.3315815815815819 	300.0000000000087 	1.683335889631516e-13 	101324.9999999968
-0.3290790790790794 	300.0000000000121 	3.153133272752884e-13 	101324.9999999969
-0.3265765765765769 	299.9999999999726 	6.483930335668665e-13 	101324.9999999969
-0.3240740740740744 	300.0000000000041 	6.915464978429753e-13 	101324.9999999967
-0.3215715715715718 	300.0000000000106 	2.105213412457417e-12 	101324.9999999965
-0.3190690690690695 	299.999999999973 	1.688541583946028e-12 	101324.9999999963
-0.3165665665665668 	299.9999999999969 	2.321595455487065e-12 	101324.9999999965
-0.3140640640640644 	299.999999999999 	1.026769317125996e-12 	101324.9999999967
-0.311561561561562 	299.9999999999678 	2.30529438105602e-12 	101324.9999999969
-0.3090590590590593 	299.9999999999971 	1.12815834953313e-12 	101324.9999999968
-0.3065565565565568 	300.0000000000003 	3.018259698523028e-12 	101324.9999999969
-0.3040540540540545 	299.9999999999981 	1.461861763516933e-12 	101324.9999999969
-0.3015515515515518 	300.000000000012 	2.467703060486515e-12 	101324.9999999966
-0.2990490490490494 	299.99999999997 	5.410355225062215e-13 	101324.9999999965
-0.2965465465465469 	299.999999999999 	1.623419104987118e-12 	101324.9999999965
-0.2940440440440444 	299.9999999999944 	1.159286241843253e-12 	101324.9999999964
-0.2915415415415418 	300.0000000000063 	1.749418598705852e-12 	101324.9999999964
-0.2890390390390395 	300.0000000000063 	2.650303341567358e-12 	101324.9999999964
-0.2865365365365368 	299.9999999999859 	1.625049330362297e-12 	101324.9999999964
-0.2840340340340343 	299.9999999999957 	2.904114085784207e-12 	101324.9999999966
-0.2815315315315318 	299.999999999965 	1.32656136280533e-12 	101324.9999999964
-0.2790290290290295 	299.9999999999887 	2.872667448284313e-12 	101324.9999999963
-0.2765265265265269 	300.0000000000061 	2.359363518994876e-12 	101324.9999999963
-0.2740240240240244 	300.0000000000078 	3.064485146929009e-12 	101324.9999999961
-0.2715215215215219 	300.0000000000073 	3.088133657675309e-12 	101324.9999999961
-0.2690190190190194 	299.9999999999713 	2.592601199057779e-12 	101324.9999999959
-0.2665165165165169 	299.9999999999959 	3.041857928726744e-12 	101324.999999996
-0.2640140140140144 	299.9999999999918 	2.408130513483916e-12 	101324.9999999961
-0.2615115115115119 	299.999999999999 	3.902491641232101e-12 	101324.999999996
-0.2590090090090094 	299.9999999999648 	2.8632557037719e-12 	101324.9999999959
-0.2565065065065068 	299.9999999999932 	3.439452779416912e-12 	101324.999999996
-0.2540040040040044 	299.999999999994 	3.318277884070526e-12 	101324.999999996
-0.2515015015015019 	300.0000000000111 	2.670379255750087e-12 	101324.9999999962
-0.2489989989989994 	300.0000000000173 	3.699859011305906e-12 	101324.9999999963
-0.2464964964964968 	299.9999999999891 	2.171308470859361e-12 	101324.9999999962
-0.2439939939939944 	299.9999999999946 	3.70598000513197e-12 	101324.9999999962
-0.2414914914914919 	299.9999999999829 	1.338469744394273e-12 	101324.999999996
-0.2389889889889893 	299.9999999999945 	4.003756347522883e-12 	101324.9999999958
-0.2364864864864869 	300.0000000000103 	2.318172830255535e-12 	101324.9999999958
-0.2339839839839843 	299.9999999999764 	5.135808246797725e-12 	101324.9999999958
-0.2314814814814819 	299.9999999999882 	3.258777189071236e-12 	101324.9999999959
-0.2289789789789792 	299.9999999999654 	5.591702998498675e-12 	101324.9999999959
-0.2264764764764769 	299.9999999999749 	4.050892484019401e-12 	101324.999999996
-0.2239739739739743 	299.999999999986 	4.96047291272013e-12 	101324.9999999956
-0.2214714714714718 	299.9999999999732 	4.59273261376188e-12 	101324.9999999957
-0.2189689689689693 	299.9999999999828 	3.481859380828724e-12 	101324.9999999957
-0.2164664664664669 	299.9999999999886 	4.447641673520262e-12 	101324.9999999959
-0.2139639639639643 	299.999999999965 	2.714477642359552e-12 	101324.9999999959
-0.2114614614614618 	299.9999999999856 	3.785568352191074e-12 	101324.9999999958
-0.2089589589589593 	300.0000000000003 	3.41154355577669e-12 	101324.999999996
-0.2064564564564568 	300.0000000000005 	3.629876267171845e-12 	101324.9999999958
-0.2039539539539543 	299.9999999999627 	3.955530037192818e-12 	101324.9999999957
-0.2014514514514518 	299.9999999999682 	2.192071357685978e-12 	101324.9999999958
-0.1989489489489494 	299.99999999999 	4.177991802809157e-12 	101324.9999999959
-0.1964464464464468 	300.0000000000034 	2.336291390828843e-12 	101324.9999999961
-0.1939439439439443 	300.0000000000003 	5.035180082745356e-12 	101324.9999999961
-0.1914414414414418 	299.9999999999701 	4.100429317698559e-12 	101324.9999999959
-0.1889389389389393 	299.9999999999995 	4.05047242036012e-12 	101324.9999999959
-0.1864364364364368 	300.000000000016 	3.511197067585053e-12 	101324.9999999961
-0.1839339339339343 	299.9999999999925 	3.311072477583137e-12 	101324.9999999962
-0.1814314314314318 	299.9999999999956 	3.432895257125266e-12 	101324.999999996
-0.1789289289289293 	299.9999999999587 	2.894536616526158e-12 	101324.9999999956
-0.1764264264264268 	299.9999999999854 	2.545051127866027e-12 	101324.9999999956
-0.1739239239239243 	299.9999999999564 	3.242155352086521e-12 	101324.9999999954
-0.1714214214214218 	299.9999999999939 	1.954987411762852e-12 	101324.9999999953
-0.1689189189189193 	299.9999999999736 	3.304280357164229e-12 	101324.9999999955
-0.1664164164164168 	299.9999999999957 	1.802470395518137e-12 	101324.9999999955
-0.1639139139139143 	299.9999999999923 	5.722849520041634e-12 	101324.9999999957
-0.1614114114114118 	300.0000000000085 	2.688651969717622e-12 	101324.9999999957
-0.1589089089089093 	300.0000000000001 	8.542601134284146e-12 	101324.9999999958
-0.1564064064064068 	299.9999999999893 	1.981036322844357e-12 	101324.999999996
-0.1539039039039043 	299.9999999999987 	8.485644479296593e-12 	101324.9999999958
-0.1514014014014018 	300.0000000000081 	2.330257123271759e-12 	101324.9999999959
-0.1488988988988993 	299.9999999999996 	7.223506321644505e-12 	101324.9999999956
-0.1463963963963968 	300.0000000000028 	2.374749326616934e-12 	101324.9999999957
-0.1438938938938943 	299.9999999999848 	5.831978110185374e-12 	101324.9999999956
-0.1413913913913918 	299.9999999999678 	2.805003537833716e-12 	101324.9999999957
-0.1388888888888893 	299.9999999999873 	4.383847515048764e-12 	101324.9999999956
-0.1363863863863868 	299.9999999999525 	3.837405882666127e-12 	101324.9999999954
-0.1338838838838843 	299.9999999999662 	4.504216342637865e-12 	101324.9999999953
-0.1313813813813818 	299.9999999999973 	3.671428403807749e-12 	101324.9999999954
-0.1288788788788793 	299.9999999999781 	3.926677679510273e-12 	101324.9999999955
-0.1263763763763768 	299.9999999999891 	2.919719310678522e-12 	101324.9999999951
-0.1238738738738743 	299.9999999999713 	3.701388877485626e-12 	101324.9999999951
-0.1213713713713717 	299.999999999992 	2.675611840384441e-12 	101324.9999999953
-0.1188688688688693 	300.0000000000043 	5.151226206203125e-12 	101324.9999999956
-0.1163663663663668 	299.999999999958 	3.004786629710138e-12 	101324.9999999955
-0.1138638638638643 	299.9999999999982 	5.546117876472204e-12 	101324.9999999957
-0.1113613613613618 	299.9999999999977 	2.717027704004184e-12 	101324.9999999959
-0.1088588588588592 	299.9999999999951 	6.400765281997807e-12 	101324.999999996
-0.1063563563563568 	299.9999999999816 	3.22473572541088e-12 	101324.9999999958
-0.1038538538538543 	299.9999999999889 	5.852393439419911e-12 	101324.9999999956
-0.1013513513513517 	300.000000000003 	4.439542203560985e-12 	101324.9999999956
-0.09884884884884926 	299.9999999999775 	5.66102539663641e-12 	101324.9999999955
-0.09634634634634676 	299.9999999999574 	3.63283568591512e-12 	101324.9999999958
-0.09384384384384425 	299.9999999999665 	3.629477785579758e-12 	101324.9999999958
-0.09134134134134177 	300.0000000000107 	2.999900382187063e-12 	101324.9999999959
-0.08883883883883925 	300.0000000000038 	3.538468697884671e-12 	101324.999999996
-0.08633633633633674 	299.9999999999768 	3.043276270676601e-12 	101324.9999999957
-0.08383383383383426 	300.0000000000031 	1.893539040177718e-12 	101324.9999999954
-0.08133133133133173 	299.9999999999858 	1.969698652815925e-12 	101324.9999999955
-0.07882882882882926 	299.9999999999495 	1.651848808159427e-12 	101324.9999999952
-0.07632632632632676 	299.9999999999842 	2.188507336847849e-12 	101324.9999999951
-0.07382382382382424 	299.999999999953 	2.671067941099794e-12 	101324.9999999952
-0.07132132132132173 	300.0000000000037 	2.832171473511518e-12 	101324.9999999952
-0.06881881881881925 	299.9999999999768 	3.259044068642459e-12 	101324.999999995
-0.06631631631631671 	299.9999999999528 	3.038587506199458e-12 	101324.9999999952
-0.06381381381381425 	299.9999999999829 	3.240353837738059e-12 	101324.9999999952
-0.06131131131131173 	299.9999999999835 	3.69845642105635e-12 	101324.9999999953
-0.05880880880880923 	299.9999999999667 	3.559403356892009e-12 	101324.9999999953
-0.05630630630630672 	299.9999999999853 	2.81286087970231e-12 	101324.9999999953
-0.05380380380380424 	300.0000000000067 	2.213680792860621e-12 	101324.9999999956
-0.05130130130130173 	300.0000000000069 	2.358057756564072e-12 	101324.9999999958
-0.04879879879879922 	299.9999999999695 	1.920834709379135e-12 	101324.9999999957
-0.04629629629629672 	299.9999999999666 	1.788186844346138e-12 	101324.9999999957
-0.04379379379379422 	299.9999999999654 	1.52810746106453e-12 	101324.9999999958
-0.04129129129129173 	299.9999999999883 	1.038198353659575e-12 	101324.9999999958
-0.03878878878878922 	299.9999999999951 	9.619649547466458e-13 	101324.9999999957
-0.03628628628628671 	299.9999999999952 	6.416764282887251e-13 	101324.9999999957
-0.03378378378378422 	299.999999999969 	6.411711595018545e-13 	101324.9999999956
-0.03128128128128172 	299.9999999999852 	2.491017994246514e-13 	101324.9999999954
-0.02877877877877922 	299.9999999999863 	2.9727899118229e-13 	101324.9999999953
-0.0262762762762767 	299.9999999999552 	1.936219873836068e-13 	101324.9999999951
-0.02377377377377422 	300.0000000000087 	7.150161999286118e-13 	101324.9999999953
-0.0212712712712717 	299.999999999957 	1.52538420070415e-12 	101324.9999999956
-0.01876876876876921 	299.9999999999818 	1.440906299229728e-12 	101324.9999999954
-0.01626626626626671 	300.0000000000021 	2.552538214576871e-12 	101324.9999999954
-0.0137637637637642 	299.9999999999845 	2.1977457722545e-12 	101324.9999999951
-0.0112612612612617 	300.0000000000039 	1.882164887746181e-12 	101324.9999999953
-0.008758758758759198 	299.9999999999943 	1.533347327974665e-12 	101324.9999999955
-0.006256256256256697 	299.9999999999486 	1.270952888346483e-12 	101324.9999999954
-0.003753753753754195 	299.9999999999765 	1.696395332685373e-13 	101324.9999999956
-0.001251251251251693 	299.9999999999665 	8.366581572977792e-13 	101324.9999999956
0.00125125125125081 	299.9999999999775 	1.921444891895581e-13 	101324.9999999955
0.003753753753753312 	299.9999999999794 	5.111093420981369e-14 	101324.9999999953
0.006256256256255817 	299.9999999999479 	1.011097236004775e-12 	101324.9999999951
0.008758758758758317 	299.9999999999936 	6.263437985167369e-13 	101324.9999999951
0.01126126126126082 	300.0000000000002 	3.108321993461004e-13 	101324.9999999953
0.01376376376376332 	299.9999999999853 	3.240430641680758e-13 	101324.9999999957
0.01626626626626582 	300.000000000005 	8.339043728100212e-13 	101324.9999999957
0.01876876876876833 	299.9999999999797 	3.821628053459058e-13 	101324.9999999956
0.02127127127127083 	299.9999999999878 	6.082335464817657e-13 	101324.9999999954
0.02377377377377332 	299.9999999999952 	2.467864439102303e-13 	101324.9999999952
0.02627627627627583 	299.9999999999568 	5.33616424401365e-13 	101324.9999999955
0.02877877877877833 	299.9999999999991 	1.264454701183023e-12 	101324.9999999955
0.03128128128128083 	299.999999999977 	1.329531459700299e-12 	101324.9999999952
0.03378378378378333 	299.9999999999561 	1.737149873807107e-12 	101324.9999999951
0.03628628628628584 	299.9999999999894 	1.710946529830584e-12 	101324.9999999952
0.03878878878878834 	299.9999999999965 	1.276474583437024e-12 	101324.9999999949
0.04129129129129084 	299.9999999999869 	1.263966994023754e-12 	101324.9999999946
0.04379379379379333 	299.9999999999724 	1.034895865224889e-12 	101324.9999999945
0.04629629629629585 	299.99999999995 	1.551698614650646e-12 	101324.9999999949
0.04879879879879834 	299.9999999999793 	2.536999723887295e-12 	101324.9999999951
0.05130130130130085 	300.000000000002 	3.136967875247823e-12 	101324.999999995
0.05380380380380335 	300.0000000000095 	2.98789567777859e-12 	101324.999999995
0.05630630630630584 	299.9999999999946 	2.568998297670568e-12 	101324.9999999948
0.05880880880880836 	299.9999999999682 	2.416463587273e-12 	101324.9999999948
0.06131131131131085 	299.9999999999895 	2.802355919253081e-12 	101324.9999999951
0.06381381381381336 	299.9999999999774 	3.282675914739146e-12 	101324.9999999952
0.06631631631631586 	299.9999999999509 	3.263245276498861e-12 	101324.9999999953
0.06881881881881835 	299.9999999999799 	2.687826005643871e-12 	101324.9999999955
0.07132132132132088 	299.9999999999992 	2.614965623771932e-12 	101324.9999999957
0.07382382382382337 	299.9999999999561 	3.09888906157397e-12 	101324.9999999959
0.07632632632632587 	299.9999999999866 	3.344815567516536e-12 	101324.9999999962
0.07882882882882837 	299.9999999999721 	3.116069504363298e-12 	101324.9999999962
0.08133133133133086 	299.9999999999939 	3.872418681992884e-12 	101324.9999999959
0.08383383383383337 	299.9999999999997 	3.306412398069925e-12 	101324.9999999957
0.08633633633633589 	299.999999999961 	3.038258002960536e-12 	101324.9999999957
0.08883883883883838 	300.0000000000034 	3.186932098204496e-12 	101324.9999999957
0.09134134134134086 	299.9999999999961 	3.227366993203899e-12 	101324.9999999956
0.09384384384384339 	299.9999999999568 	3.983767445998929e-12 	101324.9999999959
0.09634634634634588 	299.999999999985 	3.877321154301149e-12 	101324.999999996
0.09884884884884838 	299.9999999999871 	3.123395235561537e-12 	101324.9999999962
0.1013513513513509 	300.0000000000109 	2.657520123045009e-12 	101324.9999999964
0.1038538538538534 	299.9999999999782 	2.378700672775787e-12 	101324.9999999963
0.1063563563563559 	300.0000000000041 	3.354245494576772e-12 	101324.9999999961
0.1088588588588584 	300.0000000000056 	3.068837764767757e-12 	101324.9999999961
0.1113613613613609 	299.9999999999693 	2.997103889750595e-12 	101324.9999999957
0.1138638638638634 	299.999999999975 	3.298291425512009e-12 	101324.9999999956
0.1163663663663659 	299.9999999999749 	3.738954421724966e-12 	101324.9999999956
0.1188688688688684 	299.9999999999833 	3.975515842178752e-12 	101324.9999999958
0.1213713713713709 	299.9999999999945 	3.896188187664939e-12 	101324.9999999957
0.1238738738738734 	299.9999999999668 	3.807173377728231e-12 	101324.9999999954
0.1263763763763759 	299.9999999999945 	3.739198824930667e-12 	101324.9999999952
0.1288788788788784 	299.9999999999946 	3.709767154688254e-12 	101324.9999999953
0.1313813813813809 	299.9999999999937 	4.093915809742386e-12 	101324.9999999954
0.1338838838838834 	299.999999999985 	3.867726133583263e-12 	101324.9999999954
0.1363863863863859 	300.0000000000098 	4.395437067415024e-12 	101324.9999999953
0.1388888888888884 	300.0000000000169 	4.10373131071264e-12 	101324.9999999952
0.1413913913913909 	300.0000000000011 	3.985594446877324e-12 	101324.9999999955
0.1438938938938934 	299.9999999999936 	3.525347667615254e-12 	101324.9999999954
0.1463963963963959 	299.99999999998 	3.114603866433088e-12 	101324.9999999957
0.1488988988988985 	299.9999999999633 	3.955164139310292e-12 	101324.9999999959
0.1514014014014009 	299.9999999999845 	3.467031199644375e-12 	101324.9999999957
0.1539039039039035 	299.9999999999819 	4.542938708092706e-12 	101324.9999999956
0.1564064064064059 	299.9999999999746 	2.894842073599903e-12 	101324.9999999954
0.1589089089089084 	299.9999999999886 	5.784570419079141e-12 	101324.9999999955
0.1614114114114109 	299.9999999999857 	4.199401408246063e-12 	101324.9999999954
0.1639139139139134 	299.9999999999647 	5.71248167417528e-12 	101324.9999999955
0.166416416416416 	299.9999999999977 	5.164123610868041e-12 	101324.9999999954
0.1689189189189185 	300.0000000000152 	4.370321007091718e-12 	101324.9999999957
0.1714214214214209 	300.000000000004 	4.648190663025458e-12 	101324.9999999958
0.1739239239239235 	299.9999999999976 	3.850599985522011e-12 	101324.9999999958
0.1764264264264259 	299.9999999999829 	5.479815370409359e-12 	101324.999999996
0.1789289289289284 	300.000000000004 	3.987616676538961e-12 	101324.999999996
0.181431431431431 	299.9999999999873 	6.660457903746313e-12 	101324.9999999961
0.1839339339339334 	299.9999999999905 	5.277705768497609e-12 	101324.9999999961
0.186436436436436 	299.9999999999738 	5.994916179444232e-12 	101324.9999999963
0.1889389389389385 	299.9999999999933 	5.227124912356818e-12 	101324.9999999962
0.191441441441441 	299.9999999999908 	4.796798861881132e-12 	101324.9999999962
0.1939439439439434 	299.9999999999631 	5.979841177663811e-12 	101324.9999999962
0.196446446446446 	299.9999999999811 	5.120810543396486e-12 	101324.9999999963
0.1989489489489485 	299.999999999987 	7.584459004740306e-12 	101324.9999999965
0.2014514514514509 	299.9999999999935 	5.13164005676303e-12 	101324.9999999966
0.2039539539539535 	299.9999999999952 	5.251337901941104e-12 	101324.9999999966
0.2064564564564559 	299.9999999999814 	4.096339676128418e-12 	101324.9999999968
0.2089589589589585 	299.9999999999935 	4.237058976848052e-12 	101324.9999999963
0.211461461461461 	299.9999999999758 	4.077213571030248e-12 	101324.9999999964
0.2139639639639635 	299.9999999999969 	4.055430779230966e-12 	101324.9999999964
0.2164664664664659 	300.0000000000048 	4.512849301423975e-12 	101324.9999999963
0.2189689689689684 	300.0000000000043 	2.852999686764477e-12 	101324.9999999961
0.221471471471471 	300.0000000000007 	4.500702674499442e-12 	101324.999999996
0.2239739739739735 	299.9999999999818 	2.772176892856294e-12 	101324.9999999961
0.226476476476476 	299.9999999999958 	4.01412748216205e-12 	101324.9999999961
0.2289789789789785 	299.9999999999994 	3.419270590288718e-12 	101324.9999999962
0.231481481481481 	299.9999999999864 	3.574004996704199e-12 	101324.9999999961
0.2339839839839835 	299.9999999999947 	3.527875526477527e-12 	101324.9999999964
0.236486486486486 	300.0000000000101 	2.981097226875767e-12 	101324.9999999966
0.2389889889889885 	300.0000000000009 	4.443281383937054e-12 	101324.9999999965
0.241491491491491 	299.9999999999624 	2.979373635289312e-12 	101324.9999999964
0.2439939939939935 	299.9999999999868 	5.211651738241346e-12 	101324.9999999962
0.246496496496496 	299.9999999999901 	3.2792491099888e-12 	101324.9999999961
0.2489989989989985 	300.0000000000117 	4.461454681477479e-12 	101324.999999996
0.251501501501501 	300.0000000000093 	3.901484264971813e-12 	101324.9999999959
0.2540040040040035 	299.9999999999933 	3.751836422043597e-12 	101324.9999999962
0.256506506506506 	300.000000000007 	3.346708129050395e-12 	101324.9999999961
0.2590090090090086 	299.9999999999616 	1.827009286735076e-12 	101324.9999999962
0.261511511511511 	300.0000000000043 	3.410334204754101e-12 	101324.9999999962
0.2640140140140135 	299.9999999999963 	9.11347402598074e-13 	101324.9999999961
0.2665165165165161 	299.9999999999734 	1.831804802784299e-12 	101324.9999999961
0.2690190190190185 	300.0000000000065 	1.170846845537394e-12 	101324.999999996
0.271521521521521 	300.0000000000041 	1.232839032734955e-12 	101324.9999999961
0.2740240240240235 	300.0000000000072 	1.179483372778365e-12 	101324.9999999962
0.276526526526526 	300.0000000000018 	4.916445627932219e-13 	101324.9999999964
0.2790290290290286 	299.999999999976 	1.301142796710589e-12 	101324.9999999961
0.281531531531531 	299.9999999999649 	3.782638342504041e-13 	101324.999999996
0.2840340340340335 	299.9999999999933 	1.478351069487311e-12 	101324.9999999959
0.2865365365365361 	299.99999999998 	5.423145853864176e-13 	101324.999999996
0.2890390390390385 	299.9999999999941 	1.456901228017976e-12 	101324.9999999959
0.291541541541541 	299.999999999996 	7.068791015164241e-13 	101324.9999999961
0.2940440440440436 	299.9999999999966 	6.095596599873898e-13 	101324.9999999961
0.296546546546546 	299.9999999999924 	9.627678847986482e-13 	101324.9999999961
0.2990490490490486 	299.9999999999688 	6.447564881767835e-13 	101324.9999999962
0.3015515515515511 	300.000000000011 	2.374096828163724e-12 	101324.9999999962
0.3040540540540535 	299.9999999999962 	1.75497957134473e-12 	101324.9999999962
0.3065565565565562 	299.9999999999957 	2.819541209051947e-12 	101324.9999999963
0.3090590590590585 	299.9999999999922 	6.929406271772135e-13 	101324.9999999963
0.3115615615615611 	299.9999999999683 	2.574389568136855e-12 	101324.9999999964
0.3140640640640635 	300.0000000000002 	5.018232733243755e-13 	101324.9999999965
0.316566566566566 	299.9999999999939 	1.458938992665439e-12 	101324.9999999966
0.3190690690690687 	299.9999999999744 	9.702970127420316e-13 	101324.9999999965
0.3215715715715711 	300.000000000002 	2.116737872555396e-12 	101324.9999999963
0.3240740740740735 	299.9999999999942 	1.425535942964644e-12 	101324.9999999966
0.326576576576576 	299.9999999999591 	2.016707107738063e-12 	101324.9999999964
0.3290790790790786 	300.0000000000003 	1.684275490539146e-12 	101324.9999999963
0.3315815815815811 	300.0000000000205 	1.412119612511051e-12 	101324.9999999966
0.3340840840840836 	300.0000000000005 	7.227216840298633e-13 	101324.9999999969
0.3365865865865861 	300.0000000000257 	1.239304715839432e-12 	101324.999999997
0.3390890890890886 	300.0000000000205 	5.001661182520681e-13 	101324.999999997
0.3415915915915911 	299.9999999999976 	1.307428191150018e-12 	101324.999999997
0.3440940940940935 	299.999999999979 	4.587942743591827e-13 	101324.999999997
0.3465965965965962 	300.0000000000175 	1.541624886724865e-12 	101324.999999997
0.3490990990990985 	300.0000000000124 	4.82300562655763e-13 	101324.9999999968
0.3516016016016011 	299.9999999999931 	1.88448551045031e-13 	101324.9999999966
0.3541041041041035 	300.0000000000034 	4.185997410624946e-13 	101324.9999999964
0.3566066066066061 	299.9999999999802 	6.131496326448901e-13 	101324.9999999965
0.3591091091091085 	299.9999999999683 	5.078410233474448e-13 	101324.9999999963
0.3616116116116112 	299.9999999999761 	1.130018814836305e-12 	101324.9999999962
0.3641141141141137 	299.9999999999733 	1.217607719498777e-12 	101324.9999999963
0.3666166166166161 	299.9999999999702 	1.71731861332413e-12 	101324.9999999966
0.3691191191191185 	300.0000000000155 	2.172685090479081e-12 	101324.9999999966
0.371621621621621 	300.0000000000047 	8.484760542780818e-13 	101324.9999999966
0.3741241241241237 	300.0000000000212 	1.401862674665803e-12 	101324.9999999965
0.3766266266266261 	300.0000000000081 	8.062864011355059e-13 	101324.9999999966
0.3791291291291286 	299.9999999999915 	9.774025056405192e-13 	101324.9999999968
0.3816316316316311 	299.9999999999704 	6.764367686239334e-13 	101324.9999999966
0.3841341341341336 	300.0000000000065 	8.030535055529161e-13 	101324.9999999967
0.3866366366366362 	300.0000000000015 	4.777637799621143e-13 	101324.9999999969
0.3891391391391387 	299.9999999999822 	4.917236798168657e-13 	101324.9999999971
0.391641641641641 	299.9999999999998 	1.413348982707286e-13 	101324.9999999972
0.3941441441441436 	300.0000000000043 	3.393772379275444e-13 	101324.999999997
0.3966466466466462 	300.0000000000015 	1.877357809864896e-12 	101324.999999997
0.3991491491491486 	299.9999999999822 	2.291549967156312e-12 	101324.9999999971
0.4016516516516512 	299.9999999999662 	2.598300024066309e-12 	101324.9999999972
0.4041541541541536 	299.9999999999815 	1.244198463456163e-12 	101324.9999999973
0.4066566566566561 	299.9999999999799 	2.106399160750154e-12 	101324.9999999971
0.4091591591591587 	299.999999999997 	3.537213412916145e-13 	101324.999999997
0.4116616616616612 	300.0000000000041 	1.555977768516416e-12 	101324.9999999969
0.4141641641641635 	300.0000000000182 	5.302107954197482e-13 	101324.9999999967
0.4166666666666662 	300.0000000000003 	1.003341762203781e-12 	101324.9999999964
0.4191691691691687 	299.9999999999756 	1.248362244110986e-12 	101324.9999999964
0.421671671671671 	300.0000000000054 	9.945773152047189e-13 	101324.9999999964
0.4241741741741737 	299.999999999992 	2.55642537811257e-12 	101324.9999999966
0.4266766766766761 	299.9999999999821 	1.235171928658861e-12 	101324.9999999968
0.4291791791791785 	300.000000000009 	2.979453486947829e-12 	101324.9999999968
0.4316816816816812 	300.0000000000023 	1.542291279233018e-12 	101324.999999997
0.4341841841841836 	299.999999999991 	2.55516493475663e-12 	101324.9999999971
0.4366866866866862 	299.9999999999684 	6.932597965570446e-13 	101324.9999999972
0.4391891891891885 	299.999999999994 	2.556311470544783e-12 	101324.9999999972
0.4416916916916913 	299.9999999999925 	2.395590531947613e-12 	101324.9999999971
0.4441941941941936 	299.9999999999923 	3.383707773727887e-12 	101324.9999999969
0.4466966966966961 	299.999999999967 	2.824740405007497e-12 	101324.9999999968
0.4491991991991987 	299.9999999999918 	2.550019192186638e-12 	101324.9999999966
0.4517017017017012 	299.9999999999914 	2.895779447319313e-12 	101324.9999999966
0.4542042042042035 	299.9999999999928 	2.327411282709919e-12 	101324.9999999966
0.4567067067067062 	299.9999999999972 	3.028804276544909e-12 	101324.9999999967
0.4592092092092087 	299.9999999999722 	2.349955960761425e-12 	101324.9999999967
0.4617117117117112 	300.0000000000076 	2.62637923290783e-12 	101324.9999999967
0.4642142142142137 	299.9999999999837 	2.538873503502587e-12 	101324.9999999966
0.4667167167167162 	299.9999999999971 	2.267286165452753e-12 	101324.9999999963
0.4692192192192187 	299.9999999999799 	2.389097815860012e-12 	101324.9999999964
0.4717217217217212 	300.0000000000056 	1.976717966423407e-12 	101324.9999999965
0.4742242242242236 	299.999999999981 	2.598566344988774e-12 	101324.9999999968
0.4767267267267262 	299.9999999999926 	2.73344474200376e-12 	101324.9999999968
0.4792292292292287 	300.0000000000088 	3.30700935743297e-12 	101324.9999999969
0.4817317317317312 	300.000000000014 	3.490801991186103e-12 	101324.9999999971
0.4842342342342336 	299.9999999999922 	3.710924246418699e-12 	101324.9999999971
0.4867367367367362 	299.99999999998 	3.473880185547723e-12 	101324.9999999969
0.4892392392392387 	300.0000000000106 	3.393202574815507e-12 	101324.9999999967
0.4917417417417412 	300.0000000000019 	4.642959822729431e-12 	101324.9999999968
0.4942442442442437 	299.9999999999634 	3.852602412632547e-12 	101324.9999999969
0.4967467467467462 	299.999999999972 	4.088591297142816e-12 	101324.9999999969
0.4992492492492487 	299.9999999999696 	1.575612868907911e-12 	101324.9999999969
0.5017517517517511 	299.9999999999853 	2.944840884961895e-12 	101324.999999997
0.5042542542542537 	299.9999999999834 	2.974232537369619e-12 	101324.9999999969
0.5067567567567562 	299.9999999999753 	3.943458070219146e-12 	101324.9999999969
0.5092592592592589 	299.9999999999844 	3.944934834376321e-12 	101324.999999997
0.5117617617617611 	299.9999999999837 	3.547808524183912e-12 	101324.999999997
0.5142642642642637 	299.9999999999969 	3.616246671275047e-12 	101324.9999999969
0.5167667667667663 	299.999999999991 	2.770200935922892e-12 	101324.9999999967
0.5192692692692688 	299.9999999999696 	4.398863766210513e-12 	101324.9999999967
0.5217717717717714 	299.9999999999745 	1.199084642090793e-12 	101324.9999999969
0.5242742742742736 	299.9999999999746 	3.436476285889134e-12 	101324.9999999969
0.5267767767767763 	299.9999999999854 	7.664559559149767e-13 	101324.9999999969
0.5292792792792789 	299.9999999999766 	2.245283793999392e-12 	101324.9999999969
0.5317817817817813 	299.9999999999607 	9.367719613554579e-13 	101324.999999997
0.5342842842842837 	300.000000000005 	1.548943901499454e-12 	101324.999999997
0.5367867867867864 	299.9999999999997 	1.302990953012738e-12 	101324.9999999968
0.5392892892892888 	299.9999999999823 	1.198142269779785e-12 	101324.9999999969
0.5417917917917912 	300.0000000000005 	1.085984055780689e-12 	101324.9999999969
0.5442942942942938 	299.9999999999922 	1.556450129132786e-12 	101324.9999999966
0.5467967967967964 	299.999999999979 	1.166190153927943e-12 	101324.9999999964
0.5492992992992988 	299.9999999999751 	1.345654714903312e-12 	101324.9999999963
0.5518018018018012 	299.9999999999758 	1.017880027411246e-12 	101324.9999999963
0.5543043043043039 	300.0000000000068 	1.250899962383391e-12 	101324.9999999963
0.5568068068068063 	299.9999999999955 	1.011780580979746e-12 	101324.9999999962
0.5593093093093087 	299.999999999964 	1.573611990426316e-12 	101324.9999999961
0.5618118118118114 	299.9999999999849 	7.446117834310945e-13 	101324.9999999962
0.5643143143143137 	299.9999999999783 	1.043797254494265e-12 	101324.9999999963
0.5668168168168163 	299.9999999999976 	6.157217642593253e-13 	101324.9999999964
0.5693193193193188 	300.0000000000141 	1.493772850257966e-12 	101324.9999999963
0.5718218218218213 	300.0000000000113 	1.493375613657572e-12 	101324.9999999963
0.5743243243243239 	300.000000000003 	1.501010485028815e-12 	101324.9999999962
0.5768268268268262 	300.000000000003 	2.329513129287477e-12 	101324.9999999962
0.5793293293293288 	299.9999999999813 	1.656323347955286e-12 	101324.9999999961
0.5818318318318314 	299.9999999999682 	3.569781255331359e-12 	101324.9999999961
0.5843343343343338 	299.9999999999921 	1.429129426685573e-12 	101324.999999996
0.5868368368368363 	299.9999999999897 	3.499371101780252e-12 	101324.9999999959
0.5893393393393387 	299.9999999999775 	2.07126402143512e-12 	101324.999999996
0.5918418418418413 	299.9999999999758 	3.725614107700648e-12 	101324.9999999962
0.5943443443443439 	300.0000000000052 	3.338017049472354e-12 	101324.9999999963
0.5968468468468463 	300.000000000006 	3.998399493166095e-12 	101324.9999999962
0.5993493493493487 	300.0000000000194 	3.916793970878775e-12 	101324.999999996
0.6018518518518514 	299.9999999999887 	4.277355131608736e-12 	101324.9999999959
0.6043543543543537 	299.9999999999974 	3.90979807934642e-12 	101324.9999999959
0.6068568568568564 	299.9999999999916 	3.553273746644306e-12 	101324.9999999959
0.6093593593593587 	299.9999999999693 	3.199980293820988e-12 	101324.999999996
0.6118618618618614 	299.9999999999696 	2.637612585145723e-12 	101324.999999996
0.6143643643643638 	300.0000000000063 	2.227595636679827e-12 	101324.9999999959
0.6168668668668662 	299.9999999999932 	2.544643174582795e-12 	101324.999999996
0.6193693693693688 	299.99999999998 	1.715425530788281e-12 	101324.9999999959
0.6218718718718714 	299.9999999999861 	2.653504445896621e-12 	101324.9999999958
0.6243743743743737 	299.9999999999731 	1.447771155754947e-12 	101324.9999999958
0.6268768768768762 	299.9999999999654 	2.393948001418036e-12 	101324.9999999957
0.629379379379379 	299.9999999999766 	1.53613412517347e-12 	101324.9999999957
0.6318818818818812 	299.9999999999831 	2.117140863464477e-12 	101324.999999996
0.6343843843843838 	300.0000000000052 	1.54356100033564e-12 	101324.999999996
0.6368868868868864 	299.9999999999915 	1.212228087933837e-12 	101324.9999999961
0.6393893893893888 	299.9999999999679 	1.861366779059052e-12 	101324.9999999963
0.6418918918918912 	299.9999999999998 	1.769697313215241e-12 	101324.9999999963
0.6443943943943939 	299.9999999999957 	2.011583178658193e-12 	101324.9999999962
0.6468968968968963 	299.9999999999921 	1.887874262217179e-12 	101324.9999999962
0.6493993993993988 	299.9999999999876 	1.893517154687511e-12 	101324.9999999962
0.6519019019019012 	299.9999999999852 	1.001362646749826e-12 	101324.9999999961
0.6544044044044038 	299.9999999999598 	1.919656393660737e-12 	101324.9999999959
0.6569069069069065 	299.9999999999835 	7.01556347262117e-13 	101324.9999999958
0.6594094094094087 	299.9999999999803 	1.375256855776679e-12 	101324.9999999958
0.6619119119119113 	299.9999999999768 	7.705483669947e-13 	101324.9999999959
0.664414414414414 	299.9999999999989 	1.617608277071139e-12 	101324.9999999959
0.6669169169169162 	300.0000000000038 	1.700805641345467e-12 	101324.9999999958
0.6694194194194188 	299.9999999999924 	2.295559322880395e-12 	101324.9999999958
0.6719219219219214 	299.9999999999727 	1.773099124049499e-12 	101324.9999999956
0.674424424424424 	299.9999999999895 	1.702618139387627e-12 	101324.9999999955
0.6769269269269262 	299.9999999999657 	8.966349154003254e-13 	101324.9999999956
0.679429429429429 	300.0000000000026 	7.160009066268496e-13 	101324.9999999956
0.6819319319319311 	299.9999999999871 	6.036352947435537e-13 	101324.9999999953
0.6844344344344341 	299.9999999999921 	1.183024604871382e-12 	101324.9999999952
0.686936936936936 	299.9999999999916 	4.1863018455945e-13 	101324.9999999954
0.6894394394394392 	299.9999999999963 	5.509249634502447e-13 	101324.9999999956
0.6919419419419413 	299.9999999999932 	3.03395243283074e-13 	101324.9999999958
0.694444444444444 	299.999999999977 	6.075241604759523e-13 	101324.9999999959
0.6969469469469463 	299.9999999999706 	6.049134723160327e-13 	101324.9999999959
0.6994494494494489 	299.9999999999656 	4.750815986708426e-13 	101324.9999999958
0.7019519519519515 	299.9999999999899 	8.36968489149873e-13 	101324.9999999958
0.7044544544544538 	299.9999999999776 	1.282043444907378e-12 	101324.9999999957
0.7069569569569564 	299.999999999996 	1.581598905316604e-12 	101324.9999999958
0.7094594594594589 	299.9999999999834 	9.370640846212265e-13 	101324.9999999959
0.7119619619619615 	299.999999999962 	1.767581364520846e-12 	101324.9999999959
0.7144644644644638 	299.9999999999787 	7.466637990337843e-13 	101324.9999999961
0.7169669669669665 	299.9999999999691 	1.218585828048746e-12 	101324.9999999963
0.7194694694694688 	299.9999999999955 	2.858588170472177e-13 	101324.9999999964
0.7219719719719715 	299.9999999999956 	6.043192776435049e-13 	101324.9999999963
0.7244744744744737 	299.9999999999991 	6.086262900313523e-13 	101324.9999999961
0.7269769769769764 	299.9999999999969 	9.682786567534178e-13 	101324.999999996
0.7294794794794791 	299.9999999999947 	1.914174009699486e-12 	101324.9999999959
0.7319819819819813 	299.9999999999902 	8.343965062333242e-13 	101324.9999999958
0.7344844844844839 	299.9999999999673 	1.635845318844453e-12 	101324.9999999958
0.7369869869869864 	299.9999999999823 	4.571703835979989e-13 	101324.9999999957
0.739489489489489 	299.9999999999777 	1.088271719373982e-12 	101324.9999999956
0.7419919919919914 	299.9999999999727 	1.267579199054804e-12 	101324.9999999955
0.7444944944944939 	299.9999999999894 	1.092349421882284e-12 	101324.9999999954
0.7469969969969963 	299.9999999999862 	1.936602452034205e-12 	101324.9999999954
0.7494994994994989 	299.9999999999734 	2.062473281890023e-12 	101324.9999999953
0.7520020020020015 	299.9999999999866 	1.883771140220316e-12 	101324.9999999953
0.7545045045045039 	299.9999999999869 	2.515708869549183e-12 	101324.9999999954
0.7570070070070062 	299.9999999999761 	7.870725833448344e-13 	101324.9999999955
0.7595095095095092 	299.9999999999681 	2.099485227660709e-12 	101324.9999999955
0.7620120120120112 	299.9999999999976 	1.757500819717788e-12 	101324.9999999956
0.7645145145145138 	299.9999999999931 	1.633432220279544e-12 	101324.9999999958
0.7670170170170165 	299.9999999999752 	1.786787941656816e-12 	101324.9999999959
0.7695195195195191 	299.9999999999682 	1.349646652919901e-12 	101324.9999999959
0.7720220220220213 	299.9999999999748 	3.119674506453126e-12 	101324.9999999959
0.7745245245245239 	299.9999999999783 	1.962555201576919e-12 	101324.999999996
0.7770270270270263 	299.9999999999912 	2.7114319696957e-12 	101324.999999996
0.779529529529529 	299.9999999999912 	1.339566727567837e-12 	101324.9999999959
0.7820320320320313 	299.9999999999865 	1.766565338435226e-12 	101324.999999996
0.784534534534534 	299.9999999999958 	1.454352489963536e-12 	101324.9999999959
0.7870370370370364 	299.9999999999951 	1.367787987524756e-12 	101324.9999999959
0.7895395395395389 	299.999999999993 	1.730578920136967e-12 	101324.9999999958
0.7920420420420413 	299.9999999999888 	9.240137641692888e-13 	101324.9999999958
0.794544544544544 	299.9999999999903 	2.217790437140099e-12 	101324.9999999958
0.7970470470470463 	300.0000000000035 	1.490300175975544e-12 	101324.999999996
0.799549549549549 	299.9999999999943 	1.985326724140943e-12 	101324.9999999961
0.8020520520520515 	299.9999999999978 	8.589056347893598e-13 	101324.9999999961
0.8045545545545539 	299.9999999999803 	1.447912365598408e-12 	101324.9999999962
0.8070570570570563 	299.9999999999936 	7.846282600511597e-13 	101324.9999999961
0.8095595595595589 	299.9999999999836 	9.785861005573989e-13 	101324.9999999963
0.8120620620620614 	299.9999999999731 	1.05570334323355e-12 	101324.9999999964
0.8145645645645638 	299.9999999999976 	8.063105993648347e-13 	101324.9999999964
0.8170670670670666 	299.9999999999958 	1.577136314487666e-12 	101324.9999999965
0.8195695695695689 	299.9999999999899 	1.500338976113212e-12 	101324.9999999964
0.8220720720720714 	299.999999999977 	1.824332989401597e-12 	101324.9999999962
0.8245745745745739 	299.9999999999989 	6.303766169433936e-13 	101324.9999999962
0.8270770770770765 	299.9999999999884 	1.584051194696004e-12 	101324.9999999963
0.8295795795795788 	299.9999999999786 	1.16193920137179e-12 	101324.9999999963
0.8320820820820815 	300.0000000000101 	1.590558720487695e-12 	101324.9999999962
0.834584584584584 	300.0000000000043 	1.13848137768827e-12 	101324.9999999961
0.8370870870870865 	299.9999999999875 	4.886052802783846e-13 	101324.9999999961
0.8395895895895891 	299.9999999999701 	7.562761827602434e-13 	101324.9999999959
0.8420920920920915 	299.9999999999718 	3.99270613603837e-13 	101324.9999999958
0.844594594594594 	299.9999999999674 	1.432288957616397e-13 	101324.9999999956
0.8470970970970964 	299.9999999999781 	3.504097246876612e-13 	101324.9999999955
0.8495995995995991 	299.9999999999934 	5.118015425567811e-13 	101324.9999999956
0.8521021021021015 	299.9999999999914 	9.607034849894171e-13 	101324.9999999957
0.8546046046046039 	299.999999999991 	1.334797639355206e-12 	101324.9999999958
0.8571071071071066 	299.9999999999982 	1.766193223228992e-12 	101324.9999999959
0.8596096096096089 	299.9999999999814 	1.788441715165748e-12 	101324.9999999962
0.8621121121121116 	299.9999999999698 	1.818250791268598e-12 	101324.9999999963
0.8646146146146139 	299.9999999999961 	9.003495136325127e-13 	101324.9999999963
0.8671171171171166 	299.9999999999919 	8.882991181212866e-13 	101324.9999999964
0.8696196196196189 	299.9999999999825 	8.671670176006461e-13 	101324.9999999963
0.8721221221221216 	299.9999999999843 	1.461970889945667e-12 	101324.9999999961
0.874624624624624 	299.9999999999993 	1.247402722934631e-12 	101324.999999996
0.8771271271271264 	300.0000000000013 	1.176148349800372e-12 	101324.999999996
0.879629629629629 	299.9999999999999 	2.127881691490238e-12 	101324.9999999959
0.8821321321321317 	299.9999999999935 	1.688081744389444e-12 	101324.9999999958
0.8846346346346339 	299.9999999999685 	1.858398480074358e-12 	101324.9999999957
0.8871371371371364 	299.9999999999819 	8.537433488436521e-13 	101324.9999999958
0.8896396396396391 	299.999999999982 	1.489104574610317e-12 	101324.9999999959
0.8921421421421414 	299.999999999982 	7.448337001277627e-13 	101324.9999999958
0.8946446446446441 	299.9999999999907 	1.079051299512731e-12 	101324.9999999959
0.8971471471471464 	299.9999999999971 	1.091809656637924e-12 	101324.999999996
0.8996496496496489 	299.999999999986 	8.915094802833427e-13 	101324.9999999959
0.9021521521521517 	299.9999999999814 	1.442449138860748e-12 	101324.9999999959
0.9046546546546541 	299.9999999999932 	9.803721887660438e-13 	101324.9999999962
0.9071571571571564 	299.999999999977 	1.40296005058557e-12 	101324.9999999962
0.9096596596596589 	299.9999999999774 	1.450761504009759e-12 	101324.9999999962
0.9121621621621616 	300 	1.480330862945425e-12 	101324.9999999962
0.9146646646646639 	299.9999999999908 	1.626352144507198e-12 	101324.9999999963
0.9171671671671666 	299.9999999999791 	1.799364321104879e-12 	101324.9999999964
0.9196696696696689 	300.0000000000002 	2.264814592570396e-12 	101324.9999999963
0.9221721721721714 	300.000000000002 	1.534126632536147e-12 	101324.9999999962
0.9246746746746741 	299.9999999999779 	2.425533918185207e-12 	101324.9999999962
0.9271771771771765 	299.9999999999771 	1.490384091433303e-12 	101324.9999999963
0.9296796796796791 	299.9999999999973 	2.230414311816729e-12 	101324.9999999963
0.9321821821821816 	299.9999999999906 	1.168398245313753e-12 	101324.9999999963
0.9346846846846838 	299.9999999999766 	1.206436846807701e-12 	101324.9999999961
0.9371871871871866 	299.9999999999991 	1.017127295052242e-12 	101324.999999996
0.9396896896896891 	300.0000000000039 	1.052832937220584e-12 	101324.9999999959
0.9421921921921914 	300.000000000002 	1.604028961450305e-12 	101324.9999999958
0.9446946946946939 	299.9999999999827 	1.798674505503847e-12 	101324.9999999958
0.9471971971971965 	299.9999999999665 	1.372864548587736e-12 	101324.9999999959
0.9496996996996991 	299.9999999999802 	7.966608954796141e-13 	101324.9999999961
0.9522022022022016 	299.9999999999861 	1.888952193417613e-12 	101324.9999999961
0.9547047047047038 	299.9999999999875 	1.701689887867878e-12 	101324.9999999962
0.9572072072072064 	299.9999999999845 	2.07675208598198e-12 	101324.9999999964
0.9597097097097093 	299.9999999999848 	2.077650107801542e-12 	101324.9999999966
0.9622122122122114 	299.9999999999848 	2.13721631285267e-12 	101324.9999999968
0.964714714714714 	299.9999999999851 	3.076312860487307e-12 	101324.9999999967
0.9672172172172167 	299.9999999999854 	3.0068760148756e-12 	101324.9999999968
0.969719719719719 	299.9999999999955 	3.446206489793995e-12 	101324.9999999968
0.9722222222222214 	299.9999999999901 	3.086827386705187e-12 	101324.9999999967
0.9747247247247239 	299.9999999999867 	2.98712181565082e-12 	101324.9999999966
0.9772272272272267 	299.9999999999968 	2.289970919426075e-12 	101324.9999999965
0.9797297297297292 	299.9999999999945 	1.594598195502206e-12 	101324.9999999966
0.9822322322322313 	299.9999999999998 	2.277308291310354e-12 	101324.9999999966
0.9847347347347344 	299.9999999999998 	1.791017695042648e-12 	101324.9999999966
0.9872372372372363 	299.9999999999836 	2.115494681565974e-12 	101324.9999999965
0.9897397397397389 	299.9999999999929 	1.196962432297097e-12 	101324.9999999965
0.9922422422422417 	299.9999999999848 	2.607877154175991e-12 	101324.9999999967
0.9947447447447441 	299.9999999999811 	2.650269188650125e-12 	101324.9999999967
0.9972472472472468 	299.9999999999883 	3.266505258351062e-12 	101324.9999999966
0.999749749749749 	299.9999999999841 	2.673450810915082e-12 	101324.9999999967
1.002252252252252 	299.9999999999857 	2.917697700404211e-12 	101324.9999999967
1.004754754754754 	299.9999999999886 	3.162974541604648e-12 	101324.9999999967
1.007257257257256 	299.9999999999803 	2.868031788703151e-12 	101324.9999999968
1.009759759759759 	299.9999999999786 	3.792530705160784e-12 	101324.9999999969
1.012262262262261 	299.9999999999782 	2.621940472966654e-12 	101324.9999999969
1.014764764764764 	299.9999999999676 	3.470277131811016e-12 	101324.999999997
1.017267267267267 	299.9999999999659 	3.128900732763782e-12 	101324.999999997
1.019769769769769 	299.9999999999866 	3.500593362048736e-12 	101324.999999997
1.022272272272272 	299.9999999999889 	3.28262345934278e-12 	101324.9999999971
1.024774774774774 	299.9999999999852 	3.532464384723681e-12 	101324.9999999969
1.027277277277277 	299.9999999999861 	4.007545680873695e-12 	101324.9999999967
1.029779779779779 	299.9999999999974 	3.408434885574275e-12 	101324.9999999966
1.032282282282282 	299.9999999999947 	3.553513831662377e-12 	101324.9999999965
1.034784784784784 	299.9999999999911 	3.450815829345569e-12 	101324.9999999966
1.037287287287286 	299.9999999999799 	3.845318855641153e-12 	101324.9999999968
1.039789789789789 	299.9999999999863 	3.628428500925506e-12 	101324.999999997
1.042292292292291 	300.0000000000002 	3.408347119475497e-12 	101324.9999999971
1.044794794794794 	300.000000000003 	2.957169060006059e-12 	101324.9999999973
1.047297297297296 	300.000000000013 	2.091396922313441e-12 	101324.9999999976
1.049799799799799 	299.9999999999927 	2.626209895176748e-12 	101324.9999999975
1.052302302302302 	299.9999999999806 	1.610413012739282e-12 	101324.9999999974
1.054804804804804 	299.9999999999767 	2.373535086496698e-12 	101324.9999999973
1.057307307307306 	299.9999999999686 	2.150991571521196e-12 	101324.9999999974
1.059809809809809 	299.9999999999806 	2.877065871243453e-12 	101324.9999999974
1.062312312312312 	299.9999999999769 	2.566128539893844e-12 	101324.9999999975
1.064814814814814 	299.9999999999752 	2.964972928850722e-12 	101324.9999999975
1.067317317317317 	299.9999999999687 	2.898334180962074e-12 	101324.9999999975
1.069819819819819 	299.9999999999689 	2.780807440999766e-12 	101324.9999999974
1.072322322322321 	299.9999999999926 	3.947218443244227e-12 	101324.9999999974
1.074824824824824 	299.9999999999978 	3.038474143946124e-12 	101324.9999999975
1.077327327327327 	300.0000000000072 	3.696913700865802e-12 	101324.9999999976
1.079829829829829 	300.0000000000124 	2.66684262569013e-12 	101324.9999999976
1.082332332332332 	300.0000000000008 	3.02705989590901e-12 	101324.9999999977
1.084834834834834 	299.9999999999943 	3.067244930820087e-12 	101324.9999999978
1.087337337337337 	299.9999999999785 	3.289731087875294e-12 	101324.9999999979
1.089839839839839 	299.9999999999752 	4.063676285050785e-12 	101324.9999999978
1.092342342342342 	299.9999999999902 	3.371822715304398e-12 	101324.9999999977
1.094844844844844 	299.9999999999919 	3.66427053035429e-12 	101324.9999999978
1.097347347347347 	299.9999999999788 	2.862175877817521e-12 	101324.9999999978
1.099849849849849 	299.9999999999753 	4.356047029300593e-12 	101324.9999999979
1.102352352352352 	299.9999999999824 	3.490301650168433e-12 	101324.9999999979
1.104854854854854 	299.9999999999881 	4.597197445358958e-12 	101324.9999999979
1.107357357357357 	299.9999999999841 	3.806835710799038e-12 	101324.999999998
1.109859859859859 	299.9999999999803 	4.483797808789122e-12 	101324.999999998
1.112362362362362 	300.0000000000062 	3.69888127458972e-12 	101324.999999998
1.114864864864865 	300.0000000000031 	3.47547239219767e-12 	101324.999999998
1.117367367367367 	299.9999999999848 	4.072382869063309e-12 	101324.9999999979
1.119869869869869 	299.9999999999721 	3.60089243722685e-12 	101324.9999999978
1.122372372372372 	299.9999999999806 	4.443154385157483e-12 	101324.9999999979
1.124874874874874 	299.9999999999796 	3.803417506811682e-12 	101324.999999998
1.127377377377377 	299.9999999999865 	4.476670088810208e-12 	101324.9999999979
1.129879879879879 	300.0000000000088 	4.139355938270801e-12 	101324.9999999979
1.132382382382382 	300.0000000000121 	4.067035227026488e-12 	101324.9999999978
1.134884884884884 	300.0000000000003 	3.617906667446818e-12 	101324.9999999978
1.137387387387387 	300.0000000000024 	3.604020025419506e-12 	101324.999999998
1.139889889889889 	299.9999999999866 	4.017952202888474e-12 	101324.999999998
1.142392392392392 	299.9999999999839 	3.186781235542817e-12 	101324.999999998
1.144894894894894 	300.0000000000014 	3.86173078218172e-12 	101324.999999998
1.147397397397397 	299.9999999999935 	3.289495676469549e-12 	101324.9999999981
1.149899899899899 	299.9999999999738 	3.927075089301211e-12 	101324.9999999981
1.152402402402402 	299.9999999999721 	3.957395586421017e-12 	101324.9999999982
1.154904904904904 	299.9999999999868 	4.476353972373449e-12 	101324.9999999984
1.157407407407407 	299.999999999987 	4.13405525939361e-12 	101324.9999999985
1.159909909909909 	299.9999999999762 	4.5623666885204e-12 	101324.9999999984
1.162412412412412 	299.9999999999739 	5.530568728365461e-12 	101324.9999999983
1.164914914914914 	299.9999999999832 	4.781966762819476e-12 	101324.9999999983
1.167417417417417 	299.9999999999831 	5.453048212042245e-12 	101324.9999999983
1.169919919919919 	300.000000000001 	4.703555692589705e-12 	101324.9999999984
1.172422422422422 	300.0000000000142 	5.205728286984077e-12 	101324.9999999984
1.174924924924925 	299.9999999999952 	4.553349707603273e-12 	101324.9999999985
1.177427427427427 	299.9999999999827 	5.044623518868004e-12 	101324.9999999987
1.179929929929929 	300.0000000000028 	5.529815986050641e-12 	101324.9999999986
1.182432432432432 	300.0000000000135 	4.384983255136504e-12 	101324.9999999985
1.184934934934934 	300.0000000000026 	5.025581210719842e-12 	101324.9999999985
1.187437437437437 	299.9999999999886 	4.835860018903546e-12 	101324.9999999984
1.189939939939939 	299.9999999999815 	5.84260542553206e-12 	101324.9999999983
1.192442442442442 	299.9999999999714 	5.761602524947733e-12 	101324.9999999982
1.194944944944944 	299.9999999999726 	6.615273868915972e-12 	101324.9999999981
1.197447447447447 	299.9999999999939 	6.168018941424433e-12 	101324.9999999983
1.199949949949949 	300.0000000000001 	6.144188164025271e-12 	101324.9999999985
1.202452452452452 	299.9999999999815 	6.708320646188959e-12 	101324.9999999985
1.204954954954955 	299.9999999999794 	5.773634869659738e-12 	101324.9999999987
1.207457457457457 	299.9999999999877 	5.855164441841687e-12 	101324.9999999988
1.20995995995996 	299.9999999999869 	5.425121997767549e-12 	101324.9999999989
1.212462462462462 	299.9999999999947 	6.149848194531243e-12 	101324.9999999989
1.214964964964964 	299.9999999999954 	5.417969910046544e-12 	101324.9999999989
1.217467467467467 	299.9999999999961 	5.610087195111001e-12 	101324.9999999988
1.219969969969969 	299.9999999999875 	4.981086910715001e-12 	101324.9999999988
1.222472472472472 	300.000000000001 	5.607058611718474e-12 	101324.9999999988
1.224974974974975 	300.0000000000157 	6.16500748616159e-12 	101324.9999999988
1.227477477477477 	299.9999999999985 	5.229221081473265e-12 	101324.9999999988
1.229979979979979 	299.9999999999923 	5.860715299507189e-12 	101324.9999999989
1.232482482482482 	299.9999999999835 	5.06988540081828e-12 	101324.999999999
1.234984984984984 	299.9999999999837 	5.788195535998075e-12 	101324.9999999992
1.237487487487487 	299.9999999999907 	5.069219170860736e-12 	101324.9999999994
1.239989989989989 	299.999999999992 	5.559092374402894e-12 	101324.9999999994
1.242492492492492 	300.0000000000041 	5.768622310339441e-12 	101324.9999999994
1.244994994994994 	299.9999999999915 	4.940067321082412e-12 	101324.9999999993
1.247497497497497 	299.9999999999923 	5.880562138497307e-12 	101324.9999999993
1.249999999999999 	300.0000000000691 	5.616736027048353e-12 	101324.9999999993
