-1.25 	300 	0.07207092618226622 	101295.6107373854
-1.247497497497497 	299.9788249649085 	0.05968836842636833 	101301.3304257498
-1.244994994994995 	299.9853205976619 	0.04186527923936164 	101307.6421680507
-1.242492492492492 	299.9906863081989 	0.02744669854615338 	101313.9856427833
-1.23998998998999 	299.9963091183569 	0.01039695468933058 	101320.6359640345
-1.237487487487487 	300.0020553330099 	0.008345278756903354 	101327.4288991811
-1.234984984984985 	300.0077587969554 	0.02251584904566402 	101334.1718196626
-1.232482482482482 	300.0133448503584 	0.03865061206478533 	101340.7762058769
-1.22997997997998 	300.0187262496329 	0.05414139240203557 	101347.1389039425
-1.227477477477477 	300.0237492762658 	0.06863610004976035 	101353.078179705
-1.224974974974975 	300.0283174866095 	0.08188187709722057 	101358.479897842
-1.222472472472472 	300.0324144687765 	0.09369115592586329 	101363.3246119854
-1.21996996996997 	300.0358979316503 	0.1037453514552306 	101367.4440155939
-1.217467467467467 	300.0386511571082 	0.1117382616907278 	101370.6999341176
-1.214964964964965 	300.0406861376579 	0.1176429364077321 	101373.1065426199
-1.212462462462462 	300.0420061754793 	0.1215038625552829 	101374.6676887415
-1.20995995995996 	300.0425785162271 	0.1231441502179571 	101375.3445918595
-1.207457457457457 	300.0423746364698 	0.1225027019953222 	101375.1035253036
-1.204954954954955 	300.0413732207373 	0.119572001886367 	101373.9193302817
-1.202452452452452 	300.0395728658532 	0.1143418435952873 	101371.7903631944
-1.19994994994995 	300.0369946749215 	0.1069261949234385 	101368.7415599371
-1.197447447447447 	300.0337260440475 	0.09748866894237782 	101364.8763120703
-1.194944944944945 	300.0298680340948 	0.08630643895972635 	101360.3142439921
-1.192442442442442 	300.0254849386555 	0.07363215316048403 	101355.131450597
-1.18993993993994 	300.0206426810553 	0.05968831164078897 	101349.4058927383
-1.187437437437437 	300.0154436236031 	0.0446823441826199 	101343.2587169099
-1.184934934934935 	300.009960823327 	0.02879627129244554 	101336.776317274
-1.182432432432432 	300.0042946959254 	0.0123971182773152 	101330.0774760399
-1.17992992992993 	299.9985796423695 	0.008481818769525589 	101323.3211254814
-1.177427427427427 	299.9928854270127 	0.02064511353790185 	101316.5896898196
-1.174924924924925 	299.9872828714342 	0.03683200507981309 	101309.9669330471
-1.172422422422422 	299.9818778603816 	0.05241926616652299 	101303.5779536534
-1.16991991991992 	299.9767881343247 	0.06709866072274044 	101297.561928872
-1.167417417417417 	299.9721340596452 	0.08053874054999249 	101292.0610688139
-1.164914914914915 	299.9680199875137 	0.09245179910721175 	101287.19858751
-1.162412412412412 	299.9645193087071 	0.1025770611755853 	101283.0612260234
-1.15990990990991 	299.9616753836046 	0.1107927254439536 	101279.7001175481
-1.157407407407407 	299.9595154454743 	0.1170511272755631 	101277.1474173293
-1.154904904904904 	299.9580782944511 	0.1212053447698987 	101275.4489041664
-1.152402402402403 	299.9574250094576 	0.1231019131121062 	101274.6767848134
-1.1498998998999 	299.9575884004662 	0.1226140836753886 	101274.869864978
-1.147397397397397 	299.9585610415626 	0.1197529745020555 	101276.0192278688
-1.144894894894895 	299.9603168116876 	0.1146677826857227 	101278.0941136848
-1.142392392392392 	299.9628051885658 	0.107491478941186 	101281.0348726415
-1.13988988988989 	299.9659582817756 	0.09838506631367418 	101284.7612470205
-1.137387387387387 	299.9697235771922 	0.08749201954821426 	101289.211316795
-1.134884884884885 	299.9740441601597 	0.07498523914925284 	101294.3178156898
-1.132382382382382 	299.978844462164 	0.06112138855542346 	101299.9915422371
-1.12987987987988 	299.9840308637616 	0.04616653864368417 	101306.1219109449
-1.127377377377377 	299.9894849446846 	0.03043458195060316 	101312.5689267527
-1.124874874874875 	299.9950817377947 	0.01421471858014163 	101319.1849862378
-1.122372372372372 	300.0007375560286 	0.008362775229966399 	101325.8711150104
-1.11986986986987 	300.006406503295 	0.01861302483846682 	101332.5731113879
-1.117367367367367 	300.0120124761249 	0.03479346424626294 	101339.2009989479
-1.114864864864865 	300.017424906131 	0.05041212080127631 	101345.6003222952
-1.112362362362362 	300.022516616906 	0.0651154759438114 	101351.6207566173
-1.10985985985986 	300.0271883699319 	0.07861428010447251 	101357.1448449791
-1.107357357357357 	300.0313501187833 	0.09061343665029417 	101362.0660944894
-1.104854854854855 	300.0349283907486 	0.1009633338399706 	101366.2975554596
-1.102352352352353 	300.0378803136477 	0.1094918282853351 	101369.7883978101
-1.09984984984985 	300.0401552821687 	0.1160670446831991 	101372.4788042739
-1.097347347347347 	300.0417021994787 	0.1205668153310227 	101374.3082420411
-1.094844844844845 	300.0424759670312 	0.1227728435801783 	101375.223372225
-1.092342342342342 	300.0424393998139 	0.1226460986939628 	101375.1801663723
-1.08983983983984 	300.0415857460364 	0.1201814937513876 	101374.1706925989
-1.087337337337337 	300.0399560195482 	0.1154563073219115 	101372.2435225807
-1.084834834834835 	300.0375885751932 	0.1086327971260737 	101369.4439155557
-1.082332332332332 	300.0345321089825 	0.0997821481469824 	101365.8295516467
-1.07982982982983 	300.030842586231 	0.08910097484622666 	101361.4667121451
-1.077327327327327 	300.0265832071005 	0.07678643753056552 	101356.4301338612
-1.074824824824825 	300.0218332341291 	0.06308576700753377 	101350.8136613531
-1.072322322322323 	300.0167035028721 	0.04827075075916097 	101344.748391913
-1.06981981981982 	300.0112762244227 	0.03254880346072365 	101338.3315648158
-1.067317317317317 	300.005653892215 	0.01628622140315222 	101331.6844482592
-1.064814814814815 	299.9999416675233 	0.008171375851853579 	101324.9313448398
-1.062312312312312 	299.9942016842285 	0.01686969918149273 	101318.1457400688
-1.05980980980981 	299.9885341969231 	0.03320954419967714 	101311.4461575356
-1.057307307307307 	299.9830722317556 	0.04896817689666495 	101304.989790834
-1.054804804804805 	299.9779367183065 	0.06379832872480468 	101298.9195944165
-1.052302302302302 	299.9732284237176 	0.0774305551673713 	101293.3545832967
-1.0497997997998 	299.9690153964144 	0.08965016704841618 	101288.3751172671
-1.047297297297297 	299.9653555734993 	0.1002158023672489 	101284.0496393423
-1.044794794794795 	299.9623190283276 	0.1089751000708513 	101280.4608647354
-1.042292292292292 	299.9599771342418 	0.1157325085567453 	101277.6931266573
-1.03978978978979 	299.9583923683226 	0.1203013444475461 	101275.8201351936
-1.037287287287287 	299.9576045713991 	0.1225898873451457 	101274.8890586398
-1.034784784784785 	299.9576158198593 	0.122528436130511 	101274.9023345466
-1.032282282282283 	299.9584132770848 	0.120187056191785 	101275.844672867
-1.02977977977978 	299.9599770516601 	0.1156708527452395 	101277.6926658507
-1.027277277277277 	299.9622731773374 	0.1090463306063442 	101280.4061824961
-1.024774774774775 	299.9652621375278 	0.1004315357071806 	101283.9385721777
-1.022272272272272 	299.9688949519831 	0.08993205196145899 	101288.2320217254
-1.01976976976977 	299.9730973473671 	0.07776017168467825 	101293.1987848799
-1.017267267267267 	299.9777885049483 	0.06419784394499974 	101298.7434712524
-1.014764764764765 	299.982874806527 	0.0495020703087304 	101304.7554460222
-1.012262262262262 	299.988248884461 	0.03396984353231293 	101311.1078443243
-1.00975975975976 	299.9938061401012 	0.01786671694142963 	101317.6770937556
-1.007257257257257 	299.9994514207577 	0.007607559011642514 	101324.3506920135
-1.004754754754755 	300.0051111468084 	0.01486420717154058 	101331.0417203669
-1.002252252252252 	300.0107017585437 	0.03098431309528916 	101337.6513597603
-0.9997497497497498 	300.0161034515128 	0.04656473833097879 	101344.0379307417
-0.9972472472472473 	300.0212184177756 	0.06135406534947503 	101350.0857912662
-0.9947447447447449 	300.0259678462826 	0.07509084161135547 	101355.7016694104
-0.9922422422422421 	300.0302634731077 	0.08747569436165374 	101360.7811668654
-0.9897397397397399 	300.0340147754667 	0.0983275155555005 	101365.217188636
-0.9872372372372376 	300.0371497411663 	0.1073732122929955 	101368.9244832976
-0.9847347347347346 	300.0395907515743 	0.1144696919516983 	101371.8112242267
-0.9822322322322323 	300.0412984547719 	0.119454375539677 	101373.8308166404
-0.9797297297297296 	300.0422484677098 	0.122137709101503 	101374.9543662142
-0.9772272272272275 	300.0424112747593 	0.122567869283609 	101375.1469300398
-0.9747247247247248 	300.0417715313399 	0.1207045219448981 	101374.3904281026
-0.9722222222222224 	300.0403551823227 	0.1166076679667767 	101372.7155836661
-0.9697197197197196 	300.0381743125342 	0.1103357799993452 	101370.1366323279
-0.9672172172172175 	300.0352829814029 	0.1019442151383421 	101366.7175227607
-0.9647147147147147 	300.0317428833022 	0.09169247608051265 	101362.5313287036
-0.9622122122122124 	300.0276173815931 	0.07978262223984628 	101357.6530434403
-0.9597097097097099 	300.022983098313 	0.06645337732401158 	101352.1733162054
-0.9572072072072073 	300.0179364268004 	0.05185613448006221 	101346.2062043799
-0.9547047047047047 	300.0125411526195 	0.03621252332528874 	101339.8271570202
-0.9522022022022023 	300.0069202414581 	0.01995548258751361 	101333.1816238188
-0.9496996996996998 	300.001205834047 	0.007012003404893281 	101326.425889685
-0.9471971971971973 	299.9954775716216 	0.01317491513676492 	101319.6540723107
-0.9446946946946947 	299.9898203061057 	0.02951038348785293 	101312.9664966766
-0.9421921921921923 	299.9843358300951 	0.04532447408655251 	101306.4834661145
-0.93968968968969 	299.9791323533889 	0.06033466336734001 	101300.3328552529
-0.9371871871871872 	299.9743108747967 	0.0742923577002607 	101294.6340278597
-0.9346846846846848 	299.9699594924634 	0.08688784414940423 	101289.4910044175
-0.9321821821821823 	299.9661623566067 	0.09786263924415853 	101285.0031973062
-0.9296796796796799 	299.9629956151576 	0.1070098237709501 	101281.2605441595
-0.9271771771771771 	299.9605214145539 	0.114149835507359 	101278.3364156432
-0.9246746746746748 	299.9587917846017 	0.1191718542176089 	101276.2922336184
-0.9221721721721724 	299.957836129018 	0.1219388027543662 	101275.1627712711
-0.9196696696696698 	299.9576652816278 	0.1223917685067237 	101274.9608355372
-0.9171671671671672 	299.958283150911 	0.1205623790455772 	101275.6909707118
-0.9146646646646649 	299.9596741964942 	0.116529396056023 	101277.3348014185
-0.9121621621621623 	299.9618024630255 	0.1103995419322747 	101279.8499467106
-0.9096596596596597 	299.9646278474737 	0.1022537618782161 	101283.1890107788
-0.9071571571571573 	299.9680976945252 	0.09221611454769249 	101287.2898089534
-0.9046546546546547 	299.9721515991879 	0.08046946209905348 	101292.081055739
-0.9021521521521524 	299.9767243532978 	0.0672659597615082 	101297.4857244479
-0.8996496496496498 	299.9817213637719 	0.05285925668183877 	101303.3921071028
-0.8971471471471473 	299.9870281485835 	0.03751621290213406 	101309.6649068018
-0.894644644644645 	299.9925352227325 	0.02155668929487158 	101316.1747490793
-0.892142142142142 	299.9981323624818 	0.005957191144565018 	101322.7913858995
-0.8896396396396397 	300.003748073443 	0.0109262976333088 	101329.4302883053
-0.8871371371371374 	300.0093198149353 	0.02699064751248359 	101336.0175398094
-0.8846346346346349 	300.0147423979156 	0.04265383826673638 	101342.4287423574
-0.8821321321321324 	300.019925295376 	0.0576483690927919 	101348.5568316228
-0.8796296296296297 	300.0247758308362 	0.07166590693925853 	101354.2922161838
-0.8771271271271271 	300.0291862335143 	0.08438052680131157 	101359.5073788052
-0.8746246246246248 	300.0330665379986 	0.0955903702380186 	101364.0959036189
-0.8721221221221224 	300.0363455291986 	0.1050591039581454 	101367.9734909126
-0.8696196196196196 	300.0389489636377 	0.1126465737576371 	101371.052273676
-0.8671171171171175 	300.0408428881311 	0.1181488761156478 	101373.292087555
-0.8646146146146148 	300.0419893974401 	0.1213890988889371 	101374.6480211662
-0.8621121121121121 	300.0423454193823 	0.1223912163585667 	101375.0690968279
-0.8596096096096097 	300.0419070404674 	0.1211079930600843 	101374.5506935754
-0.857107107107107 	300.0406918674682 	0.1176010579655641 	101373.1137471084
-0.8546046046046049 	300.038710868101 	0.1119002635129134 	101370.7711666808
-0.8521021021021022 	300.0360123886793 	0.104056283383734 	101367.5801092894
-0.8495995995995997 	300.0326404962083 	0.09427555848684144 	101363.5927993951
-0.8470970970970974 	300.0286391893204 	0.08274432690837114 	101358.861332748
-0.8445945945945946 	300.0240988458158 	0.06968442124706656 	101353.4926253166
-0.8420920920920922 	300.019113525829 	0.05526934878647823 	101347.5980106408
-0.8395895895895897 	300.0137687916848 	0.03979225166963397 	101341.2786551686
-0.8370870870870872 	300.008196896586 	0.02365878948214152 	101334.6910195191
-0.8345845845845846 	300.0025235102461 	0.007213700742778809 	101327.9836976384
-0.8320820820820823 	299.9968147523029 	0.01044158365177976 	101321.234853664
-0.8295795795795798 	299.9911403523357 	0.02568329342093267 	101314.5269659795
-0.8270770770770772 	299.9856008681351 	0.04164982715190584 	101307.9788378906
-0.8245745745745746 	299.9803190707544 	0.05690896144919984 	101301.7356024017
-0.8220720720720721 	299.9754019271269 	0.07114380976227451 	101295.923642193
-0.8195695695695699 	299.9709391173712 	0.08405695109942421 	101290.648864903
-0.817067067067067 	299.967014286782 	0.095377461458859 	101286.0101173252
-0.8145645645645651 	299.963710707003 	0.1049275097112883 	101282.1057100659
-0.8120620620620621 	299.9610885374506 	0.1125184606939015 	101279.0067082076
-0.8095595595595597 	299.9592039008485 	0.117983167589756 	101276.7793439896
-0.8070570570570572 	299.9580867695404 	0.1212120935421734 	101275.4590108963
-0.8045545545545546 	299.9577507766884 	0.1221313018033745 	101275.061927908
-0.8020520520520523 	299.9581950541231 	0.1208134995016905 	101275.5869098784
-0.7995495495495494 	299.9594079533956 	0.1173225943433373 	101277.0202273415
-0.7970470470470474 	299.9613539842349 	0.1116997095010857 	101279.3199859098
-0.7945445445445446 	299.9640102325782 	0.1040291856161933 	101282.4591322582
-0.7920420420420423 	299.9673344190834 	0.09439795822587928 	101286.3877745234
-0.7895395395395397 	299.9712715060952 	0.08301750069873809 	101291.0409101606
-0.7870370370370371 	299.9757400021266 	0.07013144057265536 	101296.3223197381
-0.7845345345345348 	299.9806428367811 	0.05598779257413136 	101302.1173284297
-0.7820320320320323 	299.9858604756085 	0.04088253507149932 	101308.2846880337
-0.7795295295295296 	299.9912990302177 	0.02512039406328392 	101314.713489557
-0.7770270270270272 	299.9968463162974 	0.009047518463274673 	101321.2710973319
-0.7745245245245247 	300.0024269476093 	0.009582548701877946 	101327.8684710577
-0.7720220220220222 	300.0079789563403 	0.02313916079275869 	101334.4323138922
-0.7695195195195199 	300.0134150596196 	0.03885053028665652 	101340.8594135249
-0.767017017017017 	300.0186476361177 	0.05394266189506938 	101347.0462003828
-0.7645145145145147 	300.0235735025411 	0.06815421709403724 	101352.8705635944
-0.7620120120120122 	300.0280826880064 	0.08116531855503686 	101358.2024984809
-0.7595095095095097 	300.0320895002703 	0.09277257546126527 	101362.9405745369
-0.7570070070070072 	300.0355122309706 	0.1026782124772982 	101366.9880865661
-0.7545045045045048 	300.0382831326734 	0.1107071972814159 	101370.2649237776
-0.7520020020020022 	300.0403546579242 	0.1166977602934023 	101372.7147210691
-0.7494994994994997 	300.0416774380853 	0.1204817823472977 	101374.279118138
-0.7469969969969972 	300.0422195338343 	0.1220793391151919 	101374.9202734054
-0.7444944944944945 	300.0419913310429 	0.1213767846080086 	101374.6503797042
-0.7419919919919924 	300.0409875351877 	0.1184295467602687 	101373.463433743
-0.7394894894894897 	300.0392123309562 	0.1132992233569242 	101371.3641930028
-0.7369869869869872 	300.0366934262921 	0.1059804963745565 	101368.3854865492
-0.7344844844844846 	300.0334710535349 	0.09670273847599878 	101364.5749893509
-0.7319819819819822 	300.02960576026 	0.08557464070867873 	101360.0042941165
-0.7294794794794797 	300.0252020181143 	0.07283643930631498 	101354.7971043962
-0.7269769769769773 	300.0203251163448 	0.05876255749565062 	101349.0305978311
-0.7244744744744747 	300.0150675084408 	0.04355264611501366 	101342.8141999664
-0.721971971971972 	300.0095459767417 	0.02759761266594852 	101336.2860597003
-0.7194694694694695 	300.0038851253177 	0.01117532979171233 	101329.5934558814
-0.7169669669669674 	299.99817137172 	0.009092193049017006 	101322.8386620307
-0.7144644644644647 	299.9924761488826 	0.02185504963102766 	101316.1060603377
-0.711961961961962 	299.9868819509344 	0.03796159118782821 	101309.4931938826
-0.7094594594594597 	299.9815263726796 	0.05340294508641179 	101303.1626983933
-0.7069569569569573 	299.9765198241056 	0.06792144843484352 	101297.2449814317
-0.7044544544544545 	299.9719509619189 	0.08115535802169595 	101291.8448408576
-0.7019519519519523 	299.9679032358648 	0.09278631955979311 	101287.0607867152
-0.6994494494494495 	299.9644703996765 	0.1027008402569539 	101283.0035990534
-0.6969469469469471 	299.961704509813 	0.1106794396157894 	101279.7347388685
-0.6944444444444446 	299.9596735563734 	0.1166382768908332 	101277.3344525409
-0.6919419419419421 	299.9583872983877 	0.1204092774370855 	101275.8142348405
-0.6894394394394396 	299.957859221595 	0.1218353408863246 	101275.19012924
-0.6869369369369374 	299.9581102808245 	0.1210390640502589 	101275.4867896854
-0.6844344344344344 	299.959160686785 	0.1180221134328498 	101276.7280623954
-0.6819319319319321 	299.9609566171068 	0.1128675890819963 	101278.8504346137
-0.6794294294294296 	299.9634741327596 	0.1056331091990314 	101281.8256163867
-0.6769269269269272 	299.9666389476027 	0.09639003629766417 	101285.565866275
-0.6744244244244245 	299.9704105231426 	0.08544292099953586 	101290.0233768063
-0.6719219219219222 	299.9747322873166 	0.07299174637366398 	101295.1313008231
-0.6694194194194195 	299.979529251803 	0.05926349681696018 	101300.80112795
-0.6669169169169172 	299.9846533628835 	0.04443209690576107 	101306.857878865
-0.6644144144144146 	299.9900339785093 	0.028780418316825 	101313.2180967508
-0.661911911911912 	299.9955324109729 	0.01283308874483322 	101319.7179226914
-0.6594094094094097 	300.0010694690356 	0.00771746961611941 	101326.2636812841
-0.656906906906907 	300.006609969438 	0.01917813644147991 	101332.8138434444
-0.6544044044044046 	300.0120660832637 	0.03494668648018451 	101339.2645413685
-0.6519019019019021 	300.0173436889976 	0.05022632920078446 	101345.5044622995
-0.6493993993993996 	300.0223425700583 	0.06463620559756703 	101351.4151403467
-0.6468968968968971 	300.0269467439284 	0.07790862347768221 	101356.8593058609
-0.6443943943943946 	300.031076868565 	0.08982966142925421 	101361.7431546501
-0.6418918918918921 	300.0346354871967 	0.1001213172797897 	101365.9513492086
-0.6393893893893897 	300.0375531022229 	0.1086467201974688 	101369.4016233474
-0.6368868868868871 	300.0397896224293 	0.1151123536007179 	101372.0465662514
-0.6343843843843846 	300.0413066780092 	0.1194189019828466 	101373.8406810435
-0.6318818818818821 	300.0420576427794 	0.121611276508827 	101374.7288449449
-0.6293793793793795 	300.0420546151256 	0.1215631133024083 	101374.725271157
-0.6268768768768773 	300.0412656491408 	0.1193054236295877 	101373.7923188909
-0.6243743743743745 	300.0396888339591 	0.1147233979668079 	101371.9275338157
-0.6218718718718721 	300.0373322674519 	0.1078343721816145 	101369.1407967023
-0.6193693693693696 	300.0342387950054 	0.09889255678222801 	101365.482823416
-0.6168668668668671 	300.0304705804935 	0.08808030975572224 	101361.0269831036
-0.6143643643643645 	300.0261712326865 	0.07568762548860257 	101355.9431703294
-0.6118618618618621 	300.0213983930996 	0.061889284874607 	101350.299670883
-0.6093593593593596 	300.0162431544683 	0.04693425397380951 	101344.2042708716
-0.6068568568568571 	300.0107855337595 	0.03115599361997341 	101337.7515967236
-0.6043543543543546 	300.0051436157964 	0.01483419202914583 	101331.0813456635
-0.6018518518518521 	299.9994151143686 	0.006967841552057688 	101324.3090274004
-0.5993493493493496 	299.9936861360904 	0.01829500600283856 	101317.5364580592
-0.5968468468468471 	299.9880745595103 	0.03450549305453524 	101310.9029983075
-0.5943443443443446 	299.982698710032 	0.0500453820634401 	101304.5484477313
-0.591841841841842 	299.9776509388894 	0.0646477283531413 	101298.5819725434
-0.5893393393393397 	299.9730046438311 	0.07807983439802554 	101293.090250012
-0.5868368368368371 	299.9688308538577 	0.09013555990369956 	101288.1571701682
-0.5843343343343346 	299.9652164140965 	0.1005650035841282 	101283.8853356403
-0.5818318318318321 	299.9622566538446 	0.1091027578231431 	101280.3873139965
-0.5793293293293297 	299.9600411069364 	0.1154964376304777 	101277.7688714471
-0.5768268268268271 	299.9586295644087 	0.1195757253146451 	101276.1005748082
-0.5743243243243245 	299.9580303833557 	0.12132238334944 	101275.3924394042
-0.5718218218218221 	299.9582038548124 	0.1208332131731742 	101275.5974156933
-0.5693193193193196 	299.959092234172 	0.1182715733499064 	101276.6472275494
-0.5668168168168171 	299.9606496429437 	0.1137616207470944 	101278.4876970213
-0.5643143143143147 	299.9628614843835 	0.1073406303691218 	101281.1016266324
-0.5618118118118121 	299.9657390194299 	0.09899363673563971 	101284.5023389645
-0.5593093093093094 	299.9692915967963 	0.08870033126704116 	101288.7009625441
-0.5568068068068072 	299.9734972609883 	0.07653436788779397 	101293.6716243184
-0.5543043043043046 	299.9782797195033 	0.06272478255136482 	101299.3242180173
-0.551801801801802 	299.9834982755791 	0.04767108997466449 	101305.4925462233
-0.5492992992992995 	299.9889650587988 	0.03190295796397383 	101311.9545809746
-0.5467967967967969 	299.9944877085667 	0.01595905160076692 	101318.4829678371
-0.5442942942942947 	299.9999161211978 	0.00517107409607257 	101324.9002713464
-0.5417917917917919 	300.0051775334261 	0.01498391988492876 	101331.1204163431
-0.5392892892892895 	300.0102764766209 	0.02977271722190278 	101337.148753456
-0.536786786786787 	300.015259187219 	0.04422059622966279 	101343.0399162261
-0.5342842842842846 	300.0201607050843 	0.05841258523755909 	101348.8353144532
-0.531781781781782 	300.0249606671694 	0.07228176400361649 	101354.5108869561
-0.5292792792792794 	300.0295618700827 	0.08554752830363002 	101359.9516587873
-0.526776776776777 	300.0337942246219 	0.09772520882732319 	101364.9564910771
-0.5242742742742745 	300.0374393691681 	0.1081947388433326 	101369.2671163423
-0.521771771771772 	300.0402678989459 	0.1163058589961514 	101372.6121557144
-0.5192692692692695 	300.0420803892501 	0.1214945220994799 	101374.7557166617
-0.516766766766767 	300.0427440957397 	0.1233864861351913 	101375.5406913247
-0.5142642642642645 	300.042218081748 	0.1218686588135057 	101374.9186300491
-0.511761761761762 	300.0405628532381 	0.1171168465926042 	101372.9613513853
-0.5092592592592596 	300.0379345660386 	0.1095758869024022 	101369.8533108377
-0.506756756756757 	300.0345615842763 	0.09989588506286917 	101365.8646477291
-0.5042542542542544 	300.0307117096488 	0.08883866327783822 	101361.3121458883
-0.5017517517517521 	300.0266552804964 	0.077173748246223 	101356.5155268028
-0.4992492492492494 	300.0226315201514 	0.06558455348020401 	101351.7576801719
-0.496746746746747 	300.0188257344338 	0.05460547774051123 	101347.2577081938
-0.4942442442442445 	300.0153629058834 	0.04460110419639104 	101343.1633631645
-0.4917417417417421 	300.0123132781919 	0.03577880777206972 	101339.5576640025
-0.4892392392392395 	300.0097024928457 	0.0282168166326487 	101336.4708923825
-0.486736736736737 	300.0075228005008 	0.02189625618685524 	101333.8938551371
-0.4842342342342345 	300.0057437510274 	0.01673189735273931 	101331.7905265571
-0.481731731731732 	300.0043214356797 	0.01259885194182587 	101330.1089758027
-0.4792292292292296 	300.0032058440057 	0.009353909332684884 	101328.7900651084
-0.4767267267267268 	300.0023462690671 	0.006851274008956093 	101327.7738377114
-0.4742242242242246 	300.0016949273877 	0.004953162505842292 	101327.0037965039
-0.471721721721722 	300.0012090926139 	0.003536100201775921 	101326.4294259944
-0.4692192192192195 	300.0008520869765 	0.002493895306274833 	101326.0073625976
-0.4667167167167169 	300.0005934582854 	0.001738240584279864 	101325.7016040773
-0.4642142142142145 	300.0004086315994 	0.001197769207898341 	101325.4830964562
-0.461711711711712 	300.0002782602505 	0.0008162258595924059 	101325.3289676537
-0.4592092092092094 	300.0001874477014 	0.0005502422196484592 	101325.2216064332
-0.456706706706707 	300.0001249517794 	0.0003670518376721289 	101325.1477218549
-0.4542042042042045 	300.0000824427948 	0.0002423519225110029 	101325.0974666118
-0.451701701701702 	300.000053854327 	0.0001584235217488806 	101325.0636684268
-0.4491991991991995 	300.000034837538 	0.0001025531650999901 	101325.0411861776
-0.4466966966966969 	300.0000223218073 	6.575533712361358e-05 	101325.026389681
-0.4441941941941945 	300.0000141696411 	4.176922120829002e-05 	101325.0167518559
-0.441691691691692 	300.0000089128658 	2.629126193571061e-05 	101325.0105371672
-0.4391891891891895 	300.0000055563991 	1.640127437314914e-05 	101325.0065689885
-0.436686686686687 	300.000003433651 	1.014221771706099e-05 	101325.0040594229
-0.4341841841841846 	300.0000021037318 	6.217996356035012e-06 	101325.0024871095
-0.431681681681682 	300.000001278017 	3.780088042177076e-06 	101325.0015109862
-0.4291791791791794 	300.0000007699798 	2.279043276343898e-06 	101325.0009103908
-0.426676676676677 	300.0000004601039 	1.362917614218573e-06 	101325.0005440774
-0.4241741741741744 	300.0000002728117 	8.085565089473418e-07 	101325.0003225669
-0.421671671671672 	300.0000001605111 	4.759276105939845e-07 	101325.0001897415
-0.4191691691691694 	300.0000000937507 	2.779765752825114e-07 	101325.0001107498
-0.4166666666666669 	300.0000000543507 	1.611322195335379e-07 	101325.0000641522
-0.4141641641641645 	300.0000000311317 	9.270319545839471e-08 	101325.000036882
-0.411661661661662 	300.0000000178185 	5.294549670481224e-08 	101325.000021047
-0.4091591591591594 	300.000000010091 	3.001867767985718e-08 	101325.0000119223
-0.406656656656657 	300.0000000056049 	1.690153306456922e-08 	101325.000006704
-0.4041541541541545 	300.0000000031903 	9.447208182189245e-09 	101325.0000037414
-0.401651651651652 	300.0000000016691 	5.248110595349984e-09 	101325.0000020719
-0.3991491491491494 	300.0000000009644 	2.891345557565855e-09 	101325.0000011377
-0.396646646646647 	300.0000000004805 	1.58784571640704e-09 	101325.0000006186
-0.3941441441441444 	300.0000000002693 	8.604559785383102e-10 	101325.0000003319
-0.3916416416416419 	300.0000000000774 	4.685108525288926e-10 	101325.0000001748
-0.3891391391391395 	300.0000000000319 	2.492847147923231e-10 	101325.0000000892
-0.3866366366366368 	299.9999999999935 	1.354746616176145e-10 	101325.0000000429
-0.3841341341341344 	300.0000000000187 	7.110807871804507e-11 	101325.0000000182
-0.381631631631632 	299.9999999999507 	3.9340288417933e-11 	101325.0000000051
-0.3791291291291294 	300.0000000000113 	2.145119533920321e-11 	101324.9999999985
-0.3766266266266269 	300.0000000000319 	1.227503284570199e-11 	101324.999999995
-0.3741241241241244 	300.0000000000333 	8.452657951062548e-12 	101324.9999999931
-0.371621621621622 	300.0000000000203 	4.328731243900548e-12 	101324.999999992
-0.3691191191191194 	300.0000000000176 	5.759681160046683e-12 	101324.9999999913
-0.366616616616617 	300.0000000000158 	2.314813127817645e-12 	101324.9999999908
-0.3641141141141143 	299.9999999999515 	4.591465110641433e-12 	101324.9999999903
-0.3616116116116119 	299.9999999999397 	1.811122690970415e-12 	101324.9999999901
-0.3591091091091095 	299.9999999999824 	3.086764580307247e-12 	101324.99999999
-0.356606606606607 	299.9999999999627 	1.920288930816067e-12 	101324.9999999903
-0.3541041041041044 	299.9999999999874 	1.196830497810055e-12 	101324.9999999903
-0.3516016016016019 	300.0000000000111 	1.723177198375844e-12 	101324.9999999906
-0.3490990990990994 	299.9999999999925 	3.335930761077934e-13 	101324.9999999906
-0.346596596596597 	300.0000000000513 	2.934413521847531e-12 	101324.9999999907
-0.3440940940940944 	300.0000000000602 	6.305413720008439e-13 	101324.9999999906
-0.3415915915915919 	300.0000000000204 	3.204312255199664e-12 	101324.9999999906
-0.3390890890890895 	299.9999999999734 	8.92469927970371e-13 	101324.9999999907
-0.3365865865865869 	300.0000000000222 	2.89518657022736e-12 	101324.9999999904
-0.3340840840840844 	300.0000000000009 	1.601879687774907e-12 	101324.9999999903
-0.3315815815815819 	300.0000000000235 	3.148595500465558e-12 	101324.9999999902
-0.3290790790790794 	300.0000000000243 	2.460207747940973e-12 	101324.99999999
-0.3265765765765769 	299.9999999999124 	4.391961391198756e-12 	101324.9999999902
-0.3240740740740744 	299.9999999999943 	2.220854358788056e-12 	101324.9999999901
-0.3215715715715718 	300.0000000000081 	4.53708075335221e-12 	101324.99999999
-0.3190690690690695 	299.9999999999192 	2.44483405696224e-12 	101324.9999999901
-0.3165665665665668 	299.9999999999911 	5.770836951046054e-12 	101324.9999999902
-0.3140640640640644 	300.0000000000041 	3.207047422630568e-12 	101324.9999999902
-0.311561561561562 	299.9999999999136 	7.295801414145556e-12 	101324.9999999902
-0.3090590590590593 	299.9999999999912 	1.958087377634906e-12 	101324.9999999901
-0.3065565565565568 	300.0000000000019 	7.105121471818918e-12 	101324.99999999
-0.3040540540540545 	300.0000000000081 	1.515580581048767e-12 	101324.9999999898
-0.3015515515515518 	300.0000000000439 	6.04526772923208e-12 	101324.9999999898
-0.2990490490490494 	299.9999999999388 	1.687054005378102e-12 	101324.9999999899
-0.2965465465465469 	299.9999999999824 	4.522524426989588e-12 	101324.9999999897
-0.2940440440440444 	299.999999999997 	3.009674762239062e-12 	101324.9999999901
-0.2915415415415418 	300.0000000000059 	4.19027625317872e-12 	101324.9999999901
-0.2890390390390395 	300.0000000000065 	4.320682716688551e-12 	101324.9999999902
-0.2865365365365368 	299.9999999999785 	3.184665697827576e-12 	101324.9999999902
-0.2840340340340343 	300.0000000000028 	4.971648207842056e-12 	101324.9999999902
-0.2815315315315318 	299.9999999999139 	2.797970317140479e-12 	101324.9999999902
-0.2790290290290295 	299.9999999999564 	4.28618164903143e-12 	101324.9999999904
-0.2765265265265269 	300.000000000008 	2.510691660057193e-12 	101324.9999999901
-0.2740240240240244 	300.0000000000305 	3.648187220087821e-12 	101324.9999999901
-0.2715215215215219 	300.0000000000141 	3.772762499042061e-12 	101324.9999999899
-0.2690190190190194 	299.9999999999387 	3.544576241751624e-12 	101324.9999999899
-0.2665165165165169 	300.0000000000002 	4.218179602332944e-12 	101324.9999999902
-0.2640140140140144 	299.9999999999599 	3.28235016683778e-12 	101324.99999999
-0.2615115115115119 	300.0000000000026 	4.957082911491591e-12 	101324.9999999901
-0.2590090090090094 	299.9999999999225 	3.13354712236458e-12 	101324.9999999903
-0.2565065065065068 	299.9999999999943 	3.460198826406472e-12 	101324.99999999
-0.2540040040040044 	299.9999999999977 	3.191646835146373e-12 	101324.9999999901
-0.2515015015015019 	300.0000000000442 	1.853603889123147e-12 	101324.99999999
-0.2489989989989994 	300.0000000000533 	4.074614312116112e-12 	101324.9999999901
-0.2464964964964968 	299.999999999989 	1.162685754957572e-12 	101324.9999999899
-0.2439939939939944 	299.9999999999918 	5.163629958630293e-12 	101324.9999999898
-0.2414914914914919 	299.9999999999593 	5.971415709760896e-13 	101324.9999999899
-0.2389889889889893 	300.000000000003 	5.185359017044265e-12 	101324.9999999899
-0.2364864864864869 	300.000000000027 	1.025993861369119e-12 	101324.9999999897
-0.2339839839839843 	299.9999999999152 	6.239460968465648e-12 	101324.9999999899
-0.2314814814814819 	299.9999999999799 	2.230757343654269e-12 	101324.9999999898
-0.2289789789789792 	299.9999999999063 	6.392246395034205e-12 	101324.9999999899
-0.2264764764764769 	299.9999999999375 	3.532604238587589e-12 	101324.9999999896
-0.2239739739739743 	299.9999999999499 	6.052282097724512e-12 	101324.9999999895
-0.2214714714714718 	299.9999999999279 	4.979732285547698e-12 	101324.9999999895
-0.2189689689689693 	299.9999999999644 	4.268162509864557e-12 	101324.9999999893
-0.2164664664664669 	299.9999999999811 	4.928142747494149e-12 	101324.9999999893
-0.2139639639639643 	299.9999999999204 	3.175010006086544e-12 	101324.9999999895
-0.2114614614614618 	299.9999999999645 	3.971505782623901e-12 	101324.9999999893
-0.2089589589589593 	299.9999999999883 	3.970412528263972e-12 	101324.9999999895
-0.2064564564564568 	299.9999999999864 	3.328984566396606e-12 	101324.9999999894
-0.2039539539539543 	299.9999999998965 	4.607995970474119e-12 	101324.9999999893
-0.2014514514514518 	299.999999999943 	1.499864585039539e-12 	101324.9999999892
-0.1989489489489494 	299.9999999999603 	4.43145973842653e-12 	101324.9999999892
-0.1964464464464468 	299.9999999999887 	7.421824700559509e-13 	101324.9999999891
-0.1939439439439443 	299.9999999999882 	4.567841880161271e-12 	101324.999999989
-0.1914414414414418 	299.9999999998997 	1.793694126940883e-12 	101324.9999999892
-0.1889389389389393 	300.0000000000053 	3.889547425956568e-12 	101324.9999999893
-0.1864364364364368 	300.0000000000485 	2.389732430558442e-12 	101324.9999999894
-0.1839339339339343 	299.999999999967 	3.857659086832755e-12 	101324.9999999896
-0.1814314314314318 	299.9999999999949 	2.793737744963616e-12 	101324.9999999897
-0.1789289289289293 	299.9999999998837 	4.778428404727861e-12 	101324.9999999901
-0.1764264264264268 	299.9999999999758 	2.089321497785327e-12 	101324.9999999898
-0.1739239239239243 	299.9999999998878 	5.102918364545539e-12 	101324.9999999901
-0.1714214214214218 	299.9999999999862 	3.78025252279323e-13 	101324.9999999902
-0.1689189189189193 	299.9999999999453 	5.584521869538263e-12 	101324.9999999903
-0.1664164164164168 	300.000000000006 	1.778350611517346e-12 	101324.9999999903
-0.1639139139139143 	299.9999999999816 	7.164709554859983e-12 	101324.9999999905
-0.1614114114114118 	300.0000000000319 	3.220528408353035e-12 	101324.9999999904
-0.1589089089089093 	299.999999999994 	9.700576355948165e-12 	101324.9999999903
-0.1564064064064068 	299.9999999999806 	3.889538118439119e-12 	101324.99999999
-0.1539039039039043 	299.999999999989 	1.029911026937553e-11 	101324.99999999
-0.1514014014014018 	300.0000000000308 	2.896460314397046e-12 	101324.9999999904
-0.1488988988988993 	299.9999999999803 	1.015504406920052e-11 	101324.9999999904
-0.1463963963963968 	300.0000000000004 	1.124376744470125e-12 	101324.9999999906
-0.1438938938938943 	299.9999999999451 	9.324480938145686e-12 	101324.9999999906
-0.1413913913913918 	299.999999999916 	1.714816455963532e-12 	101324.9999999908
-0.1388888888888893 	299.9999999999786 	7.618288655483438e-12 	101324.9999999906
-0.1363863863863868 	299.9999999998693 	2.292951423271156e-12 	101324.9999999905
-0.1338838838838843 	299.9999999999011 	5.047448007697071e-12 	101324.9999999905
-0.1313813813813818 	299.9999999999947 	1.313393040942758e-12 	101324.9999999908
-0.1288788788788793 	299.9999999999529 	4.220443065999098e-12 	101324.9999999908
-0.1263763763763768 	299.9999999999694 	9.764949151305022e-13 	101324.9999999907
-0.1238738738738743 	299.999999999921 	4.511288959014697e-12 	101324.9999999906
-0.1213713713713717 	299.9999999999793 	2.611720707057848e-13 	101324.9999999905
-0.1188688688688693 	300.0000000000049 	5.318750792274889e-12 	101324.9999999906
-0.1163663663663668 	299.9999999998932 	1.035625793412893e-12 	101324.9999999905
-0.1138638638638643 	299.9999999999889 	4.548931466332548e-12 	101324.9999999902
-0.1113613613613618 	299.9999999999826 	2.282636507552459e-12 	101324.9999999901
-0.1088588588588592 	299.9999999999735 	5.158520823813488e-12 	101324.9999999903
-0.1063563563563568 	299.9999999999487 	1.462734320366965e-12 	101324.9999999903
-0.1038538538538543 	299.9999999999679 	4.450624538497793e-12 	101324.9999999905
-0.1013513513513517 	300.0000000000186 	8.392424842298372e-13 	101324.9999999906
-0.09884884884884926 	299.9999999999329 	3.508508808226581e-12 	101324.9999999904
-0.09634634634634676 	299.9999999998734 	5.794882575514586e-13 	101324.9999999903
-0.09384384384384425 	299.9999999999206 	1.756657637971449e-12 	101324.9999999902
-0.09134134134134177 	300.0000000000269 	3.194434762043143e-13 	101324.9999999902
-0.08883883883883925 	300.0000000000102 	1.528481570677281e-12 	101324.9999999901
-0.08633633633633674 	299.9999999999436 	5.338453531599899e-13 	101324.99999999
-0.08383383383383426 	300.0000000000123 	1.43389519408384e-12 	101324.9999999899
-0.08133133133133173 	299.9999999999616 	1.825395377391609e-12 	101324.9999999895
-0.07882882882882926 	299.9999999998645 	1.536966131954439e-12 	101324.9999999897
-0.07632632632632676 	299.999999999954 	1.647500644432426e-12 	101324.9999999898
-0.07382382382382424 	299.999999999882 	1.588159114627995e-12 	101324.9999999898
-0.07132132132132173 	300.0000000000117 	1.295758715094579e-12 	101324.9999999899
-0.06881881881881925 	299.999999999949 	1.571939758630842e-12 	101324.9999999899
-0.06631631631631671 	299.9999999998772 	1.143719169465535e-12 	101324.9999999896
-0.06381381381381425 	299.9999999999437 	5.082992228249783e-13 	101324.9999999895
-0.06131131131131173 	299.9999999999466 	9.747317901685412e-14 	101324.9999999892
-0.05880880880880923 	299.9999999999078 	1.203278503170312e-13 	101324.9999999892
-0.05630630630630672 	299.9999999999643 	1.363255027544865e-13 	101324.9999999892
-0.05380380380380424 	300.000000000021 	1.078427998451537e-12 	101324.9999999891
-0.05130130130130173 	300.0000000000108 	1.648599861742379e-12 	101324.9999999896
-0.04879879879879922 	299.9999999999355 	2.688925197011262e-12 	101324.9999999897
-0.04629629629629672 	299.9999999999226 	3.179693747394322e-12 	101324.9999999898
-0.04379379379379422 	299.9999999999048 	3.693153920784371e-12 	101324.9999999901
-0.04129129129129173 	299.9999999999716 	3.347095793399011e-12 	101324.9999999904
-0.03878878878878922 	299.9999999999749 	2.996110068983753e-12 	101324.9999999902
-0.03628628628628671 	299.9999999999751 	2.317473132808406e-12 	101324.9999999901
-0.03378378378378422 	299.9999999999173 	2.443877479376572e-12 	101324.9999999903
-0.03128128128128172 	299.9999999999631 	1.628435146177421e-12 	101324.9999999906
-0.02877877877877922 	299.9999999999653 	2.638508360159757e-12 	101324.9999999905
-0.0262762762762767 	299.9999999998815 	2.2952625345127e-12 	101324.9999999906
-0.02377377377377422 	300.0000000000235 	1.930489768571055e-12 	101324.9999999907
-0.0212712712712717 	299.9999999998858 	1.703454303893633e-12 	101324.9999999904
-0.01876876876876921 	299.9999999999726 	1.069936232784173e-12 	101324.9999999899
-0.01626626626626671 	300.0000000000124 	2.633282856641948e-12 	101324.9999999895
-0.0137637637637642 	299.9999999999555 	2.229565408865791e-12 	101324.999999989
-0.0112612612612617 	300.000000000016 	2.670030716075616e-12 	101324.9999999889
-0.008758758758759198 	299.9999999999962 	1.934511119227484e-12 	101324.999999989
-0.006256256256256697 	299.9999999998677 	2.007912037576726e-12 	101324.9999999889
-0.003753753753754195 	299.9999999999465 	1.558444665628978e-12 	101324.9999999889
-0.001251251251251693 	299.9999999999121 	2.737011571605251e-12 	101324.9999999889
0.00125125125125081 	299.99999999994 	2.406184823864749e-12 	101324.9999999888
0.003753753753753312 	299.9999999999596 	3.249503383534826e-12 	101324.999999989
0.006256256256255817 	299.9999999998696 	2.04617199580561e-12 	101324.9999999886
0.008758758758758317 	299.9999999999874 	1.899490742006738e-12 	101324.9999999888
0.01126126126126082 	300.0000000000117 	1.479558640703406e-12 	101324.9999999889
0.01376376376376332 	299.9999999999615 	2.175502680499885e-12 	101324.9999999892
0.01626626626626582 	300.0000000000104 	1.923833967762622e-12 	101324.9999999892
0.01876876876876833 	299.9999999999508 	1.969687834431563e-12 	101324.9999999895
0.02127127127127083 	299.9999999999656 	1.314015914392254e-12 	101324.9999999894
0.02377377377377332 	299.9999999999944 	1.026084227352876e-12 	101324.9999999895
0.02627627627627583 	299.9999999998907 	6.646069804503723e-13 	101324.9999999895
0.02877877877877833 	300.0000000000076 	1.065002262621689e-13 	101324.9999999895
0.03128128128128083 	299.9999999999372 	2.439146087797559e-14 	101324.9999999891
0.03378378378378333 	299.9999999998873 	8.262517202492418e-13 	101324.9999999891
0.03628628628628584 	299.9999999999617 	8.155802429428423e-13 	101324.9999999889
0.03878878878878834 	299.9999999999721 	9.142504795412744e-13 	101324.999999989
0.04129129129129084 	299.9999999999708 	8.847680400505115e-13 	101324.9999999891
0.04379379379379333 	299.9999999999316 	1.361866069642209e-12 	101324.9999999895
0.04629629629629585 	299.9999999998727 	1.232040333521842e-12 	101324.9999999896
0.04879879879879834 	299.9999999999432 	1.431242195598995e-12 	101324.9999999899
0.05130130130130085 	300.000000000013 	1.025285827951086e-12 	101324.9999999901
0.05380380380380335 	300.0000000000214 	3.327055239886233e-13 	101324.9999999902
0.05630630630630584 	299.9999999999886 	3.386054090231127e-14 	101324.9999999901
0.05880880880880836 	299.9999999999042 	9.985868686194857e-14 	101324.9999999903
0.06131131131131085 	299.9999999999686 	3.44766639305722e-13 	101324.9999999902
0.06381381381381336 	299.9999999999558 	3.67648878241647e-13 	101324.9999999901
0.06631631631631586 	299.999999999875 	7.151745481122251e-13 	101324.99999999
0.06881881881881835 	299.9999999999426 	1.308333796512871e-12 	101324.99999999
0.07132132132132088 	299.9999999999894 	1.380541240235103e-12 	101324.9999999899
0.07382382382382337 	299.9999999998894 	1.317306667577356e-12 	101324.9999999899
0.07632632632632587 	299.9999999999672 	1.40276354583258e-12 	101324.9999999899
0.07882882882882837 	299.9999999999245 	1.342101368526516e-12 	101324.9999999898
0.08133133133133086 	299.999999999983 	1.77297782911003e-12 	101324.9999999894
0.08383383383383337 	299.9999999999815 	1.036651053231877e-12 	101324.9999999895
0.08633633633633589 	299.9999999998922 	9.579833775815669e-13 	101324.9999999896
0.08883883883883838 	300.000000000009 	8.896430494743566e-13 	101324.9999999897
0.09134134134134086 	299.9999999999852 	5.175845516594513e-13 	101324.9999999895
0.09384384384384339 	299.9999999998802 	7.064748649475458e-13 	101324.9999999894
0.09634634634634588 	299.9999999999546 	9.314962047030808e-13 	101324.9999999892
0.09884884884884838 	299.9999999999594 	3.179500750303431e-13 	101324.9999999893
0.1013513513513509 	300.0000000000226 	6.389085083578388e-13 	101324.9999999893
0.1038538538538534 	299.9999999999424 	7.19326324520404e-13 	101324.9999999894
0.1063563563563559 	300.0000000000187 	9.577492222333694e-13 	101324.9999999893
0.1088588588588584 	300.0000000000273 	6.851080043284549e-13 	101324.9999999895
0.1113613613613609 	299.9999999999078 	1.340732371805706e-12 	101324.9999999894
0.1138638638638634 	299.9999999999393 	1.803154422806753e-12 	101324.9999999894
0.1163663663663659 	299.999999999932 	2.44185068210442e-12 	101324.9999999894
0.1188688688688684 	299.9999999999637 	2.426911604138847e-12 	101324.9999999894
0.1213713713713709 	299.9999999999889 	2.410070591136217e-12 	101324.9999999894
0.1238738738738734 	299.9999999999127 	2.197183116909695e-12 	101324.9999999894
0.1263763763763759 	299.9999999999865 	1.758473585487459e-12 	101324.9999999895
0.1288788788788784 	299.9999999999899 	1.24847680130776e-12 	101324.9999999896
0.1313813813813809 	299.9999999999887 	1.420756317235358e-12 	101324.9999999896
0.1338838838838834 	299.9999999999678 	1.447735071785254e-12 	101324.9999999894
0.1363863863863859 	300.000000000028 	1.570977507414232e-12 	101324.9999999895
0.1388888888888884 	300.0000000000576 	2.369663485999127e-12 	101324.9999999893
0.1413913913913909 	300.0000000000019 	2.70927853695055e-12 	101324.9999999891
0.1438938938938934 	299.9999999999856 	3.632072994758381e-12 	101324.9999999891
0.1463963963963959 	299.9999999999527 	2.569522965964075e-12 	101324.9999999891
0.1488988988988985 	299.9999999998954 	3.948625571010554e-12 	101324.9999999892
0.1514014014014009 	299.9999999999653 	1.617410457127267e-12 	101324.9999999892
0.1539039039039035 	299.9999999999565 	3.280281644332405e-12 	101324.9999999893
0.1564064064064059 	299.9999999999242 	3.132202187339743e-13 	101324.9999999894
0.1589089089089084 	299.9999999999748 	3.011529055409031e-12 	101324.9999999897
0.1614114114114109 	299.9999999999698 	3.439125515576882e-13 	101324.9999999898
0.1639139139139134 	299.9999999999015 	1.83306580410908e-12 	101324.9999999898
0.166416416416416 	300.0000000000052 	6.059276660490105e-13 	101324.9999999898
0.1689189189189185 	300.0000000000367 	8.043804588597239e-13 	101324.99999999
0.1714214214214209 	299.9999999999959 	1.416178923360562e-12 	101324.9999999899
0.1739239239239235 	299.9999999999882 	5.569695393859689e-13 	101324.9999999897
0.1764264264264259 	299.9999999999608 	2.649322730792795e-12 	101324.9999999894
0.1789289289289284 	300.0000000000069 	6.637004574865448e-13 	101324.9999999894
0.181431431431431 	299.9999999999595 	3.276477648183774e-12 	101324.9999999894
0.1839339339339334 	299.9999999999636 	1.525993185146948e-12 	101324.9999999892
0.186436436436436 	299.9999999999132 	2.894978842688549e-12 	101324.9999999889
0.1889389389389385 	299.9999999999887 	2.399301486007198e-12 	101324.9999999889
0.191441441441441 	299.9999999999786 	2.173144063609176e-12 	101324.9999999889
0.1939439439439434 	299.999999999905 	3.171305303128398e-12 	101324.999999989
0.196446446446446 	299.9999999999324 	1.001626776425228e-12 	101324.9999999892
0.1989489489489485 	299.99999999997 	3.032158324318654e-12 	101324.999999989
0.2014514514514509 	299.9999999999786 	6.661639112943864e-13 	101324.9999999891
0.2039539539539535 	299.9999999999891 	2.283535328131211e-12 	101324.9999999892
0.2064564564564559 	299.9999999999519 	1.70590378797469e-12 	101324.9999999893
0.2089589589589585 	299.9999999999769 	2.532581308907694e-12 	101324.9999999895
0.211461461461461 	299.9999999999272 	2.415120823444511e-12 	101324.9999999897
0.2139639639639635 	299.9999999999833 	2.07914658281164e-12 	101324.9999999898
0.2164664664664659 	299.9999999999939 	3.778976577781302e-12 	101324.9999999897
0.2189689689689684 	299.999999999995 	1.580554977145497e-12 	101324.9999999897
0.221471471471471 	299.9999999999961 	3.83168687566406e-12 	101324.9999999895
0.2239739739739735 	299.9999999999464 	1.798957489103637e-12 	101324.9999999892
0.226476476476476 	299.9999999999792 	3.228212428962356e-12 	101324.9999999892
0.2289789789789785 	299.9999999999957 	1.636597101600529e-12 	101324.999999989
0.231481481481481 	299.9999999999798 	1.729726731993973e-12 	101324.9999999889
0.2339839839839835 	299.9999999999791 	1.951053967046143e-12 	101324.9999999891
0.236486486486486 	300.0000000000227 	1.250926252708294e-12 	101324.9999999893
0.2389889889889885 	299.9999999999977 	2.62175465629379e-12 	101324.9999999891
0.241491491491491 	299.9999999999073 	1.3153665802957e-12 	101324.9999999891
0.2439939939939935 	299.9999999999786 	4.216486349822219e-12 	101324.9999999892
0.246496496496496 	299.9999999999814 	2.234633998765626e-12 	101324.9999999894
0.2489989989989985 	300.0000000000381 	3.197896164242375e-12 	101324.9999999896
0.251501501501501 	300.0000000000318 	1.924038729514957e-12 	101324.9999999895
0.2540040040040035 	299.9999999999829 	1.724485087895371e-12 	101324.9999999897
0.256506506506506 	300.0000000000289 	2.189224535961218e-12 	101324.9999999898
0.2590090090090086 	299.9999999998906 	9.356730773698504e-13 	101324.9999999897
0.261511511511511 	300.0000000000015 	3.156946109173602e-12 	101324.9999999896
0.2640140140140135 	299.9999999999886 	9.201801325405535e-13 	101324.9999999894
0.2665165165165161 	299.999999999916 	2.108805584554807e-12 	101324.9999999894
0.2690190190190185 	300.0000000000041 	8.724670544176468e-13 	101324.9999999891
0.271521521521521 	300.0000000000048 	1.39501404917996e-12 	101324.9999999889
0.2740240240240235 	300.0000000000159 	1.304235385021226e-12 	101324.9999999887
0.276526526526526 	300.0000000000065 	9.495106254029991e-13 	101324.9999999887
0.2790290290290286 	299.9999999999263 	1.695388955691841e-12 	101324.9999999887
0.281531531531531 	299.9999999999149 	6.137144387365558e-13 	101324.9999999889
0.2840340340340335 	299.9999999999777 	2.325976351675836e-12 	101324.999999989
0.2865365365365361 	299.9999999999496 	1.497073602311652e-12 	101324.9999999891
0.2890390390390385 	299.9999999999938 	1.563887901739512e-12 	101324.9999999893
0.291541541541541 	299.9999999999943 	1.553865449970575e-12 	101324.9999999893
0.2940440440440436 	299.9999999999865 	6.963237597582218e-13 	101324.9999999892
0.296546546546546 	299.9999999999882 	2.655745675658039e-12 	101324.9999999893
0.2990490490490486 	299.9999999999219 	1.015631777315707e-12 	101324.9999999894
0.3015515515515511 	300.0000000000406 	4.077758863483849e-12 	101324.9999999894
0.3040540540540535 	299.9999999999905 	2.788484504615593e-12 	101324.9999999893
0.3065565565565562 	299.9999999999926 	3.958147830493556e-12 	101324.9999999893
0.3090590590590585 	299.9999999999831 	3.106625936162107e-12 	101324.9999999891
0.3115615615615611 	299.999999999926 	2.896354026042903e-12 	101324.9999999892
0.3140640640640635 	300.0000000000026 	2.193004872394873e-12 	101324.9999999893
0.316566566566566 	299.9999999999865 	2.211622199922721e-12 	101324.9999999893
0.3190690690690687 	299.9999999999411 	2.026909927269054e-12 	101324.9999999891
0.3215715715715711 	300.0000000000145 	1.89101583973693e-12 	101324.9999999893
0.3240740740740735 	299.9999999999967 	1.897502605673703e-12 	101324.9999999892
0.326576576576576 	299.9999999998894 	6.988551569173523e-13 	101324.9999999891
0.3290790790790786 	300.0000000000084 	1.825727234804757e-12 	101324.999999989
0.3315815815815811 	300.0000000000391 	8.097498907364395e-13 	101324.9999999889
0.3340840840840836 	299.9999999999849 	2.315240319197525e-12 	101324.9999999891
0.3365865865865861 	300.0000000000649 	5.774755605764896e-13 	101324.9999999891
0.3390890890890886 	300.000000000054 	1.908448778045133e-12 	101324.9999999892
0.3415915915915911 	299.9999999999993 	4.042481607184556e-13 	101324.9999999893
0.3440940940940935 	299.9999999999461 	1.335415730608565e-12 	101324.9999999894
0.3465965965965962 	300.0000000000358 	1.157324627291732e-12 	101324.9999999893
0.3490990990990985 	300.0000000000274 	7.188336761929546e-13 	101324.9999999891
0.3516016016016011 	299.9999999999839 	7.196299996487842e-13 	101324.9999999892
0.3541041041041035 	300.0000000000102 	1.285175383753265e-12 	101324.9999999892
0.3566066066066061 	299.9999999999486 	2.241132953898647e-12 	101324.999999989
0.3591091091091085 	299.9999999999128 	1.100001931314818e-12 	101324.9999999889
0.3616116116116112 	299.9999999999285 	2.59057741048247e-12 	101324.9999999888
0.3641141141141137 	299.9999999999221 	1.224711776738083e-12 	101324.9999999886
0.3666166166166161 	299.999999999912 	3.321446152322629e-12 	101324.9999999886
0.3691191191191185 	300.0000000000422 	2.212997521314748e-12 	101324.9999999885
0.371621621621621 	300.0000000000149 	2.938949570889129e-12 	101324.9999999884
0.3741241241241237 	300.0000000000562 	1.949292141719019e-12 	101324.9999999886
0.3766266266266261 	300.000000000027 	2.102607452316382e-12 	101324.9999999887
0.3791291291291286 	299.9999999999747 	1.464073068598544e-12 	101324.9999999889
0.3816316316316311 	299.9999999999098 	1.626625931924469e-12 	101324.9999999891
0.3841341341341336 	300.0000000000124 	1.450789263388027e-12 	101324.9999999891
0.3866366366366362 	299.9999999999971 	1.316452504734586e-12 	101324.9999999891
0.3891391391391387 	299.9999999999479 	1.080322213448635e-12 	101324.9999999891
0.391641641641641 	299.9999999999953 	7.955454632166601e-13 	101324.9999999891
0.3941441441441436 	300.0000000000075 	5.527800940589711e-13 	101324.9999999892
0.3966466466466462 	299.9999999999981 	2.154118675854956e-12 	101324.9999999892
0.3991491491491486 	299.9999999999408 	1.210502628289369e-12 	101324.999999989
0.4016516516516512 	299.9999999999044 	2.397205107608539e-12 	101324.999999989
0.4041541541541536 	299.9999999999399 	1.129939784352091e-12 	101324.999999989
0.4066566566566561 	299.9999999999422 	2.753112955863127e-12 	101324.9999999891
0.4091591591591587 	299.9999999999937 	8.444596116648232e-13 	101324.9999999892
0.4116616616616612 	300.0000000000103 	2.111918208316269e-12 	101324.9999999892
0.4141641641641635 	300.0000000000477 	1.624005443803013e-12 	101324.9999999891
0.4166666666666662 	299.999999999991 	1.356856369892456e-12 	101324.9999999889
0.4191691691691687 	299.9999999999332 	2.211106006023777e-12 	101324.999999989
0.421671671671671 	300.00000000001 	1.59211820079141e-12 	101324.9999999888
0.4241741741741737 	299.9999999999702 	2.669344176749281e-12 	101324.9999999889
0.4266766766766761 	299.9999999999451 	2.945804863342208e-12 	101324.9999999889
0.4291791791791785 	300.0000000000221 	3.016877722193544e-12 	101324.9999999889
0.4316816816816812 	300.0000000000148 	3.499350572527554e-12 	101324.9999999889
0.4341841841841836 	299.9999999999787 	2.96904493324364e-12 	101324.9999999889
0.4366866866866862 	299.9999999999059 	2.394829798018714e-12 	101324.9999999892
0.4391891891891885 	299.9999999999887 	1.835498128161729e-12 	101324.9999999893
0.4416916916916913 	299.9999999999789 	1.643739243312215e-12 	101324.9999999896
0.4441941941941936 	299.9999999999812 	1.636377758971533e-12 	101324.9999999898
0.4466966966966961 	299.9999999999057 	7.359475356580546e-13 	101324.9999999899
0.4491991991991987 	299.999999999979 	1.327287895874168e-13 	101324.99999999
0.4517017017017012 	299.9999999999772 	3.089316574721028e-13 	101324.9999999901
0.4542042042042035 	299.9999999999788 	7.180526210822406e-13 	101324.9999999899
0.4567067067067062 	299.9999999999927 	1.255247402266263e-12 	101324.9999999898
0.4592092092092087 	299.9999999999181 	1.285148309886261e-12 	101324.9999999898
0.4617117117117112 	300.0000000000196 	1.090323604331471e-12 	101324.9999999898
0.4642142142142137 	299.9999999999609 	9.406484699622095e-13 	101324.9999999897
0.4667167167167162 	299.9999999999889 	6.681599700349331e-13 	101324.9999999896
0.4692192192192187 	299.9999999999525 	3.568216331925338e-13 	101324.9999999896
0.4717217217217212 	300.0000000000165 	1.728933293690131e-13 	101324.9999999894
0.4742242242242236 	299.9999999999463 	4.170138789613599e-13 	101324.9999999893
0.4767267267267262 	299.999999999974 	9.862304845900743e-13 	101324.9999999892
0.4792292292292287 	300.0000000000119 	7.809324676071923e-13 	101324.9999999891
0.4817317317317312 	300.0000000000293 	5.338526395455493e-13 	101324.9999999892
0.4842342342342336 	299.99999999998 	7.555771036613711e-13 	101324.9999999892
0.4867367367367362 	299.9999999999481 	3.653647059713782e-13 	101324.9999999889
0.4892392392392387 	300.0000000000296 	1.197302995253009e-12 	101324.9999999887
0.4917417417417412 	300.0000000000053 	1.255615403309583e-12 	101324.9999999889
0.4942442442442437 	299.999999999895 	1.013691050031281e-12 	101324.9999999889
0.4967467467467462 	299.9999999999144 	2.476043828676453e-12 	101324.999999989
0.4992492492492487 	299.9999999999063 	5.792197860449181e-13 	101324.9999999892
0.5017517517517511 	299.9999999999471 	1.142380904856747e-12 	101324.9999999891
0.5042542542542537 	299.9999999999615 	1.233100653217857e-13 	101324.9999999893
0.5067567567567562 	299.9999999999429 	3.947657612165396e-13 	101324.9999999891
0.5092592592592589 	299.9999999999677 	8.655295574139162e-13 	101324.9999999892
0.5117617617617611 	299.9999999999513 	1.422289862279689e-12 	101324.9999999894
0.5142642642642637 	299.9999999999808 	1.77211649243393e-12 	101324.9999999896
0.5167667667667663 	299.9999999999677 	3.089444844536139e-12 	101324.9999999898
0.5192692692692688 	299.9999999999172 	2.46374762474244e-12 	101324.99999999
0.5217717717717714 	299.9999999999289 	4.423917869262622e-12 	101324.9999999898
0.5242742742742736 	299.9999999999338 	1.796679494917676e-12 	101324.9999999897
0.5267767767767763 	299.9999999999504 	4.412655311283279e-12 	101324.9999999897
0.5292792792792789 	299.9999999999315 	1.722551065160247e-12 	101324.9999999896
0.5317817817817813 	299.9999999998957 	5.020765755584091e-12 	101324.9999999894
0.5342842842842837 	300.0000000000184 	2.472493928362157e-12 	101324.9999999892
0.5367867867867864 	300.0000000000055 	3.896380707031576e-12 	101324.9999999893
0.5392892892892888 	299.9999999999537 	2.123814392495974e-12 	101324.9999999894
0.5417917917917912 	300.0000000000034 	3.512725605376584e-12 	101324.9999999897
0.5442942942942938 	299.9999999999764 	2.283218721681475e-12 	101324.9999999897
0.5467967967967964 	299.9999999999446 	3.39002987468615e-12 	101324.9999999897
0.5492992992992988 	299.9999999999354 	2.18602324056696e-12 	101324.9999999897
0.5518018018018012 	299.9999999999291 	3.521446833742876e-12 	101324.9999999898
0.5543043043043039 	300.0000000000235 	2.727780138570615e-12 	101324.9999999902
0.5568068068068063 	299.9999999999902 	3.919710459908103e-12 	101324.9999999902
0.5593093093093087 	299.9999999998979 	3.2012113756479e-12 	101324.9999999903
0.5618118118118114 	299.9999999999611 	5.245092525049959e-12 	101324.9999999905
0.5643143143143137 	299.9999999999401 	4.022377173053731e-12 	101324.9999999905
0.5668168168168163 	299.9999999999879 	4.942694923867278e-12 	101324.9999999904
0.5693193193193188 	300.0000000000336 	4.830259240532615e-12 	101324.9999999903
0.5718218218218213 	300.0000000000279 	4.177274027247029e-12 	101324.9999999904
0.5743243243243239 	300.0000000000107 	4.825838127008534e-12 	101324.9999999906
0.5768268268268262 	300.0000000000071 	2.956316335394321e-12 	101324.9999999909
0.5793293293293288 	299.9999999999434 	5.130749683935963e-12 	101324.999999991
0.5818318318318314 	299.9999999999076 	2.535445081041347e-12 	101324.999999991
0.5843343343343338 	299.9999999999758 	6.44039486578523e-12 	101324.999999991
0.5868368368368363 	299.9999999999703 	2.215273093455614e-12 	101324.9999999909
0.5893393393393387 	299.9999999999374 	4.797043598967998e-12 	101324.9999999908
0.5918418418418413 	299.9999999999365 	2.096423696323125e-12 	101324.9999999908
0.5943443443443439 	300.0000000000171 	4.487726615956969e-12 	101324.9999999909
0.5968468468468463 	300.0000000000195 	2.865812931158061e-12 	101324.9999999908
0.5993493493493487 	300.0000000000407 	4.426060707228486e-12 	101324.9999999911
0.6018518518518514 	299.9999999999773 	3.164364005637977e-12 	101324.9999999911
0.6043543543543537 	299.9999999999906 	5.087714194132731e-12 	101324.9999999912
0.6068568568568564 	299.9999999999783 	4.107585866200201e-12 	101324.9999999911
0.6093593593593587 	299.999999999928 	5.672480351592977e-12 	101324.9999999909
0.6118618618618614 	299.9999999999218 	5.124224599528554e-12 	101324.9999999911
0.6143643643643638 	300.0000000000172 	6.289479850888505e-12 	101324.9999999913
0.6168668668668662 	299.9999999999854 	4.468948240324943e-12 	101324.9999999913
0.6193693693693688 	299.9999999999582 	5.887800622939503e-12 	101324.9999999911
0.6218718718718714 	299.9999999999645 	3.839671808212607e-12 	101324.9999999909
0.6243743743743737 	299.9999999999287 	5.538878095363277e-12 	101324.9999999908
0.6268768768768762 	299.9999999999202 	4.391972439262188e-12 	101324.9999999905
0.629379379379379 	299.9999999999486 	5.401775120251334e-12 	101324.9999999904
0.6318818818818812 	299.9999999999772 	5.062991080301642e-12 	101324.9999999906
0.6343843843843838 	300.0000000000233 	4.816506160199162e-12 	101324.9999999909
0.6368868868868864 	299.9999999999868 	5.378968001707098e-12 	101324.999999991
0.6393893893893888 	299.9999999999141 	4.179398617819435e-12 	101324.999999991
0.6418918918918912 	300.0000000000064 	6.79996653061265e-12 	101324.9999999909
0.6443943943943939 	299.9999999999825 	3.63705942146552e-12 	101324.9999999907
0.6468968968968963 	299.9999999999818 	8.287648315642947e-12 	101324.9999999906
0.6493993993993988 	299.9999999999707 	4.183138261563245e-12 	101324.9999999904
0.6519019019019012 	299.9999999999754 	7.759279512919534e-12 	101324.9999999903
0.6544044044044038 	299.9999999998968 	4.81894178701059e-12 	101324.9999999905
0.6569069069069065 	299.9999999999449 	8.233375626652364e-12 	101324.9999999907
0.6594094094094087 	299.9999999999541 	5.471687435394278e-12 	101324.9999999909
0.6619119119119113 	299.9999999999541 	7.715500274248545e-12 	101324.999999991
0.664414414414414 	300.000000000009 	5.612671995444664e-12 	101324.9999999914
0.6669169169169162 	300.0000000000166 	6.714861209890953e-12 	101324.9999999916
0.6694194194194188 	299.9999999999831 	4.865043160687898e-12 	101324.9999999916
0.6719219219219214 	299.9999999999224 	6.743290848283122e-12 	101324.9999999917
0.674424424424424 	299.9999999999739 	6.400880544569113e-12 	101324.9999999918
0.6769269269269262 	299.9999999999172 	7.400637469487567e-12 	101324.9999999916
0.679429429429429 	300.0000000000018 	6.580153534675826e-12 	101324.9999999915
0.6819319319319311 	299.9999999999793 	6.804038379223194e-12 	101324.9999999916
0.6844344344344341 	299.9999999999962 	5.594308973182847e-12 	101324.9999999919
0.686936936936936 	299.9999999999914 	6.22743891354008e-12 	101324.9999999918
0.6894394394394392 	299.9999999999877 	5.513410602645319e-12 	101324.9999999917
0.6919419419419413 	299.9999999999868 	5.831506960610881e-12 	101324.9999999916
0.694444444444444 	299.9999999999226 	6.239038741135942e-12 	101324.9999999917
0.6969469469469463 	299.9999999999183 	6.363164009907475e-12 	101324.9999999917
0.6994494494494489 	299.9999999999175 	7.564941532732402e-12 	101324.9999999916
0.7019519519519515 	299.9999999999789 	6.326651091962171e-12 	101324.9999999917
0.7044544544544538 	299.9999999999466 	7.370137608096272e-12 	101324.9999999916
0.7069569569569564 	299.999999999995 	5.143811226771311e-12 	101324.9999999916
0.7094594594594589 	299.9999999999579 	8.101335927230175e-12 	101324.9999999917
0.7119619619619615 	299.9999999999021 	6.010373583618743e-12 	101324.9999999919
0.7144644644644638 	299.9999999999464 	8.485931167585281e-12 	101324.9999999921
0.7169669669669665 	299.9999999999169 	7.674101382155924e-12 	101324.9999999923
0.7194694694694688 	299.999999999995 	8.915933558006966e-12 	101324.9999999924
0.7219719719719715 	299.9999999999865 	8.369153826721461e-12 	101324.9999999924
0.7244744744744737 	300.0000000000056 	8.729905017571389e-12 	101324.9999999925
0.7269769769769764 	299.9999999999985 	9.163030195730671e-12 	101324.9999999924
0.7294794794794791 	299.9999999999901 	7.540524466751607e-12 	101324.9999999921
0.7319819819819813 	299.9999999999787 	9.664348018061878e-12 	101324.999999992
0.7344844844844839 	299.9999999999116 	8.144433767319386e-12 	101324.9999999921
0.7369869869869864 	299.9999999999438 	9.989425361062631e-12 	101324.999999992
0.739489489489489 	299.9999999999357 	9.645493164077905e-12 	101324.9999999919
0.7419919919919914 	299.999999999922 	9.725501187335557e-12 	101324.999999992
0.7444944944944939 	299.9999999999794 	1.031202142015338e-11 	101324.9999999924
0.7469969969969963 	299.9999999999719 	8.390712361692206e-12 	101324.9999999924
0.7494994994994989 	299.999999999935 	9.911845460612196e-12 	101324.9999999923
0.7520020020020015 	299.9999999999637 	6.556864931855921e-12 	101324.9999999922
0.7545045045045039 	299.9999999999625 	9.797756939297034e-12 	101324.9999999924
0.7570070070070062 	299.999999999941 	6.987363191903199e-12 	101324.9999999925
0.7595095095095092 	299.999999999932 	9.286440974028356e-12 	101324.9999999927
0.7620120120120112 	300.0000000000094 	8.342850087688565e-12 	101324.999999993
0.7645145145145138 	299.9999999999874 	8.699075002237332e-12 	101324.999999993
0.7670170170170165 	299.9999999999262 	9.339452021045711e-12 	101324.9999999931
0.7695195195195191 	299.9999999999185 	8.721893358939654e-12 	101324.9999999933
0.7720220220220213 	299.9999999999339 	1.171271467369666e-11 	101324.9999999936
0.7745245245245239 	299.9999999999226 	9.958227771045593e-12 	101324.9999999937
0.7770270270270263 	299.9999999999645 	1.192003652988676e-11 	101324.9999999936
0.779529529529529 	299.9999999999757 	1.092765532134405e-11 	101324.9999999936
0.7820320320320313 	299.9999999999671 	1.159061752517276e-11 	101324.9999999935
0.784534534534534 	300.000000000006 	1.147119791507432e-11 	101324.9999999934
0.7870370370370364 	299.9999999999933 	1.087085984311285e-11 	101324.9999999935
0.7895395395395389 	299.9999999999738 	1.158307615063547e-11 	101324.9999999934
0.7920420420420413 	299.9999999999721 	1.035499631685303e-11 	101324.9999999931
0.794544544544544 	299.9999999999696 	1.233464321670763e-11 	101324.999999993
0.7970470470470463 	300.0000000000048 	1.002596733389959e-11 	101324.9999999931
0.799549549549549 	299.9999999999902 	1.309739175022189e-11 	101324.9999999932
0.8020520520520515 	299.9999999999868 	9.895251188565339e-12 	101324.9999999932
0.8045545545545539 	299.9999999999417 	1.216750496806425e-11 	101324.9999999933
0.8070570570570563 	299.9999999999812 	1.089862022461117e-11 	101324.9999999935
0.8095595595595589 	299.9999999999538 	1.165871210249872e-11 	101324.9999999939
0.8120620620620614 	299.9999999999329 	1.188980659277806e-11 	101324.9999999941
0.8145645645645638 	299.9999999999977 	1.177743634452043e-11 	101324.9999999943
0.8170670670670666 	299.9999999999941 	1.235939470633542e-11 	101324.9999999944
0.8195695695695689 	299.9999999999784 	1.030164047170741e-11 	101324.9999999942
0.8220720720720714 	299.9999999999355 	1.285872282905474e-11 	101324.9999999941
0.8245745745745739 	299.9999999999906 	1.016569734448776e-11 	101324.9999999941
0.8270770770770765 	299.9999999999746 	1.200962320480124e-11 	101324.9999999943
0.8295795795795788 	299.9999999999534 	1.103326102883297e-11 	101324.9999999942
0.8320820820820815 	300.0000000000141 	1.194344213935014e-11 	101324.9999999943
0.834584584584584 	300.0000000000057 	1.145087742264234e-11 	101324.9999999943
0.8370870870870865 	299.9999999999649 	1.187765593430836e-11 	101324.9999999945
0.8395895895895891 	299.9999999999299 	1.304218676251686e-11 	101324.9999999946
0.8420920920920915 	299.9999999999519 	1.196721813838318e-11 	101324.9999999946
0.844594594594594 	299.9999999999422 	1.24132604932335e-11 	101324.9999999949
0.8470970970970964 	299.9999999999468 	1.226576122592327e-11 	101324.9999999948
0.8495995995995991 	299.9999999999933 	1.194495387995473e-11 	101324.9999999947
0.8521021021021015 	299.9999999999801 	1.203194875623525e-11 	101324.9999999946
0.8546046046046039 	299.9999999999707 	1.108588947450242e-11 	101324.9999999946
0.8571071071071066 	300.0000000000005 	1.210959809024755e-11 	101324.9999999948
0.8596096096096089 	299.9999999999662 	9.988543749110372e-12 	101324.9999999949
0.8621121121121116 	299.999999999939 	1.333375189539314e-11 	101324.999999995
0.8646146146146139 	300.0000000000068 	1.097225645152281e-11 	101324.999999995
0.8671171171171166 	299.9999999999827 	1.283120280559888e-11 	101324.9999999949
0.8696196196196189 	299.9999999999436 	1.241451120364649e-11 	101324.9999999948
0.8721221221221216 	299.9999999999703 	1.345814895674506e-11 	101324.9999999948
0.874624624624624 	300.0000000000038 	1.335628775142427e-11 	101324.9999999948
0.8771271271271264 	299.9999999999983 	1.308613171121953e-11 	101324.9999999947
0.879629629629629 	300.0000000000014 	1.402541977733154e-11 	101324.9999999947
0.8821321321321317 	299.9999999999816 	1.234194484618954e-11 	101324.9999999947
0.8846346346346339 	299.9999999999235 	1.51274197220978e-11 	101324.9999999947
0.8871371371371364 	299.9999999999534 	1.235432069326742e-11 	101324.9999999948
0.8896396396396391 	299.9999999999497 	1.460468061862702e-11 	101324.9999999949
0.8921421421421414 	299.9999999999535 	1.352483049735272e-11 	101324.9999999949
0.8946446446446441 	299.9999999999834 	1.416686571918146e-11 	101324.9999999949
0.8971471471471464 	300.0000000000015 	1.35789020219596e-11 	101324.9999999947
0.8996496496496489 	299.9999999999801 	1.318528921122146e-11 	101324.9999999947
0.9021521521521517 	299.9999999999627 	1.388693340733612e-11 	101324.9999999949
0.9046546546546541 	299.9999999999878 	1.269488545530715e-11 	101324.999999995
0.9071571571571564 	299.9999999999444 	1.361105577507164e-11 	101324.999999995
0.9096596596596589 	299.999999999943 	1.335022622105866e-11 	101324.9999999951
0.9121621621621616 	300.0000000000094 	1.376100288537231e-11 	101324.9999999951
0.9146646646646639 	299.9999999999759 	1.376567679803171e-11 	101324.9999999953
0.9171671671671666 	299.9999999999425 	1.379831307546402e-11 	101324.9999999955
0.9196696696696689 	300.0000000000001 	1.49497722841197e-11 	101324.9999999955
0.9221721721721714 	299.9999999999983 	1.394369608763143e-11 	101324.9999999955
0.9246746746746741 	299.9999999999397 	1.724086796213204e-11 	101324.9999999956
0.9271771771771765 	299.9999999999459 	1.524293892995252e-11 	101324.9999999957
0.9296796796796791 	299.999999999987 	1.755938956953352e-11 	101324.9999999959
0.9321821821821816 	299.9999999999677 	1.624124455434188e-11 	101324.9999999961
0.9346846846846838 	299.999999999952 	1.730650051822767e-11 	101324.9999999961
0.9371871871871866 	300.0000000000152 	1.646571628306663e-11 	101324.999999996
0.9396896896896891 	300.0000000000166 	1.610554557814252e-11 	101324.9999999962
0.9421921921921914 	300.0000000000141 	1.622086859587757e-11 	101324.9999999964
0.9446946946946939 	299.9999999999712 	1.526059103696873e-11 	101324.9999999964
0.9471971971971965 	299.9999999999246 	1.730344767980183e-11 	101324.9999999963
0.9496996996996991 	299.9999999999598 	1.421989104778138e-11 	101324.9999999962
0.9522022022022016 	299.9999999999731 	1.532139151888104e-11 	101324.9999999963
0.9547047047047038 	299.9999999999736 	1.361207499187389e-11 	101324.9999999961
0.9572072072072064 	299.9999999999577 	1.422965626767131e-11 	101324.999999996
0.9597097097097093 	299.9999999999547 	1.441015100976628e-11 	101324.9999999962
0.9622122122122114 	299.9999999999508 	1.473328876164868e-11 	101324.9999999964
0.964714714714714 	299.9999999999485 	1.595181596966615e-11 	101324.9999999964
0.9672172172172167 	299.9999999999573 	1.468266877627739e-11 	101324.9999999963
0.969719719719719 	299.9999999999873 	1.576243418767067e-11 	101324.9999999961
0.9722222222222214 	299.999999999971 	1.568287326553892e-11 	101324.9999999963
0.9747247247247239 	299.9999999999687 	1.67685677795746e-11 	101324.9999999966
0.9772272272272267 	300.0000000000066 	1.723139558330794e-11 	101324.9999999967
0.9797297297297292 	299.999999999989 	1.724583032198207e-11 	101324.9999999968
0.9822322322322313 	299.9999999999909 	1.807514191656806e-11 	101324.9999999969
0.9847347347347344 	299.9999999999917 	1.623659816236882e-11 	101324.9999999971
0.9872372372372363 	299.9999999999471 	1.873098627526986e-11 	101324.999999997
0.9897397397397389 	299.9999999999636 	1.60808850834354e-11 	101324.9999999969
0.9922422422422417 	299.9999999999467 	1.853191542412647e-11 	101324.999999997
0.9947447447447441 	299.9999999999609 	1.737898221154293e-11 	101324.9999999973
0.9972472472472468 	299.999999999973 	1.866741269971968e-11 	101324.9999999973
0.999749749749749 	299.9999999999644 	1.818346278708104e-11 	101324.9999999972
1.002252252252252 	299.9999999999732 	1.870539339704667e-11 	101324.9999999972
1.004754754754754 	299.9999999999943 	1.857000744712083e-11 	101324.9999999972
1.007257257257256 	299.9999999999762 	1.754371395319529e-11 	101324.9999999974
1.009759759759759 	299.9999999999635 	1.963381394042623e-11 	101324.9999999975
1.012262262262261 	299.9999999999516 	1.771688120043128e-11 	101324.9999999974
1.014764764764764 	299.9999999999275 	1.999499091297022e-11 	101324.9999999974
1.017267267267267 	299.9999999999218 	1.913614634499437e-11 	101324.9999999973
1.019769769769769 	299.9999999999675 	2.035854895741984e-11 	101324.9999999971
1.022272272272272 	299.9999999999816 	1.998741703790266e-11 	101324.9999999971
1.024774774774774 	299.9999999999824 	2.020069276864545e-11 	101324.999999997
1.027277277277277 	299.9999999999773 	2.106685297791544e-11 	101324.9999999972
1.029779779779779 	300.000000000008 	1.953981679186617e-11 	101324.9999999972
1.032282282282282 	300.000000000009 	2.030286198213853e-11 	101324.9999999971
1.034784784784784 	300.0000000000007 	1.961200740627173e-11 	101324.9999999972
1.037287287287286 	299.9999999999674 	2.001745085509077e-11 	101324.9999999972
1.039789789789789 	299.9999999999765 	1.970930826884996e-11 	101324.9999999973
1.042292292292291 	300.0000000000155 	1.973308998913841e-11 	101324.9999999974
1.044794794794794 	300.0000000000276 	1.950603187640871e-11 	101324.9999999974
1.047297297297296 	300.0000000000427 	1.810005844690307e-11 	101324.9999999973
1.049799799799799 	299.9999999999969 	2.047907450883358e-11 	101324.9999999974
1.052302302302302 	299.9999999999567 	1.863194554817686e-11 	101324.9999999976
1.054804804804804 	299.9999999999335 	2.087734412861726e-11 	101324.9999999978
1.057307307307306 	299.9999999999247 	1.957652896473481e-11 	101324.999999998
1.059809809809809 	299.9999999999601 	2.062397612294518e-11 	101324.9999999981
1.062312312312312 	299.9999999999537 	2.002848992232753e-11 	101324.9999999981
1.064814814814814 	299.9999999999483 	2.024039318887609e-11 	101324.9999999981
1.067317317317317 	299.9999999999249 	1.947167871345597e-11 	101324.999999998
1.069819819819819 	299.999999999924 	1.881173369496849e-11 	101324.9999999981
1.072322322322321 	299.9999999999943 	2.068405941712135e-11 	101324.999999998
1.074824824824824 	300.0000000000226 	1.881933885971342e-11 	101324.9999999982
1.077327327327327 	300.0000000000399 	2.106850717873016e-11 	101324.9999999985
1.079829829829829 	300.0000000000491 	2.000898025484526e-11 	101324.9999999985
1.082332332332332 	300.0000000000059 	2.090888992858216e-11 	101324.9999999985
1.084834834834834 	299.9999999999742 	2.041746961501279e-11 	101324.9999999985
1.087337337337337 	299.9999999999441 	2.079859226914238e-11 	101324.9999999984
1.089839839839839 	299.9999999999295 	2.247349199345376e-11 	101324.9999999982
1.092342342342342 	299.9999999999607 	2.06546016733005e-11 	101324.9999999982
1.094844844844844 	299.9999999999566 	2.170844132892512e-11 	101324.9999999986
1.097347347347347 	299.9999999999314 	1.995560009239448e-11 	101324.9999999988
1.099849849849849 	299.9999999999243 	2.293993447700465e-11 	101324.9999999987
1.102352352352352 	299.9999999999608 	2.064315844948608e-11 	101324.9999999986
1.104854854854854 	299.9999999999843 	2.345436034388449e-11 	101324.9999999987
1.107357357357357 	299.9999999999624 	2.215370034354943e-11 	101324.9999999987
1.109859859859859 	299.9999999999529 	2.425243022226103e-11 	101324.9999999985
1.112362362362362 	300.0000000000167 	2.335140167540466e-11 	101324.9999999983
1.114864864864865 	300.0000000000182 	2.362009283695583e-11 	101324.999999998
1.117367367367367 	299.9999999999647 	2.512417688682512e-11 	101324.999999998
1.119869869869869 	299.999999999927 	2.363968533011396e-11 	101324.9999999982
1.122372372372372 	299.9999999999616 	2.534381484834073e-11 	101324.9999999983
1.124874874874874 	299.9999999999701 	2.41479396159696e-11 	101324.9999999985
1.127377377377377 	299.999999999987 	2.505947842244359e-11 	101324.9999999987
1.129879879879879 	300.0000000000234 	2.39389310421894e-11 	101324.9999999988
1.132382382382382 	300.0000000000347 	2.41360661108122e-11 	101324.999999999
1.134884884884884 	300.0000000000115 	2.33554847252962e-11 	101324.999999999
1.137387387387387 	300.0000000000201 	2.332135019967686e-11 	101324.9999999988
1.139889889889889 	299.9999999999621 	2.478506287356043e-11 	101324.9999999987
1.142392392392392 	299.9999999999524 	2.319591870701183e-11 	101324.9999999987
1.144894894894894 	300.0000000000208 	2.460686205577237e-11 	101324.9999999988
1.147397397397397 	300.0000000000015 	2.307710779182614e-11 	101324.999999999
1.149899899899899 	299.9999999999382 	2.420302136408723e-11 	101324.9999999991
1.152402402402402 	299.9999999999228 	2.348411828871763e-11 	101324.999999999
1.154904904904904 	299.9999999999593 	2.456650004695177e-11 	101324.9999999989
1.157407407407407 	299.9999999999616 	2.401598413368109e-11 	101324.9999999987
1.159909909909909 	299.9999999999345 	2.422667970274668e-11 	101324.9999999986
1.162412412412412 	299.9999999999308 	2.579154406422313e-11 	101324.9999999987
1.164914914914914 	299.9999999999678 	2.391568233805067e-11 	101324.9999999986
1.167417417417417 	299.99999999996 	2.584406666180324e-11 	101324.9999999984
1.169919919919919 	300.0000000000013 	2.496105039219984e-11 	101324.9999999982
1.172422422422422 	300.0000000000425 	2.630534964544233e-11 	101324.9999999983
1.174924924924925 	299.999999999988 	2.467654316272385e-11 	101324.9999999985
1.177427427427427 	299.9999999999587 	2.506599390581091e-11 	101324.9999999987
1.179929929929929 	300.0000000000139 	2.626201802807368e-11 	101324.9999999986
1.182432432432432 	300.0000000000475 	2.436986023837013e-11 	101324.9999999987
1.184934934934934 	300.0000000000105 	2.55237560734766e-11 	101324.9999999987
1.187437437437437 	299.9999999999768 	2.419821428438855e-11 	101324.9999999987
1.189939939939939 	299.9999999999701 	2.505299823940976e-11 	101324.9999999991
1.192442442442442 	299.9999999999333 	2.368195195732536e-11 	101324.9999999993
1.194944944944944 	299.9999999999372 	2.491356461493428e-11 	101324.9999999992
1.197447447447447 	299.9999999999998 	2.392178927129049e-11 	101324.9999999993
1.199949949949949 	300.0000000000153 	2.387275978383556e-11 	101324.9999999995
1.202452452452452 	299.9999999999615 	2.541793722528643e-11 	101324.9999999996
1.204954954954955 	299.9999999999515 	2.441350194599754e-11 	101324.9999999996
1.207457457457457 	299.9999999999808 	2.588710269105511e-11 	101324.9999999996
1.20995995995996 	299.9999999999824 	2.461124637310521e-11 	101324.9999999997
1.212462462462462 	299.9999999999937 	2.604298939289407e-11 	101324.9999999997
1.214964964964964 	299.9999999999874 	2.535699346288993e-11 	101324.9999999996
1.217467467467467 	299.999999999976 	2.691986544514555e-11 	101324.9999999996
1.219969969969969 	299.9999999999642 	2.624811711220479e-11 	101324.9999999995
1.222472472472472 	300.000000000021 	2.709367179668832e-11 	101324.9999999996
1.224974974974975 	300.0000000000509 	2.801660419305948e-11 	101324.9999999997
1.227477477477477 	299.9999999999936 	2.596140265882692e-11 	101325.0000000001
1.229979979979979 	299.9999999999801 	2.747009644561015e-11 	101325.0000000001
1.232482482482482 	299.9999999999544 	2.626438168645604e-11 	101325
1.234984984984984 	299.999999999956 	2.825009221278658e-11 	101324.9999999999
1.237487487487487 	299.9999999999879 	2.685030429215332e-11 	101324.9999999997
1.239989989989989 	299.9999999999909 	2.791413524771564e-11 	101324.9999999999
1.242492492492492 	300.0000000000231 	2.856167067834762e-11 	101325.0000000001
1.244994994994994 	299.9999999999921 	2.69401757864603e-11 	101325.0000000001
1.247497497497497 	299.9999999999807 	2.83916462037611e-11 	101325.0000000001
1.249999999999999 	300 	2.74811938003344e-11 	101325
