-1.25 	300 	0.07207306876468335 	101295.6107373854
-1.247497497497497 	299.9798644477974 	0.05969088161930087 	101301.3238731021
-1.244994994994995 	299.9853239607646 	0.0418324551399489 	101307.6483260373
-1.242492492492492 	299.9906730518218 	0.02751241201860397 	101313.9734844608
-1.23998998998999 	299.996267968913 	0.01057556785884777 	101320.5874454819
-1.237487487487487 	300.0020139095526 	0.008262163660081557 	101327.3801695394
-1.234984984984985 	300.0077307122621 	0.02225297674321744 	101334.1388231762
-1.232482482482482 	300.0133286971434 	0.03846395988671048 	101340.7573179556
-1.22997997997998 	300.0187080614237 	0.05398866878015166 	101347.1176451612
-1.227477477477477 	300.0237325597957 	0.06851438505862853 	101353.0586628882
-1.224974974974975 	300.0283072002929 	0.08173963212338294 	101358.4679974123
-1.222472472472472 	300.0323572192056 	0.09342985932921229 	101363.2571704166
-1.21996996996997 	300.0357820698928 	0.1033443086315418 	101367.3072162227
-1.217467467467467 	300.0385666191792 	0.1114199158709342 	101370.6001779906
-1.214964964964965 	300.0407294493201 	0.1176406012737688 	101373.1579729284
-1.212462462462462 	300.0421604996828 	0.1216957053977962 	101374.8504154786
-1.20995995995996 	300.0426485557246 	0.1230606218209551 	101375.4276404586
-1.207457457457457 	300.0421095456813 	0.1215876322879152 	101374.7902506577
-1.204954954954955 	300.0408038034082 	0.1179699489815144 	101373.2461837842
-1.202452452452452 	300.039155364413 	0.1132209839314163 	101371.2968355101
-1.19994994994995 	300.0372245720836 	0.1074256976028589 	101369.0136007243
-1.197447447447447 	300.0345186727684 	0.09932411870470566 	101365.8138565493
-1.194944944944945 	300.0304537054315 	0.0874795150540699 	101361.0071083849
-1.192442442442442 	300.0249972355956 	0.07190325645705486 	101354.5551123268
-1.18993993993994 	300.0188669476398 	0.05452124663846779 	101347.3066219196
-1.187437437437437 	300.0130926336066 	0.03807570500292645 	101340.4793025403
-1.184934934934935 	300.0084060255783 	0.02460637757079114 	101334.9382347946
-1.182432432432432 	300.005027950381 	0.01481134969328701 	101330.9443728231
-1.17992992992993 	300.0028186014785 	0.008353818868513711 	101328.3323246101
-1.177427427427427 	300.0014885217256 	0.004437681740216104 	101326.7598225668
-1.174924924924925 	300.0007438382067 	0.002230156367457022 	101325.8794137191
-1.172422422422422 	300.0003530754495 	0.001064368628960627 	101325.4174302147
-1.16991991991992 	300.0001597251405 	0.0004840421551910186 	101325.1888389375
-1.167417417417417 	300.0000690670939 	0.0002103728423397448 	101325.0816566452
-1.164914914914915 	300.0000286214058 	8.76085330490593e-05 	101325.0338386846
-1.162412412412412 	300.0000113930575 	3.504014077653849e-05 	101325.0134699206
-1.15990990990991 	300.000004365396 	1.348829149849789e-05 	101325.0051612022
-1.157407407407407 	300.0000016130907 	5.006573256679113e-06 	101325.0019071631
-1.154904904904904 	300.0000005758214 	1.794989351904188e-06 	101325.0006807969
-1.152402402402403 	300.0000001988715 	6.225880136674701e-07 	101325.0002351346
-1.1498998998999 	300.0000000665485 	2.09208903730129e-07 	101325.0000786873
-1.147397397397397 	300.0000000216083 	6.819812782740812e-08 	101325.0000255476
-1.144894894894895 	300.0000000068145 	2.159269037078832e-08 	101325.0000080569
-1.142392392392392 	300.0000000020841 	6.647414390410405e-09 	101325.0000024706
-1.13988988988989 	300.0000000006203 	1.991534541402576e-09 	101325.0000007372
-1.137387387387387 	300.0000000001834 	5.807552645335497e-10 	101325.000000214
-1.134884884884885 	300.0000000000516 	1.652059294055741e-10 	101325.0000000603
-1.132382382382382 	300.0000000000152 	4.565786700115873e-11 	101325.0000000164
-1.12987987987988 	300.0000000000044 	1.232114531054204e-11 	101325.0000000042
-1.127377377377377 	299.9999999999994 	3.016651367218185e-12 	101325.0000000008
-1.124874874874875 	299.999999999998 	7.316969738006601e-13 	101324.9999999997
-1.122372372372372 	299.9999999999968 	4.130145323107063e-13 	101324.9999999994
-1.11986986986987 	299.9999999999936 	5.215820828062303e-13 	101324.9999999994
-1.117367367367367 	299.9999999999947 	6.684437500067286e-13 	101324.9999999994
-1.114864864864865 	299.9999999999977 	3.144261157788562e-13 	101324.9999999994
-1.112362362362362 	299.9999999999981 	1.54882263295795e-13 	101324.9999999995
-1.10985985985986 	299.9999999999924 	4.649921303824948e-13 	101324.9999999997
-1.107357357357357 	299.9999999999951 	7.361677749548552e-13 	101324.9999999997
-1.104854854854855 	299.9999999999992 	7.284038386447303e-13 	101324.9999999997
-1.102352352352353 	299.9999999999947 	7.805689213304915e-13 	101324.9999999996
-1.09984984984985 	299.9999999999953 	8.430099750744863e-13 	101324.9999999995
-1.097347347347347 	299.9999999999981 	8.310536582836527e-13 	101324.9999999995
-1.094844844844845 	299.999999999998 	9.254925551938774e-13 	101324.9999999996
-1.092342342342342 	299.9999999999972 	7.179621030674494e-13 	101324.9999999996
-1.08983983983984 	299.9999999999927 	3.934882971396384e-13 	101324.9999999995
-1.087337337337337 	299.9999999999928 	3.100658621075004e-13 	101324.9999999994
-1.084834834834835 	299.9999999999945 	5.993362306743981e-13 	101324.9999999994
-1.082332332332332 	299.9999999999985 	7.487149397681557e-13 	101324.9999999994
-1.07982982982983 	300.0000000000039 	1.017639202860159e-12 	101324.9999999994
-1.077327327327327 	300.0000000000048 	1.011635437455772e-12 	101324.9999999995
-1.074824824824825 	300.0000000000005 	1.169778550277586e-12 	101324.9999999994
-1.072322322322323 	299.9999999999996 	1.378224289842027e-12 	101324.9999999993
-1.06981981981982 	300.0000000000045 	1.092813316400693e-12 	101324.9999999994
-1.067317317317317 	300.0000000000005 	9.06538789123416e-13 	101324.9999999995
-1.064814814814815 	299.9999999999972 	3.907197559301356e-13 	101324.9999999996
-1.062312312312312 	299.9999999999984 	4.530907042219382e-13 	101324.9999999996
-1.05980980980981 	299.9999999999975 	6.751446202054515e-13 	101324.9999999996
-1.057307307307307 	299.9999999999911 	4.986615708075705e-13 	101324.9999999994
-1.054804804804805 	299.9999999999922 	1.948120823159478e-13 	101324.9999999992
-1.052302302302302 	299.9999999999965 	2.599568190295292e-14 	101324.9999999991
-1.0497997997998 	299.9999999999991 	3.775859083744306e-14 	101324.9999999991
-1.047297297297297 	300.000000000004 	4.515870002516419e-13 	101324.9999999993
-1.044794794794795 	300.0000000000026 	9.387637530370803e-13 	101324.9999999993
-1.042292292292292 	300.0000000000017 	1.291882693101659e-12 	101324.9999999992
-1.03978978978979 	299.999999999998 	1.584713644743932e-12 	101324.9999999992
-1.037287287287287 	299.9999999999961 	1.583075861044727e-12 	101324.9999999991
-1.034784784784785 	299.9999999999989 	1.724405223047898e-12 	101324.9999999991
-1.032282282282283 	300 	1.772875990301603e-12 	101324.9999999992
-1.02977977977978 	299.9999999999994 	1.608615502203479e-12 	101324.9999999992
-1.027277277277277 	299.9999999999924 	1.535816901910051e-12 	101324.9999999993
-1.024774774774775 	299.9999999999914 	1.219075824113435e-12 	101324.9999999993
-1.022272272272272 	299.9999999999941 	9.883051793739256e-13 	101324.9999999992
-1.01976976976977 	299.9999999999944 	1.236728389047932e-12 	101324.9999999993
-1.017267267267267 	299.9999999999919 	1.229794054038863e-12 	101324.9999999992
-1.014764764764765 	299.9999999999923 	1.19089454596092e-12 	101324.9999999993
-1.012262262262262 	299.999999999994 	6.589179727871136e-13 	101324.9999999994
-1.00975975975976 	299.9999999999953 	8.661969607546121e-13 	101324.9999999993
-1.007257257257257 	299.9999999999958 	8.193082509948703e-13 	101324.9999999993
-1.004754754754755 	300.0000000000004 	6.063374206785255e-13 	101324.9999999993
-1.002252252252252 	299.9999999999988 	3.239596230904515e-13 	101324.9999999993
-0.9997497497497498 	299.9999999999974 	1.987671972926771e-13 	101324.9999999992
-0.9972472472472473 	299.9999999999986 	4.347556581250291e-13 	101324.9999999991
-0.9947447447447449 	299.9999999999948 	3.688060210176872e-13 	101324.9999999991
-0.9922422422422421 	299.9999999999961 	5.938932221704216e-13 	101324.9999999991
-0.9897397397397399 	299.9999999999964 	4.805826376796085e-13 	101324.999999999
-0.9872372372372376 	299.9999999999968 	8.964310127229196e-13 	101324.9999999991
-0.9847347347347346 	299.9999999999937 	7.439102642610045e-13 	101324.999999999
-0.9822322322322323 	299.9999999999927 	5.945292087565208e-13 	101324.999999999
-0.9797297297297296 	299.999999999996 	5.364086997489578e-13 	101324.9999999989
-0.9772272272272275 	299.9999999999986 	4.654233517506864e-13 	101324.9999999989
-0.9747247247247248 	300.0000000000001 	5.617699459889699e-13 	101324.9999999991
-0.9722222222222224 	299.9999999999932 	8.068198075020974e-13 	101324.9999999992
-0.9697197197197196 	299.9999999999919 	1.037999633336039e-12 	101324.9999999992
-0.9672172172172175 	299.9999999999937 	8.433874490187835e-13 	101324.9999999992
-0.9647147147147147 	299.9999999999957 	5.22358268786897e-13 	101324.9999999992
-0.9622122122122124 	299.9999999999971 	8.790713158385518e-13 	101324.9999999992
-0.9597097097097099 	299.999999999998 	7.754255077694247e-13 	101324.9999999992
-0.9572072072072073 	299.9999999999965 	9.25297384225029e-13 	101324.9999999993
-0.9547047047047047 	300.0000000000002 	8.857285129563113e-13 	101324.9999999994
-0.9522022022022023 	299.999999999998 	4.175367509588664e-13 	101324.9999999994
-0.9496996996996998 	299.9999999999966 	1.090809453911984e-12 	101324.9999999992
-0.9471971971971973 	299.9999999999985 	8.095836386405785e-13 	101324.9999999991
-0.9446946946946947 	299.9999999999932 	1.191252346618203e-12 	101324.999999999
-0.9421921921921923 	299.9999999999966 	1.059583052570497e-12 	101324.9999999989
-0.93968968968969 	299.9999999999984 	1.070407538178638e-12 	101324.9999999989
-0.9371871871871872 	299.9999999999969 	1.150143650640013e-12 	101324.9999999989
-0.9346846846846848 	299.9999999999937 	9.820268755885707e-13 	101324.999999999
-0.9321821821821823 	299.9999999999962 	9.223521717028656e-13 	101324.999999999
-0.9296796796796799 	300.0000000000002 	5.012105907861234e-13 	101324.9999999991
-0.9271771771771771 	299.9999999999986 	7.423242078112876e-13 	101324.9999999992
-0.9246746746746748 	299.9999999999959 	5.515464860896748e-13 	101324.9999999992
-0.9221721721721724 	299.9999999999981 	7.856431143297704e-13 	101324.9999999992
-0.9196696696696698 	299.999999999998 	8.804402828725748e-13 	101324.9999999991
-0.9171671671671672 	299.9999999999943 	6.524607691838601e-13 	101324.999999999
-0.9146646646646649 	299.9999999999977 	2.228243276868881e-13 	101324.999999999
-0.9121621621621623 	300.0000000000007 	3.034959747525388e-13 	101324.9999999992
-0.9096596596596597 	299.9999999999972 	3.352907865419765e-13 	101324.9999999991
-0.9071571571571573 	299.9999999999984 	3.258214066766908e-13 	101324.9999999991
-0.9046546546546547 	300.0000000000005 	3.835784348761759e-13 	101324.999999999
-0.9021521521521524 	299.9999999999968 	4.023877512852629e-13 	101324.9999999991
-0.8996496496496498 	299.9999999999986 	7.231778042364175e-13 	101324.9999999993
-0.8971471471471473 	300.0000000000006 	5.813450100875453e-13 	101324.9999999992
-0.894644644644645 	299.9999999999999 	4.926897514516639e-13 	101324.9999999991
-0.892142142142142 	300.0000000000002 	5.876813548142372e-13 	101324.9999999992
-0.8896396396396397 	300.0000000000006 	1.022531419595019e-12 	101324.9999999992
-0.8871371371371374 	299.9999999999951 	5.709051795691734e-13 	101324.9999999991
-0.8846346346346349 	299.9999999999931 	1.222895355991514e-12 	101324.9999999992
-0.8821321321321324 	299.999999999993 	7.485416074850292e-13 	101324.9999999992
-0.8796296296296297 	299.9999999999948 	1.574733891736524e-12 	101324.9999999991
-0.8771271271271271 	299.9999999999953 	8.23081563597966e-13 	101324.999999999
-0.8746246246246248 	299.9999999999991 	8.876872793706882e-13 	101324.9999999991
-0.8721221221221224 	300.0000000000002 	6.783684556983382e-13 	101324.9999999992
-0.8696196196196196 	299.999999999997 	6.58150834086289e-13 	101324.9999999993
-0.8671171171171175 	299.9999999999988 	6.266424240354854e-13 	101324.9999999992
-0.8646146146146148 	299.9999999999943 	8.241380376807382e-13 	101324.9999999992
-0.8621121121121121 	299.9999999999973 	6.26341978889292e-13 	101324.9999999992
-0.8596096096096097 	300.0000000000022 	4.158036812083226e-13 	101324.9999999992
-0.857107107107107 	299.9999999999958 	8.656280419385612e-13 	101324.9999999991
-0.8546046046046049 	299.9999999999983 	9.289382361313772e-13 	101324.9999999991
-0.8521021021021022 	300.0000000000005 	9.263773509501908e-13 	101324.9999999992
-0.8495995995995997 	299.9999999999989 	1.075986048144876e-12 	101324.9999999993
-0.8470970970970974 	299.9999999999933 	7.492621284595716e-13 	101324.9999999992
-0.8445945945945946 	299.9999999999952 	4.400775727122391e-13 	101324.9999999991
-0.8420920920920922 	300.0000000000001 	5.540465815234511e-13 	101324.999999999
-0.8395895895895897 	299.9999999999983 	1.337217026869202e-12 	101324.999999999
-0.8370870870870872 	299.9999999999992 	9.448563061587853e-13 	101324.9999999989
-0.8345845845845846 	300.0000000000005 	1.558246154869147e-12 	101324.9999999988
-0.8320820820820823 	299.9999999999936 	1.466758061525063e-12 	101324.9999999989
-0.8295795795795798 	299.9999999999911 	1.241878408218373e-12 	101324.9999999991
-0.8270770770770772 	299.9999999999942 	1.300573396420596e-12 	101324.9999999991
-0.8245745745745746 	299.999999999991 	8.167440572166591e-13 	101324.999999999
-0.8220720720720721 	299.9999999999939 	4.712943507696145e-13 	101324.999999999
-0.8195695695695699 	299.9999999999982 	5.068399704767381e-13 	101324.9999999989
-0.817067067067067 	299.9999999999962 	1.002435729797961e-12 	101324.999999999
-0.8145645645645651 	299.9999999999914 	9.606720882752086e-13 	101324.9999999989
-0.8120620620620621 	299.999999999997 	8.371462449284379e-13 	101324.9999999988
-0.8095595595595597 	299.9999999999998 	7.094523784803523e-13 	101324.9999999987
-0.8070570570570572 	299.9999999999924 	5.447916928336198e-13 	101324.9999999986
-0.8045545545545546 	299.9999999999922 	2.698939280815734e-13 	101324.9999999986
-0.8020520520520523 	299.999999999997 	5.723011202424032e-13 	101324.9999999985
-0.7995495495495494 	300.0000000000007 	1.158317761061278e-12 	101324.9999999987
-0.7970470470470474 	299.9999999999989 	1.421539801553553e-12 	101324.9999999986
-0.7945445445445446 	299.9999999999995 	8.585974119937264e-13 	101324.9999999984
-0.7920420420420423 	300.0000000000005 	1.223685089492181e-12 	101324.9999999985
-0.7895395395395397 	300.0000000000007 	1.2322204225066e-12 	101324.9999999987
-0.7870370370370371 	299.9999999999993 	6.485877278976065e-13 	101324.9999999988
-0.7845345345345348 	299.999999999996 	1.32591939106811e-12 	101324.9999999988
-0.7820320320320323 	299.9999999999965 	9.656895922266296e-13 	101324.9999999985
-0.7795295295295296 	299.9999999999901 	1.477463607963119e-12 	101324.9999999983
-0.7770270270270272 	299.9999999999887 	1.219611292017071e-12 	101324.9999999982
-0.7745245245245247 	299.9999999999889 	6.300865601974795e-13 	101324.9999999983
-0.7720220220220222 	299.9999999999935 	7.778234897049066e-13 	101324.9999999985
-0.7695195195195199 	299.9999999999941 	4.58861780275995e-13 	101324.9999999986
-0.767017017017017 	299.9999999999973 	5.185932026436122e-13 	101324.9999999987
-0.7645145145145147 	300.000000000001 	5.61229130440095e-13 	101324.9999999988
-0.7620120120120122 	300.000000000001 	1.208516920736498e-12 	101324.9999999988
-0.7595095095095097 	299.9999999999905 	1.190339035217797e-12 	101324.9999999987
-0.7570070070070072 	299.9999999999901 	2.19999227355778e-12 	101324.9999999987
-0.7545045045045048 	299.9999999999969 	1.737641396324026e-12 	101324.9999999987
-0.7520020020020022 	299.9999999999942 	1.84128694103581e-12 	101324.9999999988
-0.7494994994994997 	299.9999999999944 	8.166499669821201e-13 	101324.999999999
-0.7469969969969972 	299.9999999999981 	1.23765756951289e-12 	101324.999999999
-0.7444944944944945 	299.9999999999971 	9.339870256608333e-13 	101324.999999999
-0.7419919919919924 	299.9999999999972 	7.057060904992864e-13 	101324.9999999991
-0.7394894894894897 	299.9999999999944 	6.67586168727028e-13 	101324.9999999991
-0.7369869869869872 	299.9999999999982 	5.894281452234721e-13 	101324.9999999994
-0.7344844844844846 	299.9999999999965 	1.011174721000731e-12 	101324.9999999994
-0.7319819819819822 	300.0000000000001 	5.535020861584579e-13 	101324.9999999991
-0.7294794794794797 	299.9999999999985 	1.14881030006362e-12 	101324.999999999
-0.7269769769769773 	299.9999999999998 	5.619019994663369e-13 	101324.9999999989
-0.7244744744744747 	300.0000000000005 	1.960959871334631e-13 	101324.9999999989
-0.721971971971972 	299.9999999999942 	5.749510369193543e-13 	101324.999999999
-0.7194694694694695 	299.9999999999966 	9.734335432064955e-13 	101324.9999999989
-0.7169669669669674 	299.9999999999908 	1.532616755965635e-12 	101324.9999999989
-0.7144644644644647 	299.9999999999957 	1.622403510048653e-12 	101324.9999999991
-0.711961961961962 	300.0000000000016 	1.303976323755655e-12 	101324.999999999
-0.7094594594594597 	300.000000000003 	6.579832495369653e-13 	101324.9999999988
-0.7069569569569573 	300.0000000000019 	8.623931967309904e-13 	101324.9999999988
-0.7044544544544545 	300.0000000000018 	4.966095416530877e-13 	101324.9999999988
-0.7019519519519523 	300.000000000001 	1.447316947478247e-13 	101324.9999999989
-0.6994494494494495 	299.9999999999909 	1.686068353154022e-13 	101324.9999999989
-0.6969469469469471 	299.9999999999922 	4.69141468812391e-13 	101324.9999999989
-0.6944444444444446 	299.9999999999948 	8.023873662740852e-13 	101324.9999999992
-0.6919419419419421 	300.0000000000014 	7.623770629778817e-13 	101324.9999999992
-0.6894394394394396 	299.9999999999984 	5.677091364060649e-13 	101324.9999999991
-0.6869369369369374 	300.0000000000007 	7.251359310573612e-13 	101324.9999999991
-0.6844344344344344 	300.0000000000016 	4.291414021275257e-13 	101324.9999999992
-0.6819319319319321 	299.9999999999959 	4.704409419216886e-13 	101324.9999999992
-0.6794294294294296 	299.9999999999933 	4.187103414190225e-13 	101324.9999999992
-0.6769269269269272 	299.9999999999907 	6.919617196936176e-13 	101324.9999999993
-0.6744244244244245 	299.9999999999971 	6.442742103791024e-13 	101324.9999999994
-0.6719219219219222 	299.9999999999968 	5.925848247862323e-13 	101324.9999999995
-0.6694194194194195 	300.0000000000008 	7.473751202095978e-13 	101324.9999999995
-0.6669169169169172 	300.0000000000019 	5.232961572051615e-13 	101324.9999999995
-0.6644144144144146 	299.9999999999947 	5.758746519040215e-13 	101324.9999999994
-0.661911911911912 	299.999999999996 	7.870505670804319e-13 	101324.9999999995
-0.6594094094094097 	299.999999999998 	5.455637466653773e-13 	101324.9999999995
-0.656906906906907 	299.999999999993 	5.452107533782855e-13 	101324.9999999993
-0.6544044044044046 	299.9999999999936 	9.942678016464754e-13 	101324.9999999993
-0.6519019019019021 	299.9999999999993 	1.000705294590812e-12 	101324.9999999994
-0.6493993993993996 	300.0000000000031 	1.256633438898173e-12 	101324.9999999992
-0.6468968968968971 	300.0000000000035 	7.713116498724822e-13 	101324.9999999992
-0.6443943943943946 	299.9999999999989 	1.166854023436889e-12 	101324.9999999993
-0.6418918918918921 	299.9999999999995 	3.556558889751944e-13 	101324.9999999992
-0.6393893893893897 	299.9999999999999 	2.438170520514798e-13 	101324.9999999993
-0.6368868868868871 	299.9999999999973 	5.770111992890773e-13 	101324.9999999995
-0.6343843843843846 	300.0000000000009 	7.8352920341714e-13 	101324.9999999994
-0.6318818818818821 	299.9999999999962 	4.881139123987796e-13 	101324.9999999994
-0.6293793793793795 	300.0000000000009 	4.018758280232871e-13 	101324.9999999995
-0.6268768768768773 	300.0000000000026 	3.668841807405358e-13 	101324.9999999995
-0.6243743743743745 	299.9999999999983 	5.887614146014213e-13 	101324.9999999994
-0.6218718718718721 	300.0000000000019 	5.201665880296307e-13 	101324.9999999994
-0.6193693693693696 	299.999999999994 	4.749241900622055e-13 	101324.9999999993
-0.6168668668668671 	299.9999999999986 	1.076070269667626e-12 	101324.9999999994
-0.6143643643643645 	300.0000000000014 	7.028745787910106e-13 	101324.9999999993
-0.6118618618618621 	299.9999999999974 	3.565038602896144e-13 	101324.9999999995
-0.6093593593593596 	299.9999999999978 	4.752669793005854e-13 	101324.9999999997
-0.6068568568568571 	299.9999999999976 	6.014390815451433e-13 	101324.9999999997
-0.6043543543543546 	299.9999999999964 	3.459167484702853e-13 	101324.9999999997
-0.6018518518518521 	299.9999999999968 	2.257245761389186e-13 	101324.9999999995
-0.5993493493493496 	299.9999999999916 	2.491316224094191e-13 	101324.9999999995
-0.5968468468468471 	299.9999999999942 	4.526977844204337e-13 	101324.9999999994
-0.5943443443443446 	299.9999999999978 	7.279648312790602e-13 	101324.9999999995
-0.591841841841842 	299.9999999999948 	5.762400328010589e-13 	101324.9999999996
-0.5893393393393397 	299.9999999999956 	5.731294906932065e-13 	101324.9999999996
-0.5868368368368371 	299.9999999999993 	4.014896686368642e-13 	101324.9999999995
-0.5843343343343346 	299.9999999999993 	1.148147113768419e-12 	101324.9999999994
-0.5818318318318321 	300.0000000000026 	6.448970437622727e-13 	101324.9999999994
-0.5793293293293297 	299.9999999999983 	9.946877595097637e-13 	101324.9999999993
-0.5768268268268271 	300.0000000000001 	6.863338142050657e-13 	101324.9999999992
-0.5743243243243245 	300.000000000003 	8.100893524837588e-13 	101324.9999999993
-0.5718218218218221 	300.0000000000028 	8.712010447551537e-13 	101324.9999999992
-0.5693193193193196 	300.0000000000039 	7.516446065931132e-13 	101324.9999999993
-0.5668168168168171 	299.9999999999981 	1.119208148710365e-12 	101324.9999999993
-0.5643143143143147 	299.999999999993 	5.058326453572935e-13 	101324.9999999993
-0.5618118118118121 	300.000000000001 	5.953058641748664e-13 	101324.9999999992
-0.5593093093093094 	300.0000000000034 	3.858057278609035e-13 	101324.9999999993
-0.5568068068068072 	300.000000000002 	9.148734366029348e-13 	101324.9999999992
-0.5543043043043046 	300.0000000000024 	1.120637080312154e-12 	101324.9999999991
-0.551801801801802 	299.9999999999955 	1.156351310101631e-12 	101324.999999999
-0.5492992992992995 	300.0000000000006 	1.140485843820622e-12 	101324.9999999992
-0.5467967967967969 	300.0000000000022 	1.288396168668421e-12 	101324.9999999992
-0.5442942942942947 	299.9999999999998 	1.405245481700245e-12 	101324.9999999991
-0.5417917917917919 	299.9999999999938 	1.537532135475943e-12 	101324.999999999
-0.5392892892892895 	299.999999999993 	1.011701110127192e-12 	101324.9999999991
-0.536786786786787 	299.9999999999944 	6.334590037718901e-13 	101324.9999999992
-0.5342842842842846 	299.9999999999948 	5.064013346745704e-13 	101324.999999999
-0.531781781781782 	299.999999999991 	6.743214874787279e-13 	101324.9999999988
-0.5292792792792794 	299.9999999999909 	9.989294609369352e-13 	101324.999999999
-0.526776776776777 	299.9999999999906 	1.179203993779122e-12 	101324.9999999991
-0.5242742742742745 	299.9999999999968 	4.436292501830763e-13 	101324.9999999989
-0.521771771771772 	300.0000000000013 	1.332764171919204e-12 	101324.999999999
-0.5192692692692695 	299.9999999999948 	1.100001517315382e-12 	101324.9999999992
-0.516766766766767 	300 	1.040582580519245e-12 	101324.9999999994
-0.5142642642642645 	299.9999999999959 	9.975541812512453e-13 	101324.9999999994
-0.511761761761762 	299.9999999999936 	6.676628787743933e-13 	101324.9999999992
-0.5092592592592596 	299.9999999999974 	4.050960297090913e-13 	101324.999999999
-0.506756756756757 	299.9999999999942 	6.059820107501006e-13 	101324.999999999
-0.5042542542542544 	299.9999999999989 	4.226422710657695e-13 	101324.9999999989
-0.5017517517517521 	300.0000000000022 	5.057767259636278e-13 	101324.9999999988
-0.4992492492492494 	300.0000000000024 	2.707541675485053e-13 	101324.9999999987
-0.496746746746747 	299.9999999999986 	1.493113504812933e-13 	101324.9999999988
-0.4942442442442445 	299.9999999999916 	7.960446425317684e-14 	101324.9999999989
-0.4917417417417421 	299.9999999999926 	1.951160654759658e-13 	101324.9999999988
-0.4892392392392395 	299.999999999994 	2.564125166874723e-13 	101324.9999999988
-0.486736736736737 	299.9999999999943 	3.451797779431115e-13 	101324.9999999989
-0.4842342342342345 	299.9999999999907 	7.630243283481863e-13 	101324.9999999989
-0.481731731731732 	300.000000000003 	7.025267756855042e-13 	101324.9999999991
-0.4792292292292296 	300.0000000000024 	6.653437410102972e-13 	101324.9999999989
-0.4767267267267268 	299.9999999999959 	6.443717786672755e-13 	101324.9999999989
-0.4742242242242246 	299.9999999999998 	1.079679826836762e-12 	101324.999999999
-0.471721721721722 	299.9999999999947 	4.400045488225631e-13 	101324.999999999
-0.4692192192192195 	299.9999999999971 	5.521989265684769e-13 	101324.999999999
-0.4667167167167169 	299.9999999999897 	1.609310864603076e-13 	101324.9999999989
-0.4642142142142145 	300.0000000000009 	4.540131353803717e-13 	101324.9999999989
-0.461711711711712 	300.0000000000022 	2.090668367042147e-13 	101324.9999999988
-0.4592092092092094 	300.0000000000006 	4.994149690876039e-14 	101324.9999999989
-0.456706706706707 	300.0000000000051 	5.122901914296709e-13 	101324.9999999991
-0.4542042042042045 	299.9999999999933 	5.516404367231107e-13 	101324.9999999992
-0.451701701701702 	299.9999999999947 	3.005617738638395e-13 	101324.9999999991
-0.4491991991991995 	299.9999999999959 	2.277686072431949e-13 	101324.9999999992
-0.4466966966966969 	299.9999999999953 	2.367916156753514e-13 	101324.9999999992
-0.4441941941941945 	299.9999999999981 	4.231046990757691e-13 	101324.9999999992
-0.441691691691692 	299.9999999999952 	2.859505646134696e-13 	101324.999999999
-0.4391891891891895 	299.9999999999976 	6.662635041254202e-13 	101324.9999999989
-0.436686686686687 	299.9999999999962 	8.499979280496043e-13 	101324.999999999
-0.4341841841841846 	299.9999999999987 	8.597374607711293e-13 	101324.999999999
-0.431681681681682 	299.9999999999955 	5.880920833063167e-13 	101324.9999999988
-0.4291791791791794 	299.999999999991 	6.056562363174866e-13 	101324.9999999986
-0.426676676676677 	299.9999999999919 	6.547155333130075e-13 	101324.9999999986
-0.4241741741741744 	299.9999999999959 	1.087670302986964e-12 	101324.9999999988
-0.421671671671672 	300 	8.199293870488834e-13 	101324.999999999
-0.4191691691691694 	300.0000000000046 	1.018983999608511e-12 	101324.9999999992
-0.4166666666666669 	300.0000000000055 	1.09748814575484e-12 	101324.9999999994
-0.4141641641641645 	299.9999999999965 	9.964933607096593e-13 	101324.9999999992
-0.411661661661662 	300.0000000000003 	1.116904715284975e-12 	101324.9999999992
-0.4091591591591594 	300.0000000000004 	7.063821843118722e-13 	101324.9999999992
-0.406656656656657 	299.9999999999942 	1.063639189819521e-12 	101324.9999999992
-0.4041541541541545 	300.0000000000015 	9.526816547407584e-13 	101324.9999999992
-0.401651651651652 	299.9999999999927 	8.434083081370049e-13 	101324.9999999994
-0.3991491491491494 	299.9999999999994 	1.708748910962813e-12 	101324.9999999996
-0.396646646646647 	299.9999999999944 	5.535421695488278e-13 	101324.9999999996
-0.3941441441441444 	299.9999999999977 	1.895502488082715e-12 	101324.9999999995
-0.3916416416416419 	299.9999999999918 	9.078416019613856e-13 	101324.9999999993
-0.3891391391391395 	299.9999999999958 	1.396977223291657e-12 	101324.9999999992
-0.3866366366366368 	299.9999999999961 	9.107053024989623e-13 	101324.9999999992
-0.3841341341341344 	300.000000000001 	1.202444630686522e-12 	101324.9999999993
-0.381631631631632 	299.9999999999955 	1.441170270068344e-12 	101324.9999999994
-0.3791291291291294 	300.0000000000005 	1.080280545417489e-12 	101324.9999999994
-0.3766266266266269 	300.0000000000017 	5.308721655698258e-13 	101324.9999999993
-0.3741241241241244 	300.0000000000015 	3.064134534018777e-13 	101324.9999999993
-0.371621621621622 	300.0000000000015 	9.135221712213602e-13 	101324.9999999993
-0.3691191191191194 	300.0000000000004 	3.301106884576697e-13 	101324.9999999993
-0.366616616616617 	300.0000000000006 	8.046143110608163e-13 	101324.9999999994
-0.3641141141141143 	299.9999999999953 	8.943936270820037e-13 	101324.9999999995
-0.3616116116116119 	299.9999999999927 	7.450484537475043e-13 	101324.9999999993
-0.3591091091091095 	299.9999999999976 	3.842479804177572e-13 	101324.9999999993
-0.356606606606607 	299.9999999999977 	3.517023721807853e-13 	101324.9999999995
-0.3541041041041044 	300.0000000000002 	4.26491720175236e-13 	101324.9999999997
-0.3516016016016019 	300.0000000000023 	4.278862432525634e-13 	101324.9999999997
-0.3490990990990994 	300.0000000000009 	4.409963141117828e-13 	101324.9999999994
-0.346596596596597 	300.0000000000038 	2.948489324150933e-13 	101324.9999999995
-0.3440940940940944 	300.0000000000039 	4.646291006211347e-13 	101324.9999999995
-0.3415915915915919 	300.0000000000018 	5.42972308358603e-13 	101324.9999999995
-0.3390890890890895 	299.9999999999981 	4.80892280287304e-13 	101324.9999999995
-0.3365865865865869 	300.0000000000022 	4.747312117792888e-13 	101324.9999999997
-0.3340840840840844 	299.9999999999993 	5.753794333197467e-13 	101325
-0.3315815815815819 	300.0000000000036 	8.248744771747556e-13 	101324.9999999999
-0.3290790790790794 	300.0000000000043 	4.331070678370758e-13 	101324.9999999997
-0.3265765765765769 	299.999999999994 	6.665334707023486e-13 	101324.9999999995
-0.3240740740740744 	300.0000000000007 	5.568355172876981e-13 	101324.9999999994
-0.3215715715715718 	300.0000000000026 	8.118674801159767e-13 	101324.9999999995
-0.3190690690690695 	299.9999999999956 	8.168981236273834e-13 	101324.9999999996
-0.3165665665665668 	299.9999999999987 	8.68553739528335e-13 	101324.9999999997
-0.3140640640640644 	299.9999999999991 	1.125798747900301e-12 	101324.9999999998
-0.311561561561562 	299.9999999999942 	1.116771339681712e-12 	101324.9999999997
-0.3090590590590593 	300.0000000000006 	5.349448721921581e-13 	101324.9999999997
-0.3065565565565568 	300.0000000000011 	7.377220511879598e-13 	101324.9999999998
-0.3040540540540545 	299.9999999999995 	1.181030094044195e-12 	101324.9999999997
-0.3015515515515518 	300.0000000000019 	9.075465961002481e-13 	101324.9999999995
-0.2990490490490494 	299.999999999992 	3.394777219615449e-13 	101324.9999999993
-0.2965465465465469 	299.9999999999997 	1.220831051369285e-13 	101324.9999999993
-0.2940440440440444 	300.0000000000018 	2.764083891854276e-13 	101324.9999999992
-0.2915415415415418 	300.0000000000022 	3.339928439583541e-13 	101324.9999999991
-0.2890390390390395 	300.0000000000019 	8.58300609149498e-13 	101324.9999999992
-0.2865365365365368 	299.9999999999965 	7.085842176536784e-13 	101324.9999999995
-0.2840340340340343 	299.9999999999982 	1.159030580668572e-12 	101324.9999999997
-0.2815315315315318 	299.9999999999924 	3.000026997614231e-13 	101324.9999999995
-0.2790290290290295 	299.9999999999965 	8.082507146765396e-13 	101324.9999999995
-0.2765265265265269 	300.0000000000006 	5.166423782344573e-13 	101324.9999999993
-0.2740240240240244 	300.0000000000015 	4.876059944504035e-13 	101324.9999999992
-0.2715215215215219 	300.0000000000025 	4.208825680678712e-13 	101324.9999999991
-0.2690190190190194 	299.9999999999928 	4.823699651883167e-13 	101324.9999999993
-0.2665165165165169 	299.9999999999978 	9.579880089951333e-13 	101324.9999999994
-0.2640140140140144 	299.9999999999993 	1.079063850359099e-12 	101324.9999999994
-0.2615115115115119 	299.9999999999993 	1.463441834742182e-12 	101324.9999999992
-0.2590090090090094 	299.9999999999916 	1.001330841943057e-12 	101324.9999999992
-0.2565065065065068 	299.999999999997 	9.86088327915173e-13 	101324.999999999
-0.2540040040040044 	299.9999999999961 	4.222591517290746e-13 	101324.9999999992
-0.2515015015015019 	300.0000000000021 	3.569628028820871e-13 	101324.999999999
-0.2489989989989994 	300.0000000000042 	8.072223549648029e-13 	101324.9999999991
-0.2464964964964968 	299.9999999999968 	7.05840246244955e-13 	101324.9999999992
-0.2439939939939944 	299.9999999999978 	1.490618905800412e-12 	101324.9999999994
-0.2414914914914919 	299.9999999999954 	6.705064161752125e-13 	101324.9999999992
-0.2389889889889893 	299.9999999999981 	1.509884736561325e-12 	101324.9999999991
-0.2364864864864869 	300.0000000000048 	1.355267073138661e-12 	101324.9999999989
-0.2339839839839843 	299.9999999999952 	2.06618744349317e-12 	101324.9999999992
-0.2314814814814819 	299.999999999997 	7.650683936191682e-13 	101324.9999999992
-0.2289789789789792 	299.99999999999 	1.346900658341383e-12 	101324.9999999991
-0.2264764764764769 	299.9999999999941 	8.488020596732096e-13 	101324.9999999989
-0.2239739739739743 	299.9999999999987 	7.442764747461005e-13 	101324.9999999989
-0.2214714714714718 	299.9999999999925 	5.597953553748242e-13 	101324.9999999992
-0.2189689689689693 	299.999999999997 	6.350026127333841e-14 	101324.9999999995
-0.2164664664664669 	299.999999999999 	6.42954668804755e-13 	101324.9999999995
-0.2139639639639643 	299.9999999999924 	6.264659050687976e-13 	101324.9999999994
-0.2114614614614618 	299.9999999999969 	5.399692172640179e-14 	101324.9999999993
-0.2089589589589593 	300 	5.3613357971304e-14 	101324.999999999
-0.2064564564564568 	299.9999999999991 	3.662250785861431e-13 	101324.999999999
-0.2039539539539543 	299.9999999999923 	4.533998472512137e-13 	101324.999999999
-0.2014514514514518 	299.999999999989 	6.130445470656781e-13 	101324.999999999
-0.1989489489489494 	299.999999999997 	4.783086435970816e-13 	101324.999999999
-0.1964464464464468 	300.0000000000013 	4.157795125560999e-13 	101324.999999999
-0.1939439439439443 	300.0000000000009 	6.789846289282423e-13 	101324.9999999988
-0.1914414414414418 	299.9999999999941 	4.049260922163227e-13 	101324.9999999989
-0.1889389389389393 	299.9999999999977 	5.450225745398218e-13 	101324.9999999991
-0.1864364364364368 	300.0000000000006 	7.681229856476284e-14 	101324.999999999
-0.1839339339339343 	299.9999999999991 	6.350373422921308e-14 	101324.999999999
-0.1814314314314318 	299.9999999999977 	9.418219942232736e-14 	101324.999999999
-0.1789289289289293 	299.9999999999908 	3.371225341254566e-13 	101324.9999999989
-0.1764264264264268 	299.9999999999957 	3.91834102152873e-13 	101324.9999999989
-0.1739239239239243 	299.999999999988 	4.853349233879139e-13 	101324.9999999989
-0.1714214214214218 	299.9999999999978 	8.484788263900877e-13 	101324.9999999987
-0.1689189189189193 	299.9999999999923 	6.641682790568089e-13 	101324.9999999987
-0.1664164164164168 	299.9999999999994 	9.72629155839157e-13 	101324.9999999987
-0.1639139139139143 	299.9999999999993 	6.541818397431797e-13 	101324.9999999985
-0.1614114114114118 	299.9999999999995 	1.118881575763902e-12 	101324.9999999983
-0.1589089089089093 	299.9999999999986 	1.139029716598254e-12 	101324.9999999984
-0.1564064064064068 	299.9999999999947 	1.438620128229281e-12 	101324.9999999985
-0.1539039039039043 	300.0000000000014 	6.34164545394902e-13 	101324.9999999985
-0.1514014014014018 	300.0000000000028 	1.336290699164293e-12 	101324.9999999988
-0.1488988988988993 	300.0000000000031 	6.913642574094991e-13 	101324.999999999
-0.1463963963963968 	300.0000000000014 	5.5429528414982e-13 	101324.999999999
-0.1438938938938943 	299.999999999998 	1.399331380659908e-12 	101324.9999999989
-0.1413913913913918 	299.9999999999916 	4.425497535587906e-13 	101324.9999999989
-0.1388888888888893 	299.9999999999954 	8.610446146782305e-13 	101324.9999999989
-0.1363863863863868 	299.9999999999874 	5.802348661581185e-13 	101324.999999999
-0.1338838838838843 	299.9999999999948 	2.779626749457451e-13 	101324.9999999989
-0.1313813813813818 	299.9999999999987 	6.198017389427974e-13 	101324.9999999989
-0.1288788788788793 	299.9999999999945 	7.978188866289906e-13 	101324.999999999
-0.1263763763763768 	299.9999999999974 	6.212796331497262e-13 	101324.999999999
-0.1238738738738743 	299.9999999999939 	8.808528455370331e-13 	101324.9999999988
-0.1213713713713717 	299.9999999999989 	5.564870653903254e-13 	101324.9999999989
-0.1188688688688693 	300.0000000000043 	1.173475347299077e-12 	101324.9999999989
-0.1163663663663668 	299.9999999999882 	4.120050141962279e-13 	101324.9999999988
-0.1138638638638643 	299.999999999999 	4.890314040372893e-13 	101324.9999999987
-0.1113613613613618 	300.0000000000001 	4.705428062658832e-13 	101324.9999999987
-0.1088588588588592 	299.9999999999997 	9.646192414048884e-13 	101324.9999999987
-0.1063563563563568 	299.9999999999953 	1.470963310743658e-13 	101324.9999999991
-0.1038538538538543 	300.0000000000001 	8.743602291078114e-13 	101324.9999999991
-0.1013513513513517 	299.9999999999998 	6.787847158598333e-13 	101324.9999999991
-0.09884884884884926 	299.9999999999958 	1.028194032990153e-12 	101324.999999999
-0.09634634634634676 	299.9999999999922 	5.588454403931244e-13 	101324.9999999988
-0.09384384384384425 	299.9999999999901 	3.739759059268536e-13 	101324.9999999988
-0.09134134134134177 	300.0000000000005 	4.176820796877955e-13 	101324.9999999987
-0.08883883883883925 	300.0000000000003 	8.62416916571705e-13 	101324.9999999986
-0.08633633633633674 	299.9999999999934 	4.120494149431013e-13 	101324.9999999985
-0.08383383383383426 	299.999999999998 	1.489529367969925e-13 	101324.9999999986
-0.08133133133133173 	299.9999999999943 	7.253612589787238e-13 	101324.9999999984
-0.07882882882882926 	299.999999999989 	2.58765680932926e-13 	101324.9999999984
-0.07632632632632676 	299.9999999999962 	1.922421015027203e-13 	101324.9999999982
-0.07382382382382424 	299.9999999999872 	3.569769433493958e-13 	101324.9999999981
-0.07132132132132173 	299.9999999999993 	2.594667392983433e-13 	101324.9999999982
-0.06881881881881925 	299.9999999999935 	3.859511207192757e-13 	101324.9999999983
-0.06631631631631671 	299.9999999999868 	2.541096026267949e-13 	101324.9999999983
-0.06381381381381425 	299.9999999999934 	1.029565315644825e-13 	101324.9999999983
-0.06131131131131173 	299.999999999993 	5.025134229687886e-13 	101324.9999999983
-0.05880880880880923 	299.9999999999924 	3.128960452441442e-13 	101324.9999999982
-0.05630630630630672 	299.9999999999948 	8.119556172969197e-15 	101324.9999999983
-0.05380380380380424 	300.0000000000035 	4.330133026772169e-13 	101324.9999999984
-0.05130130130130173 	300 	1.054442338495342e-12 	101324.9999999985
-0.04879879879879922 	299.9999999999937 	8.728203258419461e-13 	101324.9999999983
-0.04629629629629672 	299.9999999999936 	4.794328694235597e-13 	101324.9999999983
-0.04379379379379422 	299.9999999999903 	4.930533280015845e-13 	101324.9999999984
-0.04129129129129173 	299.9999999999962 	6.714265313938392e-13 	101324.9999999985
-0.03878878878878922 	299.9999999999993 	7.106773397746674e-13 	101324.9999999984
-0.03628628628628671 	299.9999999999974 	5.413623521664833e-13 	101324.9999999984
-0.03378378378378422 	299.9999999999933 	4.357454756525441e-13 	101324.9999999984
-0.03128128128128172 	299.9999999999959 	1.209656265744439e-14 	101324.9999999983
-0.02877877877877922 	299.9999999999948 	3.185903710605286e-14 	101324.9999999982
-0.0262762762762767 	299.9999999999882 	2.587553828212646e-13 	101324.9999999984
-0.02377377377377422 	300.0000000000015 	3.582511420070757e-13 	101324.9999999984
-0.0212712712712717 	299.9999999999888 	2.862126118614068e-13 	101324.9999999983
-0.01876876876876921 	299.9999999999956 	4.275135256872224e-13 	101324.9999999981
-0.01626626626626671 	299.9999999999977 	6.31895059680367e-14 	101324.9999999982
-0.0137637637637642 	299.9999999999942 	2.146427817442134e-13 	101324.9999999983
-0.0112612612612617 	300.0000000000009 	2.879872247259315e-13 	101324.9999999982
-0.008758758758759198 	299.9999999999993 	2.089595591780133e-13 	101324.9999999983
-0.006256256256256697 	299.9999999999861 	2.193595020424592e-13 	101324.9999999982
-0.003753753753754195 	299.9999999999933 	3.358929000284582e-15 	101324.9999999985
-0.001251251251251693 	299.9999999999923 	5.244239101830938e-13 	101324.9999999985
0.00125125125125081 	299.9999999999939 	2.528823191205053e-13 	101324.9999999986
0.003753753753753312 	299.9999999999952 	4.731110112904859e-13 	101324.9999999987
0.006256256256255817 	299.9999999999869 	5.079801186411167e-13 	101324.9999999986
0.008758758758758317 	299.9999999999961 	6.623872505531826e-13 	101324.9999999984
0.01126126126126082 	299.9999999999984 	8.044636684551026e-13 	101324.9999999983
0.01376376376376332 	299.9999999999957 	4.653076096870616e-13 	101324.9999999981
0.01626626626626582 	300.0000000000006 	1.535690595444311e-14 	101324.9999999981
0.01876876876876833 	299.999999999993 	1.227420534251253e-13 	101324.9999999983
0.02127127127127083 	299.999999999996 	7.87169927529023e-13 	101324.9999999983
0.02377377377377332 	299.999999999998 	7.941780576935579e-13 	101324.9999999983
0.02627627627627583 	299.9999999999912 	4.928224406990529e-13 	101324.9999999986
0.02877877877877833 	299.9999999999984 	2.833546389207158e-13 	101324.9999999983
0.03128128128128083 	299.999999999994 	4.308425439805019e-15 	101324.9999999983
0.03378378378378333 	299.9999999999878 	2.973608899712902e-14 	101324.9999999983
0.03628628628628584 	299.9999999999983 	1.591639050290718e-13 	101324.9999999983
0.03878878878878834 	299.9999999999989 	1.193537309102519e-13 	101324.9999999982
0.04129129129129084 	299.9999999999956 	2.516457758389638e-13 	101324.9999999984
0.04379379379379333 	299.999999999992 	1.109605144384235e-13 	101324.9999999983
0.04629629629629585 	299.9999999999864 	1.723270169932222e-13 	101324.9999999982
0.04879879879879834 	299.9999999999953 	8.603324993397966e-14 	101324.9999999982
0.05130130130130085 	299.9999999999986 	2.543816814592407e-13 	101324.9999999982
0.05380380380380335 	300.0000000000037 	2.43997565900531e-13 	101324.9999999984
0.05630630630630584 	299.9999999999983 	4.481546939646554e-13 	101324.9999999983
0.05880880880880836 	299.9999999999936 	2.785926884377598e-13 	101324.9999999982
0.06131131131131085 	299.9999999999972 	7.473957013231777e-14 	101324.9999999984
0.06381381381381336 	299.999999999993 	2.216909028839124e-13 	101324.9999999983
0.06631631631631586 	299.9999999999868 	2.919407656053487e-13 	101324.9999999983
0.06881881881881835 	299.9999999999939 	3.283647059422159e-13 	101324.9999999984
0.07132132132132088 	300.0000000000022 	1.71019207931014e-13 	101324.9999999987
0.07382382382382337 	299.9999999999889 	1.475224608344426e-13 	101324.9999999985
0.07632632632632587 	299.9999999999955 	3.12306810592971e-14 	101324.9999999985
0.07882882882882837 	299.9999999999904 	1.964967476296822e-13 	101324.9999999983
0.08133133133133086 	299.9999999999985 	7.371299732652794e-13 	101324.9999999982
0.08383383383383337 	300.0000000000028 	2.067751425799235e-13 	101324.999999998
0.08633633633633589 	299.9999999999878 	7.955308753859942e-13 	101324.9999999983
0.08883883883883838 	300.000000000001 	1.339903964661244e-12 	101324.9999999984
0.09134134134134086 	299.9999999999978 	8.438794228396632e-13 	101324.9999999985
0.09384384384384339 	299.9999999999922 	8.957702956395579e-13 	101324.9999999984
0.09634634634634588 	299.999999999999 	8.562335786922374e-13 	101324.9999999982
0.09884884884884838 	299.9999999999987 	7.026207888291432e-13 	101324.9999999984
0.1013513513513509 	300.0000000000034 	4.091120431464363e-13 	101324.9999999984
0.1038538538538534 	299.9999999999908 	2.157659171503141e-13 	101324.9999999982
0.1063563563563559 	299.999999999999 	9.949476986165045e-13 	101324.9999999982
0.1088588588588584 	299.9999999999993 	1.176842989701843e-12 	101324.9999999984
0.1113613613613609 	299.9999999999944 	1.626962686941177e-12 	101324.9999999989
0.1138638638638634 	299.9999999999939 	1.677956615140252e-12 	101324.9999999988
0.1163663663663659 	299.9999999999922 	1.787565457318904e-12 	101324.9999999987
0.1188688688688684 	299.9999999999968 	1.152682592061611e-12 	101324.9999999988
0.1213713713713709 	299.9999999999978 	3.776050875408183e-13 	101324.9999999988
0.1238738738738734 	299.9999999999898 	3.459674178567887e-13 	101324.9999999987
0.1263763763763759 	300.0000000000002 	8.03529372077038e-13 	101324.9999999988
0.1288788788788784 	299.9999999999988 	5.034528628042993e-13 	101324.9999999988
0.1313813813813809 	299.9999999999972 	3.208852107152701e-13 	101324.9999999988
0.1338838838838834 	299.9999999999937 	1.045729632750655e-13 	101324.9999999988
0.1363863863863859 	300.0000000000005 	4.634877666830406e-14 	101324.9999999988
0.1388888888888884 	300.0000000000019 	4.850337880295622e-13 	101324.9999999988
0.1413913913913909 	299.9999999999999 	8.460878190211719e-13 	101324.9999999986
0.1438938938938934 	299.9999999999979 	6.91199701450571e-13 	101324.9999999987
0.1463963963963959 	299.9999999999944 	7.554633579155371e-14 	101324.9999999987
0.1488988988988985 	299.9999999999908 	8.399456023667039e-13 	101324.9999999986
0.1514014014014009 	299.9999999999957 	8.808846330966244e-13 	101324.9999999986
0.1539039039039035 	299.9999999999941 	3.897249842545436e-13 	101324.9999999986
0.1564064064064059 	299.9999999999959 	5.415900991305772e-13 	101324.9999999991
0.1589089089089084 	299.9999999999962 	5.302507530316902e-13 	101324.9999999989
0.1614114114114109 	299.9999999999947 	2.268303200151031e-13 	101324.9999999988
0.1639139139139134 	299.9999999999906 	4.832657982275262e-13 	101324.9999999986
0.166416416416416 	299.9999999999974 	5.175663618249165e-13 	101324.9999999988
0.1689189189189185 	300.0000000000019 	2.937198032072102e-13 	101324.9999999987
0.1714214214214209 	300.0000000000007 	6.195693497700461e-13 	101324.9999999989
0.1739239239239235 	300 	4.714759567373668e-13 	101324.999999999
0.1764264264264259 	299.9999999999948 	5.996019770123072e-13 	101324.9999999991
0.1789289289289284 	300.0000000000013 	4.376186957680014e-13 	101324.999999999
0.181431431431431 	299.9999999999977 	2.402912549443984e-13 	101324.9999999989
0.1839339339339334 	299.9999999999972 	8.696024724623948e-14 	101324.9999999989
0.186436436436436 	299.9999999999955 	3.902998407270442e-13 	101324.9999999991
0.1889389389389385 	299.9999999999967 	1.673059974591014e-13 	101324.999999999
0.191441441441441 	299.9999999999964 	2.197150943101326e-13 	101324.9999999988
0.1939439439439434 	299.9999999999926 	6.83253132855853e-13 	101324.9999999989
0.196446446446446 	299.9999999999962 	4.489056598626393e-13 	101324.9999999991
0.1989489489489485 	299.999999999996 	1.31100872814107e-12 	101324.999999999
0.2014514514514509 	299.9999999999989 	4.537205742082744e-13 	101324.9999999989
0.2039539539539535 	299.9999999999971 	6.831991205277554e-13 	101324.9999999991
0.2064564564564559 	299.9999999999944 	9.622756651375883e-13 	101324.9999999991
0.2089589589589585 	299.9999999999991 	7.61365189566532e-13 	101324.9999999992
0.211461461461461 	299.999999999993 	6.689841599982605e-13 	101324.999999999
0.2139639639639635 	299.9999999999981 	7.977400722993477e-13 	101324.999999999
0.2164664664664659 	300.0000000000038 	8.618609943710255e-13 	101324.999999999
0.2189689689689684 	300.0000000000032 	5.427175488284016e-13 	101324.9999999991
0.221471471471471 	299.9999999999994 	1.37131898996563e-12 	101324.9999999991
0.2239739739739735 	299.9999999999975 	9.661597602516359e-13 	101324.9999999994
0.226476476476476 	299.9999999999998 	1.417243322952951e-12 	101324.9999999994
0.2289789789789785 	299.9999999999997 	9.445755659356055e-13 	101324.9999999993
0.231481481481481 	299.999999999999 	1.025017792354224e-12 	101324.9999999993
0.2339839839839835 	299.9999999999967 	1.567805811113118e-12 	101324.9999999992
0.236486486486486 	300.0000000000052 	1.079628050852121e-12 	101324.9999999992
0.2389889889889885 	300.0000000000002 	6.211357605348456e-13 	101324.9999999993
0.241491491491491 	299.9999999999935 	5.047555305460371e-13 	101324.9999999993
0.2439939939939935 	299.9999999999981 	4.07977192288137e-13 	101324.9999999994
0.246496496496496 	299.9999999999994 	3.10206283458521e-13 	101324.9999999996
0.2489989989989985 	300.0000000000021 	4.746530098562948e-13 	101324.9999999994
0.251501501501501 	300.0000000000026 	2.378379726333178e-13 	101324.9999999994
0.2540040040040035 	300 	3.965829757334605e-13 	101324.9999999994
0.256506506506506 	300.000000000001 	3.038603693637175e-13 	101324.9999999995
0.2590090090090086 	299.9999999999926 	3.832564800479656e-13 	101324.9999999994
0.261511511511511 	300.0000000000023 	1.147124467891452e-12 	101324.9999999995
0.2640140140140135 	299.9999999999981 	6.728967761194029e-13 	101324.9999999992
0.2665165165165161 	299.9999999999977 	7.291168696081972e-13 	101324.9999999993
0.2690190190190185 	300.0000000000034 	2.377275119230565e-13 	101324.9999999994
0.271521521521521 	300.0000000000018 	2.08992296571234e-13 	101324.9999999995
0.2740240240240235 	300.0000000000026 	2.301829973319023e-13 	101324.9999999995
0.276526526526526 	299.999999999998 	7.441771214516578e-14 	101324.9999999997
0.2790290290290286 	299.9999999999956 	5.589644285968941e-13 	101324.9999999999
0.281531531531531 	299.9999999999906 	5.820093903240128e-13 	101324.9999999997
0.2840340340340335 	299.9999999999991 	1.150602365414252e-12 	101324.9999999997
0.2865365365365361 	299.9999999999986 	5.862318715166014e-13 	101324.9999999998
0.2890390390390385 	300 	8.429444698228078e-13 	101324.9999999997
0.291541541541541 	299.999999999999 	2.664508164173248e-13 	101324.9999999996
0.2940440440440436 	299.9999999999989 	2.568240069724936e-13 	101324.9999999993
0.296546546546546 	299.9999999999976 	1.253158542325124e-13 	101324.9999999992
0.2990490490490486 	299.999999999992 	4.886743681523388e-13 	101324.9999999995
0.3015515515515511 	300.000000000003 	1.078851268299711e-12 	101324.9999999995
0.3040540540540535 	299.9999999999984 	8.251325331891553e-13 	101324.9999999996
0.3065565565565562 	300.0000000000002 	1.383514202952059e-12 	101324.9999999997
0.3090590590590585 	299.999999999999 	4.916324915217196e-13 	101324.9999999996
0.3115615615615611 	299.9999999999935 	2.518329883663812e-14 	101324.9999999997
0.3140640640640635 	300.0000000000012 	2.172369966304848e-13 	101324.9999999996
0.316566566566566 	299.9999999999987 	4.33779637906831e-13 	101324.9999999996
0.3190690690690687 	299.9999999999945 	3.671476830959471e-13 	101324.9999999996
0.3215715715715711 	300.0000000000004 	5.40779563170115e-13 	101324.9999999995
0.3240740740740735 	299.9999999999981 	6.756964141500123e-13 	101324.9999999997
0.326576576576576 	299.999999999989 	2.784020704599914e-13 	101324.9999999996
0.3290790790790786 	300.0000000000004 	3.752550000903301e-13 	101324.9999999996
0.3315815815815811 	300.000000000004 	1.362864922133698e-13 	101324.9999999995
0.3340840840840836 	300.0000000000018 	4.716641927955612e-14 	101324.9999999994
0.3365865865865861 	300.0000000000068 	4.208005973165492e-13 	101324.9999999993
0.3390890890890886 	300.0000000000039 	1.081248483687101e-12 	101324.9999999994
0.3415915915915911 	300.0000000000002 	1.118012408409431e-12 	101324.9999999991
0.3440940940940935 	299.9999999999949 	1.315611892103062e-12 	101324.9999999994
0.3465965965965962 	300.0000000000051 	2.759916647205361e-13 	101324.9999999994
0.3490990990990985 	300.0000000000039 	7.950174615841281e-13 	101324.9999999993
0.3516016016016011 	299.9999999999991 	2.910255782722992e-13 	101324.9999999993
0.3541041041041035 	300.0000000000013 	3.122459126883893e-13 	101324.9999999993
0.3566066066066061 	299.9999999999962 	1.271732635596249e-13 	101324.9999999994
0.3591091091091085 	299.9999999999924 	4.534146543027203e-13 	101324.9999999993
0.3616116116116112 	299.9999999999936 	6.849272463238921e-13 	101324.9999999992
0.3641141141141137 	299.9999999999931 	5.690986858338659e-13 	101324.9999999994
0.3666166166166161 	299.9999999999927 	5.448776980300097e-13 	101324.9999999996
0.3691191191191185 	300.0000000000036 	1.225055540414906e-12 	101324.9999999994
0.371621621621621 	300.0000000000016 	2.410972291390515e-13 	101324.9999999992
0.3741241241241237 	300.0000000000054 	2.055404316272393e-13 	101324.9999999993
0.3766266266266261 	299.9999999999999 	8.388077044281636e-13 	101324.9999999995
0.3791291291291286 	299.9999999999981 	1.192888967721897e-12 	101324.9999999997
0.3816316316316311 	299.9999999999941 	9.470113093064327e-13 	101324.9999999996
0.3841341341341336 	300.0000000000013 	6.043522720038336e-13 	101324.9999999998
0.3866366366366362 	299.9999999999995 	3.971779754790493e-13 	101324.9999999998
0.3891391391391387 	299.9999999999949 	9.717478600870794e-14 	101324.9999999997
0.391641641641641 	300.0000000000002 	3.384862118194172e-13 	101324.9999999996
0.3941441441441436 	300.0000000000007 	4.047239679171977e-13 	101324.9999999998
0.3966466466466462 	299.9999999999986 	2.753705269466942e-13 	101324.9999999997
0.3991491491491486 	299.9999999999938 	5.226615320286528e-13 	101324.9999999996
0.4016516516516512 	299.9999999999899 	6.913597377710212e-13 	101324.9999999995
0.4041541541541536 	299.9999999999953 	2.848450463314499e-13 	101324.9999999994
0.4066566566566561 	299.9999999999958 	7.323524489021013e-13 	101324.9999999992
0.4091591591591587 	299.9999999999998 	3.957944008087875e-13 	101324.9999999993
0.4116616616616612 	300.0000000000027 	4.149117829290278e-13 	101324.9999999994
0.4141641641641635 	300.0000000000041 	5.051915168252659e-14 	101324.9999999994
0.4166666666666662 	300 	2.433347487746693e-13 	101324.9999999992
0.4191691691691687 	299.9999999999944 	2.854054052971021e-13 	101324.9999999991
0.421671671671671 	300.0000000000026 	7.833920633575731e-13 	101324.9999999991
0.4241741741741737 	299.9999999999977 	8.115581715068166e-13 	101324.999999999
0.4266766766766761 	299.9999999999974 	7.890491947983061e-13 	101324.999999999
0.4291791791791785 	300.0000000000014 	1.213971722227014e-12 	101324.9999999992
0.4316816816816812 	299.9999999999978 	4.589746582571068e-13 	101324.9999999991
0.4341841841841836 	299.9999999999983 	7.539848820791595e-13 	101324.9999999993
0.4366866866866862 	299.9999999999951 	1.222897814287192e-13 	101324.9999999992
0.4391891891891885 	299.999999999998 	4.782743217123271e-13 	101324.9999999991
0.4416916916916913 	299.999999999998 	7.540037693907725e-13 	101324.9999999992
0.4441941941941936 	299.999999999997 	5.389240627052934e-13 	101324.999999999
0.4466966966966961 	299.9999999999917 	3.753046777527575e-13 	101324.9999999989
0.4491991991991987 	300.0000000000005 	6.935032859129827e-13 	101324.999999999
0.4517017017017012 	299.9999999999981 	2.222226787613153e-13 	101324.999999999
0.4542042042042035 	299.9999999999969 	1.880440784160652e-13 	101324.9999999992
0.4567067067067062 	299.9999999999966 	1.046768958576934e-12 	101324.9999999992
0.4592092092092087 	299.9999999999918 	1.448583240959037e-12 	101324.9999999992
0.4617117117117112 	299.9999999999995 	1.7564123209222e-12 	101324.999999999
0.4642142142142137 	299.9999999999947 	1.608001344126139e-12 	101324.9999999989
0.4667167167167162 	299.9999999999968 	1.382817456148222e-12 	101324.9999999988
0.4692192192192187 	299.9999999999933 	1.323586757717247e-12 	101324.9999999989
0.4717217217217212 	300.0000000000011 	1.504547849766755e-12 	101324.999999999
0.4742242242242236 	299.999999999994 	1.412875589075698e-12 	101324.9999999989
0.4767267267267262 	299.9999999999976 	6.40466171671298e-13 	101324.9999999989
0.4792292292292287 	300.0000000000008 	5.811251207774616e-13 	101324.999999999
0.4817317317317312 	300.0000000000014 	8.963216080265787e-13 	101324.9999999988
0.4842342342342336 	299.9999999999974 	9.742301373338628e-13 	101324.9999999987
0.4867367367367362 	299.9999999999942 	8.07513869649016e-13 	101324.9999999989
0.4892392392392387 	300.0000000000003 	8.55506425759576e-13 	101324.9999999987
0.4917417417417412 	299.9999999999999 	1.40959111975486e-12 	101324.9999999987
0.4942442442442437 	299.9999999999893 	1.26801447928569e-12 	101324.9999999988
0.4967467467467462 	299.9999999999919 	1.435288378013005e-12 	101324.9999999988
0.4992492492492487 	299.9999999999914 	6.755982054300898e-13 	101324.9999999988
0.5017517517517511 	299.9999999999947 	1.148063219406442e-12 	101324.9999999989
0.5042542542542537 	299.9999999999957 	1.301488802526018e-12 	101324.999999999
0.5067567567567562 	299.999999999992 	1.170355600159554e-12 	101324.999999999
0.5092592592592589 	299.9999999999951 	7.272106828749293e-13 	101324.999999999
0.5117617617617611 	299.9999999999952 	6.161716909682355e-13 	101324.9999999989
0.5142642642642637 	299.9999999999999 	8.00374631182861e-13 	101324.999999999
0.5167667667667663 	299.9999999999981 	7.197563338664706e-13 	101324.999999999
0.5192692692692688 	299.9999999999906 	1.158536981628292e-12 	101324.9999999989
0.5217717717717714 	299.9999999999917 	8.19562100420303e-13 	101324.999999999
0.5242742742742736 	299.9999999999909 	6.291915507183942e-13 	101324.9999999987
0.5267767767767763 	299.999999999995 	2.884353754549781e-13 	101324.9999999985
0.5292792792792789 	299.9999999999939 	3.287807984537316e-13 	101324.9999999985
0.5317817817817813 	299.9999999999887 	5.9539690955257e-13 	101324.9999999986
0.5342842842842837 	299.9999999999997 	7.104778382668765e-13 	101324.9999999987
0.5367867867867864 	299.9999999999991 	7.43002481964386e-13 	101324.9999999988
0.5392892892892888 	299.9999999999959 	9.130933366630334e-13 	101324.9999999991
0.5417917917917912 	299.9999999999994 	1.200308444710831e-12 	101324.9999999992
0.5442942942942938 	299.9999999999959 	1.025504325268084e-12 	101324.9999999991
0.5467967967967964 	299.9999999999939 	1.077250124356526e-12 	101324.9999999989
0.5492992992992988 	299.9999999999934 	1.181950522279254e-12 	101324.9999999988
0.5518018018018012 	299.9999999999942 	1.532654369371223e-12 	101324.9999999987
0.5543043043043039 	300.0000000000014 	1.61605126391148e-12 	101324.9999999986
0.5568068068068063 	299.9999999999986 	1.652919593958767e-12 	101324.9999999987
0.5593093093093087 	299.9999999999915 	1.830579259952123e-12 	101324.9999999989
0.5618118118118114 	299.9999999999965 	2.763261241771748e-12 	101324.999999999
0.5643143143143137 	299.9999999999947 	2.193010879789161e-12 	101324.9999999989
0.5668168168168163 	299.999999999999 	2.063222214193783e-12 	101324.9999999989
0.5693193193193188 	300.000000000003 	1.662715817987659e-12 	101324.999999999
0.5718218218218213 	300.0000000000026 	1.294433361026419e-12 	101324.9999999991
0.5743243243243239 	300.0000000000014 	8.271688649877122e-13 	101324.9999999989
0.5768268268268262 	299.9999999999997 	5.811501279439904e-13 	101324.999999999
0.5793293293293288 	299.999999999994 	5.519494066799094e-13 	101324.999999999
0.5818318318318314 	299.9999999999915 	7.349471900285658e-13 	101324.9999999991
0.5843343343343338 	299.9999999999969 	9.621282869412291e-13 	101324.9999999988
0.5868368368368363 	299.9999999999957 	5.157059363616438e-13 	101324.9999999987
0.5893393393393387 	299.9999999999918 	4.76370825853476e-13 	101324.9999999988
0.5918418418418413 	299.9999999999949 	1.018012080215832e-12 	101324.9999999988
0.5943443443443439 	300.0000000000026 	1.306970248033182e-12 	101324.9999999988
0.5968468468468463 	300.0000000000016 	1.005543922368711e-12 	101324.9999999989
0.5993493493493487 	300.0000000000049 	5.201004834481716e-13 	101324.999999999
0.6018518518518514 	299.9999999999967 	5.167472108750661e-13 	101324.9999999992
0.6043543543543537 	299.9999999999997 	6.509316002613995e-13 	101324.9999999992
0.6068568568568564 	299.9999999999974 	7.344022769682473e-13 	101324.9999999991
0.6093593593593587 	299.9999999999916 	6.27821465772255e-13 	101324.9999999992
0.6118618618618614 	299.9999999999929 	1.783545385065355e-13 	101324.9999999993
0.6143643643643638 	300.0000000000018 	5.822677964914901e-13 	101324.9999999991
0.6168668668668662 	299.9999999999993 	5.593004255907347e-13 	101324.9999999989
0.6193693693693688 	299.9999999999944 	6.977125579195895e-13 	101324.9999999989
0.6218718718718714 	299.999999999997 	1.485390721701006e-12 	101324.9999999989
0.6243743743743737 	299.999999999994 	8.515373184217796e-13 	101324.999999999
0.6268768768768762 	299.9999999999925 	1.000192432972595e-12 	101324.9999999991
0.629379379379379 	299.9999999999953 	6.111546295968724e-13 	101324.999999999
0.6318818818818812 	299.999999999996 	7.668541126728286e-13 	101324.999999999
0.6343843843843838 	300.0000000000017 	7.367193753185822e-13 	101324.9999999989
0.6368868868868864 	299.9999999999978 	9.321640603194435e-13 	101324.9999999989
0.6393893893893888 	299.9999999999922 	9.193004379863642e-13 	101324.9999999991
0.6418918918918912 	299.9999999999999 	5.835929165594727e-13 	101324.9999999991
0.6443943943943939 	299.9999999999977 	1.201474980150745e-12 	101324.9999999992
0.6468968968968963 	299.9999999999964 	5.801874275820432e-13 	101324.999999999
0.6493993993993988 	299.9999999999961 	9.599228814318237e-13 	101324.9999999987
0.6519019019019012 	299.9999999999955 	5.883225803879866e-13 	101324.9999999986
0.6544044044044038 	299.9999999999888 	5.914771061789009e-13 	101324.9999999985
0.6569069069069065 	299.9999999999955 	8.558933890516836e-14 	101324.9999999987
0.6594094094094087 	299.9999999999953 	3.085526975198956e-13 	101324.999999999
0.6619119119119113 	299.9999999999935 	3.3149828874961e-13 	101324.9999999991
0.664414414414414 	299.9999999999984 	5.027174693511699e-13 	101324.9999999992
0.6669169169169162 	299.9999999999998 	5.504495203006693e-13 	101324.9999999993
0.6694194194194188 	299.9999999999974 	5.5469488156277e-13 	101324.999999999
0.6719219219219214 	299.9999999999946 	1.465530132605632e-13 	101324.9999999989
0.674424424424424 	299.9999999999968 	4.442526277510595e-13 	101324.9999999988
0.6769269269269262 	299.9999999999905 	7.595954161291004e-13 	101324.9999999987
0.679429429429429 	300.0000000000006 	4.850199097347387e-13 	101324.9999999989
0.6819319319319311 	299.9999999999966 	2.721361754834e-13 	101324.9999999989
0.6844344344344341 	299.9999999999985 	3.976010847989981e-13 	101324.9999999989
0.686936936936936 	299.9999999999988 	5.813992948142791e-13 	101324.9999999987
0.6894394394394392 	300.0000000000003 	3.143052740798735e-13 	101324.9999999986
0.6919419419419413 	299.9999999999985 	3.636720393711438e-13 	101324.9999999985
0.694444444444444 	299.9999999999949 	5.36763336189387e-13 	101324.9999999986
0.6969469469469463 	299.9999999999922 	2.30063894273628e-13 	101324.9999999987
0.6994494494494489 	299.999999999991 	2.735943561038422e-13 	101324.9999999988
0.7019519519519515 	299.9999999999982 	3.068422096403316e-13 	101324.9999999989
0.7044544544544538 	299.9999999999939 	5.696137595573903e-13 	101324.9999999988
0.7069569569569564 	299.9999999999989 	8.207925909678616e-13 	101324.9999999988
0.7094594594594589 	299.9999999999963 	4.372554816111407e-13 	101324.9999999987
0.7119619619619615 	299.9999999999907 	4.60782683711474e-13 	101324.9999999986
0.7144644644644638 	299.9999999999928 	1.173035799944439e-13 	101324.9999999985
0.7169669669669665 	299.9999999999909 	1.176990766236578e-13 	101324.9999999984
0.7194694694694688 	299.999999999998 	3.752812459302389e-13 	101324.9999999985
0.7219719719719715 	299.9999999999989 	4.067653826639328e-13 	101324.9999999986
0.7244744744744737 	299.9999999999995 	5.714565554349205e-13 	101324.9999999989
0.7269769769769764 	299.9999999999991 	6.035651953056519e-13 	101324.999999999
0.7294794794794791 	299.9999999999983 	1.07801511162253e-12 	101324.9999999989
0.7319819819819813 	299.9999999999976 	6.07498295891047e-13 	101324.999999999
0.7344844844844839 	299.9999999999922 	5.932970471480165e-13 	101324.999999999
0.7369869869869864 	299.9999999999957 	5.330304080921407e-13 	101324.9999999991
0.739489489489489 	299.9999999999945 	2.887528353053951e-13 	101324.999999999
0.7419919919919914 	299.9999999999936 	4.150524590025041e-13 	101324.9999999988
0.7444944944944939 	299.9999999999966 	7.143012418141227e-13 	101324.9999999989
0.7469969969969963 	299.9999999999971 	1.033891723668867e-12 	101324.999999999
0.7494994994994989 	299.9999999999934 	1.066740515847512e-12 	101324.9999999989
0.7520020020020015 	299.999999999996 	9.840956531898638e-13 	101324.9999999988
0.7545045045045039 	299.9999999999962 	9.385586099850698e-13 	101324.9999999987
0.7570070070070062 	299.9999999999944 	6.110036313231682e-13 	101324.9999999988
0.7595095095095092 	299.9999999999927 	9.288405823371529e-13 	101324.9999999987
0.7620120120120112 	299.9999999999999 	8.369464749069014e-13 	101324.9999999987
0.7645145145145138 	299.9999999999984 	6.83987771653955e-13 	101324.9999999988
0.7670170170170165 	299.9999999999935 	7.747766343453437e-13 	101324.9999999989
0.7695195195195191 	299.9999999999926 	6.384489850038274e-13 	101324.9999999989
0.7720220220220213 	299.9999999999945 	6.459646099306472e-13 	101324.9999999988
0.7745245245245239 	299.9999999999959 	5.594721346756587e-13 	101324.9999999989
0.7770270270270263 	299.9999999999978 	3.900919796178031e-13 	101324.999999999
0.779529529529529 	299.9999999999966 	3.289781205537971e-13 	101324.999999999
0.7820320320320313 	299.9999999999942 	3.492889753887001e-13 	101324.999999999
0.784534534534534 	299.9999999999976 	5.149470119201579e-13 	101324.9999999991
0.7870370370370364 	299.9999999999986 	3.289409050420359e-13 	101324.999999999
0.7895395395395389 	299.9999999999966 	3.739145882387562e-13 	101324.9999999989
0.7920420420420413 	299.9999999999974 	3.392206150360337e-13 	101324.9999999989
0.794544544544544 	299.9999999999992 	7.823075024521507e-13 	101324.9999999988
0.7970470470470463 	300.0000000000012 	9.706205789251058e-13 	101324.9999999989
0.799549549549549 	299.9999999999993 	8.239736878374194e-13 	101324.9999999987
0.8020520520520515 	299.9999999999987 	5.196695675998475e-13 	101324.9999999986
0.8045545545545539 	299.9999999999945 	4.488450337545547e-13 	101324.9999999987
0.8070570570570563 	299.9999999999995 	3.575348570854938e-13 	101324.9999999988
0.8095595595595589 	299.999999999996 	3.910026448859454e-13 	101324.9999999988
0.8120620620620614 	299.9999999999924 	4.937841028472808e-13 	101324.9999999989
0.8145645645645638 	299.9999999999979 	5.466020202661603e-13 	101324.999999999
0.8170670670670666 	299.9999999999986 	9.093887037430307e-13 	101324.9999999989
0.8195695695695689 	299.9999999999977 	8.293604754163297e-13 	101324.9999999988
0.8220720720720714 	299.9999999999938 	7.102821354215761e-13 	101324.9999999986
0.8245745745745739 	299.9999999999988 	3.611421844042034e-13 	101324.9999999984
0.8270770770770765 	299.9999999999964 	4.677373450012616e-13 	101324.9999999985
0.8295795795795788 	299.9999999999941 	1.480055897155245e-13 	101324.9999999984
0.8320820820820815 	300.0000000000018 	3.173099718793122e-13 	101324.9999999985
0.834584584584584 	300.0000000000003 	4.657263707102208e-13 	101324.9999999986
0.8370870870870865 	299.9999999999961 	5.822044184092073e-13 	101324.9999999987
0.8395895895895891 	299.9999999999927 	4.3136940715229e-13 	101324.9999999988
0.8420920920920915 	299.9999999999927 	3.974799234168352e-13 	101324.9999999988
0.844594594594594 	299.9999999999912 	1.289126144706132e-13 	101324.9999999988
0.8470970970970964 	299.9999999999933 	2.216125496476327e-13 	101324.9999999989
0.8495995995995991 	299.9999999999973 	2.903272443036714e-13 	101324.9999999989
0.8521021021021015 	299.9999999999973 	4.125490124821124e-13 	101324.9999999989
0.8546046046046039 	299.9999999999956 	5.798687886176064e-13 	101324.999999999
0.8571071071071066 	299.9999999999985 	8.547717676296893e-13 	101324.999999999
0.8596096096096089 	299.999999999995 	9.28177851441779e-13 	101324.999999999
0.8621121121121116 	299.9999999999927 	6.922465432726216e-13 	101324.9999999991
0.8646146146146139 	299.9999999999987 	9.112535379772543e-13 	101324.999999999
0.8671171171171166 	299.9999999999973 	2.559669293886469e-13 	101324.9999999989
0.8696196196196189 	299.9999999999952 	2.140981861924756e-13 	101324.9999999988
0.8721221221221216 	299.9999999999953 	4.444911442067997e-13 	101324.9999999987
0.874624624624624 	299.9999999999989 	3.574972603950288e-13 	101324.9999999988
0.8771271271271264 	300.0000000000002 	5.111461875144942e-13 	101324.9999999986
0.879629629629629 	299.9999999999989 	7.241482058508535e-13 	101324.9999999985
0.8821321321321317 	299.9999999999985 	1.128564917703615e-12 	101324.9999999987
0.8846346346346339 	299.999999999993 	5.618699674290475e-13 	101324.9999999988
0.8871371371371364 	299.9999999999956 	7.535968721899231e-13 	101324.9999999989
0.8896396396396391 	299.9999999999946 	1.744065055326434e-13 	101324.999999999
0.8921421421421414 	299.9999999999951 	1.767599779163377e-13 	101324.999999999
0.8946446446446441 	299.9999999999991 	3.446997948023003e-13 	101324.999999999
0.8971471471471464 	299.9999999999994 	5.25185903921186e-13 	101324.9999999989
0.8996496496496489 	299.9999999999964 	5.052229825580407e-13 	101324.9999999988
0.9021521521521517 	299.9999999999943 	3.432257312031414e-13 	101324.9999999988
0.9046546546546541 	299.9999999999969 	2.04726673077797e-13 	101324.9999999988
0.9071571571571564 	299.999999999993 	1.810657273916321e-13 	101324.9999999987
0.9096596596596589 	299.9999999999943 	3.461524985836022e-13 	101324.9999999987
0.9121621621621616 	300.0000000000006 	4.74077329905458e-13 	101324.9999999988
0.9146646646646639 	299.9999999999976 	5.787506784314286e-13 	101324.9999999989
0.9171671671671666 	299.9999999999937 	6.238149729455209e-13 	101324.9999999989
0.9196696696696689 	299.9999999999984 	9.88494196982578e-13 	101324.9999999989
0.9221721721721714 	299.9999999999997 	9.127122555736194e-13 	101324.9999999988
0.9246746746746741 	299.999999999994 	5.363942722511917e-13 	101324.9999999989
0.9271771771771765 	299.9999999999926 	6.045602229394418e-13 	101324.9999999991
0.9296796796796791 	299.9999999999974 	5.095972789598589e-13 	101324.9999999991
0.9321821821821816 	299.9999999999986 	3.287211393959478e-13 	101324.9999999988
0.9346846846846838 	299.9999999999962 	3.278885855436052e-13 	101324.9999999986
0.9371871871871866 	300.0000000000006 	3.619103818208114e-13 	101324.9999999986
0.9396896896896891 	300.0000000000014 	3.858727712065103e-13 	101324.9999999987
0.9421921921921914 	300.0000000000003 	9.052897560748331e-13 	101324.9999999988
0.9446946946946939 	299.9999999999956 	1.018420681752121e-12 	101324.9999999988
0.9471971971971965 	299.999999999992 	6.002638074164611e-13 	101324.9999999986
0.9496996996996991 	299.9999999999935 	7.073096228654372e-13 	101324.9999999985
0.9522022022022016 	299.9999999999945 	2.682515774548101e-13 	101324.9999999986
0.9547047047047038 	299.9999999999967 	3.535500698689452e-13 	101324.9999999986
0.9572072072072064 	299.9999999999964 	5.067536045792887e-13 	101324.9999999986
0.9597097097097093 	299.9999999999954 	4.999463404134066e-13 	101324.9999999989
0.9622122122122114 	299.9999999999947 	5.782799514818101e-13 	101324.999999999
0.964714714714714 	299.9999999999952 	5.612089905099291e-13 	101324.999999999
0.9672172172172167 	299.9999999999957 	3.015828327368216e-13 	101324.9999999991
0.969719719719719 	299.9999999999982 	3.239996410667409e-13 	101324.9999999991
0.9722222222222214 	299.9999999999965 	6.52132173654245e-13 	101324.9999999992
0.9747247247247239 	299.9999999999952 	1.190523938331907e-12 	101324.9999999992
0.9772272272272267 	299.9999999999989 	1.058039190920019e-12 	101324.999999999
0.9797297297297292 	299.9999999999985 	6.111550685753817e-13 	101324.9999999989
0.9822322322322313 	299.9999999999998 	7.370354452611583e-13 	101324.9999999989
0.9847347347347344 	299.9999999999998 	8.890838049470228e-13 	101324.999999999
0.9872372372372363 	299.9999999999955 	1.112244920799174e-12 	101324.9999999991
0.9897397397397389 	299.9999999999968 	7.210039137202103e-13 	101324.9999999992
0.9922422422422417 	299.9999999999941 	1.224140371603288e-12 	101324.9999999991
0.9947447447447441 	299.999999999994 	1.442518407913783e-12 	101324.999999999
0.9972472472472468 	299.999999999997 	1.558388170431604e-12 	101324.999999999
0.999749749749749 	299.9999999999961 	9.704800039409311e-13 	101324.9999999989
1.002252252252252 	299.9999999999961 	5.498546065235966e-13 	101324.9999999989
1.004754754754754 	299.999999999997 	6.974226644189939e-13 	101324.999999999
1.007257257257256 	299.9999999999945 	8.214331307717741e-13 	101324.999999999
1.009759759759759 	299.9999999999929 	6.009398230001098e-13 	101324.999999999
1.012262262262261 	299.9999999999928 	3.541780545251787e-13 	101324.9999999992
1.014764764764764 	299.9999999999924 	6.886765870462264e-13 	101324.9999999993
1.017267267267267 	299.9999999999908 	8.843045715311144e-13 	101324.9999999994
1.019769769769769 	299.9999999999949 	1.024238242706018e-12 	101324.9999999994
1.022272272272272 	299.9999999999969 	6.880706748850129e-13 	101324.9999999992
1.024774774774774 	299.9999999999964 	7.579737957916306e-13 	101324.9999999992
1.027277277277277 	299.9999999999964 	1.377444242302042e-12 	101324.9999999991
1.029779779779779 	299.9999999999982 	1.139170311070279e-12 	101324.9999999991
1.032282282282282 	299.9999999999983 	8.281169625091056e-13 	101324.9999999991
1.034784784784784 	299.9999999999986 	3.782712066042968e-13 	101324.9999999991
1.037287287287286 	299.9999999999955 	2.422300153988018e-13 	101324.999999999
1.039789789789789 	299.9999999999962 	3.390495565146976e-13 	101324.9999999991
1.042292292292291 	300.0000000000011 	3.19344134014334e-13 	101324.999999999
1.044794794794794 	300.0000000000019 	5.981021006825214e-13 	101324.999999999
1.047297297297296 	300.0000000000021 	8.590416465970375e-13 	101324.999999999
1.049799799799799 	299.9999999999984 	5.783064670707882e-13 	101324.9999999991
1.052302302302302 	299.9999999999958 	5.391553235367737e-13 	101324.9999999989
1.054804804804804 	299.9999999999942 	7.265480692151583e-14 	101324.9999999989
1.057307307307306 	299.9999999999917 	8.982761824817882e-14 	101324.999999999
1.059809809809809 	299.9999999999941 	7.428391225605149e-14 	101324.999999999
1.062312312312312 	299.9999999999929 	2.350170475388929e-13 	101324.999999999
1.064814814814814 	299.9999999999932 	6.014545358508262e-13 	101324.9999999991
1.067317317317317 	299.9999999999925 	5.801562031643298e-13 	101324.9999999992
1.069819819819819 	299.9999999999914 	8.460337640889604e-13 	101324.9999999992
1.072322322322321 	299.9999999999976 	8.807730774034781e-13 	101324.9999999992
1.074824824824824 	300.0000000000008 	7.666330878479511e-14 	101324.999999999
1.077327327327327 	300.0000000000024 	3.051192582570602e-13 	101324.9999999992
1.079829829829829 	300.0000000000023 	6.903907866374944e-13 	101324.9999999996
1.082332332332332 	300.0000000000002 	5.790229347810651e-13 	101324.9999999997
1.084834834834834 	299.9999999999983 	7.714759467960135e-13 	101324.9999999996
1.087337337337337 	299.9999999999943 	1.004218065481386e-12 	101324.9999999994
1.089839839839839 	299.999999999993 	9.636532350146951e-13 	101324.9999999994
1.092342342342342 	299.9999999999967 	1.439956209789736e-12 	101324.9999999993
1.094844844844844 	299.9999999999974 	1.339774651051208e-12 	101324.9999999993
1.097347347347347 	299.9999999999945 	1.256413965402413e-12 	101324.9999999993
1.099849849849849 	299.9999999999934 	6.464872866617991e-13 	101324.9999999995
1.102352352352352 	299.9999999999957 	9.707643374715306e-13 	101324.9999999995
1.104854854854854 	299.9999999999984 	6.023387156128424e-13 	101324.9999999994
1.107357357357357 	299.9999999999977 	5.730273949839868e-13 	101324.9999999995
1.109859859859859 	299.9999999999955 	5.458227204140082e-13 	101324.9999999995
1.112362362362362 	300.0000000000016 	7.791797934100879e-13 	101324.9999999993
1.114864864864865 	300.0000000000013 	6.862772384050305e-13 	101324.9999999992
1.117367367367367 	299.9999999999956 	1.206012342228304e-12 	101324.9999999988
1.119869869869869 	299.9999999999916 	3.784857809579502e-12 	101324.9999999976
1.122372372372372 	299.9999999999903 	1.57264407511393e-11 	101324.9999999929
1.124874874874874 	299.9999999999749 	6.425091464721692e-11 	101324.9999999751
1.127377377377377 	299.9999999999209 	2.446850010267419e-10 	101324.999999909
1.129879879879879 	299.9999999997235 	8.994316150893603e-10 	101324.9999996686
1.132382382382382 	299.9999999990017 	3.214902001349409e-09 	101324.9999988153
1.134884884884884 	299.9999999965019 	1.119356608347277e-08 	101324.9999958633
1.137387387387387 	299.9999999880903 	3.797014716461042e-08 	101324.9999859175
1.139889889889889 	299.9999999605092 	1.254025381853512e-07 	101324.9999533133
1.142392392392392 	299.9999998726555 	4.028258804519306e-07 	101324.9998494415
1.144894894894894 	299.999999600996 	1.257125534651272e-06 	101324.9995282462
1.147397397397397 	299.9999987867488 	3.806711661111908e-06 	101324.998565552
1.149899899899899 	299.9999964248247 	1.116972731866821e-05 	101324.9957730343
1.152402402402402 	299.9999898052487 	3.171112568358187e-05 	101324.9879466904
1.154904904904904 	299.9999719143744 	8.696544803392752e-05 	101324.9667943643
1.157407407407407 	299.999925383014 	0.0002299642134093206 	101324.9117807985
1.159909909909909 	299.9998092060347 	0.0005851579990084968 	101324.7744267295
1.162412412412412 	299.9995315280496 	0.001429540402190395 	101324.4461350002
1.164914914914914 	299.9988982547337 	0.003344317338736363 	101323.6974383226
1.167417417417417 	299.9975255358854 	0.007469967304073188 	101322.0745415453
1.169919919919919 	299.9947106386097 	0.0158757862863565 	101318.7466984026
1.172422422422422 	299.9892822007769 	0.03197388871032558 	101312.3293003785
1.174924924924925 	299.9795119505025 	0.06072715887911042 	101300.7798551871
1.177427427427427 	299.963269731907 	0.1081152371889574 	101281.5820212655
1.179929929929929 	299.9387066778281 	0.1790425775432766 	101252.5543171664
1.182432432432432 	299.905750490268 	0.272960421827475 	101213.6177058544
1.184934934934934 	299.8682882854402 	0.3783417940348293 	101169.3711758161
1.187437437437437 	299.8349213696749 	0.4718976053198224 	101129.9742624808
1.189939939939939 	299.8151024711258 	0.5287475704341245 	101106.5793463825
1.192442442442442 	299.8125458974421 	0.5389832511642492 	101103.5599466441
1.194944944944944 	299.8217852737405 	0.5170271812302009 	101114.4670038738
1.197447447447447 	299.8311273158375 	0.4931355170147925 	101125.4986398963
1.199949949949949 	299.832166071326 	0.4887950380005721 	101126.7259417543
1.202452452452452 	299.8275468301855 	0.4986784488465942 	101121.2721190052
1.204954954954955 	299.8256918313546 	0.5034192345077184 	101119.079631059
1.207457457457457 	299.8284208540118 	0.4980088539687984 	101122.3013058488
1.20995995995996 	299.8299738212255 	0.4942391043638754 	101124.1364992381
1.212462462462462 	299.8285016254837 	0.4966442715664452 	101122.3980894544
1.214964964964964 	299.8282242114181 	0.4974232558955174 	101122.0689238796
1.217467467467467 	299.8294252213523 	0.4952881572825675 	101123.4870493055
1.219969969969969 	299.8292254692794 	0.4952199210207676 	101123.2519429737
1.222472472472472 	299.8289904784951 	0.4955753002806038 	101122.9736473084
1.224974974974975 	299.8295799273628 	0.4946989217045422 	101123.6693260921
1.227477477477477 	299.8294793421517 	0.4945474074661209 	101123.5504618285
1.229979979979979 	299.8295523003384 	0.4945919644165753 	101123.6358488666
1.232482482482482 	299.8298227838839 	0.4937451708549064 	101123.9546266824
1.234984984984984 	299.8298093413764 	0.4947375089051154 	101123.9391785827
1.237487487487487 	299.8299851465846 	0.4906647342025596 	101124.1432492639
1.239989989989989 	299.8301226675042 	0.4971593974321065 	101124.3104730316
1.242492492492492 	299.8302326429318 	0.4870284282030382 	101124.4275402642
1.244994994994994 	299.8302582930139 	0.4879558504803354 	101124.4885604992
1.247497497497497 	299.721560034651 	0.5013441836560923 	101124.8188448934
1.249999999999999 	305.4482791504508 	0.4910395880765879 	101124.9352741655
