-1.25 	300 	0.07204084276959029 	101295.6107373854
-1.247497497497497 	299.9745578849661 	0.07079192795283984 	101296.1600248036
-1.244994994994995 	299.9760580185427 	0.06919095600452463 	101296.7180678602
-1.242492492492492 	299.9765504969072 	0.06800627687364874 	101297.280400176
-1.23998998998999 	299.977028989292 	0.06651738385544728 	101297.8467179681
-1.237487487487487 	299.9775131862466 	0.0651516244652084 	101298.4190560274
-1.234984984984985 	299.9780017276061 	0.06373730776113515 	101298.9965077964
-1.232482482482482 	299.9784944301277 	0.06230893253309079 	101299.5788794258
-1.22997997997998 	299.978990591588 	0.06087085804855653 	101300.1653423883
-1.227477477477477 	299.9794902122914 	0.05942325712424256 	101300.7558968916
-1.224974974974975 	299.9799944362044 	0.05796483980699921 	101301.3518936824
-1.222472472472472 	299.9805027514686 	0.05649454915145405 	101301.9527296997
-1.21996996996997 	299.9810144741423 	0.05500781700518189 	101302.5575960935
-1.217467467467467 	299.9815289774818 	0.05351102271697317 	101303.1657500146
-1.214964964964965 	299.9820470365885 	0.05201411670902592 	101303.7781107336
-1.212462462462462 	299.9825689012433 	0.0505058831166248 	101304.3949721525
-1.20995995995996 	299.9830932040803 	0.04898704730881927 	101305.0147174348
-1.207457457457457 	299.9836206262394 	0.04745592735700754 	101305.6381539236
-1.204954954954955 	299.9841514527855 	0.0459136512390245 	101306.2656165237
-1.202452452452452 	299.9846849186606 	0.04437252029083909 	101306.8962008503
-1.19994994994995 	299.9852210749445 	0.04282298022540017 	101307.5299694424
-1.197447447447447 	299.9857613407027 	0.04125828456439821 	101308.1685984562
-1.194944944944945 	299.9863041880729 	0.03968233742842477 	101308.8102795877
-1.192442442442442 	299.9868470332014 	0.0381047287931827 	101309.4519611403
-1.18993993993994 	299.9873925216349 	0.03652671224961078 	101310.0967732393
-1.187437437437437 	299.9879438941813 	0.03493431773049504 	101310.7485431472
-1.184934934934935 	299.9884972232908 	0.03333320099174534 	101311.4026259817
-1.182432432432432 	299.9890487269728 	0.03173160584399044 	101312.0545537338
-1.17992992992993 	299.9896014410622 	0.0301275605066078 	101312.7079167733
-1.177427427427427 	299.9901582422222 	0.02851753134364213 	101313.3661157998
-1.174924924924925 	299.9907182557305 	0.02689653424779383 	101314.0281149391
-1.172422422422422 	299.9912807934582 	0.0252667674718552 	101314.6930995124
-1.16991991991992 	299.9918460112978 	0.02362914756362994 	101315.3612536385
-1.167417417417417 	299.9924119794188 	0.02198948600250037 	101316.0302965624
-1.164914914914915 	299.9929758356344 	0.02035764792910674 	101316.6968476737
-1.162412412412412 	299.9935366711438 	0.01873235554261439 	101317.3598343742
-1.15990990990991 	299.9940976322205 	0.01710423500124177 	101318.0229733114
-1.157407407407407 	299.9946643623173 	0.0154603938858626 	101318.6929324252
-1.154904904904904 	299.9952395020244 	0.01379574675354437 	101319.3728336981
-1.152402402402403 	299.9958198755846 	0.01211675952663715 	101320.0589255133
-1.1498998998999 	299.9963998179923 	0.01043856603441138 	101320.7445127802
-1.147397397397397 	299.9969740436582 	0.008776215350432949 	101321.4233478275
-1.144894894894895 	299.9975413827437 	0.007130982333388323 	101322.0940452442
-1.142392392392392 	299.9981051853936 	0.00549697564636002 	101322.7605619736
-1.13988988988989 	299.9986694959186 	0.003861918885574921 	101323.4276780281
-1.137387387387387 	299.9992367666772 	0.002215057618774591 	101324.0982924724
-1.134884884884885 	299.9998100973215 	0.0007732970039234728 	101324.7760706475
-1.132382382382382 	300.0003876171319 	0.001113666119341236 	101325.458802042
-1.12987987987988 	300.0009647774443 	0.002785064351906022 	101326.141112071
-1.127377377377377 	300.0015405665798 	0.004453036667661708 	101326.8218070907
-1.124874874874875 	300.0021151655598 	0.006117636753701729 	101327.5011011899
-1.122372372372372 	300.0026887969714 	0.00777943560748368 	101328.1792570637
-1.11986986986987 	300.0032615972532 	0.009438812935070815 	101328.8564352533
-1.117367367367367 	300.0038336110509 	0.01109590163308333 	101329.5326880264
-1.114864864864865 	300.0044048169727 	0.01275064414138448 	101330.2079896084
-1.112362362362362 	300.0049751538187 	0.01440286592328484 	101330.8822673115
-1.10985985985986 	300.0055445388545 	0.01605233011806209 	101331.5554232107
-1.107357357357357 	300.0061128788624 	0.01769876700506232 	101332.2273467598
-1.104854854854855 	300.0066800751674 	0.01934189042291945 	101332.8979213666
-1.102352352352353 	300.00724602682 	0.02098140810075713 	101333.5670276115
-1.09984984984985 	300.0078106318865 	0.02261702464240974 	101334.2345447676
-1.097347347347347 	300.0083737876709 	0.02424844196728341 	101334.9003515799
-1.094844844844845 	300.0089353915253 	0.02587536257601893 	101335.5643266474
-1.092342342342342 	300.0094953408844 	0.02749748985811155 	101336.2263486221
-1.08983983983984 	300.0100535333158 	0.02911452592039646 	101336.8862963332
-1.087337337337337 	300.0106098664974 	0.03072617424261351 	101337.5440488502
-1.084834834834835 	300.0111642384429 	0.0323321404031552 	101338.1994855593
-1.082332332332332 	300.0117165475726 	0.03393212919151561 	101338.8524861824
-1.07982982982983 	300.012266692392 	0.03552584633086663 	101339.5029308515
-1.077327327327327 	300.0128145719474 	0.03711300008708896 	101340.1507001852
-1.074824824824825 	300.0133600857683 	0.03869329910032578 	101340.795675292
-1.072322322322323 	300.0139031337384 	0.04026645291205852 	101341.4377377778
-1.06981981981982 	300.0144436161877 	0.04183217306439096 	101342.0767696979
-1.067317317317317 	300.0149814336897 	0.04339017196429888 	101342.7126536388
-1.064814814814815 	300.0155164876719 	0.04494016315287486 	101343.3452728118
-1.062312312312312 	300.0160486799174 	0.04648186268620827 	101343.9745110678
-1.05980980980981 	300.0165779126739 	0.04801498782897261 	101344.6002529374
-1.057307307307307 	300.0171040889484 	0.04953925637318062 	101345.2223835266
-1.054804804804805 	300.0176271121219 	0.05105438886491533 	101345.8407885444
-1.052302302302302 	300.0181468861103 	0.05256010781765137 	101346.4553543993
-1.0497997997998 	300.0186633153454 	0.05405613605533725 	101347.0659681988
-1.047297297297297 	300.0191763052767 	0.05554219892603005 	101347.6725178502
-1.044794794794795 	300.0196857619021 	0.05701802439932631 	101348.2748920222
-1.042292292292292 	300.0201915913736 	0.05848334139328321 	101348.8729801362
-1.03978978978979 	300.0206937008023 	0.05993788109420098 	101349.4666724153
-1.037287287287287 	300.0211919985085 	0.06138137691478422 	101350.0558598231
-1.034784784784785 	300.0216863933036 	0.06281356351593581 	101350.6404342201
-1.032282282282283 	300.0221767938419 	0.06423417841119476 	101351.2202883503
-1.02977977977978 	300.0226631096918 	0.06564296154048026 	101351.7953157476
-1.027277277277277 	300.0231452526572 	0.06703965383254815 	101352.365410877
-1.024774774774775 	300.0236231348464 	0.06842399898875531 	101352.9304690449
-1.022272272272272 	300.0240966673679 	0.06979574352662317 	101353.4903864395
-1.01976976976977 	300.0245657621765 	0.07115463503127779 	101354.0450602078
-1.017267267267267 	300.0250303343053 	0.07250042375866581 	101354.5943883405
-1.014764764764765 	300.0254903004789 	0.07383286324657524 	101355.1382699135
-1.012262262262262 	300.0259455751342 	0.07515170852821146 	101355.6766050626
-1.00975975975976 	300.0263960716593 	0.07645671744672071 	101356.2092948594
-1.007257257257257 	300.0268417074931 	0.07774765108341167 	101356.7362415575
-1.004754754754755 	300.0272824047792 	0.07902427217535715 	101357.2573483903
-1.002252252252252 	300.0277180849221 	0.08028634652944958 	101357.7725196381
-0.9997497497497498 	300.0281486644116 	0.08153364350223911 	101358.2816609463
-0.9972472472472473 	300.0285740589772 	0.08276593411094434 	101358.7846789105
-0.9947447447447449 	300.0289941914335 	0.08398299225081853 	101359.2814811422
-0.9922422422422421 	300.0294089921487 	0.08518459514367423 	101359.7719765327
-0.9897397397397399 	300.0298183896759 	0.08637052209654361 	101360.2560750138
-0.9872372372372376 	300.0302223039256 	0.0875405561972698 	101360.733687908
-0.9847347347347346 	300.030620651396 	0.08869448358409721 	101361.2047277753
-0.9822322322322323 	300.0310133559349 	0.08983209175648665 	101361.6691079162
-0.9797297297297296 	300.0314003539729 	0.09095317210452675 	101362.1267430739
-0.9772272272272275 	300.0317815861517 	0.09205751987541209 	101362.5775494371
-0.9747247247247248 	300.0321569841261 	0.09314493209255383 	101363.0214441696
-0.9722222222222224 	300.0325264685326 	0.09421520955532861 	101363.458345973
-0.9697197197197196 	300.0328899585988 	0.09526815660315816 	101363.8881747483
-0.9672172172172175 	300.0332473846989 	0.09630357938227725 	101364.3108512736
-0.9647147147147147 	300.0335986922825 	0.09732128794227453 	101364.7262980716
-0.9622122122122124 	300.0339438320762 	0.09832109595065715 	101365.1344389332
-0.9597097097097099 	300.0342827469494 	0.09930281969625526 	101365.5351986535
-0.9572072072072073 	300.0346153668861 	0.1002662799053281 	101365.9285040719
-0.9547047047047047 	300.0349416152267 	0.1012113003178301 	101366.3142832554
-0.9522022022022023 	300.0352614197964 	0.102137706583585 	101366.6924648724
-0.9496996996996998 	300.035574722755 	0.1030453287801621 	101367.0629794488
-0.9471971971971973 	300.0358814792958 	0.1039340001768803 	101367.425758885
-0.9446946946946947 	300.0361816484777 	0.104803556699217 	101367.7807360863
-0.9421921921921923 	300.0364751848883 	0.1056538401437112 	101368.1278463815
-0.93968968968969 	300.0367620321587 	0.1064846955976696 	101368.4670265474
-0.9371871871871872 	300.0370421247018 	0.1072959694178963 	101368.7982137215
-0.9346846846846848 	300.0373153968193 	0.1080875129597785 	101369.1213471492
-0.9321821821821823 	300.0375817890493 	0.108859181488167 	101369.4363678128
-0.9296796796796799 	300.0378412506779 	0.1096108319068287 	101369.7432170509
-0.9271771771771771 	300.0380937405806 	0.1103423258193257 	101370.0418382687
-0.9246746746746748 	300.0383392242322 	0.111053529184502 	101370.3321769977
-0.9221721721721724 	300.0385776680537 	0.1117443100704469 	101370.6141790948
-0.9196696696696698 	300.0388090361482 	0.1124145417868821 	101370.8877925038
-0.9171671671671672 	300.0390332895085 	0.1130641032043377 	101371.1529681669
-0.9146646646646649 	300.0392503841605 	0.113692875384283 	101371.4096574142
-0.9121621621621623 	300.0394602738195 	0.1143007423920353 	101371.6578124397
-0.9096596596596597 	300.039662914326 	0.1148875930632304 	101371.8973882293
-0.9071571571571573 	300.0398582630323 	0.1154533193864174 	101372.1283406912
-0.9046546546546547 	300.0400462791381 	0.1159978159204037 	101372.3506261763
-0.9021521521521524 	300.0402269258701 	0.1165209826788476 	101372.5642041011
-0.8996496496496498 	300.0404001699918 	0.1170227250925257 	101372.7690361889
-0.8971471471471473 	300.0405659791525 	0.1175029501729324 	101372.965084065
-0.894644644644645 	300.0407243225479 	0.1179615676039852 	101373.1523107218
-0.892142142142142 	300.040875172464 	0.1183984933549292 	101373.3306820549
-0.8896396396396397 	300.0410185020583 	0.1188136468283164 	101373.5001651061
-0.8871371371371374 	300.041154284866 	0.1192069491363258 	101373.6607274708
-0.8846346346346349 	300.0412824968315 	0.1195783278989218 	101373.8123394541
-0.8821321321321324 	300.0414031160961 	0.1199277173970034 	101373.9549744965
-0.8796296296296297 	300.0415161211332 	0.1202550530269139 	101374.0886064141
-0.8771271271271271 	300.0416214898765 	0.1205602714436948 	101374.2132087177
-0.8746246246246248 	300.041719203185 	0.1208433166522005 	101374.328758345
-0.8721221221221224 	300.0418092450192 	0.1211041393338457 	101374.4352361158
-0.8696196196196196 	300.0418915977717 	0.1213426887318064 	101374.5326211452
-0.8671171171171175 	300.0419662433592 	0.1215589148343273 	101374.6208917373
-0.8646146146146148 	300.042033169472 	0.1217527811582613 	101374.7000334775
-0.8621121121121121 	300.0420923672403 	0.1219242576728521 	101374.7700356431
-0.8596096096096097 	300.0421438218638 	0.122073304132728 	101374.8308806757
-0.857107107107107 	300.0421875196346 	0.1221998862468089 	101374.8825526228
-0.8546046046046049 	300.0422234592495 	0.1223039942549127 	101374.9250496024
-0.8521021021021022 	300.0422516380336 	0.1223856153198095 	101374.9583685907
-0.8495995995995997 	300.042272041139 	0.1224447152141299 	101374.9824920484
-0.8470970970970974 	300.0422846616733 	0.1224812787986183 	101374.9974117541
-0.8445945945945946 	300.0422895108822 	0.122495324747649 	101375.0031407652
-0.8420920920920922 	300.0422865879547 	0.1224868466103493 	101374.9996779249
-0.8395895895895897 	300.0422758712823 	0.1224558052368128 	101374.9869992703
-0.8370870870870872 	300.0422573657108 	0.1224022118598222 	101374.9651094007
-0.8345845845845846 	300.0422311002847 	0.1223261265885154 	101374.9340422681
-0.8320820820820823 	300.0421970744405 	0.1222275501635093 	101374.8937976251
-0.8295795795795798 	300.0421552629688 	0.1221064379429552 	101374.8443456004
-0.8270770770770772 	300.0421056828332 	0.1219628355853723 	101374.785706307
-0.8245745745745746 	300.0420483827358 	0.1217968481880335 	101374.7179374169
-0.8220720720720721 	300.0419833583354 	0.1216084693777055 	101374.6410337021
-0.8195695695695699 	300.0419105698746 	0.1213976295196969 	101374.5549481836
-0.817067067067067 	300.041830049011 	0.1211644116744989 	101374.4597184636
-0.8145645645645651 	300.041741875344 	0.1209089894633752 	101374.3554385811
-0.8120620620620621 	300.0416460422675 	0.120631353310599 	101374.2421006289
-0.8095595595595597 	300.0415424829773 	0.1203313805653797 	101374.1196257478
-0.8070570570570572 	300.0414312386913 	0.1200091838594836 	101373.9880628661
-0.8045545545545546 	300.0413124377665 	0.1196650466003586 	101373.8475636188
-0.8020520520520523 	300.0411860853029 	0.1192989823887393 	101373.6981339659
-0.7995495495495494 	300.0410520664383 	0.1189107669718177 	101373.5396381907
-0.7970470470470474 	300.0409104055528 	0.1185004881944232 	101373.3721052962
-0.7945445445445446 	300.0407613009462 	0.1180685909515526 	101373.1957698038
-0.7920420420420423 	300.0406048129835 	0.1176152048018461 	101373.0107029585
-0.7895395395395397 	300.0404407619219 	0.1171399567135545 	101372.8166922165
-0.7870370370370371 	300.0402690869919 	0.1166427598568418 	101372.6136659621
-0.7845345345345348 	300.0400900548003 	0.1161242304954799 	101372.401939558
-0.7820320320320323 	300.0399038756019 	0.1155848266705633 	101372.1817614977
-0.7795295295295296 	300.0397103445865 	0.1150240989474597 	101371.9528895259
-0.7770270270270272 	300.0395092002478 	0.1144415171934986 	101371.7150145174
-0.7745245245245247 	300.0393006721627 	0.1138376505057355 	101371.468408256
-0.7720220220220222 	300.0390852351287 	0.1132135666215306 	101371.2136321728
-0.7695195195195199 	300.0388628596888 	0.1125691775349722 	101370.9506511936
-0.767017017017017 	300.0386330203063 	0.1119033271893156 	101370.67884377
-0.7645145145145147 	300.038395598143 	0.1112158316957277 	101370.3980699421
-0.7620120120120122 	300.0381512581937 	0.1105082521412531 	101370.1091163758
-0.7595095095095097 	300.037900538664 	0.1097817851236732 	101369.812619132
-0.7570070070070072 	300.0376429714763 	0.1090353296856536 	101369.5080242087
-0.7545045045045048 	300.0373777320405 	0.1082670574548541 	101369.1943568647
-0.7520020020020022 	300.0371050197278 	0.1074775454738073 	101368.8718537582
-0.7494994994994997 	300.0368260308189 	0.1066695981110822 	101368.5419293677
-0.7469969969969972 	300.0365413100161 	0.1058444106777632 	101368.2052271349
-0.7444944944944945 	300.0362498239028 	0.1049995335118117 	101367.8605246951
-0.7419919919919924 	300.0359503391974 	0.1041321804556418 	101367.5063643863
-0.7394894894894897 	300.0356433716736 	0.1032437199212976 	101367.1433572687
-0.7369869869869872 	300.0353308371187 	0.1023387041029493 	101366.7737684986
-0.7344844844844846 	300.0350135460523 	0.1014189403412614 	101366.398555287
-0.7319819819819822 	300.0346898816003 	0.1004805105822222 	101366.0158048489
-0.7294794794794797 	300.0343577569582 	0.09951855176196582 	101365.6230509534
-0.7269769769769773 	300.0340175742845 	0.09853423835580631 	101365.2207709506
-0.7244744744744747 	300.0336722014781 	0.09753453779446894 	101364.8123562978
-0.721971971971972 	300.0333235689442 	0.09652397125268322 	101364.4000875645
-0.7194694694694695 	300.0329699972864 	0.09549832040598286 	101363.9819768801
-0.7169669669669674 	300.032607886481 	0.09444890127754271 	101363.5537683834
-0.7144644644644647 	300.0322361444863 	0.09337330832134473 	101363.114173777
-0.711961961961962 	300.031858059689 	0.09227977621288469 	101362.6670834974
-0.7094594594594597 	300.0314779677408 	0.09117887463897713 	101362.2176225905
-0.7069569569569573 	300.0310961956542 	0.09007117567878462 	101361.7661738145
-0.7044544544544545 	300.0307081696853 	0.08894527456820128 	101361.3073272064
-0.7019519519519523 	300.0303091767599 	0.08778967385289886 	101360.8355126075
-0.6994494494494495 	300.029899853395 	0.08660627502275635 	101360.3514874465
-0.6969469469469471 	300.029486255421 	0.08541033042607474 	101359.8624142097
-0.6944444444444446 	300.0290739326906 	0.08421557599764534 	101359.3748521597
-0.6919419419419421 	300.0286619417771 	0.08301937059822039 	101358.8876802716
-0.6894394394394396 	300.0282431643429 	0.08180369668723542 	101358.3924795612
-0.6869369369369374 	300.0278110737022 	0.08055228258495287 	101357.8815358519
-0.6844344344344344 	300.0273665092432 	0.07926759859412646 	101357.3558479794
-0.6819319319319321 	300.0269176900438 	0.07797069934314305 	101356.8251377894
-0.6794294294294296 	300.0264730267575 	0.07668289037568678 	101356.2993473423
-0.6769269269269272 	300.0260332142522 	0.07540566792733182 	101355.7792918374
-0.6744244244244245 	300.0255899686179 	0.07411763332217809 	101355.2551717041
-0.6719219219219222 	300.0251328538034 	0.07279207672097918 	101354.7146490086
-0.6694194194194195 	300.0246584489443 	0.07142049755806182 	101354.1536852194
-0.6669169169169172 	300.0241739486949 	0.07002175756967383 	101353.5807933564
-0.6644144144144146 	300.0236919177725 	0.06862844976278666 	101353.0108304701
-0.661911911911912 	300.0232203247448 	0.0672610988152943 	101352.4532129158
-0.6594094094094097 	300.0227558822 	0.06591090671661885 	101351.9040467337
-0.656906906906907 	300.0222860179874 	0.06454492568513559 	101351.3484640115
-0.6544044044044046 	300.0217980437597 	0.06313004193813521 	101350.7714659125
-0.6519019019019021 	300.0212887106753 	0.06165799297663827 	101350.1692189095
-0.6493993993993996 	300.0207671490027 	0.06015303716232146 	101349.5525246194
-0.6468968968968971 	300.0202490316216 	0.05865659021707587 	101348.9399141961
-0.6443943943943946 	300.0197460615821 	0.05719952381348643 	101348.3452183505
-0.6418918918918921 	300.019258014406 	0.05578108535197812 	101347.7681626068
-0.6393893893893897 	300.0187725351141 	0.05436827841209284 	101347.1941334842
-0.6368868868868871 	300.0182726128748 	0.05291572262862988 	101346.6030196371
-0.6343843843843846 	300.0177469387514 	0.05139332126400082 	101345.9814576524
-0.6318818818818821 	300.017196898443 	0.04980498873548419 	101345.3310958145
-0.6293793793793795 	300.0166361841243 	0.04818763801183015 	101344.6681290432
-0.6268768768768773 	300.0160834161877 	0.04659144241656867 	101344.014571292
-0.6243743743743745 	300.0155520452449 	0.0450529213854994 	101343.3864169668
-0.6218718718718721 	300.0150435440942 	0.04357563712950192 	101342.7852336716
-0.6193693693693696 	300.0145463625649 	0.04212805476804279 	101342.1973034025
-0.6168668668668671 	300.0140413832122 	0.04065851582136839 	101341.6002076408
-0.6143643643643645 	300.0135111240293 	0.03911924714918002 	101340.9732467158
-0.6118618618618621 	300.0129474708995 	0.03748808648299709 	101340.306805909
-0.6093593593593596 	300.0123553326909 	0.03577859655539369 	101339.6066984738
-0.6068568568568571 	300.0117507616079 	0.03403491657697752 	101338.8919087694
-0.6043543543543546 	300.0111545577743 	0.03231432563732978 	101338.187028795
-0.6018518518518521 	300.0105842979011 	0.03066539447083616 	101337.5128339801
-0.5993493493493496 	300.0100480456448 	0.02911051861488515 	101336.8788495799
-0.5968468468468471 	300.0095417901427 	0.02763864231430135 	101336.2803250418
-0.5943443443443446 	300.0090510175843 	0.02620939479537931 	101335.7000951053
-0.591841841841842 	300.0085553300331 	0.02476577766227901 	101335.1140420995
-0.5893393393393397 	300.0080342551697 	0.02325040895379331 	101334.497964475
-0.5868368368368371 	300.007472555644 	0.02162050513944906 	101333.8338533379
-0.5843343343343346 	300.0068638570505 	0.01985817179842837 	101333.1141802137
-0.5818318318318321 	300.0062119962829 	0.01797426162419475 	101332.3434889677
-0.5793293293293297 	300.0055300571119 	0.01600570142444473 	101331.5372540459
-0.5768268268268271 	300.0048375502368 	0.01400759341093712 	101330.7185450701
-0.5743243243243245 	300.0041565544067 	0.01204245277647198 	101329.9134646365
-0.5718218218218221 	300.0035078896429 	0.01016962659519779 	101329.1466243851
-0.5693193193193196 	300.0029084442083 	0.008437644133316782 	101328.4379859121
-0.5668168168168171 	300.0023699405098 	0.006880439174595445 	101327.801403173
-0.5643143143143147 	300.0018987646106 	0.005516704980011396 	101327.2444211927
-0.5618118118118121 	300.0014964942051 	0.004351323324915546 	101326.7689011073
-0.5593093093093094 	300.0011608311375 	0.003377987185328558 	101326.3721231769
-0.5568068068068072 	300.0008866913314 	0.002582301197565063 	101326.0480748481
-0.5543043043043046 	300.0006672668418 	0.001944825928585629 	101325.7887064185
-0.551801801801802 	300.0004949447435 	0.001443726258983299 	101325.5850174283
-0.5492992992992995 	300.0003620273091 	0.001056855473250957 	101325.4279073594
-0.5467967967967969 	300.0002612404381 	0.0007632371366608914 	101325.3087772711
-0.5442942942942947 	300.0001860504782 	0.0005439926272456247 	101325.2199036232
-0.5417917917917919 	300.0001308215686 	0.0003828096450459596 	101325.1546243584
-0.5392892892892895 	300.0000908539628 	0.0002660642463510423 	101325.1073839954
-0.536786786786787 	300.0000623409847 	0.0001827059971842931 	101325.0736828336
-0.5342842842842846 	300.0000422774888 	0.000124000219846487 	101325.049968817
-0.531781781781782 	300.0000283454485 	8.320102179095133e-05 	101325.0335020226
-0.5292792792792794 	300.0000187941407 	5.52073933569769e-05 	101325.0222130471
-0.526776776776777 	300.0000123266507 	3.623659378423928e-05 	101325.0145689898
-0.5242742742742745 	300.0000079995916 	2.353376236058997e-05 	101325.0094546933
-0.521771771771772 	300.0000051380179 	1.512641984650104e-05 	101325.0060725148
-0.5192692692692695 	300.0000032667465 	9.624582109907597e-06 	101325.0038609451
-0.516766766766767 	300.0000020566015 	6.063529098060931e-06 	101325.0024306261
-0.5142642642642645 	300.000001282207 	3.783172719943591e-06 	101325.0015154195
-0.511761761761762 	300.0000007918355 	2.338101122763489e-06 	101325.0009358886
-0.5092592592592596 	300.000000484493 	1.431612180431561e-06 	101325.0005726301
-0.506756756756757 	300.0000002937009 	8.686153081024523e-07 	101325.0003471848
-0.5042542542542544 	300.0000001765187 	5.223189074078566e-07 	101325.0002086209
-0.5017517517517521 	300.0000001051798 	3.113418790328637e-07 	101325.0001242615
-0.4992492492492494 	300.0000000621283 	1.839849282256312e-07 	101325.0000733773
-0.496746746746747 	300.0000000363461 	1.0781246895106e-07 	101325.0000429627
-0.4942442442442445 	300.0000000210533 	6.264969521756831e-08 	101325.0000249449
-0.4917417417417421 	300.0000000120991 	3.611423053813615e-08 	101325.0000143641
-0.4892392392392395 	300.0000000069007 	2.0648006238182e-08 	101325.0000082034
-0.486736736736737 	300.000000003897 	1.171716994778123e-08 	101325.0000046466
-0.4842342342342345 	300.0000000021368 	6.594288620485413e-09 	101325.0000026098
-0.481731731731732 	300.0000000012692 	3.687873781379871e-09 	101325.0000014524
-0.4792292292292296 	300.0000000007066 	2.042956645445026e-09 	101325.0000008005
-0.4767267267267268 	300.0000000003153 	1.12891347502374e-09 	101325.0000004359
-0.4742242242242246 	300.0000000001893 	6.130673365194251e-10 	101325.0000002336
-0.471721721721722 	300.0000000000553 	3.357259230243598e-10 	101325.000000122
-0.4692192192192195 	300.0000000000175 	1.77648588357028e-10 	101325.0000000609
-0.4667167167167169 	299.999999999933 	9.778255690674365e-11 	101325.0000000276
-0.4642142142142145 	300.000000000011 	5.02347743063852e-11 	101325.0000000099
-0.461711711711712 	300.0000000000222 	2.95945886415857e-11 	101325.0000000006
-0.4592092092092094 	300.0000000000165 	1.510066145066621e-11 	101324.9999999959
-0.456706706706707 	300.0000000000542 	1.12873631915932e-11 	101324.9999999932
-0.4542042042042045 	299.9999999999335 	6.240106163304889e-12 	101324.9999999916
-0.451701701701702 	299.9999999999498 	6.094997479332247e-12 	101324.9999999913
-0.4491991991991995 	299.9999999999535 	2.848662976726444e-12 	101324.9999999909
-0.4466966966966969 	299.9999999999333 	4.079541243135212e-12 	101324.9999999906
-0.4441941941941945 	299.9999999999913 	1.277185099776631e-12 	101324.9999999906
-0.441691691691692 	299.9999999999491 	3.32584457531751e-12 	101324.9999999906
-0.4391891891891895 	299.9999999999856 	2.739700942026427e-12 	101324.9999999904
-0.436686686686687 	299.999999999965 	4.321379318712816e-12 	101324.9999999903
-0.4341841841841846 	299.9999999999941 	3.064434953132138e-12 	101324.9999999904
-0.431681681681682 	299.999999999943 	4.392531214350824e-12 	101324.9999999905
-0.4291791791791794 	299.9999999999012 	1.993424721553442e-12 	101324.9999999907
-0.426676676676677 	299.9999999999085 	3.103770155334484e-12 	101324.9999999907
-0.4241741741741744 	299.9999999999641 	2.132785912254857e-12 	101324.9999999909
-0.421671671671672 	300.0000000000038 	1.990828446462577e-12 	101324.9999999908
-0.4191691691691694 	300.0000000000518 	7.808670772467639e-13 	101324.999999991
-0.4166666666666669 	300.0000000000597 	3.209473341161705e-12 	101324.9999999908
-0.4141641641641645 	299.9999999999266 	2.016352027567629e-12 	101324.9999999909
-0.411661661661662 	300.0000000000048 	3.675971808309259e-12 	101324.9999999908
-0.4091591591591594 	300.0000000000034 	3.139595666094546e-12 	101324.9999999909
-0.406656656656657 	299.9999999999292 	4.424339287431484e-12 	101324.9999999908
-0.4041541541541545 	300.0000000000138 	1.888218248964225e-12 	101324.9999999905
-0.401651651651652 	299.9999999999146 	4.469218282944153e-12 	101324.9999999906
-0.3991491491491494 	299.9999999999945 	9.835401941517234e-13 	101324.9999999908
-0.396646646646647 	299.9999999999521 	5.480313507845826e-12 	101324.9999999908
-0.3941441441441444 	299.9999999999737 	1.719650468978581e-12 	101324.9999999908
-0.3916416416416419 	299.9999999999256 	4.901079105841065e-12 	101324.9999999909
-0.3891391391391395 	299.9999999999545 	9.95861963368049e-13 	101324.999999991
-0.3866366366366368 	299.9999999999534 	3.72818476984198e-12 	101324.999999991
-0.3841341341341344 	299.9999999999974 	1.733419149939098e-12 	101324.9999999912
-0.381631631631632 	299.9999999999504 	2.714012769204633e-12 	101324.9999999915
-0.3791291291291294 	300.000000000006 	1.498423668431223e-12 	101324.9999999917
-0.3766266266266269 	300.0000000000236 	1.3158166592723e-12 	101324.9999999915
-0.3741241241241244 	300.0000000000256 	2.158445408662044e-12 	101324.9999999913
-0.371621621621622 	300.0000000000138 	8.379809546876842e-13 	101324.9999999912
-0.3691191191191194 	300.0000000000047 	3.676732035897677e-12 	101324.9999999913
-0.366616616616617 	300.0000000000094 	1.079079181209068e-12 	101324.9999999914
-0.3641141141141143 	299.9999999999657 	3.965702014954733e-12 	101324.9999999911
-0.3616116116116119 	299.9999999999451 	2.085853435964047e-12 	101324.999999991
-0.3591091091091095 	299.999999999986 	3.241795343147759e-12 	101324.9999999912
-0.356606606606607 	299.999999999983 	2.631607547223133e-12 	101324.9999999911
-0.3541041041041044 	299.999999999979 	2.037927189023648e-12 	101324.999999991
-0.3516016016016019 	300.0000000000022 	2.741345147775633e-12 	101324.9999999912
-0.3490990990990994 	299.9999999999835 	1.460248991176116e-12 	101324.999999991
-0.346596596596597 	300.0000000000451 	3.374168855271974e-12 	101324.9999999909
-0.3440940940940944 	300.0000000000556 	1.110458036098693e-12 	101324.9999999909
-0.3415915915915919 	300.0000000000199 	3.371893631151429e-12 	101324.9999999911
-0.3390890890890895 	299.9999999999781 	1.601427852125996e-12 	101324.9999999912
-0.3365865865865869 	300.0000000000219 	2.931417327186892e-12 	101324.9999999913
-0.3340840840840844 	300.000000000005 	1.570922578227705e-12 	101324.9999999911
-0.3315815815815819 	300.0000000000256 	2.399074427747899e-12 	101324.9999999909
-0.3290790790790794 	300.0000000000162 	1.282798715085813e-12 	101324.9999999908
-0.3265765765765769 	299.9999999999229 	1.925064467947113e-12 	101324.9999999908
-0.3240740740740744 	299.9999999999949 	7.7456424415914e-13 	101324.9999999908
-0.3215715715715718 	300.0000000000068 	2.050925905234592e-12 	101324.9999999908
-0.3190690690690695 	299.9999999999224 	9.374597360319313e-13 	101324.9999999911
-0.3165665665665668 	299.9999999999881 	3.013272480294393e-12 	101324.9999999913
-0.3140640640640644 	300.0000000000037 	6.538317646488615e-13 	101324.9999999912
-0.311561561561562 	299.9999999999223 	5.017074062565594e-12 	101324.9999999913
-0.3090590590590593 	299.9999999999922 	1.033588905521555e-12 	101324.9999999913
-0.3065565565565568 	300.0000000000025 	6.058717084632639e-12 	101324.9999999914
-0.3040540540540545 	300.0000000000214 	1.491410308002209e-12 	101324.9999999915
-0.3015515515515518 	300.0000000000352 	6.486408594681406e-12 	101324.9999999915
-0.2990490490490494 	299.9999999999412 	2.677210098831462e-12 	101324.9999999915
-0.2965465465465469 	299.9999999999829 	6.227792272956641e-12 	101324.9999999915
-0.2940440440440444 	300.000000000002 	4.129761811486465e-12 	101324.9999999915
-0.2915415415415418 	300.000000000004 	4.910479678325842e-12 	101324.9999999914
-0.2890390390390395 	300.0000000000013 	4.478595076077313e-12 	101324.9999999915
-0.2865365365365368 	299.999999999977 	3.740817956423514e-12 	101324.9999999913
-0.2840340340340343 	300.0000000000009 	4.931322936625262e-12 	101324.9999999911
-0.2815315315315318 	299.9999999999226 	3.773173446766447e-12 	101324.9999999909
-0.2790290290290295 	299.9999999999538 	5.584608303832695e-12 	101324.9999999911
-0.2765265265265269 	300.0000000000145 	4.337050960057734e-12 	101324.9999999915
-0.2740240240240244 	300.000000000034 	3.639683142735237e-12 	101324.9999999918
-0.2715215215215219 	300.0000000000163 	3.726304316125498e-12 	101324.9999999919
-0.2690190190190194 	299.9999999999409 	3.370494318332741e-12 	101324.9999999917
-0.2665165165165169 	299.9999999999983 	4.18952120431938e-12 	101324.9999999919
-0.2640140140140144 	299.9999999999664 	3.157919870988639e-12 	101324.9999999919
-0.2615115115115119 	299.9999999999996 	5.305292465926622e-12 	101324.999999992
-0.2590090090090094 	299.9999999999337 	3.942893365043921e-12 	101324.9999999923
-0.2565065065065068 	299.9999999999959 	4.977564153397788e-12 	101324.9999999919
-0.2540040040040044 	300.0000000000015 	5.061870772472709e-12 	101324.9999999919
-0.2515015015015019 	300.0000000000452 	4.707884007133237e-12 	101324.9999999919
-0.2489989989989994 	300.0000000000505 	6.968280062652217e-12 	101324.9999999917
-0.2464964964964968 	299.9999999999917 	4.239889057298078e-12 	101324.9999999915
-0.2439939939939944 	299.9999999999979 	7.397557850160496e-12 	101324.9999999915
-0.2414914914914919 	299.9999999999723 	2.362706714269147e-12 	101324.9999999917
-0.2389889889889893 	300.0000000000029 	6.419576273390464e-12 	101324.9999999915
-0.2364864864864869 	300.0000000000204 	1.932758521849674e-12 	101324.9999999914
-0.2339839839839843 	299.99999999992 	5.967542784212961e-12 	101324.9999999915
-0.2314814814814819 	299.9999999999823 	1.319993118662823e-12 	101324.9999999917
-0.2289789789789792 	299.999999999919 	4.152727476203737e-12 	101324.9999999917
-0.2264764764764769 	299.9999999999428 	7.10048597110775e-13 	101324.9999999917
-0.2239739739739743 	299.999999999957 	2.252801007946168e-12 	101324.9999999915
-0.2214714714714718 	299.9999999999346 	1.511856145263122e-12 	101324.9999999917
-0.2189689689689693 	299.9999999999683 	1.161982750718732e-12 	101324.9999999915
-0.2164664664664669 	299.9999999999811 	2.26842187490045e-12 	101324.9999999915
-0.2139639639639643 	299.999999999925 	9.566849953370627e-13 	101324.9999999915
-0.2114614614614618 	299.9999999999682 	1.353261712483964e-12 	101324.9999999915
-0.2089589589589593 	299.9999999999955 	1.165456221056711e-12 	101324.9999999914
-0.2064564564564568 	299.9999999999951 	1.326069936787036e-12 	101324.9999999913
-0.2039539539539543 	299.9999999999042 	2.048423318731973e-12 	101324.9999999913
-0.2014514514514518 	299.9999999999458 	3.700669542150562e-13 	101324.9999999915
-0.1989489489489494 	299.9999999999777 	1.890076745877149e-12 	101324.9999999915
-0.1964464464464468 	299.9999999999982 	1.481799913156376e-12 	101324.9999999913
-0.1939439439439443 	299.9999999999849 	2.173658756750002e-12 	101324.9999999911
-0.1914414414414418 	299.9999999999151 	8.190519166848263e-13 	101324.9999999906
-0.1889389389389393 	300.0000000000052 	3.249719464945785e-12 	101324.9999999906
-0.1864364364364368 	300.0000000000406 	2.051803544515034e-12 	101324.9999999906
-0.1839339339339343 	299.9999999999714 	4.006425330366314e-12 	101324.9999999904
-0.1814314314314318 	299.999999999993 	2.132662940222386e-12 	101324.9999999907
-0.1789289289289293 	299.9999999999031 	3.472294062101775e-12 	101324.999999991
-0.1764264264264268 	299.9999999999754 	5.74550337949834e-13 	101324.999999991
-0.1739239239239243 	299.999999999893 	3.391857400609699e-12 	101324.999999991
-0.1714214214214218 	299.9999999999862 	9.469624469626508e-13 	101324.9999999914
-0.1689189189189193 	299.9999999999523 	5.266952682904272e-12 	101324.9999999913
-0.1664164164164168 	300.0000000000066 	2.290836701073744e-12 	101324.9999999911
-0.1639139139139143 	299.9999999999879 	5.825372090225353e-12 	101324.9999999911
-0.1614114114114118 	300.000000000033 	3.85341245950036e-12 	101324.999999991
-0.1589089089089093 	300.000000000001 	7.306236563013673e-12 	101324.9999999908
-0.1564064064064068 	299.9999999999894 	4.741821743148868e-12 	101324.9999999907
-0.1539039039039043 	299.999999999994 	7.944635543494117e-12 	101324.9999999906
-0.1514014014014018 	300.0000000000265 	4.200074099329744e-12 	101324.9999999905
-0.1488988988988993 	299.9999999999917 	7.011470777199156e-12 	101324.9999999905
-0.1463963963963968 	300.0000000000041 	3.18264920224492e-12 	101324.9999999905
-0.1438938938938943 	299.9999999999494 	6.364341815673288e-12 	101324.9999999905
-0.1413913913913918 	299.9999999999171 	1.436433503169784e-12 	101324.9999999907
-0.1388888888888893 	299.9999999999785 	4.939588002460237e-12 	101324.9999999907
-0.1363863863863868 	299.9999999998846 	3.137693989984681e-13 	101324.9999999906
-0.1338838838838843 	299.999999999915 	3.481698499395249e-12 	101324.9999999906
-0.1313813813813818 	299.9999999999929 	2.81415632857531e-13 	101324.9999999905
-0.1288788788788793 	299.9999999999679 	3.216470936551292e-12 	101324.9999999904
-0.1263763763763768 	299.9999999999692 	5.879968179305498e-13 	101324.9999999905
-0.1238738738738743 	299.9999999999217 	2.633538329918843e-12 	101324.9999999907
-0.1213713713713717 	299.999999999974 	2.100204442423549e-12 	101324.9999999909
-0.1188688688688693 	300.000000000007 	3.310112885327548e-12 	101324.999999991
-0.1163663663663668 	299.9999999999005 	2.089835097445737e-12 	101324.9999999914
-0.1138638638638643 	299.9999999999907 	3.802967816195386e-12 	101324.9999999914
-0.1113613613613618 	299.999999999984 	2.236719522310386e-12 	101324.9999999913
-0.1088588588588592 	299.9999999999761 	4.765508058101405e-12 	101324.9999999912
-0.1063563563563568 	299.9999999999479 	1.099086869616442e-12 	101324.9999999911
-0.1038538538538543 	299.9999999999721 	5.263271998002929e-12 	101324.9999999909
-0.1013513513513517 	300.0000000000176 	1.464486134084466e-12 	101324.9999999906
-0.09884884884884926 	299.99999999993 	5.349793079727103e-12 	101324.9999999905
-0.09634634634634676 	299.99999999989 	2.063369055960302e-12 	101324.9999999904
-0.09384384384384425 	299.9999999999253 	4.315398259540701e-12 	101324.9999999904
-0.09134134134134177 	300.0000000000264 	2.409447810413353e-12 	101324.9999999906
-0.08883883883883925 	300.0000000000059 	4.758857425800546e-12 	101324.9999999906
-0.08633633633633674 	299.9999999999495 	3.032917877811148e-12 	101324.9999999902
-0.08383383383383426 	300.0000000000079 	3.616967431177741e-12 	101324.9999999902
-0.08133133133133173 	299.9999999999624 	2.845507101755972e-12 	101324.99999999
-0.07882882882882926 	299.9999999998828 	2.132159017635897e-12 	101324.9999999899
-0.07632632632632676 	299.9999999999548 	1.050254192399423e-12 	101324.99999999
-0.07382382382382424 	299.9999999998887 	8.028806784887109e-13 	101324.99999999
-0.07132132132132173 	300.0000000000139 	5.41221243279917e-13 	101324.9999999898
-0.06881881881881925 	299.9999999999627 	8.170969272837231e-13 	101324.9999999903
-0.06631631631631671 	299.9999999998912 	1.700471869068209e-13 	101324.9999999907
-0.06381381381381425 	299.9999999999589 	6.914237399721283e-13 	101324.9999999912
-0.06131131131131173 	299.9999999999626 	7.952429865895098e-13 	101324.9999999915
-0.05880880880880923 	299.999999999906 	5.719667629275594e-13 	101324.9999999919
-0.05630630630630672 	299.999999999966 	6.957753727152009e-13 	101324.9999999921
-0.05380380380380424 	300.0000000000164 	1.002278759888606e-12 	101324.9999999919
-0.05130130130130173 	300.0000000000153 	1.241296322057815e-12 	101324.9999999918
-0.04879879879879922 	299.9999999999364 	1.342950987145717e-12 	101324.9999999914
-0.04629629629629672 	299.9999999999246 	4.14557079341041e-13 	101324.9999999913
-0.04379379379379422 	299.9999999999087 	3.015306083736836e-13 	101324.9999999915
-0.04129129129129173 	299.99999999998 	7.508716591140552e-13 	101324.9999999915
-0.03878878878878922 	299.9999999999857 	1.904152187218026e-13 	101324.9999999916
-0.03628628628628671 	299.9999999999848 	5.7562760210469e-13 	101324.9999999916
-0.03378378378378422 	299.9999999999193 	2.096149357809905e-13 	101324.9999999917
-0.03128128128128172 	299.9999999999621 	6.561421951822332e-13 	101324.9999999919
-0.02877877877877922 	299.9999999999617 	4.381661754844805e-14 	101324.9999999918
-0.0262762762762767 	299.9999999998994 	5.401721999916019e-13 	101324.9999999918
-0.02377377377377422 	300.0000000000218 	2.195121026349981e-13 	101324.999999992
-0.0212712712712717 	299.9999999998998 	8.257625917587496e-13 	101324.999999992
-0.01876876876876921 	299.9999999999586 	1.118184388088374e-12 	101324.9999999917
-0.01626626626626671 	300.0000000000132 	5.148730949955755e-13 	101324.9999999914
-0.0137637637637642 	299.9999999999634 	7.254338378262402e-13 	101324.9999999914
-0.0112612612612617 	300.0000000000196 	4.723313757477536e-13 	101324.9999999909
-0.008758758758759198 	299.9999999999973 	1.397344666626143e-13 	101324.9999999911
-0.006256256256256697 	299.9999999998782 	9.827357916213718e-13 	101324.9999999909
-0.003753753753754195 	299.9999999999542 	1.123115672732345e-12 	101324.9999999909
-0.001251251251251693 	299.9999999999266 	2.127780196722057e-12 	101324.9999999907
0.00125125125125081 	299.9999999999557 	1.951547578812931e-12 	101324.9999999911
0.003753753753753312 	299.9999999999574 	2.782313125061307e-12 	101324.9999999911
0.006256256256255817 	299.999999999885 	2.406269040640252e-12 	101324.9999999914
0.008758758758758317 	299.9999999999907 	2.34318017363263e-12 	101324.9999999912
0.01126126126126082 	300.0000000000029 	2.225449644790534e-12 	101324.9999999912
0.01376376376376332 	299.9999999999667 	1.877748326676376e-12 	101324.999999991
0.01626626626626582 	300.0000000000093 	1.076557187236968e-12 	101324.999999991
0.01876876876876833 	299.9999999999556 	9.044688129669072e-13 	101324.999999991
0.02127127127127083 	299.9999999999637 	5.482796437096568e-13 	101324.9999999912
0.02377377377377332 	299.9999999999966 	2.013455307627226e-13 	101324.999999991
0.02627627627627583 	299.9999999998971 	2.367650745317529e-13 	101324.9999999909
0.02877877877877833 	300.0000000000095 	4.539040060924815e-13 	101324.9999999909
0.03128128128128083 	299.9999999999474 	2.14170345803154e-13 	101324.9999999913
0.03378378378378333 	299.9999999998975 	2.199404715946879e-13 	101324.9999999916
0.03628628628628584 	299.999999999972 	5.345883747575584e-13 	101324.9999999917
0.03878878878878834 	299.9999999999794 	8.964736850091217e-13 	101324.9999999919
0.04129129129129084 	299.9999999999773 	6.678176057006736e-13 	101324.9999999916
0.04379379379379333 	299.9999999999486 	5.818098265447465e-13 	101324.9999999913
0.04629629629629585 	299.9999999998845 	6.486850118689177e-13 	101324.9999999911
0.04879879879879834 	299.9999999999577 	1.307056342794899e-12 	101324.9999999909
0.05130130130130085 	300.0000000000132 	6.985765065349284e-13 	101324.9999999908
0.05380380380380335 	300.0000000000207 	2.018024876300251e-13 	101324.9999999908
0.05630630630630584 	299.9999999999932 	3.89708275603624e-13 	101324.9999999907
0.05880880880880836 	299.9999999999209 	9.226093773809194e-14 	101324.9999999906
0.06131131131131085 	299.9999999999658 	2.010389476484879e-13 	101324.9999999906
0.06381381381381336 	299.9999999999625 	5.739129313488164e-13 	101324.9999999907
0.06631631631631586 	299.9999999998855 	9.027817332270042e-13 	101324.9999999907
0.06881881881881835 	299.9999999999583 	1.92366447429841e-12 	101324.9999999908
0.07132132132132088 	299.9999999999844 	1.618192687708126e-12 	101324.9999999909
0.07382382382382337 	299.9999999998973 	2.052512441816789e-12 	101324.9999999907
0.07632632632632587 	299.9999999999692 	1.728541752466092e-12 	101324.9999999908
0.07882882882882837 	299.9999999999343 	1.70534915039644e-12 	101324.999999991
0.08133133133133086 	299.9999999999777 	2.413420909172698e-12 	101324.9999999914
0.08383383383383337 	299.9999999999855 	2.363191917122994e-12 	101324.9999999916
0.08633633633633589 	299.9999999999014 	2.896592747059561e-12 	101324.9999999919
0.08883883883883838 	300.0000000000079 	3.871232968923965e-12 	101324.999999992
0.09134134134134086 	299.9999999999781 	3.202888569695974e-12 	101324.9999999924
0.09384384384384339 	299.9999999998897 	4.098508947219233e-12 	101324.9999999922
0.09634634634634588 	299.9999999999625 	3.87645674318235e-12 	101324.9999999921
0.09884884884884838 	299.9999999999781 	3.743594984657773e-12 	101324.9999999921
0.1013513513513509 	300.0000000000213 	3.179404456895899e-12 	101324.9999999916
0.1038538538538534 	299.9999999999553 	2.488647307364797e-12 	101324.9999999912
0.1063563563563559 	300.0000000000009 	2.759926351239709e-12 	101324.9999999909
0.1088588588588584 	300.0000000000314 	2.450701279018318e-12 	101324.999999991
0.1113613613613609 	299.9999999999197 	2.922909388940726e-12 	101324.9999999912
0.1138638638638634 	299.9999999999428 	2.990455667142299e-12 	101324.9999999912
0.1163663663663659 	299.9999999999448 	2.949977844405814e-12 	101324.9999999908
0.1188688688688684 	299.9999999999822 	2.480787025312158e-12 	101324.9999999908
0.1213713713713709 	299.9999999999987 	2.034172757799273e-12 	101324.9999999904
0.1238738738738734 	299.9999999999242 	3.022753983299876e-12 	101324.9999999907
0.1263763763763759 	299.9999999999832 	3.409226907015436e-12 	101324.9999999908
0.1288788788788784 	299.9999999999836 	3.385121492087619e-12 	101324.9999999909
0.1313813813813809 	299.9999999999791 	3.848816719772943e-12 	101324.9999999906
0.1338838838838834 	299.999999999977 	4.066042058944793e-12 	101324.9999999907
0.1363863863863859 	300.0000000000144 	3.295136101764757e-12 	101324.9999999906
0.1388888888888884 	300.0000000000449 	3.124743213182748e-12 	101324.9999999906
0.1413913913913909 	300.0000000000085 	1.965882154147283e-12 	101324.9999999906
0.1438938938938934 	299.9999999999923 	2.124686998843756e-12 	101324.9999999906
0.1463963963963959 	299.9999999999541 	6.040680543152609e-13 	101324.9999999905
0.1488988988988985 	299.9999999999069 	2.913254056624324e-12 	101324.9999999904
0.1514014014014009 	299.9999999999671 	1.76524166818881e-12 	101324.9999999905
0.1539039039039035 	299.9999999999639 	3.973800097402875e-12 	101324.9999999902
0.1564064064064059 	299.9999999999266 	1.763844081278914e-12 	101324.9999999903
0.1589089089089084 	299.9999999999733 	5.421600761635655e-12 	101324.9999999906
0.1614114114114109 	299.9999999999696 	2.983617406956653e-12 	101324.9999999907
0.1639139139139134 	299.9999999999072 	4.55801344328779e-12 	101324.9999999906
0.166416416416416 	300.0000000000045 	3.804502177171277e-12 	101324.9999999904
0.1689189189189185 	300.0000000000358 	3.19145613361005e-12 	101324.9999999903
0.1714214214214209 	300.0000000000064 	2.988443273133348e-12 	101324.9999999902
0.1739239239239235 	299.999999999989 	1.038615047858616e-12 	101324.9999999903
0.1764264264264259 	299.9999999999725 	3.185682955538292e-12 	101324.9999999904
0.1789289289289284 	299.9999999999991 	8.019399596122148e-13 	101324.9999999904
0.181431431431431 	299.9999999999606 	2.782885089337011e-12 	101324.9999999907
0.1839339339339334 	299.9999999999644 	4.006910320839238e-13 	101324.999999991
0.186436436436436 	299.9999999999243 	1.517963740820865e-12 	101324.9999999912
0.1889389389389385 	299.9999999999775 	7.371046501074774e-13 	101324.9999999913
0.191441441441441 	299.9999999999737 	1.703860546081868e-13 	101324.9999999914
0.1939439439439434 	299.9999999999169 	1.092144095188356e-12 	101324.9999999912
0.196446446446446 	299.9999999999401 	7.806470419613083e-13 	101324.9999999909
0.1989489489489485 	299.9999999999573 	2.399165850607701e-12 	101324.9999999907
0.2014514514514509 	299.9999999999804 	1.217374156213189e-12 	101324.9999999905
0.2039539539539535 	299.9999999999925 	3.079984637919828e-12 	101324.9999999906
0.2064564564564559 	299.9999999999542 	2.476008406873256e-12 	101324.9999999905
0.2089589589589585 	299.9999999999857 	2.818171041061738e-12 	101324.9999999904
0.211461461461461 	299.9999999999261 	2.447170013691396e-12 	101324.9999999905
0.2139639639639635 	299.999999999973 	1.851665690798793e-12 	101324.9999999903
0.2164664664664659 	299.9999999999985 	3.587940120020777e-12 	101324.9999999901
0.2189689689689684 	299.9999999999997 	1.989973709760475e-12 	101324.9999999903
0.221471471471471 	299.9999999999949 	3.87251223344433e-12 	101324.9999999904
0.2239739739739735 	299.9999999999496 	1.920075346480852e-12 	101324.9999999903
0.226476476476476 	299.9999999999736 	3.916568133178734e-12 	101324.9999999902
0.2289789789789785 	299.9999999999943 	3.080894145101409e-12 	101324.99999999
0.231481481481481 	299.999999999985 	2.975940468716314e-12 	101324.99999999
0.2339839839839835 	299.9999999999797 	3.778888991140764e-12 	101324.9999999901
0.236486486486486 	300.0000000000252 	2.886624258228643e-12 	101324.99999999
0.2389889889889885 	300.0000000000013 	4.291470816973499e-12 	101324.99999999
0.241491491491491 	299.9999999999184 	2.370361148465873e-12 	101324.9999999898
0.2439939939939935 	299.9999999999811 	4.822413757885475e-12 	101324.9999999899
0.246496496496496 	299.9999999999896 	2.402721659092116e-12 	101324.9999999897
0.2489989989989985 	300.0000000000416 	3.16626959144594e-12 	101324.9999999896
0.251501501501501 	300.0000000000349 	1.173013781968923e-12 	101324.9999999898
0.2540040040040035 	299.9999999999901 	3.760113561260366e-13 	101324.9999999901
0.256506506506506 	300.0000000000284 	8.429076601319264e-13 	101324.9999999903
0.2590090090090086 	299.9999999999114 	9.495507650948118e-13 	101324.9999999906
0.261511511511511 	300.0000000000041 	2.193201935788451e-12 	101324.9999999905
0.2640140140140135 	299.9999999999923 	1.106085393673794e-12 	101324.9999999906
0.2665165165165161 	299.9999999999275 	2.245989746810398e-12 	101324.9999999907
0.2690190190190185 	300.000000000011 	1.615158894569607e-12 	101324.9999999909
0.271521521521521 	300.0000000000215 	1.818362555473436e-12 	101324.9999999909
0.2740240240240235 	300.0000000000227 	1.907586255999668e-12 	101324.9999999911
0.276526526526526 	300.0000000000133 	1.366744114334403e-12 	101324.9999999909
0.2790290290290286 	299.9999999999413 	1.74524455410844e-12 	101324.9999999906
0.281531531531531 	299.9999999999227 	5.700618961902195e-13 	101324.9999999905
0.2840340340340335 	299.9999999999865 	1.81390695352466e-12 	101324.9999999905
0.2865365365365361 	299.9999999999626 	3.571389545523003e-13 	101324.9999999906
0.2890390390390385 	299.9999999999952 	7.537403466301912e-13 	101324.999999991
0.291541541541541 	299.9999999999958 	4.384089689582506e-13 	101324.9999999907
0.2940440440440436 	299.9999999999922 	8.369999161814254e-13 	101324.9999999907
0.296546546546546 	299.9999999999938 	1.250149553781044e-12 	101324.9999999906
0.2990490490490486 	299.999999999932 	2.118281299375295e-12 	101324.9999999906
0.3015515515515511 	300.0000000000339 	2.672415588614858e-12 	101324.9999999904
0.3040540540540535 	299.9999999999986 	3.335576033746685e-12 	101324.9999999905
0.3065565565565562 	299.9999999999991 	3.528603674689277e-12 	101324.9999999906
0.3090590590590585 	299.9999999999909 	2.278477575844831e-12 	101324.9999999906
0.3115615615615611 	299.9999999999367 	3.811904964852493e-12 	101324.9999999903
0.3140640640640635 	300.0000000000028 	6.874087911385257e-13 	101324.9999999905
0.316566566566566 	299.99999999999 	3.709526078987593e-12 	101324.9999999905
0.3190690690690687 	299.9999999999463 	7.776978161446413e-13 	101324.9999999905
0.3215715715715711 	300.0000000000069 	3.297740637653638e-12 	101324.9999999906
0.3240740740740735 	299.9999999999915 	6.610309459568159e-13 	101324.9999999907
0.326576576576576 	299.9999999998957 	1.632263099342388e-12 	101324.9999999906
0.3290790790790786 	300.0000000000078 	1.277791238036219e-12 	101324.9999999903
0.3315815815815811 	300.0000000000371 	5.749092652360278e-13 	101324.9999999904
0.3340840840840836 	299.9999999999858 	1.615930197647103e-12 	101324.9999999901
0.3365865865865861 	300.0000000000559 	4.08220360084845e-13 	101324.9999999904
0.3390890890890886 	300.0000000000482 	1.302389215251529e-12 	101324.9999999904
0.3415915915915911 	300.0000000000018 	4.492243148552378e-13 	101324.9999999901
0.3440940940940935 	299.9999999999519 	1.609791103395699e-12 	101324.9999999901
0.3465965965965962 	300.0000000000411 	5.334469773299758e-13 	101324.9999999902
0.3490990990990985 	300.0000000000304 	1.620646121251065e-12 	101324.9999999902
0.3516016016016011 	299.999999999983 	5.467379338781738e-13 	101324.9999999901
0.3541041041041035 	300.0000000000064 	7.061255416464139e-13 	101324.9999999901
0.3566066066066061 	299.9999999999577 	1.180054274355852e-12 	101324.9999999903
0.3591091091091085 	299.9999999999179 	1.007214175301018e-12 	101324.99999999
0.3616116116116112 	299.9999999999413 	1.60299005831515e-12 	101324.9999999903
0.3641141141141137 	299.9999999999321 	2.115768006816283e-12 	101324.9999999904
0.3666166166166161 	299.999999999918 	2.672846157215997e-12 	101324.9999999903
0.3691191191191185 	300.0000000000398 	2.419665006755216e-12 	101324.9999999901
0.371621621621621 	300.0000000000145 	2.56359585134356e-12 	101324.99999999
0.3741241241241237 	300.0000000000466 	1.848330545501223e-12 	101324.9999999901
0.3766266266266261 	300.0000000000291 	2.011966332003889e-12 	101324.9999999901
0.3791291291291286 	299.999999999982 	1.063783243950083e-12 	101324.9999999897
0.3816316316316311 	299.9999999999172 	1.840280613205635e-12 	101324.9999999896
0.3841341341341336 	300.0000000000128 	1.306181282895499e-12 	101324.9999999895
0.3866366366366362 	299.9999999999985 	2.11090949291814e-12 	101324.9999999896
0.3891391391391387 	299.9999999999554 	4.247548288197801e-13 	101324.9999999899
0.391641641641641 	299.9999999999953 	1.899874587133206e-12 	101324.9999999902
0.3941441441441436 	300.0000000000111 	8.337910243289142e-13 	101324.9999999905
0.3966466466466462 	300.0000000000009 	2.317512742265506e-12 	101324.9999999908
0.3991491491491486 	299.9999999999434 	1.022624442691804e-12 	101324.999999991
0.4016516516516512 	299.9999999999169 	1.93002875448372e-12 	101324.9999999911
0.4041541541541536 	299.999999999945 	4.981995166529876e-13 	101324.999999991
0.4066566566566561 	299.9999999999446 	1.620136601608833e-12 	101324.9999999909
0.4091591591591587 	299.9999999999843 	4.091278627849085e-13 	101324.9999999909
0.4116616616616612 	299.9999999999972 	1.620353399761228e-12 	101324.9999999909
0.4141641641641635 	300.0000000000472 	1.010101894447165e-12 	101324.9999999909
0.4166666666666662 	299.9999999999957 	1.65313433459454e-12 	101324.9999999908
0.4191691691691687 	299.999999999942 	2.504294767074495e-12 	101324.999999991
0.421671671671671 	300.000000000011 	1.32327305210718e-12 	101324.9999999909
0.4241741741741737 	299.9999999999701 	2.907386922543333e-12 	101324.9999999909
0.4266766766766761 	299.9999999999526 	2.457571543542678e-12 	101324.9999999908
0.4291791791791785 	300.0000000000232 	2.878475723815248e-12 	101324.9999999907
0.4316816816816812 	300.0000000000173 	3.661028357122506e-12 	101324.9999999904
0.4341841841841836 	299.9999999999868 	2.957481005620623e-12 	101324.99999999
0.4366866866866862 	299.9999999999149 	1.971522457372792e-12 	101324.9999999897
0.4391891891891885 	299.9999999999887 	2.016800584297678e-12 	101324.9999999894
0.4416916916916913 	299.9999999999843 	1.219374343947387e-12 	101324.9999999893
0.4441941941941936 	299.9999999999877 	1.731922672817198e-12 	101324.9999999892
0.4466966966966961 	299.9999999999136 	4.5090161851811e-13 	101324.9999999892
0.4491991991991987 	299.9999999999768 	6.284440849197112e-13 	101324.9999999891
0.4517017017017012 	299.9999999999783 	3.332536182302445e-13 	101324.9999999893
0.4542042042042035 	299.9999999999937 	9.280748071332262e-13 	101324.9999999897
0.4567067067067062 	299.9999999999944 	1.393167115168102e-12 	101324.9999999899
0.4592092092092087 	299.9999999999235 	1.566093675781391e-12 	101324.99999999
0.4617117117117112 	300.0000000000238 	1.809678841922875e-12 	101324.99999999
0.4642142142142137 	299.9999999999684 	1.761602485044463e-12 	101324.9999999898
0.4667167167167162 	299.9999999999908 	1.44666622298954e-12 	101324.9999999898
0.4692192192192187 	299.9999999999542 	7.739610190330108e-13 	101324.99999999
0.4717217217217212 	300.0000000000097 	6.118340328294313e-13 	101324.9999999901
0.4742242242242236 	299.9999999999582 	3.36813412472054e-13 	101324.99999999
0.4767267267267262 	299.9999999999636 	4.118803551488066e-13 	101324.9999999897
0.4792292292292287 	300.0000000000167 	6.69632084955693e-13 	101324.9999999897
0.4817317317317312 	300.000000000033 	1.471010468189929e-12 	101324.9999999896
0.4842342342342336 	299.9999999999858 	1.584728455302518e-12 	101324.9999999897
0.4867367367367362 	299.9999999999544 	2.286839450062653e-12 	101324.9999999898
0.4892392392392387 	300.0000000000283 	1.38810210565094e-12 	101324.9999999899
0.4917417417417412 	300.0000000000041 	2.949003340189631e-12 	101324.9999999901
0.4942442442442437 	299.9999999999064 	1.738723651157493e-12 	101324.9999999903
0.4967467467467462 	299.9999999999285 	2.809199970146233e-12 	101324.9999999903
0.4992492492492487 	299.9999999999175 	1.037812072608276e-12 	101324.9999999902
0.5017517517517511 	299.9999999999521 	2.479034094726808e-12 	101324.9999999901
0.5042542542542537 	299.9999999999577 	1.781879042995104e-12 	101324.9999999903
0.5067567567567562 	299.999999999941 	9.405730150169769e-13 	101324.9999999903
0.5092592592592589 	299.9999999999748 	1.008113473451405e-12 	101324.9999999904
0.5117617617617611 	299.9999999999618 	1.526404402179122e-12 	101324.9999999903
0.5142642642642637 	299.9999999999868 	1.288500865179391e-12 	101324.9999999902
0.5167667667667663 	299.9999999999724 	3.284297944545906e-12 	101324.99999999
0.5192692692692688 	299.9999999999201 	2.121914894440658e-12 	101324.99999999
0.5217717717717714 	299.99999999994 	4.366902419796333e-12 	101324.9999999903
0.5242742742742736 	299.9999999999431 	1.928401053683726e-12 	101324.9999999906
0.5267767767767763 	299.9999999999587 	2.898384476880318e-12 	101324.9999999906
0.5292792792792789 	299.9999999999391 	2.213351516756319e-12 	101324.9999999905
0.5317817817817813 	299.9999999999075 	1.970545869402251e-12 	101324.9999999905
0.5342842842842837 	300.0000000000148 	1.1485710706853e-12 	101324.9999999906
0.5367867867867864 	300.0000000000047 	1.239918798572931e-12 	101324.9999999907
0.5392892892892888 	299.9999999999616 	1.293711637481286e-12 	101324.9999999904
0.5417917917917912 	300.0000000000056 	2.076576633653481e-12 	101324.9999999901
0.5442942942942938 	299.9999999999822 	1.579647414010935e-12 	101324.9999999903
0.5467967967967964 	299.9999999999402 	2.825559376835823e-12 	101324.9999999905
0.5492992992992988 	299.9999999999362 	1.642564849531734e-12 	101324.9999999909
0.5518018018018012 	299.9999999999401 	2.314430183095215e-12 	101324.9999999911
0.5543043043043039 	300.0000000000161 	1.158747453226705e-12 	101324.9999999909
0.5568068068068063 	299.9999999999882 	1.626773711263032e-12 	101324.9999999908
0.5593093093093087 	299.9999999999077 	7.052630807909374e-13 	101324.9999999908
0.5618118118118114 	299.9999999999611 	1.40096953542858e-12 	101324.9999999908
0.5643143143143137 	299.9999999999453 	3.41265725818194e-13 	101324.9999999905
0.5668168168168163 	299.9999999999922 	3.720424948621729e-13 	101324.9999999905
0.5693193193193188 	300.0000000000313 	5.382547722160278e-13 	101324.9999999904
0.5718218218218213 	300.0000000000261 	1.365838970184619e-12 	101324.9999999906
0.5743243243243239 	300.0000000000107 	1.281005115091919e-12 	101324.9999999906
0.5768268268268262 	300.0000000000043 	1.781166643002695e-12 	101324.9999999906
0.5793293293293288 	299.9999999999408 	2.689876700835508e-12 	101324.9999999905
0.5818318318318314 	299.9999999999166 	2.531225431748965e-12 	101324.9999999907
0.5843343343343338 	299.999999999981 	3.725014285516306e-12 	101324.9999999909
0.5868368368368363 	299.9999999999761 	2.32129161461188e-12 	101324.9999999909
0.5893393393393387 	299.9999999999494 	2.918601924190323e-12 	101324.9999999912
0.5918418418418413 	299.9999999999426 	1.294448352113391e-12 	101324.9999999913
0.5943443443443439 	300.0000000000146 	3.55306005751985e-12 	101324.9999999913
0.5968468468468463 	300.0000000000128 	1.675991957439533e-12 	101324.9999999911
0.5993493493493487 	300.0000000000347 	2.842922642421555e-12 	101324.999999991
0.6018518518518514 	299.9999999999799 	9.944985854140339e-13 	101324.9999999911
0.6043543543543537 	299.9999999999941 	1.87295730870331e-12 	101324.9999999912
0.6068568568568564 	299.9999999999808 	8.023671817527721e-13 	101324.9999999911
0.6093593593593587 	299.9999999999324 	9.514919725484547e-13 	101324.9999999912
0.6118618618618614 	299.9999999999264 	1.180614816330216e-12 	101324.9999999915
0.6143643643643638 	300.0000000000198 	1.665557283219797e-12 	101324.9999999914
0.6168668668668662 	299.9999999999912 	1.518860760116649e-12 	101324.9999999913
0.6193693693693688 	299.9999999999588 	1.576070899502908e-12 	101324.9999999914
0.6218718718718714 	299.9999999999684 	1.533006828699262e-12 	101324.9999999912
0.6243743743743737 	299.9999999999374 	1.291632807946343e-12 	101324.9999999912
0.6268768768768762 	299.9999999999269 	6.237833251346239e-13 	101324.9999999913
0.629379379379379 	299.9999999999584 	1.506613518099568e-12 	101324.9999999913
0.6318818818818812 	299.9999999999843 	8.85604430683135e-13 	101324.9999999911
0.6343843843843838 	300.0000000000183 	9.912196900723341e-13 	101324.9999999911
0.6368868868868864 	299.9999999999852 	1.955829758207305e-12 	101324.9999999911
0.6393893893893888 	299.999999999926 	1.795573378629053e-12 	101324.9999999909
0.6418918918918912 	299.9999999999994 	3.811152275847202e-12 	101324.9999999908
0.6443943943943939 	299.9999999999752 	2.702098980439672e-12 	101324.9999999907
0.6468968968968963 	299.9999999999844 	4.285506589734158e-12 	101324.9999999909
0.6493993993993988 	299.9999999999747 	1.94056213044467e-12 	101324.9999999911
0.6519019019019012 	299.9999999999762 	4.065224593277802e-12 	101324.9999999913
0.6544044044044038 	299.9999999999058 	1.875914725996966e-12 	101324.9999999914
0.6569069069069065 	299.9999999999503 	3.436925441604551e-12 	101324.9999999914
0.6594094094094087 	299.9999999999636 	1.300698780691187e-12 	101324.9999999914
0.6619119119119113 	299.9999999999567 	3.058202983880075e-12 	101324.9999999914
0.664414414414414 	300.000000000003 	1.133739895144757e-12 	101324.9999999913
0.6669169169169162 	300.0000000000178 	2.638528647946985e-12 	101324.9999999913
0.6694194194194188 	299.999999999983 	9.699786583555904e-13 	101324.9999999912
0.6719219219219214 	299.9999999999197 	1.107729780301751e-12 	101324.9999999911
0.674424424424424 	299.9999999999746 	6.389118486854119e-13 	101324.9999999913
0.6769269269269262 	299.9999999999222 	1.695218919263985e-12 	101324.9999999915
0.679429429429429 	300.0000000000038 	1.268002306939248e-12 	101324.9999999918
0.6819319319319311 	299.9999999999764 	1.901535352061016e-12 	101324.999999992
0.6844344344344341 	299.9999999999908 	1.401565759683709e-12 	101324.9999999919
0.686936936936936 	299.9999999999863 	2.079908607822643e-12 	101324.9999999918
0.6894394394394392 	299.9999999999808 	1.231230156307349e-12 	101324.9999999916
0.6919419419419413 	299.9999999999857 	9.867449184333905e-13 	101324.9999999913
0.694444444444444 	299.9999999999382 	1.077154466270453e-12 	101324.9999999914
0.6969469469469463 	299.999999999928 	1.193505554174439e-12 	101324.9999999917
0.6994494494494489 	299.9999999999222 	2.157019402308962e-12 	101324.9999999918
0.7019519519519515 	299.9999999999831 	1.723085737276214e-12 	101324.9999999919
0.7044544544544538 	299.9999999999534 	3.138888047931454e-12 	101324.999999992
0.7069569569569564 	299.9999999999964 	1.763589671623945e-12 	101324.9999999918
0.7094594594594589 	299.999999999967 	4.229095773467166e-12 	101324.9999999917
0.7119619619619615 	299.999999999913 	2.814516354092572e-12 	101324.9999999915
0.7144644644644638 	299.9999999999459 	4.618070196351061e-12 	101324.9999999912
0.7169669669669665 	299.9999999999175 	3.742473580090413e-12 	101324.9999999911
0.7194694694694688 	299.9999999999949 	4.53296648551483e-12 	101324.9999999913
0.7219719719719715 	299.9999999999908 	3.298200098270383e-12 	101324.9999999915
0.7244744744744737 	300.0000000000026 	3.406324972795923e-12 	101324.9999999917
0.7269769769769764 	299.9999999999938 	3.492215395557246e-12 	101324.9999999916
0.7294794794794791 	299.9999999999881 	2.44077199096514e-12 	101324.9999999918
0.7319819819819813 	299.9999999999873 	3.175953229528751e-12 	101324.9999999919
0.7344844844844839 	299.9999999999288 	1.728440546732131e-12 	101324.9999999918
0.7369869869869864 	299.9999999999475 	2.319075653818948e-12 	101324.9999999919
0.739489489489489 	299.9999999999372 	2.437072288936372e-12 	101324.999999992
0.7419919919919914 	299.9999999999285 	3.091709577390893e-12 	101324.999999992
0.7444944944944939 	299.9999999999773 	4.175299400433079e-12 	101324.9999999921
0.7469969969969963 	299.9999999999705 	2.925017041873509e-12 	101324.9999999922
0.7494994994994989 	299.9999999999454 	4.674045935777006e-12 	101324.9999999922
0.7520020020020015 	299.9999999999748 	2.597568493870848e-12 	101324.9999999921
0.7545045045045039 	299.9999999999696 	4.650036641812738e-12 	101324.9999999921
0.7570070070070062 	299.999999999941 	2.458852078333114e-12 	101324.9999999922
0.7595095095095092 	299.9999999999319 	3.626957840208635e-12 	101324.9999999922
0.7620120120120112 	300.000000000005 	2.347308805123623e-12 	101324.9999999922
0.7645145145145138 	299.999999999984 	2.714495901636705e-12 	101324.9999999922
0.7670170170170165 	299.9999999999274 	3.464712785058546e-12 	101324.999999992
0.7695195195195191 	299.9999999999299 	2.71025769885799e-12 	101324.9999999919
0.7720220220220213 	299.9999999999346 	4.573073714326837e-12 	101324.9999999917
0.7745245245245239 	299.9999999999289 	3.490217282341963e-12 	101324.9999999918
0.7770270270270263 	299.999999999969 	4.977644368262368e-12 	101324.9999999919
0.779529529529529 	299.9999999999852 	3.69686897133001e-12 	101324.9999999918
0.7820320320320313 	299.9999999999735 	3.7788854347303e-12 	101324.9999999918
0.784534534534534 	299.9999999999993 	2.745383989065096e-12 	101324.9999999919
0.7870370370370364 	299.999999999994 	1.829809172951997e-12 	101324.9999999919
0.7895395395395389 	299.9999999999794 	2.670994380901791e-12 	101324.999999992
0.7920420420420413 	299.999999999969 	1.615885518480413e-12 	101324.999999992
0.794544544544544 	299.9999999999659 	3.385454744234187e-12 	101324.9999999919
0.7970470470470463 	299.9999999999972 	2.229034632411235e-12 	101324.9999999918
0.799549549549549 	299.999999999984 	2.890451615611541e-12 	101324.9999999917
0.8020520520520515 	299.9999999999882 	1.672039803640495e-12 	101324.9999999919
0.8045545545545539 	299.9999999999493 	2.930479876128484e-12 	101324.9999999921
0.8070570570570563 	299.9999999999798 	2.365764095744782e-12 	101324.999999992
0.8095595595595589 	299.9999999999566 	3.163550860327144e-12 	101324.999999992
0.8120620620620614 	299.9999999999384 	3.233345927119629e-12 	101324.999999992
0.8145645645645638 	299.9999999999989 	3.324114672017463e-12 	101324.9999999923
0.8170670670670666 	299.9999999999902 	3.563706699724602e-12 	101324.9999999924
0.8195695695695689 	299.9999999999748 	2.438820171861704e-12 	101324.9999999926
0.8220720720720714 	299.999999999946 	4.567038732457403e-12 	101324.9999999925
0.8245745745745739 	299.9999999999905 	3.166119670594311e-12 	101324.9999999926
0.8270770770770765 	299.9999999999696 	4.847297068388729e-12 	101324.9999999926
0.8295795795795788 	299.999999999948 	3.914100701750678e-12 	101324.9999999927
0.8320820820820815 	300.0000000000119 	4.513204781309874e-12 	101324.9999999925
0.834584584584584 	300.0000000000055 	3.633244450459805e-12 	101324.9999999923
0.8370870870870865 	299.9999999999762 	3.145361039485255e-12 	101324.9999999924
0.8395895895895891 	299.9999999999326 	3.224043453615673e-12 	101324.9999999924
0.8420920920920915 	299.9999999999397 	2.926736303902236e-12 	101324.9999999925
0.844594594594594 	299.9999999999371 	3.496092504945402e-12 	101324.9999999926
0.8470970970970964 	299.9999999999583 	4.10807503249812e-12 	101324.9999999926
0.8495995995995991 	299.9999999999899 	3.791682083323363e-12 	101324.9999999927
0.8521021021021015 	299.9999999999814 	4.086712115047567e-12 	101324.999999993
0.8546046046046039 	299.9999999999783 	3.467514159432909e-12 	101324.9999999932
0.8571071071071066 	300.0000000000013 	4.560047634483901e-12 	101324.9999999933
0.8596096096096089 	299.9999999999633 	2.774080970340147e-12 	101324.9999999934
0.8621121121121116 	299.9999999999332 	5.212179300777543e-12 	101324.9999999933
0.8646146146146139 	299.9999999999944 	3.697876225982574e-12 	101324.9999999933
0.8671171171171166 	299.9999999999746 	5.337083811501899e-12 	101324.9999999933
0.8696196196196189 	299.9999999999501 	5.499279002578489e-12 	101324.9999999933
0.8721221221221216 	299.9999999999839 	6.199964882093507e-12 	101324.9999999935
0.874624624624624 	300.0000000000024 	5.816649361127575e-12 	101324.9999999932
0.8771271271271264 	300.0000000000013 	5.061157453912827e-12 	101324.9999999932
0.879629629629629 	300.0000000000078 	4.917337164384278e-12 	101324.999999993
0.8821321321321317 	299.9999999999822 	3.323747322822907e-12 	101324.9999999931
0.8846346346346339 	299.9999999999251 	5.452521335373264e-12 	101324.9999999931
0.8871371371371364 	299.9999999999589 	3.834400859257597e-12 	101324.9999999932
0.8896396396396391 	299.9999999999668 	5.311211652626427e-12 	101324.9999999932
0.8921421421421414 	299.9999999999703 	4.065297611569581e-12 	101324.9999999932
0.8946446446446441 	299.9999999999832 	4.73356648978458e-12 	101324.999999993
0.8971471471471464 	300.0000000000003 	4.319188341361722e-12 	101324.9999999929
0.8996496496496489 	299.9999999999814 	4.134117229051988e-12 	101324.9999999931
0.9021521521521517 	299.9999999999693 	4.619224260129633e-12 	101324.9999999931
0.9046546546546541 	299.999999999999 	4.363699161527084e-12 	101324.9999999932
0.9071571571571564 	299.9999999999571 	5.30560638965395e-12 	101324.9999999932
0.9096596596596589 	299.9999999999558 	5.929314909283117e-12 	101324.9999999934
0.9121621621621616 	300.0000000000068 	5.757145068809838e-12 	101324.9999999935
0.9146646646646639 	299.9999999999794 	5.112724534523494e-12 	101324.9999999934
0.9171671671671666 	299.9999999999502 	4.221880814565875e-12 	101324.9999999933
0.9196696696696689 	299.9999999999995 	4.745685296486943e-12 	101324.9999999931
0.9221721721721714 	299.9999999999927 	3.097697551576645e-12 	101324.999999993
0.9246746746746741 	299.9999999999372 	4.724279342707678e-12 	101324.999999993
0.9271771771771765 	299.9999999999545 	2.776414969100665e-12 	101324.999999993
0.9296796796796791 	299.9999999999919 	4.433911253743382e-12 	101324.9999999932
0.9321821821821816 	299.999999999966 	3.121171492817855e-12 	101324.9999999933
0.9346846846846838 	299.9999999999503 	4.239254419299354e-12 	101324.9999999934
0.9371871871871866 	300.0000000000094 	3.855266289034755e-12 	101324.9999999934
0.9396896896896891 	300.0000000000066 	4.232666303854727e-12 	101324.9999999935
0.9421921921921914 	300.0000000000034 	5.021046097349871e-12 	101324.9999999935
0.9446946946946939 	299.9999999999727 	4.580086346054313e-12 	101324.9999999936
0.9471971971971965 	299.9999999999321 	6.301816953546801e-12 	101324.9999999937
0.9496996996996991 	299.9999999999653 	4.839336661789924e-12 	101324.9999999939
0.9522022022022016 	299.9999999999804 	6.441252622605712e-12 	101324.9999999938
0.9547047047047038 	299.9999999999808 	5.727495925803939e-12 	101324.9999999938
0.9572072072072064 	299.9999999999656 	6.117938076816385e-12 	101324.9999999939
0.9597097097097093 	299.999999999964 	5.343546158900873e-12 	101324.9999999938
0.9622122122122114 	299.999999999956 	4.910003535710922e-12 	101324.9999999937
0.964714714714714 	299.9999999999512 	5.588863554024189e-12 	101324.9999999935
0.9672172172172167 	299.9999999999583 	4.579112533715774e-12 	101324.9999999935
0.969719719719719 	299.999999999989 	4.684374469626043e-12 	101324.9999999935
0.9722222222222214 	299.9999999999772 	4.478366875528752e-12 	101324.9999999933
0.9747247247247239 	299.9999999999685 	4.917620309171556e-12 	101324.9999999931
0.9772272272272267 	300.0000000000003 	5.076966607307292e-12 	101324.999999993
0.9797297297297292 	299.9999999999819 	4.420568282456656e-12 	101324.9999999932
0.9822322322322313 	299.9999999999851 	5.069043680852785e-12 	101324.9999999933
0.9847347347347344 	299.9999999999836 	3.781812683451412e-12 	101324.9999999934
0.9872372372372363 	299.9999999999399 	6.025024404397487e-12 	101324.9999999933
0.9897397397397389 	299.9999999999636 	4.157353775693161e-12 	101324.9999999932
0.9922422422422417 	299.9999999999525 	5.709355602593945e-12 	101324.9999999932
0.9947447447447441 	299.9999999999555 	4.469760098419998e-12 	101324.9999999932
0.9972472472472468 	299.9999999999724 	5.265622873109374e-12 	101324.9999999932
0.999749749749749 	299.9999999999656 	4.321913778129471e-12 	101324.9999999934
1.002252252252252 	299.9999999999745 	4.371213387574365e-12 	101324.9999999936
1.004754754754754 	299.9999999999916 	4.298379357329709e-12 	101324.9999999936
1.007257257257256 	299.9999999999659 	3.047703102906155e-12 	101324.9999999934
1.009759759759759 	299.9999999999544 	4.063462784259473e-12 	101324.9999999935
1.012262262262261 	299.9999999999566 	2.409517179168799e-12 	101324.9999999937
1.014764764764764 	299.999999999932 	3.900367507508457e-12 	101324.9999999937
1.017267267267267 	299.999999999925 	3.319333989722339e-12 	101324.9999999933
1.019769769769769 	299.9999999999673 	4.954370935002548e-12 	101324.999999993
1.022272272272272 	299.9999999999781 	5.078033729847369e-12 	101324.999999993
1.024774774774774 	299.9999999999789 	5.01892664209242e-12 	101324.999999993
1.027277277277277 	299.9999999999768 	5.202917596090633e-12 	101324.999999993
1.029779779779779 	300.0000000000057 	4.229590985018657e-12 	101324.9999999929
1.032282282282282 	300.0000000000067 	4.481777255996552e-12 	101324.9999999927
1.034784784784784 	300 	3.992321859200881e-12 	101324.9999999927
1.037287287287286 	299.9999999999712 	4.739736516936711e-12 	101324.9999999927
1.039789789789789 	299.9999999999744 	5.070028879887607e-12 	101324.9999999926
1.042292292292291 	300.0000000000053 	5.724235956490949e-12 	101324.9999999927
1.044794794794794 	300.0000000000179 	6.258185164850647e-12 	101324.9999999926
1.047297297297296 	300.000000000032 	5.569885389874954e-12 	101324.9999999928
1.049799799799799 	299.9999999999948 	7.03615805666989e-12 	101324.999999993
1.052302302302302 	299.9999999999592 	5.370465708147436e-12 	101324.999999993
1.054804804804804 	299.9999999999381 	6.697558775065389e-12 	101324.9999999929
1.057307307307306 	299.9999999999279 	5.871145476607097e-12 	101324.9999999928
1.059809809809809 	299.9999999999613 	6.841765805102648e-12 	101324.9999999927
1.062312312312312 	299.99999999996 	6.408866992819947e-12 	101324.9999999925
1.064814814814814 	299.9999999999588 	7.051218909167019e-12 	101324.9999999927
1.067317317317317 	299.9999999999324 	6.944898352854116e-12 	101324.9999999929
1.069819819819819 	299.9999999999305 	6.992966454987128e-12 	101324.9999999928
1.072322322322321 	299.999999999992 	8.527161209033373e-12 	101324.9999999926
1.074824824824824 	300.0000000000111 	6.947191932419365e-12 	101324.9999999925
1.077327327327327 	300.0000000000267 	7.751903005864445e-12 	101324.9999999926
1.079829829829829 	300.0000000000376 	6.630974051177222e-12 	101324.9999999929
1.082332332332332 	300.0000000000046 	6.930058363126887e-12 	101324.9999999929
1.084834834834834 	299.99999999998 	6.61678788732251e-12 	101324.9999999929
1.087337337337337 	299.9999999999446 	6.828970969849319e-12 	101324.9999999929
1.089839839839839 	299.9999999999287 	8.470200227389301e-12 	101324.9999999928
1.092342342342342 	299.9999999999682 	7.603776444593437e-12 	101324.9999999927
1.094844844844844 	299.9999999999706 	8.700577645252628e-12 	101324.9999999926
1.097347347347347 	299.9999999999389 	7.477650845254506e-12 	101324.9999999925
1.099849849849849 	299.9999999999239 	9.823001768697711e-12 	101324.9999999925
1.102352352352352 	299.9999999999577 	8.163399835941812e-12 	101324.9999999922
1.104854854854854 	299.9999999999811 	9.911622977718373e-12 	101324.9999999921
1.107357357357357 	299.9999999999606 	7.973865420424414e-12 	101324.9999999922
1.109859859859859 	299.9999999999512 	8.630065882259925e-12 	101324.9999999923
1.112362362362362 	300.0000000000148 	7.097808431180728e-12 	101324.9999999924
1.114864864864865 	300.0000000000163 	7.048074949265968e-12 	101324.9999999925
1.117367367367367 	299.9999999999635 	7.769329072046664e-12 	101324.9999999923
1.119869869869869 	299.9999999999273 	7.070157801514886e-12 	101324.9999999923
1.122372372372372 	299.9999999999628 	8.074683980048776e-12 	101324.9999999924
1.124874874874874 	299.9999999999588 	6.533459845199193e-12 	101324.9999999927
1.127377377377377 	299.9999999999712 	6.700716755082896e-12 	101324.9999999929
1.129879879879879 	300.000000000021 	6.118553938285856e-12 	101324.9999999929
1.132382382382382 	300.000000000031 	6.641982823647203e-12 	101324.9999999929
1.134884884884884 	300.0000000000064 	6.776690561477028e-12 	101324.9999999929
1.137387387387387 	300.0000000000128 	6.976320575824728e-12 	101324.9999999928
1.139889889889889 	299.999999999959 	7.79677469719064e-12 	101324.9999999926
1.142392392392392 	299.9999999999492 	7.120970742566477e-12 	101324.9999999925
1.144894894894894 	300.000000000014 	8.205828326878233e-12 	101324.9999999925
1.147397397397397 	299.9999999999981 	7.492226299431929e-12 	101324.9999999924
1.149899899899899 	299.9999999999413 	8.856224281549482e-12 	101324.9999999923
1.152402402402402 	299.9999999999266 	9.018243840166445e-12 	101324.9999999924
1.154904904904904 	299.9999999999601 	9.86419282912048e-12 	101324.9999999925
1.157407407407407 	299.9999999999603 	9.168024294562872e-12 	101324.9999999925
1.159909909909909 	299.9999999999338 	8.891546154411041e-12 	101324.9999999926
1.162412412412412 	299.9999999999278 	9.700751362269239e-12 	101324.9999999924
1.164914914914914 	299.9999999999558 	8.268702155096247e-12 	101324.9999999924
1.167417417417417 	299.9999999999644 	9.294244351644658e-12 	101324.9999999925
1.169919919919919 	300.0000000000086 	8.632442407655265e-12 	101324.9999999928
1.172422422422422 	300.0000000000343 	9.238425616135676e-12 	101324.999999993
1.174924924924925 	299.9999999999893 	8.245296638913804e-12 	101324.999999993
1.177427427427427 	299.9999999999633 	8.325039542412123e-12 	101324.9999999929
1.179929929929929 	300.0000000000075 	8.386111032238279e-12 	101324.9999999929
1.182432432432432 	300.000000000033 	6.431164775446637e-12 	101324.9999999932
1.184934934934934 	300.0000000000032 	6.583550998517941e-12 	101324.9999999933
1.187437437437437 	299.9999999999721 	5.702816927738211e-12 	101324.9999999934
1.189939939939939 	299.9999999999592 	6.870106985628168e-12 	101324.9999999935
1.192442442442442 	299.9999999999317 	6.559948851100796e-12 	101324.9999999935
1.194944944944944 	299.9999999999476 	7.452916667272584e-12 	101324.9999999932
1.197447447447447 	300.0000000000038 	6.902603145647245e-12 	101324.9999999931
1.199949949949949 	300.0000000000082 	6.46973589206027e-12 	101324.9999999933
1.202452452452452 	299.9999999999544 	6.556592645064204e-12 	101324.9999999933
1.204954954954955 	299.9999999999502 	5.607317322540199e-12 	101324.9999999932
1.207457457457457 	299.9999999999817 	6.689456498278558e-12 	101324.999999993
1.20995995995996 	299.999999999979 	5.907770793256562e-12 	101324.999999993
1.212462462462462 	299.9999999999853 	6.607550398452511e-12 	101324.999999993
1.214964964964964 	299.999999999987 	5.787550990476666e-12 	101324.999999993
1.217467467467467 	299.9999999999798 	6.419724578386967e-12 	101324.999999993
1.219969969969969 	299.9999999999635 	5.717702348616576e-12 	101324.9999999931
1.222472472472472 	300.0000000000162 	5.915248383027479e-12 	101324.9999999932
1.224974974974975 	300.0000000000385 	6.094855103427735e-12 	101324.9999999932
1.227477477477477 	299.9999999999886 	4.912886213827855e-12 	101324.9999999932
1.229979979979979 	299.9999999999752 	5.645753106416937e-12 	101324.9999999931
1.232482482482482 	299.9999999999542 	4.820521875093154e-12 	101324.9999999932
1.234984984984984 	299.9999999999552 	5.971702014555606e-12 	101324.9999999932
1.237487487487487 	299.999999999976 	5.148330453624394e-12 	101324.9999999932
1.239989989989989 	299.99999999998 	5.856255689625248e-12 	101324.9999999933
1.242492492492492 	300.0000000000094 	6.676260533186502e-12 	101324.9999999932
1.244994994994994 	299.9999999999869 	6.263179420745896e-12 	101324.9999999931
1.247497497497497 	299.9999999999871 	7.434921322932323e-12 	101324.9999999932
1.249999999999999 	300 	7.059216033816316e-12 	101324.9999999931
