-1.25 	300 	0.07204084276959029 	101295.6107373854
-1.247497497497497 	299.9745578849661 	0.07079192795283984 	101296.1600248036
-1.244994994994995 	299.9760580185427 	0.06919095600452463 	101296.7180678602
-1.242492492492492 	299.9765504969072 	0.06800627687364874 	101297.280400176
-1.23998998998999 	299.977028989292 	0.06651738385544728 	101297.8467179681
-1.237487487487487 	299.9775131862466 	0.0651516244652084 	101298.4190560274
-1.234984984984985 	299.9780017276061 	0.06373730776113515 	101298.9965077964
-1.232482482482482 	299.9784944301277 	0.06230893253309079 	101299.5788794258
-1.22997997997998 	299.978990591588 	0.06087085804855653 	101300.1653423883
-1.227477477477477 	299.9794902122914 	0.05942325712424256 	101300.7558968916
-1.224974974974975 	299.9799944362044 	0.05796483980699921 	101301.3518936824
-1.222472472472472 	299.9805027514686 	0.05649454915145405 	101301.9527296997
-1.21996996996997 	299.9810144741423 	0.05500781700518189 	101302.5575960935
-1.217467467467467 	299.9815289774818 	0.05351102271697317 	101303.1657500146
-1.214964964964965 	299.9820470365885 	0.05201411670902592 	101303.7781107336
-1.212462462462462 	299.9825689012433 	0.0505058831166248 	101304.3949721525
-1.20995995995996 	299.9830932040803 	0.04898704730881927 	101305.0147174348
-1.207457457457457 	299.9836206262394 	0.04745592735700754 	101305.6381539236
-1.204954954954955 	299.9841514527855 	0.0459136512390245 	101306.2656165237
-1.202452452452452 	299.9846849186606 	0.04437252029083909 	101306.8962008503
-1.19994994994995 	299.9852210749445 	0.04282298022540017 	101307.5299694424
-1.197447447447447 	299.9857613407027 	0.04125828456439821 	101308.1685984562
-1.194944944944945 	299.9863041880729 	0.03968233742842477 	101308.8102795877
-1.192442442442442 	299.9868470332014 	0.0381047287931827 	101309.4519611403
-1.18993993993994 	299.9873925216349 	0.03652671224961078 	101310.0967732393
-1.187437437437437 	299.9879438941813 	0.03493431773049504 	101310.7485431472
-1.184934934934935 	299.9884972232908 	0.03333320099174534 	101311.4026259817
-1.182432432432432 	299.9890487269728 	0.03173160584399044 	101312.0545537338
-1.17992992992993 	299.9896014410622 	0.0301275605066078 	101312.7079167733
-1.177427427427427 	299.9901582422222 	0.02851753134364213 	101313.3661157998
-1.174924924924925 	299.9907182557305 	0.02689653424779383 	101314.0281149391
-1.172422422422422 	299.9912807934582 	0.0252667674718552 	101314.6930995124
-1.16991991991992 	299.9918460112978 	0.02362914756362994 	101315.3612536385
-1.167417417417417 	299.9924119794188 	0.02198948600250037 	101316.0302965624
-1.164914914914915 	299.9929758356344 	0.02035764792910674 	101316.6968476737
-1.162412412412412 	299.9935366711438 	0.01873235554261439 	101317.3598343742
-1.15990990990991 	299.9940976322205 	0.01710423500124177 	101318.0229733114
-1.157407407407407 	299.9946643623173 	0.0154603938858626 	101318.6929324252
-1.154904904904904 	299.9952395020244 	0.01379574675354437 	101319.3728336981
-1.152402402402403 	299.9958198755846 	0.01211675952663715 	101320.0589255133
-1.1498998998999 	299.9963998179923 	0.01043856603441138 	101320.7445127802
-1.147397397397397 	299.9969740436582 	0.008776215350432949 	101321.4233478275
-1.144894894894895 	299.9975413827437 	0.007130982333404361 	101322.0940452442
-1.142392392392392 	299.9981051853936 	0.00549697564632631 	101322.7605619737
-1.13988988988989 	299.9986694959184 	0.003861918885486191 	101323.427678028
-1.137387387387387 	299.999236766677 	0.002215057618702749 	101324.0982924724
-1.134884884884885 	299.9998100973214 	0.000773297003957295 	101324.7760706474
-1.132382382382382 	300.0003876171314 	0.001113666119344247 	101325.4588020419
-1.12987987987988 	300.0009647774436 	0.002785064351814346 	101326.1411120707
-1.127377377377377 	300.001540566579 	0.004453036667590187 	101326.8218070905
-1.124874874874875 	300.0021151655593 	0.00611763675363918 	101327.5011011898
-1.122372372372372 	300.0026887969713 	0.007779435607446627 	101328.1792570637
-1.11986986986987 	300.0032615972532 	0.0094388129350672 	101328.8564352533
-1.117367367367367 	300.0038336110509 	0.01109590163308333 	101329.5326880264
-1.114864864864865 	300.0044048169727 	0.01275064414138448 	101330.2079896084
-1.112362362362362 	300.0049751538187 	0.01440286592328484 	101330.8822673115
-1.10985985985986 	300.0055445388545 	0.01605233011806209 	101331.5554232107
-1.107357357357357 	300.0061128788624 	0.01769876700506232 	101332.2273467598
-1.104854854854855 	300.0066800751674 	0.01934189042291945 	101332.8979213666
-1.102352352352353 	300.00724602682 	0.02098140810075713 	101333.5670276115
-1.09984984984985 	300.0078106318865 	0.02261702464240974 	101334.2345447676
-1.097347347347347 	300.0083737876709 	0.02424844196728341 	101334.9003515799
-1.094844844844845 	300.0089353915253 	0.02587536257601893 	101335.5643266474
-1.092342342342342 	300.0094953408844 	0.02749748985811155 	101336.2263486221
-1.08983983983984 	300.0100535333158 	0.02911452592039646 	101336.8862963332
-1.087337337337337 	300.0106098664974 	0.03072617424261351 	101337.5440488502
-1.084834834834835 	300.0111642384429 	0.0323321404031552 	101338.1994855593
-1.082332332332332 	300.0117165475726 	0.03393212919151561 	101338.8524861824
-1.07982982982983 	300.012266692392 	0.03552584633086663 	101339.5029308515
-1.077327327327327 	300.0128145719474 	0.03711300008708896 	101340.1507001852
-1.074824824824825 	300.0133600857683 	0.03869329910032578 	101340.795675292
-1.072322322322323 	300.0139031337384 	0.04026645291205852 	101341.4377377778
-1.06981981981982 	300.0144436161877 	0.04183217306439096 	101342.0767696979
-1.067317317317317 	300.0149814336897 	0.04339017196429888 	101342.7126536388
-1.064814814814815 	300.0155164876719 	0.04494016315287486 	101343.3452728118
-1.062312312312312 	300.0160486799174 	0.04648186268620827 	101343.9745110678
-1.05980980980981 	300.0165779126739 	0.04801498782897261 	101344.6002529374
-1.057307307307307 	300.0171040889484 	0.04953925637318062 	101345.2223835266
-1.054804804804805 	300.0176271121219 	0.05105438886491533 	101345.8407885444
-1.052302302302302 	300.0181468861103 	0.05256010781765137 	101346.4553543993
-1.0497997997998 	300.0186633153454 	0.05405613605533725 	101347.0659681988
-1.047297297297297 	300.0191763052767 	0.05554219892603005 	101347.6725178502
-1.044794794794795 	300.0196857619021 	0.05701802439932631 	101348.2748920222
-1.042292292292292 	300.0201915913736 	0.05848334139328321 	101348.8729801362
-1.03978978978979 	300.0206937008023 	0.05993788109420098 	101349.4666724153
-1.037287287287287 	300.0211919985085 	0.06138137691478422 	101350.0558598231
-1.034784784784785 	300.0216863933036 	0.06281356351593581 	101350.6404342201
-1.032282282282283 	300.0221767938419 	0.06423417841119476 	101351.2202883503
-1.02977977977978 	300.0226631096918 	0.06564296154048026 	101351.7953157476
-1.027277277277277 	300.0231452526572 	0.06703965383254815 	101352.365410877
-1.024774774774775 	300.0236231348464 	0.06842399898875531 	101352.9304690449
-1.022272272272272 	300.0240966673679 	0.06979574352662317 	101353.4903864395
-1.01976976976977 	300.0245657621765 	0.07115463503127779 	101354.0450602078
-1.017267267267267 	300.0250303343053 	0.07250042375866581 	101354.5943883405
-1.014764764764765 	300.0254903004789 	0.07383286324657524 	101355.1382699135
-1.012262262262262 	300.0259455751342 	0.07515170852821146 	101355.6766050626
-1.00975975975976 	300.0263960716593 	0.07645671744672071 	101356.2092948594
-1.007257257257257 	300.0268417074931 	0.07774765108341167 	101356.7362415575
-1.004754754754755 	300.0272824047792 	0.07902427217535715 	101357.2573483903
-1.002252252252252 	300.0277180849221 	0.08028634652944958 	101357.7725196381
-0.9997497497497498 	300.0281486644116 	0.08153364350223911 	101358.2816609463
-0.9972472472472473 	300.0285740589772 	0.08276593411094434 	101358.7846789105
-0.9947447447447449 	300.0289941914335 	0.08398299225081853 	101359.2814811422
-0.9922422422422421 	300.0294089921487 	0.08518459514367423 	101359.7719765327
-0.9897397397397399 	300.0298183896759 	0.08637052209654361 	101360.2560750138
-0.9872372372372376 	300.0302223039256 	0.0875405561972698 	101360.733687908
-0.9847347347347346 	300.030620651396 	0.08869448358409721 	101361.2047277753
-0.9822322322322323 	300.0310133559349 	0.08983209175648665 	101361.6691079162
-0.9797297297297296 	300.0314003539729 	0.09095317210452675 	101362.1267430739
-0.9772272272272275 	300.0317815861517 	0.09205751987541209 	101362.5775494371
-0.9747247247247248 	300.0321569841261 	0.09314493209255383 	101363.0214441696
-0.9722222222222224 	300.0325264685326 	0.09421520955532861 	101363.458345973
-0.9697197197197196 	300.0328899585988 	0.09526815660315816 	101363.8881747483
-0.9672172172172175 	300.0332473846989 	0.09630357938227725 	101364.3108512736
-0.9647147147147147 	300.0335986922823 	0.09732128794225305 	101364.7262980716
-0.9622122122122124 	300.0339438320764 	0.09832109595060402 	101365.1344389333
-0.9597097097097099 	300.0342827469496 	0.09930281969627525 	101365.5351986536
-0.9572072072072073 	300.034615366886 	0.1002662799053774 	101365.9285040719
-0.9547047047047047 	300.0349416152266 	0.1012113003178385 	101366.3142832554
-0.9522022022022023 	300.0352614197964 	0.1021377065835819 	101366.6924648724
-0.9496996996996998 	300.035574722755 	0.1030453287801621 	101367.0629794488
-0.9471971971971973 	300.0358814792958 	0.1039340001768803 	101367.425758885
-0.9446946946946947 	300.0361816484777 	0.104803556699217 	101367.7807360863
-0.9421921921921923 	300.0364751848883 	0.1056538401437112 	101368.1278463815
-0.93968968968969 	300.0367620321587 	0.1064846955976696 	101368.4670265474
-0.9371871871871872 	300.0370421247018 	0.1072959694178963 	101368.7982137215
-0.9346846846846848 	300.0373153968193 	0.1080875129597785 	101369.1213471492
-0.9321821821821823 	300.0375817890493 	0.108859181488167 	101369.4363678128
-0.9296796796796799 	300.0378412506779 	0.1096108319068287 	101369.7432170509
-0.9271771771771771 	300.0380937405806 	0.1103423258193257 	101370.0418382687
-0.9246746746746748 	300.0383392242322 	0.111053529184502 	101370.3321769977
-0.9221721721721724 	300.0385776680537 	0.1117443100704469 	101370.6141790948
-0.9196696696696698 	300.0388090361482 	0.1124145417868821 	101370.8877925038
-0.9171671671671672 	300.0390332895085 	0.1130641032043377 	101371.1529681669
-0.9146646646646649 	300.0392503841605 	0.113692875384283 	101371.4096574142
-0.9121621621621623 	300.0394602738195 	0.1143007423920524 	101371.6578124397
-0.9096596596596597 	300.0396629143258 	0.1148875930632862 	101371.8973882292
-0.9071571571571573 	300.0398582630319 	0.1154533193864808 	101372.1283406911
-0.9046546546546547 	300.0400462791376 	0.1159978159203588 	101372.3506261762
-0.9021521521521524 	300.0402269258699 	0.1165209826787167 	101372.5642041011
-0.8996496496496498 	300.0404001699917 	0.1170227250924123 	101372.769036189
-0.8971471471471473 	300.0405659791525 	0.1175029501729179 	101372.9650840651
-0.894644644644645 	300.0407243225478 	0.117961567604128 	101373.1523107219
-0.892142142142142 	300.040875172464 	0.1183984933550398 	101373.3306820549
-0.8896396396396397 	300.0410185020583 	0.118813646828158 	101373.5001651061
-0.8871371371371374 	300.0411542848664 	0.1192069491360939 	101373.660727471
-0.8846346346346349 	300.0412824968321 	0.119578327898924 	101373.8123394542
-0.8821321321321324 	300.0414031160967 	0.1199277173970709 	101373.9549744965
-0.8796296296296297 	300.041516121134 	0.1202550530271915 	101374.0886064142
-0.8771271271271271 	300.0416214898763 	0.1205602714444813 	101374.2132087177
-0.8746246246246248 	300.0417192031846 	0.1208433166527767 	101374.3287583449
-0.8721221221221224 	300.0418092450188 	0.1211041393337983 	101374.4352361157
-0.8696196196196196 	300.041891597771 	0.1213426887317495 	101374.5326211453
-0.8671171171171175 	300.0419662433587 	0.1215589148343287 	101374.6208917373
-0.8646146146146148 	300.0420331694714 	0.1217527811580016 	101374.7000334773
-0.8621121121121121 	300.0420923672396 	0.1219242576724652 	101374.7700356427
-0.8596096096096097 	300.0421438218632 	0.1220733041321869 	101374.8308806753
-0.857107107107107 	300.0421875196352 	0.1221998862464091 	101374.8825526229
-0.8546046046046049 	300.0422234592498 	0.1223039942548777 	101374.9250496024
-0.8521021021021022 	300.0422516380337 	0.1223856153200068 	101374.9583685907
-0.8495995995995997 	300.0422720411391 	0.1224447152143194 	101374.9824920486
-0.8470970970970974 	300.0422846616731 	0.1224812787986656 	101374.997411754
-0.8445945945945946 	300.0422895108809 	0.1224953247474962 	101375.003140765
-0.8420920920920922 	300.0422865879543 	0.122486846610607 	101374.9996779247
-0.8395895895895897 	300.0422758712828 	0.1224558052375991 	101374.9869992702
-0.8370870870870872 	300.0422573657111 	0.1224022118600159 	101374.9651094005
-0.8345845845845846 	300.042231100284 	0.122326126588024 	101374.934042268
-0.8320820820820823 	300.0421970744406 	0.1222275501631611 	101374.8937976251
-0.8295795795795798 	300.0421552629692 	0.122106437942764 	101374.8443456003
-0.8270770770770772 	300.0421056828336 	0.1219628355849489 	101374.7857063071
-0.8245745745745746 	300.0420483827366 	0.1217968481875083 	101374.7179374171
-0.8220720720720721 	300.0419833583358 	0.1216084693774431 	101374.6410337021
-0.8195695695695699 	300.0419105698753 	0.1213976295200669 	101374.5549481836
-0.817067067067067 	300.0418300490106 	0.1211644116750705 	101374.4597184637
-0.8145645645645651 	300.0417418753435 	0.1209089894636207 	101374.355438581
-0.8120620620620621 	300.0416460422671 	0.1206313533105156 	101374.2421006288
-0.8095595595595597 	300.0415424829771 	0.1203313805653365 	101374.1196257476
-0.8070570570570572 	300.0414312386911 	0.1200091838595818 	101373.988062866
-0.8045545545545546 	300.0413124377661 	0.1196650466002865 	101373.8475636187
-0.8020520520520523 	300.041186085303 	0.1192989823886469 	101373.698133966
-0.7995495495495494 	300.0410520664383 	0.1189107669718588 	101373.5396381908
-0.7970470470470474 	300.0409104055529 	0.1185004881944355 	101373.3721052962
-0.7945445445445446 	300.0407613009463 	0.1180685909515399 	101373.1957698038
-0.7920420420420423 	300.0406048129836 	0.1176152048019109 	101373.0107029585
-0.7895395395395397 	300.0404407619217 	0.1171399567137154 	101372.8166922164
-0.7870370370370371 	300.0402690869912 	0.1166427598568341 	101372.6136659618
-0.7845345345345348 	300.0400900548002 	0.1161242304953539 	101372.4019395579
-0.7820320320320323 	300.0399038756021 	0.1155848266706294 	101372.1817614977
-0.7795295295295296 	300.0397103445866 	0.1150240989474949 	101371.9528895259
-0.7770270270270272 	300.0395092002478 	0.1144415171934347 	101371.7150145174
-0.7745245245245247 	300.0393006721627 	0.1138376505056908 	101371.4684082559
-0.7720220220220222 	300.0390852351288 	0.113213566621566 	101371.2136321727
-0.7695195195195199 	300.0388628596887 	0.1125691775350358 	101370.9506511935
-0.767017017017017 	300.0386330203063 	0.1119033271892163 	101370.67884377
-0.7645145145145147 	300.038395598143 	0.1112158316956355 	101370.3980699421
-0.7620120120120122 	300.0381512581936 	0.1105082521412506 	101370.1091163758
-0.7595095095095097 	300.037900538664 	0.109781785123686 	101369.812619132
-0.7570070070070072 	300.0376429714763 	0.1090353296856564 	101369.5080242087
-0.7545045045045048 	300.0373777320405 	0.1082670574548541 	101369.1943568647
-0.7520020020020022 	300.0371050197278 	0.1074775454738073 	101368.8718537582
-0.7494994994994997 	300.0368260308189 	0.1066695981110822 	101368.5419293677
-0.7469969969969972 	300.0365413100161 	0.1058444106777632 	101368.2052271349
-0.7444944944944945 	300.0362498239028 	0.1049995335118117 	101367.8605246951
-0.7419919919919924 	300.0359503391974 	0.1041321804556418 	101367.5063643863
-0.7394894894894897 	300.0356433716736 	0.1032437199212976 	101367.1433572687
-0.7369869869869872 	300.0353308371187 	0.1023387041029493 	101366.7737684986
-0.7344844844844846 	300.0350135460523 	0.1014189403412614 	101366.398555287
-0.7319819819819822 	300.0346898816003 	0.1004805105822222 	101366.0158048489
-0.7294794794794797 	300.0343577569582 	0.09951855176196582 	101365.6230509534
-0.7269769769769773 	300.0340175742845 	0.09853423835581203 	101365.2207709506
-0.7244744744744747 	300.0336722014779 	0.09753453779446172 	101364.8123562978
-0.721971971971972 	300.0333235689441 	0.09652397125270587 	101364.4000875644
-0.7194694694694695 	300.0329699972863 	0.09549832040599883 	101363.9819768801
-0.7169669669669674 	300.0326078864812 	0.0944489012774816 	101363.5537683835
-0.7144644644644647 	300.0322361444862 	0.09337330832131677 	101363.114173777
-0.711961961961962 	300.0318580596889 	0.09227977621290159 	101362.6670834974
-0.7094594594594597 	300.0314779677409 	0.09117887463900029 	101362.2176225905
-0.7069569569569573 	300.0310961956543 	0.0900711756787948 	101361.7661738145
-0.7044544544544545 	300.0307081696853 	0.08894527456820281 	101361.3073272064
-0.7019519519519523 	300.0303091767599 	0.08778967385289886 	101360.8355126075
-0.6994494494494495 	300.029899853395 	0.08660627502275635 	101360.3514874465
-0.6969469469469471 	300.029486255421 	0.08541033042607474 	101359.8624142097
-0.6944444444444446 	300.0290739326906 	0.08421557599764534 	101359.3748521597
-0.6919419419419421 	300.0286619417771 	0.08301937059822039 	101358.8876802716
-0.6894394394394396 	300.0282431643429 	0.08180369668723542 	101358.3924795612
-0.6869369369369374 	300.0278110737022 	0.08055228258495287 	101357.8815358519
-0.6844344344344344 	300.0273665092432 	0.07926759859412646 	101357.3558479794
-0.6819319319319321 	300.0269176900438 	0.07797069934313913 	101356.8251377894
-0.6794294294294296 	300.0264730267576 	0.07668289037569577 	101356.2993473424
-0.6769269269269272 	300.0260332142523 	0.07540566792737038 	101355.7792918375
-0.6744244244244245 	300.0255899686176 	0.07411763332216446 	101355.255171704
-0.6719219219219222 	300.0251328538031 	0.0727920767210492 	101354.7146490085
-0.6694194194194195 	300.0246584489439 	0.07142049755830804 	101354.1536852192
-0.6669169169169172 	300.024173948694 	0.07002175756969084 	101353.5807933563
-0.6644144144144146 	300.0236919177721 	0.06862844976262177 	101353.01083047
-0.661911911911912 	300.023220324745 	0.06726109881521841 	101352.4532129158
-0.6594094094094097 	300.0227558822 	0.06591090671676832 	101351.9040467336
-0.656906906906907 	300.0222860179874 	0.06454492568536624 	101351.3484640115
-0.6544044044044046 	300.0217980437599 	0.06313004193834706 	101350.7714659125
-0.6519019019019021 	300.0212887106749 	0.06165799297652746 	101350.1692189093
-0.6493993993993996 	300.020767149002 	0.06015303716216341 	101349.5525246193
-0.6468968968968971 	300.0202490316215 	0.0586565902171678 	101348.939914196
-0.6443943943943946 	300.0197460615818 	0.05719952381350179 	101348.3452183503
-0.6418918918918921 	300.0192580144056 	0.05578108535158442 	101347.7681626066
-0.6393893893893897 	300.0187725351143 	0.05436827841165866 	101347.1941334842
-0.6368868868868871 	300.0182726128753 	0.0529157226287339 	101346.6030196372
-0.6343843843843846 	300.0177469387514 	0.05139332126425361 	101345.9814576524
-0.6318818818818821 	300.0171968984425 	0.04980498873557385 	101345.3310958145
-0.6293793793793795 	300.0166361841237 	0.04818763801191057 	101344.6681290429
-0.6268768768768773 	300.016083416188 	0.04659144241671903 	101344.0145712918
-0.6243743743743745 	300.0155520452447 	0.0450529213854873 	101343.3864169667
-0.6218718718718721 	300.0150435440941 	0.04357563712939224 	101342.7852336715
-0.6193693693693696 	300.0145463625657 	0.04212805476812813 	101342.1973034026
-0.6168668668668671 	300.0140413832123 	0.04065851582166949 	101341.6002076408
-0.6143643643643645 	300.0135111240282 	0.03911924714919564 	101340.9732467159
-0.6118618618618621 	300.0129474708986 	0.03748808648272242 	101340.3068059089
-0.6093593593593596 	300.0123553326901 	0.03577859655483856 	101339.6066984734
-0.6068568568568571 	300.0117507616087 	0.03403491657675649 	101338.8919087693
-0.6043543543543546 	300.0111545577749 	0.0323143256374699 	101338.187028795
-0.6018518518518521 	300.0105842979013 	0.03066539447067767 	101337.5128339803
-0.5993493493493496 	300.0100480456448 	0.02911051861493973 	101336.8788495801
-0.5968468468468471 	300.0095417901424 	0.02763864231429733 	101336.2803250421
-0.5943443443443446 	300.0090510175847 	0.02620939479505829 	101335.7000951054
-0.591841841841842 	300.0085553300336 	0.02476577766204571 	101335.1140420996
-0.5893393393393397 	300.0080342551707 	0.02325040895365802 	101334.4979644753
-0.5868368368368371 	300.0074725556441 	0.02162050513923798 	101333.8338533381
-0.5843343343343346 	300.0068638570499 	0.01985817179775341 	101333.1141802137
-0.5818318318318321 	300.0062119962835 	0.01797426162336131 	101332.3434889676
-0.5793293293293297 	300.0055300571129 	0.01600570142396749 	101331.5372540459
-0.5768268268268271 	300.0048375502361 	0.01400759341098955 	101330.71854507
-0.5743243243243245 	300.0041565544078 	0.01204245277623812 	101329.9134646366
-0.5718218218218221 	300.0035078896433 	0.01016962659460995 	101329.1466243854
-0.5693193193193196 	300.0029084442102 	0.008437644133222968 	101328.4379859125
-0.5668168168168171 	300.0023699405108 	0.006880439174568131 	101327.8014031736
-0.5643143143143147 	300.0018987646106 	0.005516704980047788 	101327.2444211929
-0.5618118118118121 	300.0014964942059 	0.004351323325776473 	101326.7689011071
-0.5593093093093094 	300.0011608311373 	0.003377987186757734 	101326.3721231767
-0.5568068068068072 	300.0008866913324 	0.002582301198599818 	101326.048074848
-0.5543043043043046 	300.0006672668417 	0.001944825929082138 	101325.7887064189
-0.551801801801802 	300.0004949447441 	0.001443726259022069 	101325.5850174285
-0.5492992992992995 	300.0003620273081 	0.001056855473477775 	101325.4279073596
-0.5467967967967969 	300.0002612404368 	0.0007632371372392867 	101325.308777271
-0.5442942942942947 	300.0001860504786 	0.0005439926274064132 	101325.2199036231
-0.5417917917917919 	300.0001308215675 	0.0003828096448905985 	101325.154624358
-0.5392892892892895 	300.0000908539629 	0.0002660642463073984 	101325.1073839953
-0.536786786786787 	300.0000623409851 	0.0001827059973202054 	101325.0736828335
-0.5342842842842846 	300.0000422774871 	0.0001240002198025642 	101325.0499688171
-0.531781781781782 	300.0000283454474 	8.320102132032386e-05 	101325.0335020225
-0.5292792792792794 	300.0000187941413 	5.520739278046253e-05 	101325.0222130474
-0.526776776776777 	300.0000123266507 	3.623659359777092e-05 	101325.0145689901
-0.5242742742742745 	300.0000079995904 	2.35337622401057e-05 	101325.0094546934
-0.521771771771772 	300.0000051380168 	1.512641933583024e-05 	101325.0060725146
-0.5192692692692695 	300.0000032667479 	9.624581800890339e-06 	101325.0038609448
-0.516766766766767 	300.0000020566033 	6.063529101216221e-06 	101325.0024306259
-0.5142642642642645 	300.0000012822063 	3.783172021228135e-06 	101325.0015154197
-0.511761761761762 	300.0000007918359 	2.338099721638677e-06 	101325.000935889
-0.5092592592592596 	300.0000004844937 	1.431610810082084e-06 	101325.0005726302
-0.506756756756757 	300.0000002937014 	8.686142167406301e-07 	101325.0003471849
-0.5042542542542544 	300.0000001765196 	5.223183800095752e-07 	101325.0002086211
-0.5017517517517521 	300.0000001051798 	3.113414357406022e-07 	101325.0001242613
-0.4992492492492494 	300.0000000621292 	1.839842559605751e-07 	101325.0000733773
-0.496746746746747 	300.0000000363489 	1.078116516757649e-07 	101325.000042963
-0.4942442442442445 	300.0000000210569 	6.264926965850128e-08 	101325.0000249452
-0.4917417417417421 	300.0000000121004 	3.611403558084105e-08 	101325.0000143643
-0.4892392392392395 	300.0000000069036 	2.064868224697744e-08 	101325.000008204
-0.486736736736737 	300.0000000038993 	1.171793358202891e-08 	101325.0000046469
-0.4842342342342345 	300.0000000021367 	6.594942084251767e-09 	101325.0000026099
-0.481731731731732 	300.0000000012699 	3.688523013184835e-09 	101325.0000014527
-0.4792292292292296 	300.0000000007071 	2.043519651218731e-09 	101325.0000008006
-0.4767267267267268 	300.0000000003141 	1.129091822211519e-09 	101325.0000004358
-0.4742242242242246 	300.0000000001889 	6.136155397663846e-10 	101325.0000002333
-0.471721721721722 	300.000000000055 	3.367210910192371e-10 	101325.0000001218
-0.4692192192192195 	300.0000000000187 	1.784506399760448e-10 	101325.000000061
-0.4667167167167169 	299.9999999999341 	9.854316348481222e-11 	101325.0000000279
-0.4642142142142145 	300.0000000000104 	5.095777961288311e-11 	101325.0000000102
-0.461711711711712 	300.0000000000223 	3.063397930096101e-11 	101325.0000000007
-0.4592092092092094 	300.0000000000182 	1.635598513829613e-11 	101324.9999999957
-0.456706706706707 	300.000000000055 	1.21223170711717e-11 	101324.9999999932
-0.4542042042042045 	299.9999999999327 	6.341380671726835e-12 	101324.9999999921
-0.451701701701702 	299.9999999999508 	5.696048282387525e-12 	101324.9999999914
-0.4491991991991995 	299.9999999999522 	2.792488825875546e-12 	101324.9999999911
-0.4466966966966969 	299.9999999999343 	4.04727510144421e-12 	101324.9999999911
-0.4441941941941945 	299.9999999999899 	1.460070384705282e-12 	101324.9999999909
-0.441691691691692 	299.9999999999511 	3.037331401896158e-12 	101324.9999999905
-0.4391891891891895 	299.999999999984 	2.994064264019813e-12 	101324.9999999903
-0.436686686686687 	299.9999999999658 	4.113081818655653e-12 	101324.9999999903
-0.4341841841841846 	299.9999999999947 	3.231809561139827e-12 	101324.9999999905
-0.431681681681682 	299.9999999999428 	4.556825037139393e-12 	101324.9999999905
-0.4291791791791794 	299.9999999998996 	1.837059502346359e-12 	101324.9999999908
-0.426676676676677 	299.9999999999079 	3.467130541982294e-12 	101324.9999999906
-0.4241741741741744 	299.9999999999637 	1.468071876162803e-12 	101324.9999999908
-0.421671671671672 	300.0000000000038 	2.333669636526126e-12 	101324.9999999906
-0.4191691691691694 	300.0000000000525 	9.806382453911659e-13 	101324.9999999906
-0.4166666666666669 	300.0000000000597 	2.407033771938121e-12 	101324.9999999908
-0.4141641641641645 	299.9999999999269 	8.466637850863125e-13 	101324.9999999909
-0.411661661661662 	300.0000000000057 	2.561847891284462e-12 	101324.9999999912
-0.4091591591591594 	300.0000000000028 	2.311315091354319e-12 	101324.9999999913
-0.406656656656657 	299.9999999999314 	4.168151494556108e-12 	101324.9999999915
-0.4041541541541545 	300.0000000000161 	1.999507266885094e-12 	101324.9999999913
-0.401651651651652 	299.9999999999159 	4.761805411934505e-12 	101324.9999999911
-0.3991491491491494 	299.9999999999977 	1.079521954449436e-12 	101324.9999999911
-0.396646646646647 	299.9999999999517 	5.491770017228699e-12 	101324.9999999911
-0.3941441441441444 	299.9999999999729 	1.595407761908598e-12 	101324.999999991
-0.3916416416416419 	299.9999999999268 	4.770882022546247e-12 	101324.9999999908
-0.3891391391391395 	299.9999999999563 	1.054454409883568e-12 	101324.9999999908
-0.3866366366366368 	299.9999999999546 	3.485098642067282e-12 	101324.9999999908
-0.3841341341341344 	299.9999999999976 	1.924517716335458e-12 	101324.999999991
-0.381631631631632 	299.9999999999501 	3.254252509027127e-12 	101324.9999999912
-0.3791291291291294 	300.000000000006 	2.100025264929222e-12 	101324.9999999911
-0.3766266266266269 	300.000000000023 	2.411081358414799e-12 	101324.9999999912
-0.3741241241241244 	300.0000000000245 	3.467800872464962e-12 	101324.9999999912
-0.371621621621622 	300.0000000000126 	1.621545289422656e-12 	101324.9999999911
-0.3691191191191194 	300.0000000000018 	3.783537142260457e-12 	101324.9999999911
-0.366616616616617 	300.000000000008 	8.727165090923169e-13 	101324.9999999912
-0.3641141141141143 	299.9999999999627 	3.896395360917115e-12 	101324.9999999912
-0.3616116116116119 	299.9999999999435 	2.078114460289422e-12 	101324.9999999913
-0.3591091091091095 	299.9999999999876 	3.391833930143941e-12 	101324.9999999913
-0.356606606606607 	299.9999999999798 	2.726722595137047e-12 	101324.9999999912
-0.3541041041041044 	299.9999999999835 	2.335215241081358e-12 	101324.999999991
-0.3516016016016019 	300.0000000000039 	3.5042733737789e-12 	101324.9999999908
-0.3490990990990994 	299.9999999999833 	1.51151380842707e-12 	101324.999999991
-0.346596596596597 	300.0000000000461 	3.213341436616456e-12 	101324.9999999912
-0.3440940940940944 	300.0000000000555 	1.269164670431304e-12 	101324.9999999915
-0.3415915915915919 	300.000000000018 	3.95584231003288e-12 	101324.9999999912
-0.3390890890890895 	299.9999999999778 	1.686109168316443e-12 	101324.9999999914
-0.3365865865865869 	300.0000000000216 	2.614013700999414e-12 	101324.9999999914
-0.3340840840840844 	300.0000000000077 	1.195716241641815e-12 	101324.9999999911
-0.3315815815815819 	300.0000000000279 	2.600338863662458e-12 	101324.9999999909
-0.3290790790790794 	300.0000000000147 	1.716879557177532e-12 	101324.9999999908
-0.3265765765765769 	299.9999999999241 	2.75570605192327e-12 	101324.999999991
-0.3240740740740744 	299.9999999999955 	8.273513417511411e-13 	101324.999999991
-0.3215715715715718 	300.0000000000069 	2.389193484153945e-12 	101324.9999999909
-0.3190690690690695 	299.9999999999218 	6.430087796133058e-13 	101324.9999999906
-0.3165665665665668 	299.9999999999873 	3.643752061132125e-12 	101324.9999999907
-0.3140640640640644 	300.0000000000038 	1.101985725233305e-12 	101324.9999999907
-0.311561561561562 	299.9999999999218 	5.070057367938702e-12 	101324.9999999909
-0.3090590590590593 	299.9999999999931 	8.23579186963854e-13 	101324.9999999912
-0.3065565565565568 	300.0000000000036 	6.918157219400602e-12 	101324.9999999909
-0.3040540540540545 	300.0000000000192 	1.651836010010193e-12 	101324.999999991
-0.3015515515515518 	300.0000000000372 	7.113500587515422e-12 	101324.9999999913
-0.2990490490490494 	299.9999999999432 	3.106785445052861e-12 	101324.9999999915
-0.2965465465465469 	299.9999999999816 	5.56509512833612e-12 	101324.9999999916
-0.2940440440440444 	299.9999999999999 	3.092757929306914e-12 	101324.9999999917
-0.2915415415415418 	299.9999999999985 	3.763094673051507e-12 	101324.9999999916
-0.2890390390390395 	299.9999999999977 	4.003918572653455e-12 	101324.9999999915
-0.2865365365365368 	299.9999999999746 	3.667571305658187e-12 	101324.9999999914
-0.2840340340340343 	299.9999999999995 	5.170080842184903e-12 	101324.9999999914
-0.2815315315315318 	299.9999999999242 	3.123090058025374e-12 	101324.9999999915
-0.2790290290290295 	299.9999999999557 	4.817629909689126e-12 	101324.9999999915
-0.2765265265265269 	300.0000000000109 	4.069204985402363e-12 	101324.9999999915
-0.2740240240240244 	300.0000000000358 	4.566212459660995e-12 	101324.9999999911
-0.2715215215215219 	300.0000000000168 	5.310415916483618e-12 	101324.9999999913
-0.2690190190190194 	299.9999999999409 	4.785680099447224e-12 	101324.9999999916
-0.2665165165165169 	299.9999999999951 	4.527828361309629e-12 	101324.9999999919
-0.2640140140140144 	299.9999999999619 	2.529818584829601e-12 	101324.9999999916
-0.2615115115115119 	300.0000000000015 	4.303558141314625e-12 	101324.9999999917
-0.2590090090090094 	299.999999999932 	2.711850246498266e-12 	101324.9999999917
-0.2565065065065068 	299.9999999999957 	3.674980310664657e-12 	101324.9999999918
-0.2540040040040044 	300.0000000000028 	4.136418354107089e-12 	101324.9999999915
-0.2515015015015019 	300.0000000000408 	3.609327295102123e-12 	101324.9999999914
-0.2489989989989994 	300.0000000000518 	5.621327848811832e-12 	101324.9999999916
-0.2464964964964968 	299.9999999999927 	2.6567954819844e-12 	101324.9999999916
-0.2439939939939944 	299.9999999999997 	5.875557007985902e-12 	101324.999999992
-0.2414914914914919 	299.9999999999729 	1.207218357708394e-12 	101324.9999999916
-0.2389889889889893 	300.000000000004 	4.842739669383122e-12 	101324.9999999917
-0.2364864864864869 	300.000000000025 	9.734037322443755e-13 	101324.9999999917
-0.2339839839839843 	299.9999999999199 	5.767096572538667e-12 	101324.9999999921
-0.2314814814814819 	299.9999999999804 	1.545950568908489e-12 	101324.9999999918
-0.2289789789789792 	299.9999999999194 	4.737279341010825e-12 	101324.9999999916
-0.2264764764764769 	299.9999999999425 	1.544186066924846e-12 	101324.9999999913
-0.2239739739739743 	299.9999999999575 	2.843829881671373e-12 	101324.9999999913
-0.2214714714714718 	299.9999999999385 	1.216831579541707e-12 	101324.9999999916
-0.2189689689689693 	299.9999999999704 	5.48933761119539e-13 	101324.9999999916
-0.2164664664664669 	299.9999999999781 	1.286293469996816e-12 	101324.9999999917
-0.2139639639639643 	299.9999999999234 	2.981887839065802e-13 	101324.9999999917
-0.2114614614614618 	299.9999999999727 	9.397351774917174e-13 	101324.9999999917
-0.2089589589589593 	299.9999999999953 	1.941235926794419e-13 	101324.9999999919
-0.2064564564564568 	299.9999999999948 	2.784772509609971e-13 	101324.9999999917
-0.2039539539539543 	299.9999999999044 	5.348757269513726e-13 	101324.9999999919
-0.2014514514514518 	299.9999999999471 	1.216595728411278e-12 	101324.9999999918
-0.1989489489489494 	299.9999999999769 	1.816100746836198e-12 	101324.9999999918
-0.1964464464464468 	299.9999999999993 	1.691694603467041e-12 	101324.9999999918
-0.1939439439439443 	299.9999999999883 	2.055785670172252e-12 	101324.9999999915
-0.1914414414414418 	299.9999999999122 	8.810522140899521e-13 	101324.9999999913
-0.1889389389389393 	300.0000000000053 	1.80378005024123e-12 	101324.9999999912
-0.1864364364364368 	300.0000000000425 	6.206538061021031e-13 	101324.9999999911
-0.1839339339339343 	299.999999999969 	2.651141633175765e-12 	101324.9999999911
-0.1814314314314318 	299.9999999999922 	1.468752555512375e-12 	101324.9999999908
-0.1789289289289293 	299.9999999999007 	4.163762671085677e-12 	101324.9999999909
-0.1764264264264268 	299.9999999999775 	1.618188161002331e-12 	101324.9999999909
-0.1739239239239243 	299.9999999998936 	5.012479143997076e-12 	101324.9999999909
-0.1714214214214218 	299.9999999999873 	7.521364777049949e-13 	101324.9999999906
-0.1689189189189193 	299.9999999999542 	5.859527012606866e-12 	101324.9999999906
-0.1664164164164168 	300.0000000000074 	1.510094000445218e-12 	101324.9999999906
-0.1639139139139143 	299.9999999999885 	6.509501350931359e-12 	101324.9999999908
-0.1614114114114118 	300.0000000000324 	3.530250240367836e-12 	101324.9999999906
-0.1589089089089093 	299.9999999999983 	7.579165894519293e-12 	101324.9999999909
-0.1564064064064068 	299.9999999999851 	4.703404814745295e-12 	101324.9999999908
-0.1539039039039043 	299.9999999999927 	7.896203777333053e-12 	101324.9999999912
-0.1514014014014018 	300.0000000000276 	3.81737652170535e-12 	101324.9999999912
-0.1488988988988993 	299.999999999993 	7.970334333429256e-12 	101324.9999999912
-0.1463963963963968 	300.0000000000002 	2.556194495911652e-12 	101324.9999999909
-0.1438938938938943 	299.999999999949 	6.710950220262676e-12 	101324.9999999905
-0.1413913913913918 	299.9999999999218 	8.52979426213984e-13 	101324.9999999904
-0.1388888888888893 	299.9999999999775 	6.179438809247768e-12 	101324.99999999
-0.1363863863863868 	299.9999999998869 	1.618408494894473e-12 	101324.9999999901
-0.1338838838838843 	299.9999999999134 	4.71981430074176e-12 	101324.9999999902
-0.1313813813813818 	299.9999999999941 	9.273502526126799e-13 	101324.9999999905
-0.1288788788788793 	299.9999999999707 	4.33017510203566e-12 	101324.9999999904
-0.1263763763763768 	299.9999999999704 	1.349787058235148e-12 	101324.9999999906
-0.1238738738738743 	299.999999999917 	4.543612507574583e-12 	101324.9999999907
-0.1213713713713717 	299.9999999999768 	3.577954966903041e-13 	101324.9999999908
-0.1188688688688693 	300.0000000000071 	4.578993785878334e-12 	101324.9999999906
-0.1163663663663668 	299.9999999999022 	6.514884641274989e-13 	101324.9999999905
-0.1138638638638643 	299.9999999999888 	5.458682434483472e-12 	101324.9999999905
-0.1113613613613618 	299.9999999999818 	3.022310361707142e-13 	101324.9999999905
-0.1088588588588592 	299.9999999999716 	5.871040480044994e-12 	101324.9999999907
-0.1063563563563568 	299.9999999999429 	9.220943017272895e-13 	101324.9999999908
-0.1038538538538543 	299.9999999999739 	4.392149791810926e-12 	101324.999999991
-0.1013513513513517 	300.0000000000181 	3.838236140082853e-13 	101324.9999999911
-0.09884884884884926 	299.999999999931 	4.444553432264025e-12 	101324.9999999909
-0.09634634634634676 	299.9999999998923 	1.313144173585827e-12 	101324.999999991
-0.09384384384384425 	299.9999999999274 	3.102604904098115e-12 	101324.9999999911
-0.09134134134134177 	300.0000000000277 	9.759964059476267e-13 	101324.9999999909
-0.08883883883883925 	300.000000000008 	3.209865882295629e-12 	101324.9999999912
-0.08633633633633674 	299.9999999999531 	1.736968197139874e-12 	101324.9999999914
-0.08383383383383426 	300.0000000000086 	2.69536949618598e-12 	101324.9999999911
-0.08133133133133173 	299.9999999999586 	2.712976985995856e-12 	101324.9999999909
-0.07882882882882926 	299.9999999998831 	2.666662766077256e-12 	101324.9999999904
-0.07632632632632676 	299.999999999954 	1.722465070549074e-12 	101324.9999999904
-0.07382382382382424 	299.9999999998902 	1.40601604466416e-12 	101324.9999999907
-0.07132132132132173 	300.0000000000163 	8.074789046131534e-13 	101324.9999999909
-0.06881881881881925 	299.9999999999648 	4.886306905030947e-13 	101324.9999999913
-0.06631631631631671 	299.9999999998922 	1.512381632970021e-13 	101324.9999999912
-0.06381381381381425 	299.9999999999531 	8.829090647398562e-14 	101324.9999999913
-0.06131131131131173 	299.9999999999544 	3.812355893238606e-13 	101324.9999999918
-0.05880880880880923 	299.9999999999088 	3.318237183882636e-13 	101324.9999999918
-0.05630630630630672 	299.99999999997 	4.079349736177843e-13 	101324.9999999916
-0.05380380380380424 	300.0000000000186 	9.660011995943293e-13 	101324.9999999914
-0.05130130130130173 	300.0000000000153 	1.167138007491413e-12 	101324.9999999917
-0.04879879879879922 	299.9999999999368 	1.156910600519922e-12 	101324.9999999915
-0.04629629629629672 	299.9999999999258 	5.912419924351776e-13 	101324.9999999914
-0.04379379379379422 	299.9999999999125 	1.098710670360206e-12 	101324.9999999914
-0.04129129129129173 	299.9999999999806 	5.585102830938957e-13 	101324.9999999912
-0.03878878878878922 	299.9999999999869 	9.031075159354978e-13 	101324.9999999909
-0.03628628628628671 	299.9999999999854 	3.06322049377445e-13 	101324.9999999908
-0.03378378378378422 	299.9999999999186 	1.435938544735193e-12 	101324.9999999908
-0.03128128128128172 	299.9999999999581 	8.904397882570645e-13 	101324.9999999908
-0.02877877877877922 	299.9999999999591 	9.809705181747249e-13 	101324.9999999908
-0.0262762762762767 	299.9999999998955 	1.219281972391744e-13 	101324.9999999908
-0.02377377377377422 	300.0000000000218 	3.956450231632082e-13 	101324.9999999906
-0.0212712712712717 	299.9999999998986 	1.063596795693038e-12 	101324.9999999907
-0.01876876876876921 	299.9999999999611 	9.158181440588194e-13 	101324.9999999906
-0.01626626626626671 	300.0000000000143 	1.28733491956304e-12 	101324.9999999905
-0.0137637637637642 	299.9999999999652 	4.21303528842671e-13 	101324.9999999907
-0.0112612612612617 	300.0000000000224 	4.299962906525602e-14 	101324.9999999909
-0.008758758758759198 	299.9999999999986 	2.108261762703221e-13 	101324.9999999908
-0.006256256256256697 	299.9999999998785 	3.832092329663547e-13 	101324.9999999908
-0.003753753753754195 	299.9999999999523 	9.047400782331431e-14 	101324.9999999907
-0.001251251251251693 	299.9999999999266 	6.10932466238523e-13 	101324.9999999906
0.00125125125125081 	299.9999999999496 	2.066735026029064e-13 	101324.9999999909
0.003753753753753312 	299.9999999999585 	8.223890656274228e-13 	101324.999999991
0.006256256256255817 	299.9999999998854 	8.905370898917844e-13 	101324.9999999912
0.008758758758758317 	299.9999999999832 	1.595823447176337e-12 	101324.9999999913
0.01126126126126082 	300.0000000000009 	1.920915550289252e-12 	101324.9999999914
0.01376376376376332 	299.9999999999692 	1.611556795783825e-12 	101324.9999999919
0.01626626626626582 	300.0000000000123 	1.254083314309774e-12 	101324.9999999916
0.01876876876876833 	299.9999999999517 	1.122526295516192e-12 	101324.9999999916
0.02127127127127083 	299.9999999999692 	1.112855849976399e-12 	101324.9999999913
0.02377377377377332 	299.9999999999941 	1.069541681853721e-12 	101324.9999999911
0.02627627627627583 	299.9999999998938 	1.365588341164536e-12 	101324.9999999911
0.02877877877877833 	300.0000000000052 	3.871278092350183e-13 	101324.999999991
0.03128128128128083 	299.9999999999456 	9.947227251114834e-13 	101324.9999999909
0.03378378378378333 	299.9999999998936 	8.646597010650457e-13 	101324.9999999907
0.03628628628628584 	299.999999999969 	5.165624213101055e-13 	101324.9999999907
0.03878878878878834 	299.9999999999811 	2.652536542045793e-13 	101324.9999999909
0.04129129129129084 	299.9999999999769 	9.118774684461434e-14 	101324.9999999912
0.04379379379379333 	299.9999999999492 	6.539647218655565e-13 	101324.9999999913
0.04629629629629585 	299.9999999998822 	7.471586399299417e-13 	101324.9999999914
0.04879879879879834 	299.9999999999536 	1.374614058126158e-12 	101324.9999999913
0.05130130130130085 	300.0000000000114 	1.573265921488124e-12 	101324.9999999913
0.05380380380380335 	300.0000000000238 	2.004388198471353e-12 	101324.9999999912
0.05630630630630584 	299.9999999999956 	1.728409748294205e-12 	101324.999999991
0.05880880880880836 	299.9999999999173 	1.641588311510566e-12 	101324.999999991
0.06131131131131085 	299.9999999999645 	1.292199424188434e-12 	101324.9999999912
0.06381381381381336 	299.9999999999612 	1.260696456102157e-12 	101324.999999991
0.06631631631631586 	299.9999999998867 	1.271908086339246e-12 	101324.9999999909
0.06881881881881835 	299.9999999999538 	2.605095646077846e-12 	101324.9999999911
0.07132132132132088 	299.9999999999829 	2.045857728164497e-12 	101324.999999991
0.07382382382382337 	299.9999999998922 	2.317054967568878e-12 	101324.9999999912
0.07632632632632587 	299.9999999999683 	2.193578183394882e-12 	101324.999999991
0.07882882882882837 	299.9999999999352 	1.927014975086121e-12 	101324.9999999912
0.08133133133133086 	299.9999999999797 	2.129115479800314e-12 	101324.9999999914
0.08383383383383337 	299.9999999999822 	2.48762231950281e-12 	101324.9999999917
0.08633633633633589 	299.999999999897 	2.872166230500471e-12 	101324.9999999919
0.08883883883883838 	300.0000000000055 	3.26607085886969e-12 	101324.9999999918
0.09134134134134086 	299.9999999999787 	2.172031350923667e-12 	101324.9999999918
0.09384384384384339 	299.9999999998857 	2.51371983168222e-12 	101324.9999999914
0.09634634634634588 	299.9999999999634 	2.118941755597859e-12 	101324.9999999913
0.09884884884884838 	299.999999999977 	2.07969735893855e-12 	101324.9999999911
0.1013513513513509 	300.0000000000158 	2.801785167782665e-12 	101324.9999999912
0.1038538538538534 	299.9999999999558 	2.929511193750558e-12 	101324.9999999912
0.1063563563563559 	300.0000000000069 	2.802527798199875e-12 	101324.9999999911
0.1088588588588584 	300.0000000000284 	2.501873570712485e-12 	101324.9999999911
0.1113613613613609 	299.9999999999164 	2.490110289526118e-12 	101324.9999999911
0.1138638638638634 	299.999999999943 	2.869250022541466e-12 	101324.9999999911
0.1163663663663659 	299.9999999999483 	3.488321394993265e-12 	101324.9999999913
0.1188688688688684 	299.999999999974 	4.283219546280869e-12 	101324.9999999911
0.1213713713713709 	300.0000000000006 	4.297191346136414e-12 	101324.9999999912
0.1238738738738734 	299.9999999999261 	5.031212916460958e-12 	101324.9999999913
0.1263763763763759 	299.9999999999826 	5.244398499127015e-12 	101324.9999999911
0.1288788788788784 	299.9999999999812 	4.973303857039791e-12 	101324.9999999913
0.1313813813813809 	299.9999999999817 	4.068653586783068e-12 	101324.9999999911
0.1338838838838834 	299.9999999999781 	4.201865014189905e-12 	101324.9999999908
0.1363863863863859 	300.0000000000132 	3.597745429015025e-12 	101324.9999999908
0.1388888888888884 	300.0000000000431 	4.370927874164397e-12 	101324.9999999906
0.1413913913913909 	300.0000000000055 	3.1752552823617e-12 	101324.9999999906
0.1438938938938934 	299.999999999993 	4.362058028644998e-12 	101324.9999999907
0.1463963963963959 	299.999999999952 	3.870494292896893e-12 	101324.9999999906
0.1488988988988985 	299.9999999999069 	5.469049180330552e-12 	101324.9999999906
0.1514014014014009 	299.9999999999645 	3.336748101453405e-12 	101324.9999999907
0.1539039039039035 	299.9999999999632 	4.821005377232609e-12 	101324.9999999907
0.1564064064064059 	299.9999999999274 	1.858956067715318e-12 	101324.9999999905
0.1589089089089084 	299.9999999999729 	4.485202411710848e-12 	101324.9999999902
0.1614114114114109 	299.9999999999685 	1.880568159284373e-12 	101324.9999999902
0.1639139139139134 	299.9999999999026 	3.551843691891499e-12 	101324.9999999905
0.166416416416416 	300.0000000000089 	2.555983548933989e-12 	101324.9999999903
0.1689189189189185 	300.0000000000306 	2.114975081994147e-12 	101324.9999999904
0.1714214214214209 	300.0000000000024 	2.34783126266646e-12 	101324.9999999904
0.1739239239239235 	299.9999999999854 	8.85583722688795e-13 	101324.9999999905
0.1764264264264259 	299.9999999999699 	3.112227628087845e-12 	101324.9999999902
0.1789289289289284 	300.0000000000046 	5.274241817619907e-13 	101324.9999999902
0.181431431431431 	299.9999999999607 	2.868530801968104e-12 	101324.9999999904
0.1839339339339334 	299.9999999999678 	1.066627806427155e-12 	101324.9999999901
0.186436436436436 	299.9999999999234 	2.730141729702903e-12 	101324.9999999902
0.1889389389389385 	299.9999999999757 	1.529402599340514e-12 	101324.9999999902
0.191441441441441 	299.9999999999754 	1.322423638064197e-12 	101324.9999999904
0.1939439439439434 	299.9999999999163 	2.543664403559144e-12 	101324.9999999902
0.196446446446446 	299.9999999999478 	5.552717873367138e-13 	101324.9999999903
0.1989489489489485 	299.9999999999644 	2.489578712046178e-12 	101324.9999999906
0.2014514514514509 	299.9999999999799 	1.073599752248139e-12 	101324.9999999904
0.2039539539539535 	299.9999999999952 	3.0498914793755e-12 	101324.9999999905
0.2064564564564559 	299.9999999999504 	2.51039380558161e-12 	101324.9999999903
0.2089589589589585 	299.9999999999858 	3.250284310793188e-12 	101324.9999999905
0.211461461461461 	299.9999999999246 	3.187241775772071e-12 	101324.9999999904
0.2139639639639635 	299.9999999999773 	2.741663631511123e-12 	101324.9999999904
0.2164664664664659 	299.9999999999983 	3.964596975707689e-12 	101324.9999999903
0.2189689689689684 	299.9999999999962 	2.492528388453703e-12 	101324.9999999903
0.221471471471471 	299.9999999999941 	4.684924682137169e-12 	101324.9999999902
0.2239739739739735 	299.9999999999555 	1.909959586689129e-12 	101324.99999999
0.226476476476476 	299.9999999999764 	2.695040455272756e-12 	101324.99999999
0.2289789789789785 	299.9999999999939 	2.170115456799437e-12 	101324.9999999901
0.231481481481481 	299.9999999999832 	3.204225392345387e-12 	101324.9999999901
0.2339839839839835 	299.9999999999819 	4.318590528794197e-12 	101324.9999999897
0.236486486486486 	300.0000000000297 	2.926340809656453e-12 	101324.9999999898
0.2389889889889885 	300.0000000000041 	3.861874451561037e-12 	101324.9999999901
0.241491491491491 	299.9999999999164 	1.735288804694526e-12 	101324.9999999904
0.2439939939939935 	299.999999999975 	4.318016836081466e-12 	101324.9999999907
0.246496496496496 	299.999999999993 	1.607399082822639e-12 	101324.9999999908
0.2489989989989985 	300.0000000000393 	3.165994275192336e-12 	101324.9999999911
0.251501501501501 	300.0000000000339 	1.96013471383544e-12 	101324.9999999912
0.2540040040040035 	299.9999999999928 	1.949755280359754e-12 	101324.9999999911
0.256506506506506 	300.0000000000335 	1.846505893222488e-12 	101324.9999999909
0.2590090090090086 	299.9999999999102 	6.799542779641146e-13 	101324.9999999906
0.261511511511511 	300.0000000000003 	3.178576671588442e-12 	101324.9999999907
0.2640140140140135 	299.999999999989 	1.172760552872171e-12 	101324.9999999906
0.2665165165165161 	299.9999999999279 	2.79902811825184e-12 	101324.9999999907
0.2690190190190185 	300.0000000000137 	1.317579393059368e-12 	101324.9999999906
0.271521521521521 	300.0000000000184 	1.357146497662271e-12 	101324.9999999905
0.2740240240240235 	300.0000000000183 	1.143501309623503e-12 	101324.9999999903
0.276526526526526 	300.0000000000089 	3.694462988273467e-13 	101324.9999999901
0.2790290290290286 	299.99999999994 	1.392199776121399e-12 	101324.9999999903
0.281531531531531 	299.999999999925 	5.739660002695113e-13 	101324.99999999
0.2840340340340335 	299.9999999999809 	1.09341111118691e-12 	101324.9999999901
0.2865365365365361 	299.9999999999574 	3.528749659698992e-13 	101324.99999999
0.2890390390390385 	300.000000000001 	2.44174248837209e-14 	101324.9999999903
0.291541541541541 	300.0000000000001 	3.161902929037897e-13 	101324.9999999906
0.2940440440440436 	299.9999999999916 	1.205698656431504e-12 	101324.9999999907
0.296546546546546 	299.999999999992 	1.606114087319151e-12 	101324.9999999907
0.2990490490490486 	299.9999999999363 	1.474865293819361e-12 	101324.9999999907
0.3015515515515511 	300.0000000000342 	3.800784788264909e-12 	101324.9999999907
0.3040540540540535 	299.9999999999965 	2.226907335335797e-12 	101324.9999999908
0.3065565565565562 	299.9999999999982 	4.038686121243114e-12 	101324.9999999908
0.3090590590590585 	299.9999999999896 	2.936714194561775e-12 	101324.9999999905
0.3115615615615611 	299.99999999994 	2.522024676146688e-12 	101324.9999999906
0.3140640640640635 	300.0000000000094 	2.233599589340223e-12 	101324.9999999906
0.316566566566566 	299.9999999999969 	1.713988222206735e-12 	101324.9999999905
0.3190690690690687 	299.999999999952 	1.715897579846305e-12 	101324.9999999905
0.3215715715715711 	300.0000000000119 	1.797100140888175e-12 	101324.9999999903
0.3240740740740735 	299.9999999999916 	1.297608447304462e-12 	101324.9999999903
0.326576576576576 	299.9999999998923 	2.536490635057093e-12 	101324.9999999904
0.3290790790790786 	300.0000000000113 	9.984111467418681e-13 	101324.9999999905
0.3315815815815811 	300.0000000000376 	1.787477231194161e-12 	101324.9999999904
0.3340840840840836 	299.999999999988 	6.015082918311261e-13 	101324.9999999906
0.3365865865865861 	300.0000000000548 	1.1922763342149e-12 	101324.9999999902
0.3390890890890886 	300.0000000000482 	1.139268020402948e-12 	101324.9999999902
0.3415915915915911 	299.9999999999997 	8.020387886777913e-13 	101324.99999999
0.3440940940940935 	299.9999999999476 	9.516738133586358e-13 	101324.9999999903
0.3465965965965962 	300.0000000000379 	8.676726330265858e-13 	101324.9999999904
0.3490990990990985 	300.0000000000292 	5.771110818492975e-13 	101324.9999999904
0.3516016016016011 	299.9999999999854 	5.7976250462775e-13 	101324.9999999901
0.3541041041041035 	300.0000000000019 	1.267555442390717e-12 	101324.9999999898
0.3566066066066061 	299.9999999999574 	1.91647667537151e-12 	101324.9999999898
0.3591091091091085 	299.9999999999177 	7.027794520745269e-13 	101324.9999999898
0.3616116116116112 	299.9999999999392 	2.253926061645727e-12 	101324.99999999
0.3641141141141137 	299.9999999999294 	1.763700597314287e-12 	101324.9999999903
0.3666166166166161 	299.9999999999179 	2.434710082504023e-12 	101324.9999999904
0.3691191191191185 	300.0000000000383 	2.524432049601467e-12 	101324.9999999901
0.371621621621621 	300.000000000014 	2.922505457040737e-12 	101324.9999999901
0.3741241241241237 	300.0000000000537 	1.784623607595774e-12 	101324.99999999
0.3766266266266261 	300.0000000000315 	2.393022650949469e-12 	101324.9999999898
0.3791291291291286 	299.9999999999845 	8.261998254813635e-13 	101324.9999999898
0.3816316316316311 	299.9999999999162 	2.173341781035078e-12 	101324.99999999
0.3841341341341336 	300.0000000000094 	1.61430539887257e-12 	101324.99999999
0.3866366366366362 	299.9999999999986 	7.799792142462987e-13 	101324.9999999899
0.3891391391391387 	299.9999999999573 	1.721330108503351e-12 	101324.9999999901
0.391641641641641 	299.9999999999925 	4.215076963116194e-13 	101324.9999999901
0.3941441441441436 	300.0000000000065 	1.557801591616607e-12 	101324.9999999904
0.3966466466466462 	299.9999999999959 	3.734260139363136e-13 	101324.9999999905
0.3991491491491486 	299.9999999999403 	8.827816208445477e-13 	101324.9999999906
0.4016516516516512 	299.9999999999069 	6.937684078438555e-13 	101324.9999999904
0.4041541541541536 	299.9999999999546 	1.097150266181596e-12 	101324.99999999
0.4066566566566561 	299.9999999999464 	5.529841844800275e-13 	101324.9999999898
0.4091591591591587 	299.999999999986 	1.325964199984317e-12 	101324.9999999901
0.4116616616616612 	299.9999999999996 	2.805726342261966e-13 	101324.9999999903
0.4141641641641635 	300.0000000000431 	1.055859003813111e-12 	101324.9999999904
0.4166666666666662 	299.9999999999964 	1.226016054148126e-12 	101324.9999999907
0.4191691691691687 	299.9999999999429 	1.045292197499661e-12 	101324.9999999907
0.421671671671671 	300.0000000000124 	3.147782141872707e-12 	101324.9999999909
0.4241741741741737 	299.9999999999778 	1.320808537878633e-12 	101324.9999999908
0.4266766766766761 	299.9999999999533 	3.444517927495442e-12 	101324.9999999907
0.4291791791791785 	300.0000000000175 	2.302973797625477e-12 	101324.9999999906
0.4316816816816812 	300.0000000000098 	3.639867949221273e-12 	101324.9999999904
0.4341841841841836 	299.999999999985 	2.711115760619857e-12 	101324.9999999905
0.4366866866866862 	299.9999999999191 	2.138735217211686e-12 	101324.9999999906
0.4391891891891885 	299.9999999999883 	1.64723611400846e-12 	101324.9999999909
0.4416916916916913 	299.9999999999868 	2.073075625788464e-12 	101324.9999999909
0.4441941941941936 	299.9999999999879 	1.277746412408137e-12 	101324.9999999906
0.4466966966966961 	299.9999999999119 	1.39054472703376e-12 	101324.9999999903
0.4491991991991987 	299.9999999999829 	7.213259614048401e-13 	101324.99999999
0.4517017017017012 	299.9999999999826 	1.137960185113228e-12 	101324.9999999897
0.4542042042042035 	299.9999999999965 	9.508596369116781e-13 	101324.9999999892
0.4567067067067062 	299.9999999999986 	4.792399540444322e-13 	101324.9999999893
0.4592092092092087 	299.9999999999241 	8.460854852089695e-13 	101324.9999999891
0.4617117117117112 	300.0000000000229 	6.999975031308372e-13 	101324.9999999891
0.4642142142142137 	299.9999999999628 	3.24352667795333e-13 	101324.9999999893
0.4667167167167162 	299.9999999999918 	3.123841004204695e-13 	101324.9999999893
0.4692192192192187 	299.9999999999563 	4.221376051881613e-13 	101324.999999989
0.4717217217217212 	300.0000000000152 	7.727565024650752e-13 	101324.9999999893
0.4742242242242236 	299.9999999999636 	1.535763100809536e-12 	101324.9999999896
0.4767267267267262 	299.9999999999586 	8.476021448525772e-13 	101324.9999999899
0.4792292292292287 	300.0000000000165 	1.010230255321772e-12 	101324.9999999901
0.4817317317317312 	300.00000000003 	1.277935260239581e-12 	101324.9999999902
0.4842342342342336 	299.9999999999797 	6.705870219338588e-13 	101324.9999999902
0.4867367367367362 	299.9999999999523 	9.9103007835902e-13 	101324.9999999902
0.4892392392392387 	300.0000000000296 	6.070773348005921e-13 	101324.9999999899
0.4917417417417412 	300.0000000000056 	1.784018152148735e-12 	101324.9999999899
0.4942442442442437 	299.9999999999072 	8.044776166951834e-13 	101324.9999999897
0.4967467467467462 	299.9999999999308 	1.423429713114188e-12 	101324.9999999899
0.4992492492492487 	299.9999999999181 	1.037065740360888e-12 	101324.9999999899
0.5017517517517511 	299.9999999999541 	5.445306591504924e-13 	101324.9999999901
0.5042542542542537 	299.9999999999632 	1.647864644953524e-13 	101324.9999999904
0.5067567567567562 	299.9999999999434 	3.198832102765206e-13 	101324.9999999902
0.5092592592592589 	299.9999999999662 	7.397758513291517e-13 	101324.99999999
0.5117617617617611 	299.9999999999595 	1.635606095112138e-12 	101324.9999999899
0.5142642642642637 	299.9999999999828 	1.971445264343755e-12 	101324.9999999901
0.5167667667667663 	299.9999999999707 	2.735712422018152e-12 	101324.99999999
0.5192692692692688 	299.9999999999176 	3.177426607846554e-12 	101324.9999999901
0.5217717717717714 	299.9999999999395 	3.526826744990483e-12 	101324.99999999
0.5242742742742736 	299.9999999999424 	3.129687874329171e-12 	101324.9999999899
0.5267767767767763 	299.9999999999574 	3.10866722570675e-12 	101324.99999999
0.5292792792792789 	299.9999999999352 	2.121150311562246e-12 	101324.9999999901
0.5317817817817813 	299.9999999999104 	2.595005730387989e-12 	101324.9999999901
0.5342842842842837 	300.0000000000118 	1.177341281298436e-12 	101324.99999999
0.5367867867867864 	299.9999999999999 	1.708559647822197e-12 	101324.9999999901
0.5392892892892888 	299.9999999999596 	1.018535492159652e-12 	101324.9999999905
0.5417917917917912 	300.0000000000062 	1.408850676888522e-12 	101324.9999999907
0.5442942942942938 	299.9999999999844 	5.284662298752412e-13 	101324.9999999907
0.5467967967967964 	299.9999999999496 	1.569009862117004e-12 	101324.9999999906
0.5492992992992988 	299.9999999999422 	7.976547984943301e-13 	101324.9999999908
0.5518018018018012 	299.9999999999352 	1.278367700431136e-12 	101324.9999999907
0.5543043043043039 	300.0000000000228 	9.362129115797781e-13 	101324.9999999908
0.5568068068068063 	299.9999999999932 	1.863697231305439e-12 	101324.9999999908
0.5593093093093087 	299.999999999907 	9.837018768799321e-13 	101324.9999999908
0.5618118118118114 	299.9999999999623 	2.405582841195597e-12 	101324.9999999906
0.5643143143143137 	299.9999999999501 	1.190533921056371e-12 	101324.9999999904
0.5668168168168163 	299.999999999991 	1.708216596087601e-12 	101324.9999999905
0.5693193193193188 	300.0000000000318 	1.538997310268894e-12 	101324.9999999905
0.5718218218218213 	300.0000000000258 	1.102619407704044e-12 	101324.9999999905
0.5743243243243239 	300.0000000000047 	2.060235294179939e-12 	101324.9999999906
0.5768268268268262 	300.0000000000024 	1.81868103111145e-12 	101324.9999999908
0.5793293293293288 	299.9999999999449 	2.506549166968356e-12 	101324.9999999907
0.5818318318318314 	299.9999999999189 	2.406664090231889e-12 	101324.999999991
0.5843343343343338 	299.9999999999815 	3.640761493452957e-12 	101324.9999999912
0.5868368368368363 	299.9999999999785 	1.897618784295791e-12 	101324.9999999913
0.5893393393393387 	299.9999999999515 	3.518016412340178e-12 	101324.9999999911
0.5918418418418413 	299.9999999999388 	1.477778009204676e-12 	101324.9999999909
0.5943443443443439 	300.0000000000108 	3.464817192022985e-12 	101324.9999999908
0.5968468468468463 	300.0000000000104 	1.717057415927105e-12 	101324.9999999907
0.5993493493493487 	300.0000000000321 	2.721394066547944e-12 	101324.9999999905
0.6018518518518514 	299.9999999999815 	1.164361249619985e-12 	101324.9999999908
0.6043543543543537 	299.9999999999945 	2.353788265401887e-12 	101324.9999999911
0.6068568568568564 	299.9999999999825 	7.482173602040374e-13 	101324.9999999911
0.6093593593593587 	299.999999999933 	1.801944522107296e-12 	101324.999999991
0.6118618618618614 	299.9999999999262 	1.133090482808595e-12 	101324.9999999909
0.6143643643643638 	300.0000000000253 	2.64776382455126e-12 	101324.9999999912
0.6168668668668662 	299.9999999999908 	1.120692325830152e-12 	101324.9999999914
0.6193693693693688 	299.9999999999549 	2.463665678924544e-12 	101324.9999999914
0.6218718718718714 	299.9999999999653 	1.260039325581196e-12 	101324.9999999916
0.6243743743743737 	299.9999999999359 	1.725741952462878e-12 	101324.9999999916
0.6268768768768762 	299.9999999999281 	6.496752406301312e-13 	101324.9999999916
0.629379379379379 	299.9999999999548 	1.535581321245155e-12 	101324.9999999915
0.6318818818818812 	299.9999999999835 	1.435060351883939e-12 	101324.9999999913
0.6343843843843838 	300.0000000000175 	8.889017360671878e-13 	101324.9999999914
0.6368868868868864 	299.9999999999809 	1.747747855722026e-12 	101324.9999999914
0.6393893893893888 	299.9999999999249 	1.949139598323982e-12 	101324.9999999913
0.6418918918918912 	300.000000000007 	3.07588075254912e-12 	101324.9999999913
0.6443943943943939 	299.999999999985 	3.337536803986398e-12 	101324.9999999914
0.6468968968968963 	299.9999999999827 	3.749402254531291e-12 	101324.9999999914
0.6493993993993988 	299.9999999999736 	2.601089564866394e-12 	101324.9999999911
0.6519019019019012 	299.9999999999799 	3.472967171744399e-12 	101324.9999999911
0.6544044044044038 	299.999999999909 	2.066161238291614e-12 	101324.9999999911
0.6569069069069065 	299.9999999999528 	3.253448553297776e-12 	101324.9999999913
0.6594094094094087 	299.9999999999615 	1.359112502326305e-12 	101324.9999999913
0.6619119119119113 	299.9999999999543 	3.168421957787806e-12 	101324.9999999916
0.664414414414414 	300.0000000000007 	1.119009386447411e-12 	101324.9999999917
0.6669169169169162 	300.0000000000229 	2.491743446168954e-12 	101324.9999999919
0.6694194194194188 	299.9999999999876 	1.165206711888992e-12 	101324.9999999919
0.6719219219219214 	299.9999999999221 	2.498479239496181e-12 	101324.9999999917
0.674424424424424 	299.9999999999759 	9.055957026108638e-13 	101324.9999999916
0.6769269269269262 	299.9999999999237 	1.598654881081182e-12 	101324.9999999916
0.679429429429429 	300.0000000000067 	1.034051634530798e-12 	101324.9999999918
0.6819319319319311 	299.999999999981 	2.061738498616809e-12 	101324.9999999917
0.6844344344344341 	299.9999999999894 	9.481524555010877e-13 	101324.9999999919
0.686936936936936 	299.9999999999865 	1.583114949423848e-12 	101324.999999992
0.6894394394394392 	299.9999999999837 	8.469906430503169e-13 	101324.999999992
0.6919419419419413 	299.9999999999824 	9.441520010490489e-13 	101324.9999999921
0.694444444444444 	299.9999999999378 	1.236415917488527e-12 	101324.9999999921
0.6969469469469463 	299.9999999999281 	1.799962071538763e-12 	101324.9999999921
0.6994494494494489 	299.9999999999237 	2.840895774054612e-12 	101324.9999999919
0.7019519519519515 	299.9999999999858 	1.686717353996679e-12 	101324.9999999919
0.7044544544544538 	299.999999999955 	2.851375641548859e-12 	101324.999999992
0.7069569569569564 	299.9999999999939 	1.807277885790593e-12 	101324.9999999921
0.7094594594594589 	299.9999999999669 	3.215937318324622e-12 	101324.9999999922
0.7119619619619615 	299.9999999999154 	1.601958722021289e-12 	101324.9999999922
0.7144644644644638 	299.9999999999471 	3.531505374317126e-12 	101324.9999999923
0.7169669669669665 	299.9999999999228 	2.586148974899867e-12 	101324.9999999921
0.7194694694694688 	299.9999999999866 	3.774840647800587e-12 	101324.999999992
0.7219719719719715 	299.9999999999863 	2.770709143470546e-12 	101324.999999992
0.7244744744744737 	300.0000000000063 	3.123275999267946e-12 	101324.9999999921
0.7269769769769764 	299.9999999999937 	2.566357960125921e-12 	101324.9999999923
0.7294794794794791 	299.9999999999808 	1.877600308922087e-12 	101324.9999999924
0.7319819819819813 	299.9999999999814 	3.372816660320954e-12 	101324.9999999922
0.7344844844844839 	299.9999999999241 	2.555774920058783e-12 	101324.9999999923
0.7369869869869864 	299.9999999999517 	3.309654550967421e-12 	101324.9999999925
0.739489489489489 	299.9999999999389 	2.860198372941655e-12 	101324.9999999927
0.7419919919919914 	299.9999999999234 	3.033229401315211e-12 	101324.9999999928
0.7444944944944939 	299.9999999999783 	3.790675202261301e-12 	101324.9999999927
0.7469969969969963 	299.9999999999746 	2.458074078818427e-12 	101324.9999999924
0.7494994994994989 	299.9999999999492 	4.338415950725794e-12 	101324.9999999923
0.7520020020020015 	299.9999999999746 	2.815853078214093e-12 	101324.9999999923
0.7545045045045039 	299.9999999999706 	5.619677371722776e-12 	101324.9999999921
0.7570070070070062 	299.999999999942 	3.570695705815543e-12 	101324.9999999919
0.7595095095095092 	299.9999999999295 	5.278983788221764e-12 	101324.9999999919
0.7620120120120112 	300.0000000000076 	4.247704881128318e-12 	101324.9999999921
0.7645145145145138 	299.9999999999862 	4.074934366419519e-12 	101324.9999999923
0.7670170170170165 	299.9999999999297 	4.213813017997923e-12 	101324.9999999925
0.7695195195195191 	299.9999999999251 	3.481269227139689e-12 	101324.9999999925
0.7720220220220213 	299.9999999999334 	5.453076875862994e-12 	101324.9999999926
0.7745245245245239 	299.9999999999322 	4.154403543293207e-12 	101324.9999999926
0.7770270270270263 	299.9999999999703 	5.808863484414369e-12 	101324.9999999926
0.779529529529529 	299.9999999999837 	4.844174196489419e-12 	101324.9999999928
0.7820320320320313 	299.9999999999736 	5.830734341274961e-12 	101324.9999999927
0.784534534534534 	300.0000000000052 	5.489896542842898e-12 	101324.9999999928
0.7870370370370364 	299.999999999997 	4.827044161479726e-12 	101324.9999999928
0.7895395395395389 	299.999999999981 	5.399455886936114e-12 	101324.9999999927
0.7920420420420413 	299.9999999999708 	4.187471940456506e-12 	101324.9999999929
0.794544544544544 	299.9999999999708 	5.212710991014256e-12 	101324.9999999931
0.7970470470470463 	300.000000000001 	2.723790232826876e-12 	101324.9999999932
0.799549549549549 	299.9999999999835 	4.714856415196532e-12 	101324.9999999933
0.8020520520520515 	299.9999999999906 	2.351428818426685e-12 	101324.9999999931
0.8045545545545539 	299.9999999999498 	3.874325174226526e-12 	101324.999999993
0.8070570570570563 	299.999999999983 	3.067492260449815e-12 	101324.9999999932
0.8095595595595589 	299.9999999999586 	4.323237186538832e-12 	101324.9999999934
0.8120620620620614 	299.9999999999367 	4.607210662813726e-12 	101324.9999999937
0.8145645645645638 	299.999999999994 	4.491197547318092e-12 	101324.999999994
0.8170670670670666 	299.9999999999927 	5.048572933490356e-12 	101324.9999999943
0.8195695695695689 	299.9999999999782 	4.476985750611025e-12 	101324.9999999947
0.8220720720720714 	299.9999999999491 	6.765911242438066e-12 	101324.9999999945
0.8245745745745739 	299.9999999999929 	5.17772311423122e-12 	101324.9999999945
0.8270770770770765 	299.9999999999699 	6.751104400279465e-12 	101324.9999999944
0.8295795795795788 	299.9999999999528 	5.747399999382521e-12 	101324.9999999942
0.8320820820820815 	300.0000000000197 	6.387266386768017e-12 	101324.9999999942
0.834584584584584 	300.0000000000102 	5.289300945574346e-12 	101324.9999999943
0.8370870870870865 	299.9999999999719 	5.12091995888064e-12 	101324.9999999945
0.8395895895895891 	299.9999999999339 	5.633292687923196e-12 	101324.9999999946
0.8420920920920915 	299.9999999999467 	5.045702260653397e-12 	101324.9999999947
0.844594594594594 	299.9999999999462 	5.101504923310882e-12 	101324.9999999947
0.8470970970970964 	299.9999999999611 	4.930862223838299e-12 	101324.9999999947
0.8495995995995991 	299.9999999999887 	4.79301039707662e-12 	101324.9999999948
0.8521021021021015 	299.9999999999808 	5.869803292762731e-12 	101324.9999999945
0.8546046046046039 	299.9999999999806 	5.945021155083297e-12 	101324.9999999943
0.8571071071071066 	300.0000000000065 	7.076008279491765e-12 	101324.9999999943
0.8596096096096089 	299.9999999999673 	5.204122828762449e-12 	101324.9999999944
0.8621121121121116 	299.9999999999361 	7.280994706331375e-12 	101324.9999999943
0.8646146146146139 	299.9999999999932 	4.967322196466648e-12 	101324.9999999944
0.8671171171171166 	299.9999999999682 	6.156660429459406e-12 	101324.9999999943
0.8696196196196189 	299.9999999999409 	5.720975289322752e-12 	101324.9999999941
0.8721221221221216 	299.9999999999846 	6.615897275398795e-12 	101324.999999994
0.874624624624624 	300.000000000001 	6.646404978717007e-12 	101324.9999999939
0.8771271271271264 	299.9999999999998 	6.869294916881207e-12 	101324.999999994
0.879629629629629 	300.0000000000039 	7.792282439329387e-12 	101324.9999999941
0.8821321321321317 	299.9999999999802 	6.536020453787238e-12 	101324.9999999942
0.8846346346346339 	299.9999999999251 	8.887087534998721e-12 	101324.999999994
0.8871371371371364 	299.9999999999554 	6.981730582336822e-12 	101324.9999999943
0.8896396396396391 	299.9999999999624 	8.622436454190648e-12 	101324.9999999946
0.8921421421421414 	299.9999999999697 	7.535156354175502e-12 	101324.9999999949
0.8946446446446441 	299.9999999999873 	8.24146824364767e-12 	101324.9999999953
0.8971471471471464 	299.9999999999988 	7.475345902199408e-12 	101324.9999999956
0.8996496496496489 	299.99999999998 	7.214784707707402e-12 	101324.9999999955
0.9021521521521517 	299.9999999999651 	7.998694293563619e-12 	101324.9999999952
0.9046546546546541 	299.9999999999909 	7.556378790133588e-12 	101324.9999999952
0.9071571571571564 	299.9999999999535 	8.042174292889462e-12 	101324.9999999951
0.9096596596596589 	299.9999999999532 	8.244093369152989e-12 	101324.9999999948
0.9121621621621616 	300.0000000000055 	8.878567845213466e-12 	101324.9999999948
0.9146646646646639 	299.9999999999778 	9.458654194479669e-12 	101324.9999999947
0.9171671671671666 	299.9999999999508 	8.955140606948749e-12 	101324.9999999949
0.9196696696696689 	300.0000000000019 	9.307241044812282e-12 	101324.9999999951
0.9221721721721714 	300.0000000000003 	7.584618693350991e-12 	101324.9999999952
0.9246746746746741 	299.9999999999467 	9.846664602942852e-12 	101324.9999999951
0.9271771771771765 	299.9999999999522 	7.908554405728225e-12 	101324.9999999954
0.9296796796796791 	299.9999999999929 	9.895911712511771e-12 	101324.9999999954
0.9321821821821816 	299.999999999969 	8.645328839833778e-12 	101324.9999999951
0.9346846846846838 	299.9999999999487 	1.000710379091013e-11 	101324.9999999951
0.9371871871871866 	300.0000000000128 	9.410520339415186e-12 	101324.9999999954
0.9396896896896891 	300.0000000000118 	9.465272473686425e-12 	101324.9999999956
0.9421921921921914 	300.0000000000075 	9.56478265303998e-12 	101324.9999999955
0.9446946946946939 	299.9999999999687 	8.625267312085081e-12 	101324.9999999954
0.9471971971971965 	299.9999999999283 	1.083463097380065e-11 	101324.9999999954
0.9496996996996991 	299.9999999999648 	9.166378673271091e-12 	101324.9999999955
0.9522022022022016 	299.9999999999783 	1.061557724055237e-11 	101324.9999999955
0.9547047047047038 	299.9999999999739 	9.990858995752383e-12 	101324.9999999955
0.9572072072072064 	299.9999999999654 	1.088170576016471e-11 	101324.9999999955
0.9597097097097093 	299.9999999999715 	1.04590910463922e-11 	101324.9999999955
0.9622122122122114 	299.9999999999645 	1.034366508606353e-11 	101324.9999999956
0.964714714714714 	299.9999999999604 	1.148989847689747e-11 	101324.9999999957
0.9672172172172167 	299.9999999999608 	1.083343332073909e-11 	101324.9999999958
0.969719719719719 	299.9999999999865 	1.229902761771669e-11 	101324.9999999961
0.9722222222222214 	299.9999999999851 	1.258242670262088e-11 	101324.9999999962
0.9747247247247239 	299.9999999999798 	1.275800552640965e-11 	101324.9999999962
0.9772272272272267 	300.0000000000083 	1.245210296389581e-11 	101324.9999999962
0.9797297297297292 	299.9999999999934 	1.212312339258854e-11 	101324.9999999964
0.9822322322322313 	299.9999999999909 	1.238817295980112e-11 	101324.9999999965
0.9847347347347344 	299.9999999999877 	1.049434242128739e-11 	101324.9999999965
0.9872372372372363 	299.99999999995 	1.269714500045308e-11 	101324.9999999966
0.9897397397397389 	299.9999999999662 	1.038001318463405e-11 	101324.9999999966
0.9922422422422417 	299.9999999999501 	1.244686474208796e-11 	101324.9999999965
0.9947447447447441 	299.9999999999668 	1.133161156345418e-11 	101324.9999999963
0.9972472472472468 	299.9999999999816 	1.249755286319493e-11 	101324.9999999962
0.999749749749749 	299.9999999999734 	1.203987839222658e-11 	101324.9999999963
1.002252252252252 	299.9999999999798 	1.26113560135834e-11 	101324.9999999964
1.004754754754754 	299.9999999999941 	1.291059290000465e-11 	101324.9999999968
1.007257257257256 	299.9999999999733 	1.225683720385731e-11 	101324.9999999969
1.009759759759759 	299.9999999999633 	1.405113126088966e-11 	101324.9999999968
1.012262262262261 	299.9999999999599 	1.173992528203783e-11 	101324.9999999966
1.014764764764764 	299.9999999999361 	1.302929847099466e-11 	101324.9999999967
1.017267267267267 	299.9999999999272 	1.203284652933292e-11 	101324.9999999969
1.019769769769769 	299.9999999999737 	1.316735347273617e-11 	101324.9999999969
1.022272272272272 	299.9999999999902 	1.304205433777424e-11 	101324.9999999969
1.024774774774774 	299.9999999999856 	1.391636867374233e-11 	101324.999999997
1.027277277277277 	299.999999999982 	1.53631412884275e-11 	101324.9999999967
1.029779779779779 	300.0000000000111 	1.476002861426104e-11 	101324.9999999962
1.032282282282282 	300.0000000000127 	1.58657208930281e-11 	101324.999999996
1.034784784784784 	300.0000000000006 	1.544681642302859e-11 	101324.9999999962
1.037287287287286 	299.9999999999704 	1.609405552785166e-11 	101324.9999999964
1.039789789789789 	299.9999999999766 	1.649585997879704e-11 	101324.9999999965
1.042292292292291 	300.0000000000058 	1.721794154040496e-11 	101324.9999999968
1.044794794794794 	300.000000000018 	1.712635962565844e-11 	101324.9999999967
1.047297297297296 	300.0000000000341 	1.554121794168276e-11 	101324.9999999966
1.049799799799799 	299.9999999999901 	1.726817338824302e-11 	101324.9999999966
1.052302302302302 	299.999999999958 	1.529838962798554e-11 	101324.9999999966
1.054804804804804 	299.9999999999409 	1.679372204019808e-11 	101324.9999999965
1.057307307307306 	299.9999999999258 	1.600905241399605e-11 	101324.9999999964
1.059809809809809 	299.9999999999596 	1.727374062768405e-11 	101324.9999999964
1.062312312312312 	299.9999999999548 	1.633833103014408e-11 	101324.9999999964
1.064814814814814 	299.9999999999499 	1.642068556054315e-11 	101324.9999999962
1.067317317317317 	299.9999999999291 	1.620888121430798e-11 	101324.9999999964
1.069819819819819 	299.9999999999333 	1.638598565746267e-11 	101324.9999999964
1.072322322322321 	299.9999999999912 	1.834421341098218e-11 	101324.9999999967
1.074824824824824 	300.0000000000044 	1.646273148779858e-11 	101324.999999997
1.077327327327327 	300.000000000026 	1.75237769760497e-11 	101324.9999999973
1.079829829829829 	300.0000000000421 	1.617059058695949e-11 	101324.9999999974
1.082332332332332 	300.0000000000095 	1.673317036395953e-11 	101324.9999999975
1.084834834834834 	299.9999999999823 	1.603142627312581e-11 	101324.9999999976
1.087337337337337 	299.9999999999451 	1.585890990839785e-11 	101324.9999999976
1.089839839839839 	299.9999999999386 	1.728058138357035e-11 	101324.9999999976
1.092342342342342 	299.999999999977 	1.574007124121926e-11 	101324.9999999975
1.094844844844844 	299.999999999975 	1.678829066712026e-11 	101324.9999999972
1.097347347347347 	299.9999999999451 	1.537049585350421e-11 	101324.9999999971
1.099849849849849 	299.9999999999371 	1.806699382907054e-11 	101324.9999999973
1.102352352352352 	299.9999999999606 	1.603335509210124e-11 	101324.9999999974
1.104854854854854 	299.9999999999777 	1.837137172513344e-11 	101324.9999999974
1.107357357357357 	299.9999999999617 	1.726368003287999e-11 	101324.9999999974
1.109859859859859 	299.9999999999479 	1.911214836832263e-11 	101324.9999999975
1.112362362362362 	300.0000000000084 	1.83887522760733e-11 	101324.9999999976
1.114864864864865 	300.0000000000081 	1.834802178339132e-11 	101324.9999999978
1.117367367367367 	299.9999999999678 	1.910809979808404e-11 	101324.9999999977
1.119869869869869 	299.9999999999342 	1.761232351941877e-11 	101324.9999999978
1.122372372372372 	299.999999999958 	1.94178821319991e-11 	101324.9999999978
1.124874874874874 	299.9999999999557 	1.898812160993683e-11 	101324.9999999976
1.127377377377377 	299.9999999999689 	2.074004728594329e-11 	101324.9999999975
1.129879879879879 	300.0000000000177 	2.01647065652507e-11 	101324.9999999974
1.132382382382382 	300.0000000000309 	2.016226283323367e-11 	101324.9999999974
1.134884884884884 	300.0000000000091 	1.92107777999038e-11 	101324.9999999976
1.137387387387387 	300.0000000000148 	1.913992189148953e-11 	101324.9999999976
1.139889889889889 	299.9999999999656 	2.053373311409178e-11 	101324.9999999975
1.142392392392392 	299.9999999999565 	1.915991491345368e-11 	101324.9999999976
1.144894894894894 	300.0000000000143 	2.021926547735448e-11 	101324.9999999976
1.147397397397397 	299.9999999999975 	1.878076062373066e-11 	101324.9999999977
1.149899899899899 	299.9999999999449 	1.961061653715025e-11 	101324.9999999977
1.152402402402402 	299.9999999999329 	1.929031238573747e-11 	101324.9999999978
1.154904904904904 	299.9999999999674 	2.056493276981837e-11 	101324.9999999978
1.157407407407407 	299.9999999999693 	2.028308214867146e-11 	101324.9999999978
1.159909909909909 	299.999999999942 	2.016694204407506e-11 	101324.9999999981
1.162412412412412 	299.9999999999354 	2.122949606886062e-11 	101324.9999999982
1.164914914914914 	299.9999999999552 	1.962768471320208e-11 	101324.9999999983
1.167417417417417 	299.9999999999563 	2.109937305119968e-11 	101324.9999999983
1.169919919919919 	300.0000000000061 	1.967763489194731e-11 	101324.9999999983
1.172422422422422 	300.000000000039 	2.037930064094978e-11 	101324.9999999983
1.174924924924925 	299.9999999999908 	1.906798806741359e-11 	101324.9999999984
1.177427427427427 	299.9999999999579 	1.979642374988038e-11 	101324.9999999985
1.179929929929929 	300.0000000000048 	2.105958178873371e-11 	101324.9999999986
1.182432432432432 	300.0000000000343 	1.957916054877138e-11 	101324.9999999987
1.184934934934934 	300.0000000000039 	2.039452410734872e-11 	101324.9999999989
1.187437437437437 	299.9999999999798 	1.896847899669025e-11 	101324.9999999993
1.189939939939939 	299.9999999999744 	1.987002697918925e-11 	101324.9999999995
1.192442442442442 	299.9999999999408 	1.911897454785102e-11 	101324.9999999992
1.194944944944944 	299.9999999999425 	2.057732811957188e-11 	101324.9999999992
1.197447447447447 	299.9999999999957 	2.004179789712898e-11 	101324.9999999992
1.199949949949949 	300.0000000000113 	2.04382490007343e-11 	101324.9999999991
1.202452452452452 	299.9999999999606 	2.152166263366631e-11 	101324.999999999
1.204954954954955 	299.9999999999518 	2.009805649859451e-11 	101324.9999999989
1.207457457457457 	299.9999999999791 	2.1416115503829e-11 	101324.9999999989
1.20995995995996 	299.9999999999756 	2.045986958318696e-11 	101324.999999999
1.212462462462462 	299.9999999999851 	2.135696104782283e-11 	101324.999999999
1.214964964964964 	299.9999999999876 	2.006373918106263e-11 	101324.9999999989
1.217467467467467 	299.9999999999823 	2.068132372396488e-11 	101324.9999999989
1.219969969969969 	299.999999999969 	1.929510874215991e-11 	101324.999999999
1.222472472472472 	300.0000000000164 	1.992359259557874e-11 	101324.9999999992
1.224974974974975 	300.0000000000445 	2.089584620820217e-11 	101324.9999999991
1.227477477477477 	299.9999999999961 	1.968228143084982e-11 	101324.9999999989
1.229979979979979 	299.9999999999807 	2.160845336079965e-11 	101324.9999999991
1.232482482482482 	299.9999999999562 	2.050895469566588e-11 	101324.9999999992
1.234984984984984 	299.9999999999539 	2.193646788342816e-11 	101324.9999999991
1.237487487487487 	299.9999999999784 	2.004609028151348e-11 	101324.9999999991
1.239989989989989 	299.9999999999849 	2.025789296773991e-11 	101324.9999999994
1.242492492492492 	300.0000000000167 	2.083988433302746e-11 	101324.9999999995
1.244994994994994 	299.9999999999879 	1.959061825479402e-11 	101324.9999999994
1.247497497497497 	299.9999999999934 	2.071069209837254e-11 	101324.9999999994
1.249999999999999 	300.0000000002336 	1.966153498705582e-11 	101324.9999999994
