-1.25 	300 	0.07207092618083577 	101295.6107373854
-1.247497497497497 	299.9788249649085 	0.05968836842531516 	101301.3304257496
-1.244994994994995 	299.9853205976618 	0.04186527923907751 	101307.6421680505
-1.242492492492492 	299.9906863081982 	0.02744669854632016 	101313.9856427831
-1.23998998998999 	299.9963091183562 	0.01039695468953938 	101320.6359640344
-1.237487487487487 	300.0020553330102 	0.008345278757425453 	101327.428899181
-1.234984984984985 	300.0077587969577 	0.02251584904614715 	101334.1718196626
-1.232482482482482 	300.0133448503606 	0.03865061206481157 	101340.7762058773
-1.22997997997998 	300.0187262496325 	0.05414139240183079 	101347.1389039431
-1.227477477477477 	300.0237492762646 	0.06863610004939769 	101353.0781797053
-1.224974974974975 	300.0283174866103 	0.08188187709700287 	101358.4798978421
-1.222472472472472 	300.0324144687773 	0.09369115592543482 	101363.3246119853
-1.21996996996997 	300.0358979316502 	0.1037453514545723 	101367.4440155938
-1.217467467467467 	300.0386511571087 	0.1117382616904178 	101370.6999341174
-1.214964964964965 	300.0406861376579 	0.1176429364073323 	101373.1065426197
-1.212462462462462 	300.0420061754794 	0.1215038625548013 	101374.6676887413
-1.20995995995996 	300.0425785162278 	0.1231441502180753 	101375.3445918594
-1.207457457457457 	300.0423746364696 	0.1225027019959455 	101375.1035253036
-1.204954954954955 	300.0413732207367 	0.119572001887112 	101373.9193302816
-1.202452452452452 	300.0395728658521 	0.1143418435959977 	101371.7903631942
-1.19994994994995 	300.0369946749211 	0.1069261949241092 	101368.741559937
-1.197447447447447 	300.0337260440479 	0.09748866894261943 	101364.8763120699
-1.194944944944945 	300.0298680340942 	0.0863064389594291 	101360.3142439916
-1.192442442442442 	300.0254849386545 	0.07363215316044905 	101355.1314505967
-1.18993993993994 	300.0206426810544 	0.05968831164105681 	101349.4058927383
-1.187437437437437 	300.0154436236019 	0.0446823441826787 	101343.2587169101
-1.184934934934935 	300.0099608233264 	0.02879627129272109 	101336.7763172741
-1.182432432432432 	300.0042946959245 	0.01239711827807386 	101330.0774760399
-1.17992992992993 	299.9985796423671 	0.008481818769412276 	101323.3211254813
-1.177427427427427 	299.9928854270126 	0.02064511353711632 	101316.5896898197
-1.174924924924925 	299.9872828714357 	0.03683200507936375 	101309.9669330474
-1.172422422422422 	299.9818778603819 	0.05241926616646199 	101303.5779536536
-1.16991991991992 	299.9767881343233 	0.06709866072283502 	101297.5619288719
-1.167417417417417 	299.9721340596436 	0.08053874055048291 	101292.0610688136
-1.164914914914915 	299.9680199875135 	0.09245179910813908 	101287.1985875096
-1.162412412412412 	299.9645193087075 	0.1025770611761849 	101283.0612260234
-1.15990990990991 	299.9616753836041 	0.1107927254444039 	101279.700117548
-1.157407407407407 	299.9595154454741 	0.1170511272762635 	101277.147417329
-1.154904904904904 	299.9580782944517 	0.1212053447707531 	101275.4489041665
-1.152402402402403 	299.9574250094583 	0.1231019131128709 	101274.6767848139
-1.1498998998999 	299.957588400468 	0.1226140836756122 	101274.8698649783
-1.147397397397397 	299.9585610415638 	0.1197529745018667 	101276.019227869
-1.144894894894895 	299.9603168116878 	0.1146677826854679 	101278.0941136849
-1.142392392392392 	299.962805188566 	0.1074914789412091 	101281.0348726414
-1.13988988988989 	299.9659582817761 	0.09838506631406871 	101284.7612470203
-1.137387387387387 	299.9697235771928 	0.08749201954829226 	101289.2113167946
-1.134884884884885 	299.9740441601598 	0.07498523914906943 	101294.3178156893
-1.132382382382382 	299.9788444621637 	0.06112138855499051 	101299.9915422369
-1.12987987987988 	299.9840308637611 	0.04616653864274821 	101306.1219109453
-1.127377377377377 	299.9894849446837 	0.03043458195021251 	101312.5689267534
-1.124874874874875 	299.995081737795 	0.01421471858096022 	101319.1849862383
-1.122372372372372 	300.0007375560294 	0.008362775229760413 	101325.8711150105
-1.11986986986987 	300.0064065032959 	0.01861302483740259 	101332.5731113879
-1.117367367367367 	300.0120124761257 	0.03479346424596904 	101339.2009989476
-1.114864864864865 	300.0174249061309 	0.05041212080172097 	101345.600322295
-1.112362362362362 	300.0225166169062 	0.06511547594485094 	101351.6207566173
-1.10985985985986 	300.0271883699331 	0.0786142801060242 	101357.144844979
-1.107357357357357 	300.0313501187838 	0.09061343665173702 	101362.0660944896
-1.104854854854855 	300.0349283907477 	0.1009633338407097 	101366.2975554598
-1.102352352352353 	300.0378803136483 	0.1094918282854773 	101369.7883978104
-1.09984984984985 	300.0401552821682 	0.1160670446829458 	101372.4788042742
-1.097347347347347 	300.0417021994786 	0.1205668153305634 	101374.3082420412
-1.094844844844845 	300.0424759670316 	0.1227728435797041 	101375.2233722251
-1.092342342342342 	300.0424393998137 	0.1226460986936996 	101375.1801663723
-1.08983983983984 	300.0415857460375 	0.1201814937515912 	101374.1706925989
-1.087337337337337 	300.0399560195501 	0.1154563073225184 	101372.2435225806
-1.084834834834835 	300.0375885751944 	0.1086327971261079 	101369.4439155555
-1.082332332332332 	300.0345321089824 	0.09978214814615094 	101365.8295516467
-1.07982982982983 	300.0308425862312 	0.08910097484519819 	101361.4667121454
-1.077327327327327 	300.0265832071009 	0.07678643752944568 	101356.4301338615
-1.074824824824825 	300.0218332341301 	0.06308576700674903 	101350.8136613534
-1.072322322322323 	300.0167035028728 	0.04827075075931811 	101344.7483919134
-1.06981981981982 	300.0112762244225 	0.03254880346119079 	101338.3315648161
-1.067317317317317 	300.0056538922141 	0.01628622140350501 	101331.6844482593
-1.064814814814815 	299.9999416675225 	0.008171375852429117 	101324.9313448397
-1.062312312312312 	299.9942016842288 	0.01686969918247364 	101318.1457400686
-1.05980980980981 	299.9885341969238 	0.03320954420066226 	101311.4461575354
-1.057307307307307 	299.9830722317561 	0.04896817689723668 	101304.9897908339
-1.054804804804805 	299.9779367183066 	0.06379832872494307 	101298.9195944162
-1.052302302302302 	299.9732284237189 	0.07743055516768127 	101293.3545832965
-1.0497997997998 	299.9690153964153 	0.0896501670487887 	101288.3751172671
-1.047297297297297 	299.9653555734997 	0.1002158023670564 	101284.0496393423
-1.044794794794795 	299.9623190283278 	0.1089751000706147 	101280.4608647352
-1.042292292292292 	299.9599771342415 	0.1157325085568606 	101277.6931266569
-1.03978978978979 	299.9583923683231 	0.1203013444478689 	101275.8201351931
-1.037287287287287 	299.9576045713998 	0.122589887345672 	101274.8890586397
-1.034784784784785 	299.9576158198603 	0.1225284361311446 	101274.9023345467
-1.032282282282283 	299.9584132770864 	0.1201870561925519 	101275.8446728674
-1.02977977977978 	299.9599770516606 	0.1156708527461127 	101277.6926658511
-1.027277277277277 	299.9622731773358 	0.1090463306075909 	101280.4061824964
-1.024774774774775 	299.9652621375253 	0.1004315357085336 	101283.9385721776
-1.022272272272272 	299.9688949519814 	0.08993205196223503 	101288.2320217252
-1.01976976976977 	299.9730973473683 	0.07776017168486522 	101293.1987848798
-1.017267267267267 	299.9777885049481 	0.06419784394442334 	101298.7434712523
-1.014764764764765 	299.9828748065257 	0.04950207030746949 	101304.755446022
-1.012262262262262 	299.9882488844611 	0.03396984353096994 	101311.1078443244
-1.00975975975976 	299.9938061401029 	0.01786671694050983 	101317.6770937561
-1.007257257257257 	299.9994514207593 	0.007607559011725879 	101324.350692014
-1.004754754754755 	300.0051111468113 	0.01486420717225844 	101331.0417203673
-1.002252252252252 	300.0107017585451 	0.03098431309569074 	101337.6513597605
-0.9997497497497498 	300.0161034515125 	0.04656473833111661 	101344.0379307415
-0.9972472472472473 	300.0212184177751 	0.06135406534976481 	101350.0857912659
-0.9947447447447449 	300.0259678462828 	0.07509084161167674 	101355.7016694101
-0.9922422422422421 	300.0302634731078 	0.08747569436142782 	101360.7811668651
-0.9897397397397399 	300.0340147754673 	0.09832751555541897 	101365.2171886359
-0.9872372372372376 	300.0371497411674 	0.1073732122934429 	101368.9244832977
-0.9847347347347346 	300.0395907515752 	0.1144696919522303 	101371.8112242268
-0.9822322322322323 	300.0412984547721 	0.1194543755400626 	101373.8308166405
-0.9797297297297296 	300.0422484677115 	0.1221377091018505 	101374.9543662144
-0.9772272272272275 	300.0424112747618 	0.1225678692835458 	101375.1469300398
-0.9747247247247248 	300.0417715313411 	0.1207045219448509 	101374.3904281024
-0.9722222222222224 	300.0403551823235 	0.116607667966978 	101372.7155836661
-0.9697197197197196 	300.0381743125355 	0.1103357799992723 	101370.1366323281
-0.9672172172172175 	300.0352829814024 	0.1019442151385863 	101366.717522761
-0.9647147147147147 	300.0317428833013 	0.09169247608100474 	101362.5313287037
-0.9622122122122124 	300.027617381594 	0.07978262224018792 	101357.6530434402
-0.9597097097097099 	300.0229830983137 	0.06645337732492432 	101352.1733162054
-0.9572072072072073 	300.0179364267997 	0.05185613448113111 	101346.2062043801
-0.9547047047047047 	300.0125411526187 	0.03621252332601523 	101339.8271570206
-0.9522022022022023 	300.0069202414577 	0.01995548258806896 	101333.181623819
-0.9496996996996998 	300.0012058340471 	0.007012003404369221 	101326.4258896846
-0.9471971971971973 	299.9954775716236 	0.01317491513585404 	101319.6540723104
-0.9446946946946947 	299.9898203061067 	0.02951038348805965 	101312.966496676
-0.9421921921921923 	299.9843358300932 	0.04532447408765474 	101306.4834661139
-0.93968968968969 	299.9791323533877 	0.06033466336811714 	101300.332855253
-0.9371871871871872 	299.9743108747973 	0.07429235770033915 	101294.6340278601
-0.9346846846846848 	299.9699594924633 	0.08688784414887959 	101289.4910044174
-0.9321821821821823 	299.9661623566063 	0.09786263924333954 	101285.0031973062
-0.9296796796796799 	299.962995615158 	0.1070098237704663 	101281.2605441598
-0.9271771771771771 	299.9605214145528 	0.1141498355071689 	101278.3364156434
-0.9246746746746748 	299.9587917846002 	0.1191718542175379 	101276.2922336187
-0.9221721721721724 	299.9578361290186 	0.1219388027538397 	101275.1627712716
-0.9196696696696698 	299.9576652816286 	0.1223917685053554 	101274.9608355379
-0.9171671671671672 	299.9582831509105 	0.1205623790439013 	101275.690970712
-0.9146646646646649 	299.9596741964939 	0.1165293960548642 	101277.3348014186
-0.9121621621621623 	299.9618024630259 	0.1103995419324073 	101279.8499467102
-0.9096596596596597 	299.9646278474739 	0.1022537618790517 	101283.1890107783
-0.9071571571571573 	299.9680976945248 	0.09221611454813027 	101287.2898089529
-0.9046546546546547 	299.9721515991853 	0.08046946209945995 	101292.0810557384
-0.9021521521521524 	299.9767243532962 	0.06726595976163274 	101297.4857244475
-0.8996496496496498 	299.9817213637716 	0.05285925668181395 	101303.3921071029
-0.8971471471471473 	299.9870281485846 	0.03751621290223435 	101309.6649068021
-0.894644644644645 	299.9925352227322 	0.02155668929532529 	101316.1747490796
-0.892142142142142 	299.9981323624808 	0.005957191143752213 	101322.7913858996
-0.8896396396396397 	300.0037480734414 	0.01092629763238048 	101329.4302883051
-0.8871371371371374 	300.0093198149358 	0.02699064751212536 	101336.0175398093
-0.8846346346346349 	300.0147423979171 	0.04265383826678315 	101342.4287423574
-0.8821321321321324 	300.0199252953765 	0.05764836909306285 	101348.5568316227
-0.8796296296296297 	300.0247758308358 	0.07166590693984759 	101354.2922161837
-0.8771271271271271 	300.0291862335139 	0.08438052680146504 	101359.5073788051
-0.8746246246246248 	300.0330665379993 	0.09559037023702666 	101364.0959036187
-0.8721221221221224 	300.0363455291986 	0.1050591039570979 	101367.9734909126
-0.8696196196196196 	300.038948963637 	0.1126465737570425 	101371.052273676
-0.8671171171171175 	300.0408428881289 	0.1181488761152086 	101373.2920875553
-0.8646146146146148 	300.0419893974396 	0.1213890988889614 	101374.6480211665
-0.8621121121121121 	300.042345419383 	0.1223912163587353 	101375.069096828
-0.8596096096096097 	300.0419070404692 	0.1211079930601204 	101374.5506935755
-0.857107107107107 	300.0406918674685 	0.1176010579651165 	101373.1137471083
-0.8546046046046049 	300.0387108681011 	0.1119002635121387 	101370.7711666808
-0.8521021021021022 	300.0360123886798 	0.1040562833829145 	101367.5801092894
-0.8495995995995997 	300.0326404962093 	0.09427555848571935 	101363.5927993949
-0.8470970970970974 	300.0286391893217 	0.08274432690705792 	101358.8613327481
-0.8445945945945946 	300.0240988458185 	0.06968442124605678 	101353.4926253166
-0.8420920920920922 	300.0191135258302 	0.05526934878585704 	101347.5980106409
-0.8395895895895897 	300.0137687916865 	0.03979225166916017 	101341.2786551689
-0.8370870870870872 	300.0081968965864 	0.02365878948197674 	101334.6910195191
-0.8345845845845846 	300.0025235102457 	0.007213700743224712 	101327.9836976386
-0.8320820820820823 	299.9968147523021 	0.01044158365158655 	101321.2348536641
-0.8295795795795798 	299.9911403523338 	0.02568329342042883 	101314.5269659792
-0.8270770770770772 	299.9856008681339 	0.04164982715214797 	101307.9788378902
-0.8245745745745746 	299.9803190707533 	0.05690896144965799 	101301.7356024015
-0.8220720720720721 	299.9754019271281 	0.07114380976249936 	101295.9236421932
-0.8195695695695699 	299.9709391173714 	0.08405695109989439 	101290.6488649034
-0.817067067067067 	299.9670142867822 	0.09537746145972875 	101286.0101173254
-0.8145645645645651 	299.9637107070041 	0.1049275097124834 	101282.1057100661
-0.8120620620620621 	299.9610885374522 	0.1125184606952308 	101279.0067082081
-0.8095595595595597 	299.9592039008492 	0.1179831675908879 	101276.7793439901
-0.8070570570570572 	299.9580867695392 	0.1212120935430881 	101275.4590108963
-0.8045545545545546 	299.957750776688 	0.1221313018035337 	101275.0619279082
-0.8020520520520523 	299.9581950541207 	0.1208134995009241 	101275.5869098787
-0.7995495495495494 	299.9594079533956 	0.1173225943422065 	101277.0202273419
-0.7970470470470474 	299.9613539842363 	0.11169970949972 	101279.3199859102
-0.7945445445445446 	299.9640102325788 	0.1040291856150349 	101282.4591322584
-0.7920420420420423 	299.967334419083 	0.09439795822471053 	101286.3877745236
-0.7895395395395397 	299.9712715060925 	0.08301750069807165 	101291.0409101609
-0.7870370370370371 	299.9757400021265 	0.07013144057242822 	101296.3223197383
-0.7845345345345348 	299.9806428367813 	0.05598779257328801 	101302.1173284301
-0.7820320320320323 	299.9858604756082 	0.04088253507071713 	101308.2846880338
-0.7795295295295296 	299.9912990302188 	0.0251203940624432 	101314.713489557
-0.7770270270270272 	299.9968463162986 	0.009047518462313551 	101321.2710973317
-0.7745245245245247 	300.0024269476088 	0.009582548701795297 	101327.8684710574
-0.7720220220220222 	300.0079789563381 	0.02313916079189933 	101334.4323138917
-0.7695195195195199 	300.0134150596188 	0.03885053028497099 	101340.8594135246
-0.767017017017017 	300.0186476361193 	0.05394266189430032 	101347.0462003825
-0.7645145145145147 	300.0235735025418 	0.06815421709435548 	101352.8705635943
-0.7620120120120122 	300.028082688007 	0.08116531855561139 	101358.2024984809
-0.7595095095095097 	300.0320895002711 	0.09277257546099738 	101362.9405745372
-0.7570070070070072 	300.035512230971 	0.1026782124769163 	101366.9880865665
-0.7545045045045048 	300.0382831326743 	0.1107071972809555 	101370.2649237777
-0.7520020020020022 	300.0403546579254 	0.116697760293009 	101372.7147210694
-0.7494994994994997 	300.0416774380845 	0.1204817823471647 	101374.2791181379
-0.7469969969969972 	300.0422195338322 	0.1220793391152172 	101374.9202734051
-0.7444944944944945 	300.0419913310429 	0.1213767846083849 	101374.650379704
-0.7419919919919924 	300.0409875351866 	0.1184295467603903 	101373.4634337428
-0.7394894894894897 	300.0392123309556 	0.1132992233563072 	101371.3641930025
-0.7369869869869872 	300.0366934262913 	0.1059804963743835 	101368.3854865486
-0.7344844844844846 	300.0334710535341 	0.09670273847623852 	101364.5749893505
-0.7319819819819822 	300.0296057602611 	0.08557464070891843 	101360.0042941166
-0.7294794794794797 	300.0252020181143 	0.07283643930562983 	101354.7971043965
-0.7269769769769773 	300.0203251163448 	0.05876255749456572 	101349.0305978311
-0.7244744744744747 	300.0150675084409 	0.04355264611481416 	101342.8141999666
-0.721971971971972 	300.0095459767414 	0.02759761266730556 	101336.2860597004
-0.7194694694694695 	300.0038851253188 	0.01117532979377375 	101329.5934558814
-0.7169669669669674 	299.9981713717204 	0.009092193048685292 	101322.8386620309
-0.7144644644644647 	299.992476148882 	0.02185504963065215 	101316.1060603378
-0.711961961961962 	299.9868819509348 	0.03796159118777125 	101309.4931938827
-0.7094594594594597 	299.9815263726794 	0.05340294508580753 	101303.1626983932
-0.7069569569569573 	299.9765198241064 	0.06792144843414466 	101297.2449814314
-0.7044544544544545 	299.9719509619193 	0.08115535802058881 	101291.8448408572
-0.7019519519519523 	299.9679032358641 	0.09278631955879851 	101287.0607867149
-0.6994494494494495 	299.9644703996767 	0.1027008402559997 	101283.0035990531
-0.6969469469469471 	299.9617045098123 	0.1106794396151697 	101279.7347388687
-0.6944444444444446 	299.959673556372 	0.1166382768905266 	101277.3344525411
-0.6919419419419421 	299.9583872983864 	0.1204092774369183 	101275.8142348405
-0.6894394394394396 	299.9578592215961 	0.1218353408867066 	101275.1901292402
-0.6869369369369374 	299.9581102808235 	0.1210390640510401 	101275.4867896858
-0.6844344344344344 	299.9591606867862 	0.1180221134335211 	101276.7280623958
-0.6819319319319321 	299.9609566171078 	0.1128675890822737 	101278.8504346141
-0.6794294294294296 	299.9634741327602 	0.1056331091993425 	101281.8256163869
-0.6769269269269272 	299.9666389476028 	0.09639003629796435 	101285.5658662753
-0.6744244244244245 	299.9704105231422 	0.08544292099923426 	101290.0233768066
-0.6719219219219222 	299.9747322873167 	0.07299174637335552 	101295.1313008233
-0.6694194194194195 	299.979529251804 	0.05926349681662534 	101300.8011279503
-0.6669169169169172 	299.9846533628835 	0.04443209690496281 	101306.8578788653
-0.6644144144144146 	299.990033978509 	0.02878041831625627 	101313.2180967507
-0.661911911911912 	299.9955324109735 	0.01283308874447282 	101319.7179226911
-0.6594094094094097 	300.0010694690337 	0.007717469615961122 	101326.2636812834
-0.656906906906907 	300.0066099694376 	0.01917813644108636 	101332.8138434439
-0.6544044044044046 	300.0120660832612 	0.03494668648002817 	101339.2645413678
-0.6519019019019021 	300.0173436889975 	0.05022632920106976 	101345.5044622988
-0.6493993993993996 	300.0223425700576 	0.06463620559826178 	101351.4151403465
-0.6468968968968971 	300.026946743928 	0.07790862347910454 	101356.8593058611
-0.6443943943943946 	300.031076868565 	0.08982966143041826 	101361.7431546499
-0.6418918918918921 	300.0346354871982 	0.1001213172798627 	101365.9513492085
-0.6393893893893897 	300.0375531022225 	0.1086467201976106 	101369.4016233474
-0.6368868868868871 	300.0397896224295 	0.1151123536014304 	101372.0465662517
-0.6343843843843846 	300.0413066780097 	0.1194189019832745 	101373.8406810438
-0.6318818818818821 	300.0420576427795 	0.1216112765095764 	101374.7288449451
-0.6293793793793795 	300.042054615126 	0.12156311330348 	101374.7252711573
-0.6268768768768773 	300.0412656491398 	0.119305423630199 	101373.792318891
-0.6243743743743745 	300.0396888339577 	0.1147233979662865 	101371.9275338155
-0.6218718718718721 	300.0373322674521 	0.1078343721805571 	101369.140796702
-0.6193693693693696 	300.0342387950073 	0.09889255678214341 	101365.4828234158
-0.6168668668668671 	300.030470580494 	0.08808030975623302 	101361.0269831039
-0.6143643643643645 	300.026171232686 	0.07568762548844236 	101355.9431703297
-0.6118618618618621 	300.0213983931006 	0.0618892848739019 	101350.299670883
-0.6093593593593596 	300.016243154468 	0.04693425397223263 	101344.2042708713
-0.6068568568568571 	300.0107855337606 	0.0311559936184775 	101337.751596723
-0.6043543543543546 	300.005143615798 	0.01483419202778973 	101331.081345663
-0.6018518518518521 	299.9994151143673 	0.006967841552898535 	101324.3090274001
-0.5993493493493496 	299.9936861360909 	0.01829500600403232 	101317.5364580593
-0.5968468468468471 	299.9880745595117 	0.03450549305448571 	101310.9029983078
-0.5943443443443446 	299.9826987100321 	0.05004538206280196 	101304.5484477317
-0.591841841841842 	299.97765093889 	0.06464772835325727 	101298.5819725438
-0.5893393393393397 	299.9730046438306 	0.07807983439871231 	101293.0902500125
-0.5868368368368371 	299.9688308538585 	0.09013555990349574 	101288.1571701684
-0.5843343343343346 	299.9652164140992 	0.1005650035840143 	101283.8853356403
-0.5818318318318321 	299.9622566538456 	0.1091027578234065 	101280.3873139965
-0.5793293293293297 	299.9600411069372 	0.1154964376303267 	101277.7688714469
-0.5768268268268271 	299.9586295644089 	0.1195757253144603 	101276.1005748079
-0.5743243243243245 	299.9580303833555 	0.1213223833494446 	101275.3924394039
-0.5718218218218221 	299.9582038548124 	0.1208332131732675 	101275.5974156928
-0.5693193193193196 	299.9590922341737 	0.1182715733498333 	101276.6472275491
-0.5668168168168171 	299.9606496429442 	0.1137616207471942 	101278.4876970216
-0.5643143143143147 	299.9628614843845 	0.1073406303693846 	101281.1016266323
-0.5618118118118121 	299.9657390194319 	0.09899363673609754 	101284.5023389641
-0.5593093093093094 	299.9692915967967 	0.08870033126836896 	101288.700962544
-0.5568068068068072 	299.9734972609881 	0.07653436788908323 	101293.6716243184
-0.5543043043043046 	299.978279719502 	0.06272478255127363 	101299.3242180177
-0.551801801801802 	299.9834982755769 	0.04767108997421649 	101305.4925462235
-0.5492992992992995 	299.9889650587964 	0.0319029579645575 	101311.9545809749
-0.5467967967967969 	299.9944877085662 	0.01595905160193032 	101318.4829678378
-0.5442942942942947 	299.999916121196 	0.005171074096337241 	101324.900271347
-0.5417917917917919 	300.0051775334257 	0.0149839198855346 	101331.1204163437
-0.5392892892892895 	300.0102764766212 	0.0297727172217558 	101337.1487534565
-0.536786786786787 	300.0152591872182 	0.04422059622911358 	101343.0399162266
-0.5342842842842846 	300.0201607050824 	0.0584125852374632 	101348.8353144536
-0.531781781781782 	300.0249606671696 	0.0722817640033335 	101354.5108869561
-0.5292792792792794 	300.0295618700827 	0.085547528303417 	101359.9516587871
-0.526776776776777 	300.0337942246224 	0.09772520882680862 	101364.9564910768
-0.5242742742742745 	300.0374393691656 	0.1081947388422007 	101369.2671163422
-0.521771771771772 	300.0402678989458 	0.116305858994971 	101372.6121557145
-0.5192692692692695 	300.0420803892509 	0.1214945220982555 	101374.755716662
-0.516766766766767 	300.0427440957407 	0.123386486133738 	101375.5406913249
-0.5142642642642645 	300.0422180817488 	0.1218686588120392 	101374.9186300495
-0.511761761761762 	300.0405628532396 	0.117116846591741 	101372.961351386
-0.5092592592592596 	300.0379345660415 	0.1095758869021567 	101369.8533108382
-0.506756756756757 	300.0345615842775 	0.09989588506327524 	101365.8646477295
-0.5042542542542544 	300.0307117096478 	0.08883866327816704 	101361.3121458882
-0.5017517517517521 	300.026655280496 	0.07717374824680692 	101356.5155268024
-0.4992492492492494 	300.022631520151 	0.065584553481143 	101351.7576801714
-0.496746746746747 	300.0188257344362 	0.05460547774120572 	101347.2577081933
-0.4942442442442445 	300.0153629058825 	0.04460110419686052 	101343.1633631641
-0.4917417417417421 	300.0123132781927 	0.03577880777262556 	101339.5576640023
-0.4892392392392395 	300.009702492843 	0.0282168166328452 	101336.4708923825
-0.486736736736737 	300.0075228005013 	0.02189625618644564 	101333.8938551374
-0.4842342342342345 	300.0057437510276 	0.01673189735235697 	101331.7905265572
-0.481731731731732 	300.0043214356791 	0.01259885194170443 	101330.1089758028
-0.4792292292292296 	300.0032058440064 	0.009353909332239282 	101328.7900651085
-0.4767267267267268 	300.0023462690649 	0.00685127400839766 	101327.7738377115
-0.4742242242242246 	300.0016949273876 	0.004953162505564891 	101327.003796504
-0.471721721721722 	300.0012090926143 	0.003536100201177796 	101326.4294259946
-0.4692192192192195 	300.000852086977 	0.002493895305521681 	101326.007362598
-0.4667167167167169 	300.0005934582862 	0.001738240583041928 	101325.7016040779
-0.4642142142142145 	300.0004086315987 	0.001197769206745498 	101325.4830964566
-0.461711711711712 	300.0002782602522 	0.0008162258585859821 	101325.328967654
-0.4592092092092094 	300.0001874477045 	0.0005502422192361661 	101325.2216064336
-0.456706706706707 	300.0001249517787 	0.0003670518369603957 	101325.1477218552
-0.4542042042042045 	300.0000824427957 	0.0002423519215830802 	101325.0974666122
-0.451701701701702 	300.0000538543282 	0.0001584235210921413 	101325.0636684269
-0.4491991991991995 	300.0000348375368 	0.0001025531648049187 	101325.0411861777
-0.4466966966966969 	300.0000223218071 	6.575533676346057e-05 	101325.026389681
-0.4441941941941945 	300.0000141696385 	4.176922015524982e-05 	101325.016751856
-0.441691691691692 	300.000008912867 	2.629126044092578e-05 	101325.0105371673
-0.4391891891891895 	300.0000055564017 	1.640127276120725e-05 	101325.006568989
-0.436686686686687 	300.0000034336518 	1.01422160690069e-05 	101325.0040594235
-0.4341841841841846 	300.0000021037339 	6.217995059322182e-06 	101325.00248711
-0.431681681681682 	300.000001278017 	3.780087464934475e-06 	101325.0015109867
-0.4291791791791794 	300.0000007699829 	2.279042546625895e-06 	101325.0009103914
-0.426676676676677 	300.0000004601052 	1.362916600899633e-06 	101325.0005440781
-0.4241741741741744 	300.0000002728089 	8.085550392175902e-07 	101325.0003225675
-0.421671671671672 	300.0000001605101 	4.759259624079202e-07 	101325.000189742
-0.4191691691691694 	300.0000000937497 	2.779752554921143e-07 	101325.0001107503
-0.4166666666666669 	300.0000000543493 	1.611314623219396e-07 	101325.0000641526
-0.4141641641641645 	300.0000000311285 	9.270285786196483e-08 	101325.0000368823
-0.411661661661662 	300.0000000178184 	5.29459390612099e-08 	101325.0000210472
-0.4091591591591594 	300.0000000100938 	3.001947234236522e-08 	101325.0000119225
-0.406656656656657 	300.0000000056071 	1.69023556060844e-08 	101325.0000067042
-0.4041541541541545 	300.0000000031894 	9.447649492362091e-09 	101325.0000037418
-0.401651651651652 	300.0000000016685 	5.248430391990027e-09 	101325.0000020724
-0.3991491491491494 	300.0000000009672 	2.891302653253953e-09 	101325.000001138
-0.396646646646647 	300.0000000004797 	1.587446008689069e-09 	101325.0000006189
-0.3941441441441444 	300.0000000002676 	8.600938080736722e-10 	101325.0000003322
-0.3916416416416419 	300.0000000000758 	4.682812167779839e-10 	101325.0000001751
-0.3891391391391395 	300.0000000000304 	2.491756189361295e-10 	101325.0000000896
-0.3866366366366368 	299.9999999999922 	1.356294519953953e-10 	101325.0000000433
-0.3841341341341344 	300.0000000000197 	7.116368192399329e-11 	101325.0000000183
-0.381631631631632 	299.9999999999506 	3.924213881267076e-11 	101325.0000000049
-0.3791291291291294 	300.0000000000079 	2.072691070861422e-11 	101324.9999999981
-0.3766266266266269 	300.0000000000291 	1.191473616968621e-11 	101324.9999999945
-0.3741241241241244 	300.0000000000331 	8.004574334998594e-12 	101324.9999999927
-0.371621621621622 	300.0000000000246 	4.058057473637385e-12 	101324.9999999919
-0.3691191191191194 	300.0000000000181 	5.139077809979985e-12 	101324.9999999912
-0.366616616616617 	300.0000000000148 	1.885748492751025e-12 	101324.9999999905
-0.3641141141141143 	299.9999999999604 	4.030064335963747e-12 	101324.9999999901
-0.3616116116116119 	299.9999999999415 	1.601132972688118e-12 	101324.9999999901
-0.3591091091091095 	299.9999999999816 	2.33430282702228e-12 	101324.9999999902
-0.356606606606607 	299.999999999965 	1.945204309852646e-12 	101324.9999999904
-0.3541041041041044 	299.9999999999888 	1.434288302066308e-12 	101324.9999999902
-0.3516016016016019 	300.0000000000125 	2.356340426781379e-12 	101324.9999999904
-0.3490990990990994 	299.9999999999924 	1.011136768734672e-12 	101324.9999999905
-0.346596596596597 	300.0000000000517 	3.695141331449929e-12 	101324.9999999904
-0.3440940940940944 	300.0000000000614 	1.280131512717674e-12 	101324.9999999904
-0.3415915915915919 	300.0000000000238 	4.167328623913234e-12 	101324.9999999903
-0.3390890890890895 	299.9999999999748 	2.252260570066627e-12 	101324.9999999901
-0.3365865865865869 	300.0000000000214 	4.118265359807753e-12 	101324.9999999902
-0.3340840840840844 	300.0000000000022 	2.810505702867549e-12 	101324.9999999901
-0.3315815815815819 	300.0000000000234 	4.612311238921757e-12 	101324.9999999902
-0.3290790790790794 	300.0000000000236 	3.395522145515876e-12 	101324.9999999901
-0.3265765765765769 	299.9999999999162 	5.190844032000419e-12 	101324.9999999904
-0.3240740740740744 	299.9999999999931 	2.676895621457694e-12 	101324.9999999903
-0.3215715715715718 	300.0000000000063 	4.712078745700562e-12 	101324.9999999904
-0.3190690690690695 	299.9999999999188 	2.246275512311971e-12 	101324.9999999903
-0.3165665665665668 	299.9999999999883 	5.135702806480851e-12 	101324.9999999906
-0.3140640640640644 	300.0000000000067 	2.017004744423285e-12 	101324.9999999904
-0.311561561561562 	299.9999999999153 	6.244130750684685e-12 	101324.9999999903
-0.3090590590590593 	299.9999999999929 	1.191476978792356e-12 	101324.9999999904
-0.3065565565565568 	300.0000000000015 	6.82791293905678e-12 	101324.9999999906
-0.3040540540540545 	300.0000000000077 	1.39641258783145e-12 	101324.9999999904
-0.3015515515515518 	300.0000000000431 	6.031605820088813e-12 	101324.9999999905
-0.2990490490490494 	299.9999999999408 	1.822156903873326e-12 	101324.9999999905
-0.2965465465465469 	299.9999999999831 	4.891693013558153e-12 	101324.9999999903
-0.2940440440440444 	300.0000000000009 	3.255686132786592e-12 	101324.9999999904
-0.2915415415415418 	300.0000000000063 	4.205249925972807e-12 	101324.9999999904
-0.2890390390390395 	300.0000000000069 	4.302532125828844e-12 	101324.9999999903
-0.2865365365365368 	299.9999999999814 	3.230829950305513e-12 	101324.9999999905
-0.2840340340340343 	300.0000000000034 	5.022639279702111e-12 	101324.9999999904
-0.2815315315315318 	299.9999999999155 	2.642965345847345e-12 	101324.9999999901
-0.2790290290290295 	299.9999999999517 	4.698942077405476e-12 	101324.9999999902
-0.2765265265265269 	300.0000000000052 	3.088161133663247e-12 	101324.99999999
-0.2740240240240244 	300.0000000000313 	4.280595284252145e-12 	101324.9999999897
-0.2715215215215219 	300.0000000000144 	4.229577395214717e-12 	101324.9999999896
-0.2690190190190194 	299.9999999999405 	4.251561074872757e-12 	101324.9999999896
-0.2665165165165169 	299.9999999999987 	4.756772784538707e-12 	101324.9999999897
-0.2640140140140144 	299.9999999999629 	3.557312017307582e-12 	101324.9999999898
-0.2615115115115119 	300.000000000003 	5.064242911722868e-12 	101324.9999999896
-0.2590090090090094 	299.9999999999238 	3.354655840775504e-12 	101324.9999999894
-0.2565065065065068 	299.9999999999946 	3.385112147270526e-12 	101324.9999999896
-0.2540040040040044 	299.9999999999965 	3.701924699854567e-12 	101324.9999999895
-0.2515015015015019 	300.0000000000445 	2.125962082070603e-12 	101324.9999999895
-0.2489989989989994 	300.0000000000489 	4.67390350841013e-12 	101324.9999999895
-0.2464964964964968 	299.9999999999882 	1.499063296607428e-12 	101324.9999999898
-0.2439939939939944 	299.9999999999945 	5.963293002851733e-12 	101324.9999999898
-0.2414914914914919 	299.9999999999653 	1.787141712378052e-12 	101324.9999999899
-0.2389889889889893 	300.0000000000033 	6.807798956357915e-12 	101324.99999999
-0.2364864864864869 	300.0000000000251 	1.779226707392209e-12 	101324.9999999899
-0.2339839839839843 	299.9999999999152 	6.771660402004784e-12 	101324.9999999901
-0.2314814814814819 	299.9999999999811 	1.994836443113771e-12 	101324.9999999901
-0.2289789789789792 	299.9999999999048 	5.90239938183596e-12 	101324.99999999
-0.2264764764764769 	299.9999999999414 	2.742695153336808e-12 	101324.9999999901
-0.2239739739739743 	299.9999999999513 	5.477115272686731e-12 	101324.9999999899
-0.2214714714714718 	299.9999999999271 	4.459137224451029e-12 	101324.9999999895
-0.2189689689689693 	299.9999999999642 	4.563878208096449e-12 	101324.9999999895
-0.2164664664664669 	299.9999999999788 	5.603784711100267e-12 	101324.9999999893
-0.2139639639639643 	299.9999999999217 	4.152387796221142e-12 	101324.999999989
-0.2114614614614618 	299.9999999999691 	4.870790832712391e-12 	101324.9999999889
-0.2089589589589593 	299.9999999999872 	4.629050185227447e-12 	101324.999999989
-0.2064564564564568 	299.9999999999863 	4.009974399327911e-12 	101324.9999999887
-0.2039539539539543 	299.9999999998936 	5.213883046718935e-12 	101324.9999999889
-0.2014514514514518 	299.999999999936 	2.559547777263006e-12 	101324.9999999889
-0.1989489489489494 	299.9999999999587 	5.994584866341131e-12 	101324.9999999889
-0.1964464464464468 	299.9999999999876 	1.630798806531269e-12 	101324.9999999892
-0.1939439439439443 	299.9999999999847 	5.182199751990824e-12 	101324.9999999895
-0.1914414414414418 	299.9999999999038 	2.508922882854043e-12 	101324.9999999896
-0.1889389389389393 	300.0000000000107 	5.277735461390198e-12 	101324.9999999898
-0.1864364364364368 	300.0000000000495 	3.718653493644116e-12 	101324.99999999
-0.1839339339339343 	299.9999999999694 	5.223307935405022e-12 	101324.9999999901
-0.1814314314314318 	299.9999999999975 	3.62734830673224e-12 	101324.9999999901
-0.1789289289289293 	299.9999999998852 	5.376008428552383e-12 	101324.9999999901
-0.1764264264264268 	299.9999999999794 	2.688885277192805e-12 	101324.9999999901
-0.1739239239239243 	299.9999999998848 	5.906907911323484e-12 	101324.9999999902
-0.1714214214214218 	299.9999999999849 	1.564624298126859e-12 	101324.9999999902
-0.1689189189189193 	299.9999999999467 	7.077144419047725e-12 	101324.9999999904
-0.1664164164164168 	300.000000000007 	7.645679730985397e-13 	101324.9999999904
-0.1639139139139143 	299.9999999999812 	8.40617138986317e-12 	101324.9999999905
-0.1614114114114118 	300.0000000000299 	2.195652616227441e-12 	101324.9999999904
-0.1589089089089093 	299.999999999994 	1.022052659121188e-11 	101324.9999999904
-0.1564064064064068 	299.9999999999814 	3.700491577944526e-12 	101324.9999999903
-0.1539039039039043 	299.9999999999887 	1.072555949243913e-11 	101324.9999999901
-0.1514014014014018 	300.000000000028 	3.211554476255387e-12 	101324.9999999901
-0.1488988988988993 	299.9999999999802 	9.499551368291413e-12 	101324.99999999
-0.1463963963963968 	300 	1.887782366416359e-12 	101324.9999999901
-0.1438938938938943 	299.9999999999442 	8.47559400490692e-12 	101324.9999999902
-0.1413913913913918 	299.9999999999196 	1.414705496802233e-12 	101324.9999999903
-0.1388888888888893 	299.9999999999788 	7.072863484446499e-12 	101324.9999999902
-0.1363863863863868 	299.9999999998744 	2.136868388655536e-12 	101324.9999999904
-0.1338838838838843 	299.9999999998998 	5.192066631903973e-12 	101324.9999999906
-0.1313813813813818 	299.9999999999903 	1.608372402772724e-12 	101324.9999999906
-0.1288788788788793 	299.9999999999574 	4.782519340972576e-12 	101324.9999999907
-0.1263763763763768 	299.9999999999582 	1.55414591719991e-12 	101324.9999999907
-0.1238738738738743 	299.9999999999157 	5.267495478841758e-12 	101324.9999999906
-0.1213713713713717 	299.9999999999719 	1.095486911382371e-12 	101324.9999999905
-0.1188688688688693 	300.0000000000038 	5.872033189156083e-12 	101324.9999999904
-0.1163663663663668 	299.9999999998981 	6.370171495397039e-13 	101324.9999999904
-0.1138638638638643 	299.9999999999898 	6.047242068131478e-12 	101324.9999999907
-0.1113613613613618 	299.9999999999845 	7.979736681229542e-13 	101324.9999999906
-0.1088588588588592 	299.9999999999708 	5.943924369606861e-12 	101324.9999999906
-0.1063563563563568 	299.9999999999447 	1.446587055120034e-12 	101324.9999999908
-0.1038538538538543 	299.9999999999687 	4.153551423504426e-12 	101324.9999999908
-0.1013513513513517 	300.0000000000178 	4.2176566763149e-13 	101324.9999999909
-0.09884884884884926 	299.9999999999349 	4.067123779760808e-12 	101324.9999999908
-0.09634634634634676 	299.9999999998735 	7.72001859923647e-13 	101324.9999999906
-0.09384384384384425 	299.9999999999186 	2.879189694158546e-12 	101324.9999999903
-0.09134134134134177 	300.0000000000275 	1.093849969006174e-12 	101324.9999999904
-0.08883883883883925 	300.0000000000142 	3.139612577078375e-12 	101324.9999999904
-0.08633633633633674 	299.9999999999494 	2.091390104035362e-12 	101324.9999999904
-0.08383383383383426 	300.0000000000076 	2.438767825006017e-12 	101324.9999999899
-0.08133133133133173 	299.9999999999612 	2.326720584210243e-12 	101324.9999999896
-0.07882882882882926 	299.9999999998667 	2.023546148418796e-12 	101324.9999999892
-0.07632632632632676 	299.99999999995 	1.904058856800688e-12 	101324.9999999894
-0.07382382382382424 	299.9999999998831 	2.074873576529057e-12 	101324.9999999897
-0.07132132132132173 	300.0000000000138 	1.591261775052204e-12 	101324.9999999898
-0.06881881881881925 	299.9999999999497 	1.522477864088138e-12 	101324.9999999897
-0.06631631631631671 	299.9999999998773 	9.918355867400979e-13 	101324.9999999895
-0.06381381381381425 	299.9999999999475 	7.705666414471934e-13 	101324.9999999892
-0.06131131131131173 	299.999999999949 	7.687722335306318e-13 	101324.9999999892
-0.05880880880880923 	299.9999999999009 	1.474808573149066e-13 	101324.9999999891
-0.05630630630630672 	299.9999999999599 	5.973910208866989e-13 	101324.9999999889
-0.05380380380380424 	300.0000000000155 	4.950189396416395e-13 	101324.9999999887
-0.05130130130130173 	300.0000000000136 	2.965064499441591e-13 	101324.9999999887
-0.04879879879879922 	299.9999999999345 	1.07174294859724e-12 	101324.9999999892
-0.04629629629629672 	299.9999999999195 	1.370167192128181e-12 	101324.9999999893
-0.04379379379379422 	299.9999999999063 	2.722089445184078e-12 	101324.9999999897
-0.04129129129129173 	299.9999999999717 	2.351846187328592e-12 	101324.9999999901
-0.03878878878878922 	299.9999999999765 	3.115818864689513e-12 	101324.9999999901
-0.03628628628628671 	299.9999999999756 	2.974636881747586e-12 	101324.99999999
-0.03378378378378422 	299.9999999999126 	3.033329481166842e-12 	101324.9999999901
-0.03128128128128172 	299.9999999999613 	2.589209564052919e-12 	101324.9999999904
-0.02877877877877922 	299.9999999999623 	3.19382179682043e-12 	101324.9999999904
-0.0262762762762767 	299.9999999998848 	2.858895924743021e-12 	101324.9999999905
-0.02377377377377422 	300.0000000000192 	1.803572325264555e-12 	101324.9999999905
-0.0212712712712717 	299.9999999998869 	2.002879786999106e-12 	101324.9999999905
-0.01876876876876921 	299.9999999999628 	1.196803479952676e-12 	101324.9999999903
-0.01626626626626671 	300.000000000018 	1.795875595175763e-12 	101324.9999999902
-0.0137637637637642 	299.9999999999567 	1.297061108332701e-12 	101324.9999999899
-0.0112612612612617 	300.0000000000148 	1.060612055093329e-12 	101324.9999999897
-0.008758758758759198 	299.9999999999916 	9.354449975739321e-13 	101324.9999999896
-0.006256256256256697 	299.9999999998694 	1.203924118211601e-12 	101324.9999999894
-0.003753753753754195 	299.9999999999445 	4.509729771308487e-13 	101324.9999999894
-0.001251251251251693 	299.9999999999176 	5.564337618105232e-13 	101324.9999999891
0.00125125125125081 	299.9999999999441 	3.637703570901669e-13 	101324.999999989
0.003753753753753312 	299.9999999999585 	1.362895011540369e-12 	101324.9999999889
0.006256256256255817 	299.9999999998669 	1.304671601639897e-12 	101324.9999999892
0.008758758758758317 	299.9999999999886 	1.701229087344128e-12 	101324.9999999892
0.01126126126126082 	300.0000000000103 	2.041945871135189e-12 	101324.9999999893
0.01376376376376332 	299.9999999999616 	2.414617828633281e-12 	101324.9999999892
0.01626626626626582 	300.0000000000143 	1.990854439321917e-12 	101324.9999999892
0.01876876876876833 	299.999999999949 	2.209564015436122e-12 	101324.9999999891
0.02127127127127083 	299.9999999999641 	1.52481435689232e-12 	101324.9999999891
0.02377377377377332 	299.9999999999965 	1.257850633204041e-12 	101324.9999999893
0.02627627627627583 	299.9999999998874 	1.849565052757637e-13 	101324.9999999893
0.02877877877877833 	300.0000000000093 	6.235479968274759e-13 	101324.9999999894
0.03128128128128083 	299.9999999999368 	1.045075093285692e-13 	101324.9999999894
0.03378378378378333 	299.9999999998882 	7.218730058056889e-13 	101324.9999999893
0.03628628628628584 	299.9999999999678 	9.318635823285828e-13 	101324.9999999894
0.03878878878878834 	299.9999999999761 	7.223899810103705e-13 	101324.9999999895
0.04129129129129084 	299.9999999999708 	8.870371925775071e-13 	101324.9999999897
0.04379379379379333 	299.9999999999287 	1.229015114010715e-12 	101324.9999999896
0.04629629629629585 	299.9999999998748 	1.33130176438633e-12 	101324.9999999896
0.04879879879879834 	299.9999999999445 	1.594619194128219e-12 	101324.9999999898
0.05130130130130085 	300.0000000000103 	1.323582436457225e-12 	101324.99999999
0.05380380380380335 	300.0000000000169 	1.076304449070099e-12 	101324.9999999899
0.05630630630630584 	299.9999999999865 	8.526765358201825e-13 	101324.99999999
0.05880880880880836 	299.9999999999091 	7.641270784294172e-13 	101324.9999999897
0.06131131131131085 	299.9999999999699 	2.570903510902835e-13 	101324.9999999898
0.06381381381381336 	299.9999999999552 	2.137589743722136e-13 	101324.9999999899
0.06631631631631586 	299.9999999998731 	7.000743072319008e-13 	101324.99999999
0.06881881881881835 	299.9999999999414 	1.01295812169934e-12 	101324.9999999901
0.07132132132132088 	299.9999999999835 	6.370126434344383e-13 	101324.9999999902
0.07382382382382337 	299.9999999998875 	1.135750413107911e-12 	101324.9999999905
0.07632632632632587 	299.9999999999663 	1.361793417785179e-12 	101324.9999999906
0.07882882882882837 	299.9999999999271 	1.511111081760943e-12 	101324.9999999904
0.08133133133133086 	299.9999999999798 	1.896738952963308e-12 	101324.99999999
0.08383383383383337 	299.9999999999793 	1.927328364255227e-12 	101324.9999999904
0.08633633633633589 	299.9999999998939 	2.102702863270515e-12 	101324.9999999901
0.08883883883883838 	300.0000000000115 	2.579715742586417e-12 	101324.9999999901
0.09134134134134086 	299.9999999999878 	1.950825971773591e-12 	101324.9999999901
0.09384384384384339 	299.9999999998795 	2.716881992961645e-12 	101324.9999999897
0.09634634634634588 	299.9999999999625 	2.438689799786487e-12 	101324.9999999894
0.09884884884884838 	299.9999999999682 	2.02530206708464e-12 	101324.9999999892
0.1013513513513509 	300.0000000000186 	1.274274920808802e-12 	101324.9999999889
0.1038538538538534 	299.9999999999431 	1.057075736647521e-12 	101324.9999999892
0.1063563563563559 	300.0000000000168 	1.492691211706385e-12 	101324.9999999896
0.1088588588588584 	300.0000000000318 	9.965438202517087e-13 	101324.9999999895
0.1113613613613609 	299.9999999999019 	1.305471553369476e-12 	101324.9999999894
0.1138638638638634 	299.9999999999352 	1.534844947382151e-12 	101324.9999999897
0.1163663663663659 	299.9999999999342 	1.591689791000267e-12 	101324.9999999898
0.1188688688688684 	299.9999999999635 	1.293444677388784e-12 	101324.99999999
0.1213713713713709 	299.9999999999933 	6.933629200241605e-13 	101324.99999999
0.1238738738738734 	299.9999999999142 	1.486727551817663e-12 	101324.99999999
0.1263763763763759 	299.999999999986 	2.156978238556616e-12 	101324.9999999899
0.1288788788788784 	299.9999999999881 	2.747141487085578e-12 	101324.9999999896
0.1313813813813809 	299.9999999999861 	3.832579134121716e-12 	101324.9999999896
0.1338838838838834 	299.999999999969 	4.804176056473985e-12 	101324.9999999897
0.1363863863863859 	300.0000000000336 	5.085947375492633e-12 	101324.9999999897
0.1388888888888884 	300.0000000000525 	4.861526700388284e-12 	101324.9999999897
0.1413913913913909 	300.0000000000011 	4.41086038491058e-12 	101324.9999999896
0.1438938938938934 	299.9999999999923 	4.507846652604548e-12 	101324.9999999894
0.1463963963963959 	299.9999999999546 	2.932562075165372e-12 	101324.9999999896
0.1488988988988985 	299.9999999998978 	4.017867643453241e-12 	101324.9999999893
0.1514014014014009 	299.9999999999595 	2.361623967410002e-12 	101324.9999999891
0.1539039039039035 	299.9999999999571 	3.866891694934773e-12 	101324.9999999891
0.1564064064064059 	299.9999999999229 	8.973251001497502e-13 	101324.9999999891
0.1589089089089084 	299.9999999999769 	3.942579617221644e-12 	101324.9999999893
0.1614114114114109 	299.999999999971 	9.408324876230881e-13 	101324.9999999894
0.1639139139139134 	299.9999999998968 	2.38495507003138e-12 	101324.9999999896
0.166416416416416 	300.0000000000113 	1.724183128274043e-12 	101324.9999999893
0.1689189189189185 	300.0000000000314 	2.281765164470574e-12 	101324.9999999894
0.1714214214214209 	299.9999999999964 	3.071344353916056e-12 	101324.9999999893
0.1739239239239235 	299.9999999999849 	1.004852169668384e-12 	101324.9999999895
0.1764264264264259 	299.9999999999615 	2.844202560707211e-12 	101324.9999999895
0.1789289289289284 	300.0000000000061 	3.976047751576832e-13 	101324.9999999896
0.181431431431431 	299.9999999999579 	2.817253985313414e-12 	101324.9999999896
0.1839339339339334 	299.9999999999651 	1.065655487792689e-12 	101324.9999999894
0.186436436436436 	299.9999999999101 	2.603429681599359e-12 	101324.9999999893
0.1889389389389385 	299.9999999999799 	2.910391488434128e-12 	101324.9999999892
0.191441441441441 	299.9999999999742 	2.901684123634934e-12 	101324.9999999892
0.1939439439439434 	299.9999999999047 	4.267185418414872e-12 	101324.9999999891
0.196446446446446 	299.9999999999363 	2.422542220275824e-12 	101324.9999999889
0.1989489489489485 	299.9999999999619 	5.321168034446907e-12 	101324.9999999889
0.2014514514514509 	299.9999999999798 	3.496545967376852e-12 	101324.9999999889
0.2039539539539535 	299.9999999999902 	5.221630928609028e-12 	101324.9999999891
0.2064564564564559 	299.999999999953 	4.607297985313307e-12 	101324.999999989
0.2089589589589585 	299.9999999999774 	5.116616650044228e-12 	101324.9999999891
0.211461461461461 	299.9999999999238 	5.298061757532216e-12 	101324.9999999891
0.2139639639639635 	299.9999999999794 	4.384785367322369e-12 	101324.9999999892
0.2164664664664659 	299.9999999999925 	5.55150960775823e-12 	101324.9999999894
0.2189689689689684 	299.9999999999926 	2.969570245319434e-12 	101324.9999999895
0.221471471471471 	299.9999999999909 	5.203105045294021e-12 	101324.9999999894
0.2239739739739735 	299.9999999999501 	2.309517587280456e-12 	101324.9999999894
0.226476476476476 	299.9999999999745 	3.226880261427276e-12 	101324.9999999894
0.2289789789789785 	299.9999999999954 	1.709889194756931e-12 	101324.9999999894
0.231481481481481 	299.9999999999868 	1.948368748718348e-12 	101324.9999999892
0.2339839839839835 	299.9999999999847 	2.736623905981359e-12 	101324.9999999892
0.236486486486486 	300.0000000000249 	1.891893328586237e-12 	101324.9999999893
0.2389889889889885 	300.0000000000032 	3.577239813607002e-12 	101324.9999999892
0.241491491491491 	299.999999999911 	1.62619971444231e-12 	101324.9999999894
0.2439939939939935 	299.9999999999823 	4.764681106367234e-12 	101324.9999999895
0.246496496496496 	299.9999999999908 	2.018950462902628e-12 	101324.9999999896
0.2489989989989985 	300.000000000041 	4.017884361652418e-12 	101324.9999999895
0.251501501501501 	300.0000000000356 	2.924385881209887e-12 	101324.9999999896
0.2540040040040035 	299.9999999999885 	3.453008950021598e-12 	101324.9999999897
0.256506506506506 	300.0000000000316 	3.989609621875558e-12 	101324.9999999898
0.2590090090090086 	299.9999999998938 	2.89860810661958e-12 	101324.9999999899
0.261511511511511 	300.0000000000004 	5.326326291721217e-12 	101324.99999999
0.2640140140140135 	299.9999999999881 	2.832290339431716e-12 	101324.9999999898
0.2665165165165161 	299.9999999999174 	4.775722418893258e-12 	101324.9999999896
0.2690190190190185 	300.000000000012 	3.403518123471094e-12 	101324.9999999896
0.271521521521521 	300.0000000000151 	3.129345833168889e-12 	101324.9999999895
0.2740240240240235 	300.0000000000179 	2.303416586409402e-12 	101324.9999999893
0.276526526526526 	300.0000000000077 	1.077722507597681e-12 	101324.9999999893
0.2790290290290286 	299.9999999999345 	1.970435916642372e-12 	101324.9999999894
0.281531531531531 	299.9999999999175 	8.2436183400202e-13 	101324.9999999897
0.2840340340340335 	299.9999999999727 	2.324138416485028e-12 	101324.9999999896
0.2865365365365361 	299.9999999999522 	6.627385908243422e-13 	101324.9999999895
0.2890390390390385 	299.9999999999982 	8.519270629429824e-13 	101324.9999999896
0.291541541541541 	299.9999999999981 	9.983655295646962e-13 	101324.9999999893
0.2940440440440436 	299.9999999999881 	6.439129976453267e-13 	101324.9999999893
0.296546546546546 	299.999999999992 	1.835877646366657e-12 	101324.9999999892
0.2990490490490486 	299.9999999999251 	2.12788461570828e-12 	101324.9999999893
0.3015515515515511 	300.0000000000383 	3.089221561989052e-12 	101324.9999999894
0.3040540540540535 	299.9999999999936 	3.508808193323965e-12 	101324.9999999896
0.3065565565565562 	299.9999999999961 	3.538610829057351e-12 	101324.9999999897
0.3090590590590585 	299.9999999999869 	3.105507559801247e-12 	101324.9999999897
0.3115615615615611 	299.9999999999317 	3.16940214782107e-12 	101324.9999999898
0.3140640640640635 	300.0000000000072 	1.703444132601405e-12 	101324.9999999897
0.316566566566566 	299.9999999999918 	2.555233888820138e-12 	101324.9999999897
0.3190690690690687 	299.9999999999421 	1.398427698401808e-12 	101324.9999999896
0.3215715715715711 	300.0000000000182 	2.066329446452617e-12 	101324.9999999896
0.3240740740740735 	299.9999999999987 	1.510026065575083e-12 	101324.9999999898
0.326576576576576 	299.9999999998957 	1.481886976882216e-12 	101324.9999999899
0.3290790790790786 	300.0000000000098 	3.852139177268106e-13 	101324.9999999901
0.3315815815815811 	300.0000000000361 	1.234723815284981e-12 	101324.9999999899
0.3340840840840836 	299.9999999999833 	6.477074397486535e-13 	101324.9999999898
0.3365865865865861 	300.0000000000619 	1.151933961211785e-12 	101324.9999999899
0.3390890890890886 	300.0000000000543 	8.200854929231503e-13 	101324.99999999
0.3415915915915911 	300.0000000000011 	1.108416693543006e-12 	101324.9999999901
0.3440940940940935 	299.9999999999407 	7.596423458794021e-13 	101324.9999999903
0.3465965965965962 	300.0000000000379 	1.282893112771383e-12 	101324.9999999904
0.3490990990990985 	300.0000000000297 	5.047901031394414e-13 	101324.9999999902
0.3516016016016011 	299.9999999999885 	8.349380459066956e-14 	101324.9999999902
0.3541041041041035 	300.0000000000078 	2.243987389630083e-13 	101324.9999999902
0.3566066066066061 	299.9999999999531 	1.032675481269004e-12 	101324.9999999902
0.3591091091091085 	299.9999999999111 	1.016082912048033e-12 	101324.9999999898
0.3616116116116112 	299.9999999999316 	1.445706661293732e-12 	101324.9999999898
0.3641141141141137 	299.9999999999234 	2.493547387439788e-12 	101324.9999999897
0.3666166166166161 	299.9999999999185 	1.868535553216808e-12 	101324.9999999896
0.3691191191191185 	300.0000000000448 	4.077371534558179e-12 	101324.9999999897
0.371621621621621 	300.0000000000117 	1.865413220415246e-12 	101324.9999999898
0.3741241241241237 	300.0000000000512 	2.598477924011853e-12 	101324.9999999899
0.3766266266266261 	300.0000000000345 	1.738992427339151e-12 	101324.9999999897
0.3791291291291286 	299.9999999999829 	1.278554706914607e-12 	101324.9999999896
0.3816316316316311 	299.9999999999097 	1.991954032508211e-12 	101324.9999999894
0.3841341341341336 	300.0000000000111 	1.436434221041787e-12 	101324.9999999894
0.3866366366366362 	299.9999999999976 	9.154757529406105e-13 	101324.9999999896
0.3891391391391387 	299.9999999999512 	1.230238948735412e-12 	101324.9999999897
0.391641641641641 	299.9999999999936 	1.176169259925146e-12 	101324.9999999897
0.3941441441441436 	300.0000000000114 	6.978942683174195e-13 	101324.9999999896
0.3966466466466462 	300.0000000000018 	1.147611473434608e-12 	101324.9999999894
0.3991491491491486 	299.9999999999435 	6.014933782684597e-13 	101324.9999999894
0.4016516516516512 	299.9999999999073 	1.162812654486475e-12 	101324.9999999894
0.4041541541541536 	299.9999999999395 	9.606352468062227e-13 	101324.9999999893
0.4066566566566561 	299.9999999999421 	1.304485235085395e-12 	101324.9999999894
0.4091591591591587 	299.999999999993 	6.17152343511651e-13 	101324.9999999895
0.4116616616616612 	300.0000000000064 	1.088400496118886e-12 	101324.9999999894
0.4141641641641635 	300.0000000000429 	6.528338831834295e-13 	101324.9999999894
0.4166666666666662 	299.9999999999921 	6.812359273493661e-13 	101324.9999999891
0.4191691691691687 	299.9999999999366 	1.910011227422357e-12 	101324.9999999889
0.421671671671671 	300.0000000000157 	1.547165434453284e-12 	101324.9999999889
0.4241741741741737 	299.9999999999695 	3.505842842350024e-12 	101324.9999999889
0.4266766766766761 	299.9999999999446 	2.175797521289691e-12 	101324.9999999888
0.4291791791791785 	300.0000000000192 	3.617192835001139e-12 	101324.9999999891
0.4316816816816812 	300.0000000000113 	3.31772587902556e-12 	101324.9999999891
0.4341841841841836 	299.9999999999843 	2.837623730789307e-12 	101324.9999999893
0.4366866866866862 	299.9999999999137 	2.161910897565672e-12 	101324.9999999896
0.4391891891891885 	299.9999999999864 	2.284272135500149e-12 	101324.9999999897
0.4416916916916913 	299.9999999999782 	1.667487701110471e-12 	101324.9999999896
0.4441941941941936 	299.9999999999831 	1.358370929547577e-12 	101324.9999999894
0.4466966966966961 	299.9999999999044 	9.477928224920213e-13 	101324.9999999893
0.4491991991991987 	299.9999999999781 	2.73079631684516e-13 	101324.9999999894
0.4517017017017012 	299.9999999999761 	3.486182818186814e-13 	101324.9999999893
0.4542042042042035 	299.9999999999769 	4.594795357223414e-13 	101324.9999999897
0.4567067067067062 	299.9999999999931 	6.8833885763146e-13 	101324.9999999899
0.4592092092092087 	299.999999999918 	8.548984920884209e-13 	101324.99999999
0.4617117117117112 	300.0000000000196 	1.15090321071073e-12 	101324.9999999899
0.4642142142142137 	299.9999999999561 	1.591290652163168e-12 	101324.9999999896
0.4667167167167162 	299.999999999989 	1.60309986763215e-12 	101324.9999999894
0.4692192192192187 	299.9999999999488 	1.792829085160316e-12 	101324.9999999892
0.4717217217217212 	300.0000000000159 	1.609816009051044e-12 	101324.9999999892
0.4742242242242236 	299.9999999999499 	1.357636510904553e-12 	101324.9999999893
0.4767267267267262 	299.9999999999773 	6.305085566504318e-13 	101324.9999999893
0.4792292292292287 	300.0000000000157 	4.022646688181512e-13 	101324.9999999892
0.4817317317317312 	300.0000000000347 	4.761216630308596e-13 	101324.9999999891
0.4842342342342336 	299.9999999999856 	8.704187574491615e-13 	101324.9999999891
0.4867367367367362 	299.9999999999482 	8.19221647322897e-13 	101324.9999999894
0.4892392392392387 	300.0000000000301 	1.835518075571494e-12 	101324.9999999895
0.4917417417417412 	300.0000000000071 	7.09353946256772e-13 	101324.9999999896
0.4942442442442437 	299.9999999998973 	1.27163012722367e-12 	101324.9999999895
0.4967467467467462 	299.9999999999148 	1.635558835284165e-12 	101324.9999999897
0.4992492492492487 	299.9999999999092 	5.354788118590582e-13 	101324.9999999898
0.5017517517517511 	299.9999999999482 	1.080086459297708e-12 	101324.9999999899
0.5042542542542537 	299.9999999999631 	3.340363579651218e-13 	101324.9999999899
0.5067567567567562 	299.9999999999384 	1.523699339871471e-13 	101324.9999999898
0.5092592592592589 	299.999999999966 	8.50535539401769e-13 	101324.9999999898
0.5117617617617611 	299.9999999999517 	2.20930254009156e-12 	101324.9999999895
0.5142642642642637 	299.9999999999841 	1.497874462936342e-12 	101324.9999999893
0.5167667667667663 	299.9999999999692 	3.961392212706233e-12 	101324.9999999894
0.5192692692692688 	299.9999999999117 	1.888620803730149e-12 	101324.9999999894
0.5217717717717714 	299.9999999999272 	5.40758778493448e-12 	101324.9999999893
0.5242742742742736 	299.9999999999299 	1.438792807162101e-12 	101324.9999999894
0.5267767767767763 	299.9999999999494 	5.626814440618948e-12 	101324.9999999896
0.5292792792792789 	299.9999999999313 	2.834845821019792e-12 	101324.9999999899
0.5317817817817813 	299.9999999999005 	6.170435011902199e-12 	101324.9999999901
0.5342842842842837 	300.0000000000163 	3.965618892942119e-12 	101324.9999999901
0.5367867867867864 	300.0000000000038 	5.656241148591139e-12 	101324.9999999903
0.5392892892892888 	299.9999999999523 	4.306104374518096e-12 	101324.9999999902
0.5417917917917912 	300.0000000000033 	5.319784958024183e-12 	101324.9999999903
0.5442942942942938 	299.9999999999829 	3.57245249663263e-12 	101324.9999999905
0.5467967967967964 	299.9999999999497 	4.175563543329411e-12 	101324.9999999906
0.5492992992992988 	299.9999999999399 	2.615314682310593e-12 	101324.9999999906
0.5518018018018012 	299.9999999999334 	3.380789588950493e-12 	101324.9999999908
0.5543043043043039 	300.0000000000226 	2.933101922484319e-12 	101324.9999999909
0.5568068068068063 	299.9999999999897 	4.104585595254754e-12 	101324.9999999909
0.5593093093093087 	299.9999999998947 	3.227444924347013e-12 	101324.9999999909
0.5618118118118114 	299.9999999999544 	4.798134532410162e-12 	101324.9999999908
0.5643143143143137 	299.999999999935 	3.936923343888945e-12 	101324.9999999907
0.5668168168168163 	299.9999999999915 	4.927838707354684e-12 	101324.9999999906
0.5693193193193188 	300.0000000000343 	4.868954215170865e-12 	101324.9999999905
0.5718218218218213 	300.0000000000279 	4.483327653718621e-12 	101324.9999999906
0.5743243243243239 	300.0000000000088 	5.349028787695725e-12 	101324.9999999905
0.5768268268268262 	300.0000000000067 	3.357196185167437e-12 	101324.9999999906
0.5793293293293288 	299.9999999999449 	5.787944856420444e-12 	101324.9999999907
0.5818318318318314 	299.9999999999106 	2.355201775901667e-12 	101324.9999999907
0.5843343343343338 	299.9999999999786 	6.112061956978579e-12 	101324.9999999907
0.5868368368368363 	299.9999999999715 	2.304294151529228e-12 	101324.9999999906
0.5893393393393387 	299.9999999999392 	6.007791095680782e-12 	101324.9999999908
0.5918418418418413 	299.9999999999364 	3.688592906912984e-12 	101324.9999999909
0.5943443443443439 	300.0000000000119 	6.374732812772071e-12 	101324.9999999911
0.5968468468468463 	300.0000000000192 	4.76899559615991e-12 	101324.999999991
0.5993493493493487 	300.0000000000478 	6.468984547048418e-12 	101324.9999999908
0.6018518518518514 	299.99999999998 	4.78886999332397e-12 	101324.9999999908
0.6043543543543537 	299.999999999992 	6.056749520293235e-12 	101324.9999999905
0.6068568568568564 	299.999999999981 	4.0468166005005e-12 	101324.9999999904
0.6093593593593587 	299.9999999999313 	4.463281912494113e-12 	101324.9999999905
0.6118618618618614 	299.9999999999183 	3.472284520461093e-12 	101324.9999999904
0.6143643643643638 	300.0000000000115 	4.749583522983469e-12 	101324.9999999904
0.6168668668668662 	299.9999999999785 	3.298223142756126e-12 	101324.9999999905
0.6193693693693688 	299.9999999999554 	5.244607847098327e-12 	101324.9999999906
0.6218718718718714 	299.9999999999654 	3.880741933558486e-12 	101324.9999999909
0.6243743743743737 	299.999999999933 	6.173138322954646e-12 	101324.9999999911
0.6268768768768762 	299.9999999999219 	4.58077285710967e-12 	101324.9999999911
0.629379379379379 	299.9999999999533 	5.520821709104543e-12 	101324.9999999912
0.6318818818818812 	299.999999999977 	5.221935696072111e-12 	101324.9999999911
0.6343843843843838 	300.0000000000169 	5.026086047765079e-12 	101324.9999999909
0.6368868868868864 	299.9999999999828 	5.372378180247637e-12 	101324.999999991
0.6393893893893888 	299.9999999999171 	3.916900979393203e-12 	101324.9999999912
0.6418918918918912 	300.0000000000093 	6.355975392736782e-12 	101324.9999999911
0.6443943943943939 	299.9999999999764 	3.253853113137772e-12 	101324.9999999911
0.6468968968968963 	299.9999999999808 	7.638953909106209e-12 	101324.9999999911
0.6493993993993988 	299.9999999999749 	3.606400096372445e-12 	101324.999999991
0.6519019019019012 	299.9999999999736 	6.554820171998753e-12 	101324.9999999906
0.6544044044044038 	299.9999999998987 	3.565784930654056e-12 	101324.9999999905
0.6569069069069065 	299.9999999999471 	6.777357759909004e-12 	101324.9999999908
0.6594094094094087 	299.9999999999595 	4.534854924259932e-12 	101324.9999999911
0.6619119119119113 	299.9999999999541 	6.894630539998539e-12 	101324.9999999914
0.664414414414414 	300.0000000000106 	5.11636040662621e-12 	101324.9999999914
0.6669169169169162 	300.0000000000239 	6.567839636054037e-12 	101324.9999999915
0.6694194194194188 	299.9999999999862 	4.86582072898835e-12 	101324.9999999917
0.6719219219219214 	299.9999999999159 	6.136685366745428e-12 	101324.9999999918
0.674424424424424 	299.9999999999706 	5.32542353130292e-12 	101324.999999992
0.6769269269269262 	299.9999999999145 	6.544284233000031e-12 	101324.9999999921
0.679429429429429 	300.0000000000052 	5.796609189187998e-12 	101324.9999999918
0.6819319319319311 	299.9999999999845 	6.031660931634772e-12 	101324.9999999917
0.6844344344344341 	299.9999999999981 	4.60149519242269e-12 	101324.9999999918
0.686936936936936 	299.9999999999911 	5.524563107127365e-12 	101324.9999999919
0.6894394394394392 	299.9999999999814 	4.679149738430148e-12 	101324.9999999916
0.6919419419419413 	299.9999999999837 	5.170217829480426e-12 	101324.9999999915
0.694444444444444 	299.9999999999298 	5.955002549436536e-12 	101324.9999999916
0.6969469469469463 	299.9999999999226 	6.911657468685805e-12 	101324.9999999917
0.6994494494494489 	299.9999999999158 	8.387974148510966e-12 	101324.9999999918
0.7019519519519515 	299.9999999999837 	7.871917068282113e-12 	101324.9999999918
0.7044544544544538 	299.9999999999426 	9.465730659524434e-12 	101324.9999999916
0.7069569569569564 	299.9999999999994 	7.465801577414823e-12 	101324.9999999916
0.7094594594594589 	299.9999999999661 	9.925132531076117e-12 	101324.9999999915
0.7119619619619615 	299.9999999999121 	6.889201734702984e-12 	101324.9999999914
0.7144644644644638 	299.9999999999533 	8.357156570908689e-12 	101324.9999999913
0.7169669669669665 	299.9999999999229 	6.956273197169737e-12 	101324.9999999915
0.7194694694694688 	299.9999999999967 	7.883918895144304e-12 	101324.9999999917
0.7219719719719715 	299.9999999999899 	7.140382989213794e-12 	101324.9999999919
0.7244744744744737 	300.0000000000095 	7.285711324250187e-12 	101324.9999999923
0.7269769769769764 	300.0000000000012 	7.258154529254825e-12 	101324.9999999924
0.7294794794794791 	299.999999999989 	5.843766582732482e-12 	101324.9999999926
0.7319819819819813 	299.9999999999802 	7.878418454274347e-12 	101324.9999999927
0.7344844844844839 	299.999999999914 	6.298315087723134e-12 	101324.9999999928
0.7369869869869864 	299.9999999999419 	7.437892728698452e-12 	101324.999999993
0.739489489489489 	299.9999999999355 	6.95118864689523e-12 	101324.9999999929
0.7419919919919914 	299.9999999999242 	7.099451755723584e-12 	101324.999999993
0.7444944944944939 	299.9999999999824 	7.780301333141465e-12 	101324.9999999931
0.7469969969969963 	299.9999999999743 	6.143789997858019e-12 	101324.9999999931
0.7494994994994989 	299.9999999999362 	8.050803169652477e-12 	101324.999999993
0.7520020020020015 	299.9999999999645 	5.116080514693021e-12 	101324.9999999929
0.7545045045045039 	299.9999999999623 	8.192251288457201e-12 	101324.9999999929
0.7570070070070062 	299.9999999999382 	5.305357833619738e-12 	101324.9999999926
0.7595095095095092 	299.9999999999295 	7.417809329474882e-12 	101324.9999999924
0.7620120120120112 	300.0000000000092 	6.7671892412352e-12 	101324.9999999922
0.7645145145145138 	299.9999999999878 	7.128291808662941e-12 	101324.9999999921
0.7670170170170165 	299.9999999999281 	7.309409496834907e-12 	101324.9999999922
0.7695195195195191 	299.9999999999168 	6.026633774020547e-12 	101324.9999999922
0.7720220220220213 	299.9999999999339 	8.425904886843387e-12 	101324.9999999923
0.7745245245245239 	299.999999999926 	6.376700963841979e-12 	101324.9999999922
0.7770270270270263 	299.9999999999611 	8.54746098467731e-12 	101324.9999999921
0.779529529529529 	299.9999999999794 	7.370721300435395e-12 	101324.9999999923
0.7820320320320313 	299.9999999999688 	7.736250893288442e-12 	101324.9999999925
0.784534534534534 	300.0000000000028 	7.559016221358068e-12 	101324.9999999926
0.7870370370370364 	299.9999999999928 	7.397540781772904e-12 	101324.9999999927
0.7895395395395389 	299.9999999999746 	8.386613011828682e-12 	101324.9999999927
0.7920420420420413 	299.9999999999718 	6.910144252605632e-12 	101324.9999999928
0.794544544544544 	299.9999999999719 	8.67780127867494e-12 	101324.999999993
0.7970470470470463 	300.0000000000021 	6.304903273471242e-12 	101324.9999999934
0.799549549549549 	299.9999999999896 	9.608514110569922e-12 	101324.9999999934
0.8020520520520515 	299.9999999999837 	6.837152997963524e-12 	101324.9999999933
0.8045545545545539 	299.9999999999396 	9.041862282505793e-12 	101324.9999999931
0.8070570570570563 	299.999999999982 	7.778753213932208e-12 	101324.9999999929
0.8095595595595589 	299.9999999999568 	8.691297010238758e-12 	101324.9999999928
0.8120620620620614 	299.9999999999376 	8.538060796353477e-12 	101324.9999999928
0.8145645645645638 	300.0000000000014 	7.810884034483402e-12 	101324.9999999929
0.8170670670670666 	300.000000000002 	7.750805191781361e-12 	101324.9999999929
0.8195695695695689 	299.9999999999814 	6.15943658458967e-12 	101324.9999999929
0.8220720720720714 	299.9999999999389 	8.668740140295133e-12 	101324.9999999929
0.8245745745745739 	299.9999999999911 	6.286222238723264e-12 	101324.9999999929
0.8270770770770765 	299.9999999999767 	8.317689718541371e-12 	101324.9999999929
0.8295795795795788 	299.9999999999494 	7.014849669536172e-12 	101324.9999999929
0.8320820820820815 	300.0000000000159 	7.453173696628985e-12 	101324.999999993
0.834584584584584 	300.0000000000026 	6.413919375996826e-12 	101324.9999999929
0.8370870870870865 	299.9999999999512 	6.192810468170183e-12 	101324.9999999927
0.8395895895895891 	299.9999999999185 	7.334430247826898e-12 	101324.9999999926
0.8420920920920915 	299.9999999999484 	7.08400684981806e-12 	101324.9999999926
0.844594594594594 	299.999999999936 	7.351701003391846e-12 	101324.9999999925
0.8470970970970964 	299.9999999999397 	6.848362840929478e-12 	101324.9999999927
0.8495995995995991 	299.9999999999948 	6.224431167697233e-12 	101324.9999999928
0.8521021021021015 	299.9999999999819 	6.409067733992316e-12 	101324.999999993
0.8546046046046039 	299.9999999999712 	6.299246815730597e-12 	101324.9999999931
0.8571071071071066 	300.0000000000055 	7.47514305314773e-12 	101324.9999999932
0.8596096096096089 	299.9999999999702 	5.781450383534862e-12 	101324.9999999931
0.8621121121121116 	299.9999999999367 	8.954363872197491e-12 	101324.999999993
0.8646146146146139 	300.0000000000026 	6.742549660086177e-12 	101324.9999999929
0.8671171171171166 	299.9999999999765 	7.913816646245588e-12 	101324.9999999929
0.8696196196196189 	299.9999999999351 	6.683613345820835e-12 	101324.9999999927
0.8721221221221216 	299.9999999999693 	7.174886812201188e-12 	101324.9999999926
0.874624624624624 	300.0000000000074 	6.531592229715553e-12 	101324.9999999927
0.8771271271271264 	299.9999999999993 	6.028215498562431e-12 	101324.9999999928
0.879629629629629 	299.999999999997 	6.853509311972136e-12 	101324.9999999928
0.8821321321321317 	299.9999999999836 	5.134662476840422e-12 	101324.9999999927
0.8846346346346339 	299.999999999926 	7.632720654988871e-12 	101324.9999999926
0.8871371371371364 	299.999999999955 	5.193948629057358e-12 	101324.9999999926
0.8896396396396391 	299.9999999999555 	6.873408625101572e-12 	101324.9999999926
0.8921421421421414 	299.9999999999642 	5.717965260675775e-12 	101324.9999999926
0.8946446446446441 	299.9999999999879 	6.699501259136833e-12 	101324.9999999928
0.8971471471471464 	300.0000000000026 	6.347749908752267e-12 	101324.999999993
0.8996496496496489 	299.9999999999798 	6.383766521195497e-12 	101324.9999999931
0.9021521521521517 	299.9999999999577 	7.425619734008029e-12 	101324.999999993
0.9046546546546541 	299.9999999999866 	6.361046646754784e-12 	101324.9999999929
0.9071571571571564 	299.9999999999409 	6.935042480221448e-12 	101324.9999999928
0.9096596596596589 	299.9999999999417 	6.82105121488461e-12 	101324.9999999927
0.9121621621621616 	300.0000000000113 	7.134447939545582e-12 	101324.9999999927
0.9146646646646639 	299.9999999999752 	6.945448659962808e-12 	101324.9999999927
0.9171671671671666 	299.9999999999368 	6.816252170919747e-12 	101324.9999999926
0.9196696696696689 	299.999999999996 	7.75435716941353e-12 	101324.9999999926
0.9221721721721714 	299.9999999999973 	5.871823913388737e-12 	101324.9999999927
0.9246746746746741 	299.9999999999392 	7.663232558480373e-12 	101324.9999999928
0.9271771771771765 	299.9999999999451 	5.1239172290981e-12 	101324.9999999926
0.9296796796796791 	299.9999999999899 	7.185122941346885e-12 	101324.9999999926
0.9321821821821816 	299.9999999999739 	5.919977035870663e-12 	101324.9999999929
0.9346846846846838 	299.9999999999529 	7.328031726327716e-12 	101324.9999999932
0.9371871871871866 	300.000000000018 	6.867823148838281e-12 	101324.9999999934
0.9396896896896891 	300.0000000000184 	7.143378033743781e-12 	101324.9999999934
0.9421921921921914 	300.0000000000123 	7.384646585378699e-12 	101324.9999999933
0.9446946946946939 	299.9999999999659 	6.167713190335539e-12 	101324.9999999934
0.9471971971971965 	299.999999999921 	7.682863142584429e-12 	101324.9999999935
0.9496996996996991 	299.9999999999512 	5.779661682273731e-12 	101324.9999999935
0.9522022022022016 	299.9999999999676 	7.572065790848831e-12 	101324.9999999936
0.9547047047047038 	299.9999999999693 	6.751472783641918e-12 	101324.9999999935
0.9572072072072064 	299.9999999999599 	7.757651406245083e-12 	101324.9999999934
0.9597097097097093 	299.9999999999561 	7.177158509570718e-12 	101324.9999999933
0.9622122122122114 	299.9999999999486 	6.846414303386107e-12 	101324.9999999932
0.964714714714714 	299.9999999999478 	7.463456915010441e-12 	101324.9999999931
0.9672172172172167 	299.9999999999543 	6.486997413796429e-12 	101324.9999999932
0.969719719719719 	299.9999999999885 	7.374402127749486e-12 	101324.9999999932
0.9722222222222214 	299.9999999999744 	6.97761306198787e-12 	101324.9999999931
0.9747247247247239 	299.999999999971 	7.131140820851014e-12 	101324.9999999931
0.9772272272272267 	300.0000000000021 	7.159291394369551e-12 	101324.9999999933
0.9797297297297292 	299.9999999999869 	6.686034182983044e-12 	101324.9999999933
0.9822322322322313 	299.9999999999936 	7.389305251551008e-12 	101324.9999999934
0.9847347347347344 	299.9999999999934 	5.678353140293243e-12 	101324.9999999933
0.9872372372372363 	299.9999999999465 	7.91950887054188e-12 	101324.9999999932
0.9897397397397389 	299.9999999999717 	5.627704016346055e-12 	101324.9999999931
0.9922422422422417 	299.9999999999495 	7.451981180519456e-12 	101324.9999999931
0.9947447447447441 	299.9999999999456 	6.148329289587976e-12 	101324.999999993
0.9972472472472468 	299.9999999999555 	7.123944162288537e-12 	101324.999999993
0.999749749749749 	299.9999999999611 	6.58789602263737e-12 	101324.9999999931
1.002252252252252 	299.9999999999841 	6.653615540627472e-12 	101324.9999999931
1.004754754754754 	299.9999999999803 	6.7399087144758e-12 	101324.9999999929
1.007257257257256 	299.999999999964 	5.97460096938353e-12 	101324.999999993
1.009759759759759 	299.9999999999555 	8.052986709757885e-12 	101324.999999993
1.012262262262261 	299.9999999999515 	6.673279821212899e-12 	101324.9999999931
1.014764764764764 	299.9999999999203 	8.593415681503941e-12 	101324.999999993
1.017267267267267 	299.9999999999074 	7.567315629140944e-12 	101324.9999999928
1.019769769769769 	299.999999999945 	8.755054951180783e-12 	101324.9999999927
1.022272272272272 	299.9999999999623 	8.098128100969834e-12 	101324.9999999925
1.024774774774774 	299.9999999999739 	8.042657553793747e-12 	101324.9999999925
1.027277277277277 	299.9999999999707 	9.141309580050292e-12 	101324.9999999924
1.029779779779779 	299.9999999999999 	8.728870454101792e-12 	101324.9999999923
1.032282282282282 	300.0000000000014 	9.648345328443689e-12 	101324.9999999925
1.034784784784784 	299.9999999999909 	8.863057997370968e-12 	101324.9999999927
1.037287287287286 	299.99999999996 	8.716687542252202e-12 	101324.999999993
1.039789789789789 	299.9999999999731 	8.20950365004353e-12 	101324.999999993
1.042292292292291 	300.0000000000102 	8.120855701059681e-12 	101324.9999999929
1.044794794794794 	300.0000000000216 	8.504341524105085e-12 	101324.9999999928
1.047297297297296 	300.0000000000392 	7.381764340049599e-12 	101324.9999999928
1.049799799799799 	299.9999999999912 	8.83730864446657e-12 	101324.9999999929
1.052302302302302 	299.9999999999605 	6.974510377166962e-12 	101324.999999993
1.054804804804804 	299.9999999999392 	8.220988822539192e-12 	101324.9999999932
1.057307307307306 	299.9999999999177 	6.870861854039522e-12 	101324.9999999932
1.059809809809809 	299.999999999949 	7.638348259588151e-12 	101324.9999999932
1.062312312312312 	299.999999999944 	6.898652375585689e-12 	101324.9999999931
1.064814814814814 	299.9999999999404 	7.511220337477281e-12 	101324.9999999932
1.067317317317317 	299.9999999999175 	7.656577705580367e-12 	101324.9999999931
1.069819819819819 	299.9999999999184 	7.579687856163574e-12 	101324.999999993
1.072322322322321 	299.9999999999881 	9.006206137681352e-12 	101324.999999993
1.074824824824824 	300.0000000000169 	7.143362480429283e-12 	101324.9999999929
1.077327327327327 	300.0000000000335 	8.228924443977816e-12 	101324.9999999928
1.079829829829829 	300.0000000000354 	6.92866140547527e-12 	101324.9999999927
1.082332332332332 	299.9999999999967 	7.345994031880617e-12 	101324.9999999926
1.084834834834834 	299.9999999999687 	6.74077854330734e-12 	101324.9999999926
1.087337337337337 	299.999999999932 	6.524781208865398e-12 	101324.9999999927
1.089839839839839 	299.9999999999253 	7.533000409781894e-12 	101324.9999999926
1.092342342342342 	299.9999999999672 	6.149080874483175e-12 	101324.9999999925
1.094844844844844 	299.9999999999699 	7.167132414735948e-12 	101324.9999999925
1.097347347347347 	299.9999999999391 	5.731945669994365e-12 	101324.9999999923
1.099849849849849 	299.9999999999263 	8.385747235042219e-12 	101324.9999999923
1.102352352352352 	299.9999999999544 	6.573665561887646e-12 	101324.9999999922
1.104854854854854 	299.9999999999787 	8.593125132923062e-12 	101324.9999999922
1.107357357357357 	299.99999999996 	7.139671068548557e-12 	101324.9999999923
1.109859859859859 	299.9999999999426 	8.864652640801016e-12 	101324.9999999926
1.112362362362362 	300.0000000000152 	7.597546309472924e-12 	101324.9999999928
1.114864864864865 	300.000000000016 	7.42922646873402e-12 	101324.9999999929
1.117367367367367 	299.9999999999634 	7.951511127809641e-12 	101324.9999999928
1.119869869869869 	299.9999999999233 	6.997693122974009e-12 	101324.9999999928
1.122372372372372 	299.9999999999531 	8.33501949972318e-12 	101324.999999993
1.124874874874874 	299.9999999999488 	7.530052439218885e-12 	101324.999999993
1.127377377377377 	299.9999999999641 	8.774206449526836e-12 	101324.9999999929
1.129879879879879 	300.0000000000204 	8.590675543362293e-12 	101324.9999999927
1.132382382382382 	300.0000000000264 	9.257536980639122e-12 	101324.9999999927
1.134884884884884 	300.0000000000003 	8.661279379588442e-12 	101324.9999999927
1.137387387387387 	300.0000000000132 	8.248651676909871e-12 	101324.9999999925
1.139889889889889 	299.9999999999536 	9.2970099593553e-12 	101324.9999999923
1.142392392392392 	299.9999999999441 	8.378730528949735e-12 	101324.9999999924
1.144894894894894 	300.0000000000129 	9.723382000790042e-12 	101324.9999999923
1.147397397397397 	299.9999999999986 	8.803086065663325e-12 	101324.9999999922
1.149899899899899 	299.9999999999329 	1.0030182344595e-11 	101324.9999999922
1.152402402402402 	299.9999999999199 	9.541724733504867e-12 	101324.9999999922
1.154904904904904 	299.9999999999715 	9.922779787108594e-12 	101324.9999999923
1.157407407407407 	299.9999999999737 	8.882220319836492e-12 	101324.9999999924
1.159909909909909 	299.9999999999347 	8.511702379485067e-12 	101324.9999999925
1.162412412412412 	299.9999999999203 	9.435743809011956e-12 	101324.9999999927
1.164914914914914 	299.9999999999593 	8.148709319495423e-12 	101324.9999999929
1.167417417417417 	299.9999999999678 	9.254225850766183e-12 	101324.9999999929
1.169919919919919 	300.0000000000125 	8.165735673191343e-12 	101324.9999999928
1.172422422422422 	300.0000000000361 	8.832328957528344e-12 	101324.9999999925
1.174924924924925 	299.9999999999819 	7.843506754633918e-12 	101324.9999999925
1.177427427427427 	299.9999999999591 	8.169008962703517e-12 	101324.9999999926
1.179929929929929 	300.0000000000048 	8.437185384642007e-12 	101324.9999999928
1.182432432432432 	300.0000000000261 	7.020737038772792e-12 	101324.999999993
1.184934934934934 	299.9999999999997 	7.827933756531009e-12 	101324.9999999931
1.187437437437437 	299.9999999999816 	6.669863647159588e-12 	101324.9999999931
1.189939939939939 	299.9999999999706 	7.309670900938526e-12 	101324.9999999932
1.192442442442442 	299.9999999999237 	6.776436884250136e-12 	101324.9999999932
1.194944944944944 	299.9999999999339 	8.142319026708284e-12 	101324.9999999931
1.197447447447447 	300.0000000000048 	7.59146699590564e-12 	101324.9999999931
1.199949949949949 	300.0000000000158 	7.387442029070901e-12 	101324.999999993
1.202452452452452 	299.9999999999494 	8.051551447018951e-12 	101324.9999999928
1.204954954954955 	299.9999999999455 	7.026441177633251e-12 	101324.999999993
1.207457457457457 	299.9999999999894 	8.053912141541848e-12 	101324.9999999929
1.20995995995996 	299.9999999999795 	7.573949213302654e-12 	101324.9999999928
1.212462462462462 	299.9999999999736 	8.840699679599426e-12 	101324.9999999929
1.214964964964964 	299.999999999974 	7.992145779441719e-12 	101324.9999999928
1.217467467467467 	299.9999999999757 	8.71504439739068e-12 	101324.9999999928
1.219969969969969 	299.9999999999677 	8.110691946268731e-12 	101324.9999999926
1.222472472472472 	300.0000000000136 	8.470128643026566e-12 	101324.9999999925
1.224974974974975 	300.0000000000268 	8.606950390780103e-12 	101324.9999999925
1.227477477477477 	299.9999999999857 	7.156180115685791e-12 	101324.9999999927
1.229979979979979 	299.9999999999853 	8.014152457445404e-12 	101324.9999999928
1.232482482482482 	299.9999999999491 	6.924366447083814e-12 	101324.9999999928
1.234984984984984 	299.9999999999446 	7.98788477196367e-12 	101324.9999999926
1.237487487487487 	299.9999999999811 	7.103771026369738e-12 	101324.9999999925
1.239989989989989 	299.9999999999887 	7.881693728444565e-12 	101324.9999999925
1.242492492492492 	300.0000000000197 	8.511456254030389e-12 	101324.9999999923
1.244994994994994 	299.9999999999916 	7.518422491243753e-12 	101324.9999999923
1.247497497497497 	300.0000000000006 	8.223048308502029e-12 	101324.9999999924
1.249999999999999 	300.0000000000638 	7.307112354482424e-12 	101324.9999999926
