-1.25 	300 	1 	101295.6107373854
-1.247497497497497 	299.6697026966723 	27.39714455679586 	101360.9023763789
-1.244994994994995 	299.6644216757921 	25.64492818163254 	101315.1756170167
-1.242492492492492 	299.7372344328095 	24.01310928010752 	101362.6243017099
-1.23998998998999 	299.7558497725348 	22.45263907460068 	101333.9175284317
-1.237487487487487 	299.8097983890362 	20.99823549570845 	101366.5634712334
-1.234984984984985 	299.8286378439856 	19.59716607055217 	101349.4443050499
-1.232482482482482 	299.8684469807823 	18.29101275644477 	101371.8100322939
-1.22997997997998 	299.8859453092931 	17.02726535008585 	101361.8698665146
-1.227477477477477 	299.9153112217251 	15.85124408684347 	101377.0442376684
-1.224974974974975 	299.9304930005911 	14.7122787075879 	101371.2710402606
-1.222472472472472 	299.9518738107687 	13.65560850442633 	101381.2238000712
-1.21996996996997 	299.9644717981935 	12.63395252661648 	101377.9126314034
-1.217467467467467 	299.9795291898569 	11.68925356925768 	101383.839712536
-1.214964964964965 	299.9894868386697 	10.7798026798695 	101381.818502215
-1.212462462462462 	299.9990839170249 	9.941171171732218 	101384.0953651717
-1.20995995995996 	300.0066270476314 	9.137881824266946 	101382.7005899306
-1.207457457457457 	300.0116970518592 	8.398989531012715 	101381.8787954829
-1.204954954954955 	300.0172707003408 	7.696392841063112 	101380.866386168
-1.202452452452452 	300.0186290672771 	7.04941018064001 	101377.4227276033
-1.19994994994995 	300.0225404189301 	6.44025116057859 	101376.5193617351
-1.197447447447447 	300.0206953926169 	5.878013188304324 	101370.6576896182
-1.194944944944945 	300.0233485795546 	5.353770522436153 	101369.8249760392
-1.192442442442442 	300.0194700887697 	4.867665189991687 	101362.5893381738
-1.18993993993994 	300.0214329801436 	4.421285835562705 	101362.1005704625
-1.187437437437437 	300.0157138344475 	4.002595387983567 	101353.4615077605
-1.184934934934935 	300.0167399480351 	3.6239971724695 	101352.7044957264
-1.182432432432432 	300.0100610141218 	3.266387839476451 	101343.5039627533
-1.17992992992993 	300.0112706192105 	2.948818509490401 	101343.5722936376
-1.177427427427427 	300.0044458678952 	2.642611592068804 	101334.6051593032
-1.174924924924925 	300.0055363247918 	2.375836683386454 	101334.9546182791
-1.172422422422422 	299.9988096138414 	2.118809136366107 	101326.4054521332
-1.16991991991992 	300.0004491617264 	1.897037015306998 	101327.7053580654
-1.167417417417417 	299.9944947428502 	1.677079671215379 	101320.2721516775
-1.164914914914915 	299.996176606481 	1.49251717937621 	101321.8181692248
-1.162412412412412 	299.991063020952 	1.313254627633513 	101315.5433417151
-1.15990990990991 	299.9941061592423 	1.160277101572329 	101318.8406424212
-1.157407407407407 	299.9900162414157 	1.006628394431248 	101313.8673356642
-1.154904904904904 	299.9920968038629 	0.879980423461636 	101316.1180946164
-1.152402402402403 	299.989624934669 	0.7620309713190729 	101313.1286298269
-1.1498998998999 	299.9956446680519 	0.6532168864083772 	101320.1059179483
-1.147397397397397 	299.9949801467891 	0.5556362528337444 	101319.2825656328
-1.144894894894895 	299.9962628952579 	0.4655790198161384 	101320.7074325146
-1.142392392392392 	299.9958202798152 	0.3922130852619649 	101320.1715315296
-1.13988988988989 	300.0045346920989 	0.315649423490298 	101330.4186889951
-1.137387387387387 	300.0075067345754 	0.2729815295360051 	101333.9339518632
-1.134884884884885 	300.0086158565096 	0.1885829296367782 	101335.2025530805
-1.132382382382382 	300.017766936449 	0.1364510698305279 	101346.0253063335
-1.12987987987988 	300.0157006306342 	0.06699970245237384 	101343.5614818561
-1.127377377377377 	300.0225881822209 	0.05647570250250321 	101351.7089219165
-1.124874874874875 	300.0257543791081 	0.0781129564017017 	101355.4482166654
-1.122372372372372 	300.029858668989 	0.085139287558137 	101360.3023816417
-1.11986986986987 	300.0336305722967 	0.09882933760068095 	101364.7619851286
-1.117367367367367 	300.0372562025856 	0.1072164234743396 	101369.0496408376
-1.114864864864865 	300.0405746796299 	0.1185061259543703 	101372.9739725634
-1.112362362362362 	300.0435689919938 	0.1256972390727863 	101376.5151778225
-1.10985985985986 	300.0461831114383 	0.1341711889003365 	101379.606718974
-1.107357357357357 	300.0484123092199 	0.139926886778151 	101382.2431331126
-1.104854854854855 	300.0502389569805 	0.1454190921713565 	101384.4036002803
-1.102352352352353 	300.051635095776 	0.149349166143088 	101386.0548013514
-1.09984984984985 	300.0525376616262 	0.1519327487251115 	101387.1223134283
-1.097347347347347 	300.0528698447258 	0.1528679252537625 	101387.515250906
-1.094844844844845 	300.0526207420537 	0.1521704889515766 	101387.2206330923
-1.092342342342342 	300.0518681111027 	0.1500464258116502 	101386.3306080401
-1.08983983983984 	300.0506956255862 	0.1466329516694059 	101384.9440314425
-1.087337337337337 	300.0490722848301 	0.1418551809463907 	101383.0241210838
-1.084834834834835 	300.0468811601573 	0.1354902565579705 	101380.4328073438
-1.082332332332332 	300.0441391981199 	0.1276105922606372 	101377.1901861271
-1.07982982982983 	300.0410781874902 	0.1188387139006165 	101373.5701647919
-1.077327327327327 	300.0378956893078 	0.1095940097780562 	101369.8066072762
-1.074824824824825 	300.0345173584018 	0.09971768069840591 	101365.8116827641
-1.072322322322323 	300.030778625353 	0.08890957594025958 	101361.3905559757
-1.06981981981982 	300.0267405706002 	0.07731043300664943 	101356.6156424485
-1.067317317317317 	300.0226670539776 	0.06561249339599405 	101351.7990648628
-1.064814814814815 	300.0187947808404 	0.0544343776309716 	101347.2204563095
-1.062312312312312 	300.0152224186436 	0.04403766756892147 	101342.9965619877
-1.05980980980981 	300.0119090218175 	0.03437851009697739 	101339.0791136266
-1.057307307307307 	300.0087595089341 	0.02523639950437536 	101335.3554392837
-1.054804804804805 	300.0057431522561 	0.01654173605053459 	101331.7892856886
-1.052302302302302 	300.0029234666242 	0.008423597613093109 	101328.4557770593
-1.0497997997998 	300.0004377935425 	0.003015896867799869 	101325.5171120112
-1.047297297297297 	299.9984776011277 	0.004331078659433952 	101323.1997497198
-1.044794794794795 	299.9971830450295 	0.008069088320676482 	101321.6693647426
-1.042292292292292 	299.9966133065741 	0.009686642682018418 	101320.995718394
-1.03978978978979 	299.9967635908411 	0.009264828170037296 	101321.1733127968
-1.037287287287287 	299.9975306411854 	0.007120014120428732 	101322.080113707
-1.034784784784785 	299.9987542006764 	0.003589356745709483 	101323.5264885009
-1.032282282282283 	300.0003408340192 	0.0026345160278359 	101325.402154966
-1.02977977977978 	300.0023138732392 	0.006801957198703662 	101327.7346971631
-1.027277277277277 	300.004715881533 	0.01377708929438803 	101330.5743124585
-1.024774774774775 	300.0075605667416 	0.02201904301723826 	101333.9374402201
-1.022272272272272 	300.0108292962717 	0.031464416387196 	101337.8020079894
-1.01976976976977 	300.0144477921358 	0.04190531957914585 	101342.0801129651
-1.017267267267267 	300.0183034057365 	0.05303741216191317 	101346.6388419621
-1.014764764764765 	300.0222968825929 	0.06458431115802454 	101351.360716454
-1.012262262262262 	300.0263697146938 	0.07636966919117716 	101356.1764940241
-1.00975975975976 	300.0304864513372 	0.08827648506793456 	101361.0444744259
-1.007257257257257 	300.0345972723387 	0.1001526780933599 	101365.9055789901
-1.004754754754755 	300.0386192593427 	0.1117668759398841 	101370.6617563078
-1.002252252252252 	300.0424591302699 	0.1228631211658565 	101375.202865545
-0.9997497497497498 	300.0460480836489 	0.1332398171644359 	101379.4472579175
-0.9972472472472473 	300.049336674922 	0.1427399373267879 	101383.3365237543
-0.9947447447447449 	300.0522613749579 	0.1511794504298013 	101386.7957067031
-0.9922422422422421 	300.0547453501282 	0.1583533685397618 	101389.7335430219
-0.9897397397397399 	300.0567429436139 	0.1641407163075937 	101392.0961713206
-0.9872372372372376 	300.0582657333438 	0.1685625915302424 	101393.8974186261
-0.9847347347347346 	300.0593501871697 	0.1717044584772805 	101395.1800880515
-0.9822322322322323 	300.0600070591278 	0.173590811786546 	101395.9570111928
-0.9797297297297296 	300.0602028787438 	0.1741297591378921 	101396.1887140228
-0.9772272272272275 	300.059874110701 	0.1731501297373334 	101395.799835065
-0.9747247247247248 	300.0589641030726 	0.1705085648515249 	101394.7235745919
-0.9722222222222224 	300.0574751220632 	0.1662216764330402 	101392.9626070547
-0.9697197197197196 	300.0554904854243 	0.1605124310394501 	101390.6152822181
-0.9672172172172175 	300.0531264054557 	0.1536873298299567 	101387.8192647935
-0.9647147147147147 	300.0504550784332 	0.1459473624319994 	101384.6599372222
-0.9622122122122124 	300.0474849126046 	0.1373372591021511 	101381.1471771188
-0.9597097097097099 	300.0442128832855 	0.1278695452797908 	101377.2776073709
-0.9572072072072073 	300.040678586073 	0.1176611307499609 	101373.0979439817
-0.9547047047047047 	300.0369717840451 	0.1069662043780933 	101368.7143116876
-0.9522022022022023 	300.0332167628841 	0.09613778646275029 	101364.2739448081
-0.9496996996996998 	300.0295495293836 	0.08554971077811122 	101359.9374058674
-0.9471971971971973 	300.0260653690851 	0.0754557780634707 	101355.8174194048
-0.9446946946946947 	300.0227653844903 	0.06587091952956065 	101351.9155027909
-0.9421921921921923 	300.0195914540867 	0.05668134674809903 	101348.1625859779
-0.93968968968969 	300.0165677079877 	0.04800140111071835 	101344.5873443226
-0.9371871871871872 	300.0139070657099 	0.04041799873164869 	101341.4415838234
-0.9346846846846848 	300.0119217397313 	0.03473892003282508 	101339.0941718742
-0.9321821821821823 	300.0107690144376 	0.0313387953622393 	101337.7312292188
-0.9296796796796799 	300.0102659599765 	0.02974202896416745 	101337.136491525
-0.9271771771771771 	300.0100468768647 	0.02904573984075086 	101336.8774029865
-0.9246746746746748 	300.0099562408054 	0.02887865605712386 	101336.7702379985
-0.9221721721721724 	300.0102369623415 	0.02987776188391587 	101337.1021222672
-0.9196696696696698 	300.0113299722431 	0.03316005960488375 	101338.3942300443
-0.9171671671671672 	300.0134496882795 	0.03920612748350184 	101340.9003571263
-0.9146646646646649 	300.0162839381304 	0.04719859809111054 	101344.2513694895
-0.9121621621621623 	300.0192505923378 	0.05569548492639782 	101347.7589792808
-0.9096596596596597 	300.0220982622903 	0.06407194421750892 	101351.1261265999
-0.9071571571571573 	300.0251514098918 	0.07314230881918077 	101354.7361524428
-0.9046546546546547 	300.0289698546882 	0.08429873930330548 	101359.2511771397
-0.9021521521521524 	300.0337536830275 	0.09798743887207494 	101364.9080789108
-0.8996496496496498 	300.0390314505068 	0.1129668056484734 	101371.149260704
-0.8971471471471473 	300.0439941285509 	0.1271624260269661 	101377.0181911665
-0.894644644644645 	300.048186024917 	0.1394246996313635 	101381.9758273298
-0.892142142142142 	300.0519337028247 	0.1506275692789858 	101386.4080686639
-0.8896396396396397 	300.056145182192 	0.163151653008775 	101391.389028126
-0.8871371371371374 	300.0616378394849 	0.1790938762418625 	101397.8854819982
-0.8846346346346349 	300.0684388822981 	0.1984292017083121 	101405.9298578098
-0.8821321321321324 	300.0755487919516 	0.218422665152676 	101414.3403514915
-0.8796296296296297 	300.0813808599182 	0.2347648985860485 	101421.2396936332
-0.8771271271271271 	300.0845537059803 	0.2437434892363938 	101424.9933566853
-0.8746246246246248 	300.084651830615 	0.2443314362428216 	101425.1093803852
-0.8721221221221224 	300.0826132966559 	0.2391515231344448 	101422.6979943449
-0.8696196196196196 	300.0804247255098 	0.233650983410213 	101420.1090533202
-0.8671171171171175 	300.0802966157789 	0.233962696705063 	101419.957938158
-0.8646146146146148 	300.0838851242765 	0.2446518419409973 	101424.2027745641
-0.8621121121121121 	300.0916963047667 	0.2670046814846167 	101433.4429103363
-0.8596096096096097 	300.1027536629158 	0.2982535001007611 	101446.5250675042
-0.857107107107107 	300.1148526249949 	0.3323292378138764 	101460.8413996278
-0.8546046046046049 	300.1253702972803 	0.3619256536674093 	101473.2881715491
-0.8521021021021022 	300.1320424203842 	0.3806390139915515 	101481.1847811589
-0.8495995995995997 	300.1334152531857 	0.3843363189815594 	101482.80870917
-0.8470970970970974 	300.1290385870219 	0.3717438315891383 	101477.6292295104
-0.8445945945945946 	300.1194598571653 	0.344395133108157 	101466.2951315888
-0.8420920920920922 	300.1060043313159 	0.3059968524447872 	101450.3738866012
-0.8395895895895897 	300.0903923060253 	0.2613724119089531 	101431.9024818558
-0.8370870870870872 	300.0743204004382 	0.2152995914713121 	101412.8893710109
-0.8345845845845846 	300.0591280697292 	0.1716011925987792 	101394.9190624423
-0.8320820820820823 	300.0456602637597 	0.1327440722733466 	101378.9904575087
-0.8295795795795798 	300.0343117100064 	0.09991538009264773 	101365.5696698303
-0.8270770770770772 	300.0251424184647 	0.07332961410271344 	101354.726966539
-0.8245745745745746 	300.017996291206 	0.05256679600110937 	101346.2772064855
-0.8220720720720721 	300.0126009579914 	0.03686088489666166 	101339.8979436551
-0.8195695695695699 	300.0086419073123 	0.02531547813119601 	101335.2170631295
-0.817067067067067 	300.0058112333477 	0.01704677995435157 	101331.8703756651
-0.8145645645645651 	300.0038351954904 	0.01126533986134466 	101329.5341602762
-0.8120620620620621 	300.0024861465419 	0.007312286323182673 	101327.9392353154
-0.8095595595595597 	300.0015841849436 	0.004665415407274138 	101326.8728912175
-0.8070570570570572 	300.0009929149302 	0.002927816769028005 	101326.1738653915
-0.8045545545545546 	300.0006124981922 	0.001808316379220551 	101325.7241207704
-0.8020520520520523 	300.0003720664728 	0.001099813279827534 	101325.4398725546
-0.7995495495495494 	300.0002226771416 	0.0006590139118100614 	101325.2632583893
-0.7970470470470474 	300.0001313618563 	0.0003892252989979655 	101325.155301717
-0.7945445445445446 	300.0000764162684 	0.0002266851869358479 	101325.0903427316
-0.7920420420420423 	300.0000438527128 	0.0001302363841402166 	101325.0518446803
-0.7895395395395397 	300.0000248347972 	7.38394573819041e-05 	101325.0293608532
-0.7870370370370371 	300.0000138844001 	4.13276778008238e-05 	101325.0164148049
-0.7845345345345348 	300.0000076654022 	2.284178556676509e-05 	101325.0090624401
-0.7820320320320323 	300.000004180392 	1.247059344486901e-05 	101325.0049422912
-0.7795295295295296 	300.0000022526303 	6.727236965744458e-06 	101325.0026632324
-0.7770270270270272 	300.0000011997013 	3.586702092452949e-06 	101325.001418418
-0.7745245245245247 	300.0000006316426 	1.890493962134238e-06 	101325.0007468343
-0.7720220220220222 	300.0000003288643 	9.85324718778187e-07 	101325.0003888424
-0.7695195195195199 	300.0000001693409 	5.07940628383711e-07 	101325.0002002401
-0.767017017017017 	300.0000000862761 	2.590372226209518e-07 	101325.0001020115
-0.7645145145145147 	300.0000000435109 	1.307191812598317e-07 	101325.0000514228
-0.7620120120120122 	300.0000000217165 	6.528090259582709e-08 	101325.0000256536
-0.7595095095095097 	300.0000000106712 	3.227583515105445e-08 	101325.0000126677
-0.7570070070070072 	300.0000000051974 	1.57931945846456e-08 	101325.0000061923
-0.7545045045045048 	300.0000000025292 	7.657005226937693e-09 	101325.0000029962
-0.7520020020020022 	300.0000000011929 	3.671460293788299e-09 	101325.0000014349
-0.7494994994994997 	300.0000000005488 	1.746444890890857e-09 	101325.0000006796
-0.7469969969969972 	300.0000000002663 	8.19014209989793e-10 	101325.0000003178
-0.7444944944944945 	300.0000000001178 	3.818910835665098e-10 	101325.0000001459
-0.7419919919919924 	300.0000000000492 	1.741520154535921e-10 	101325.0000000651
-0.7394894894894897 	299.9999999999936 	7.908776677227325e-11 	101325.0000000272
-0.7369869869869872 	300.0000000000006 	3.478543245150382e-11 	101325.0000000098
-0.7344844844844846 	299.9999999999782 	1.45014236937496e-11 	101325.0000000018
-0.7319819819819822 	300.0000000000045 	6.508025817093356e-12 	101324.9999999983
-0.7294794794794797 	299.9999999999964 	1.636036103240407e-12 	101324.9999999967
-0.7269769769769773 	300.0000000000077 	8.605117983713049e-13 	101324.9999999959
-0.7244744744744747 	300.0000000000144 	9.42708958262821e-13 	101324.9999999955
-0.721971971971972 	299.9999999999701 	6.523135678056178e-13 	101324.9999999953
-0.7194694694694695 	299.9999999999891 	8.66514661683789e-13 	101324.9999999954
-0.7169669669669674 	299.999999999953 	8.442340759427706e-13 	101324.9999999954
-0.7144644644644647 	299.9999999999794 	1.192548451557987e-12 	101324.9999999954
-0.711961961961962 	300.0000000000067 	1.599388687324061e-12 	101324.9999999955
-0.7094594594594597 	300.0000000000103 	8.646063794323446e-13 	101324.9999999954
-0.7069569569569573 	300.0000000000176 	2.065301757849164e-12 	101324.9999999955
-0.7044544544544545 	300.0000000000201 	1.214765538743137e-12 	101324.9999999952
-0.7019519519519523 	300.0000000000038 	1.192151889896445e-12 	101324.999999995
-0.6994494494494495 	299.9999999999507 	9.044413862602237e-13 	101324.9999999949
-0.6969469469469471 	299.9999999999588 	1.181161426667482e-12 	101324.9999999949
-0.6944444444444446 	299.9999999999727 	9.975672027498294e-13 	101324.999999995
-0.6919419419419421 	300.000000000019 	1.106383672600564e-12 	101324.9999999951
-0.6894394394394396 	299.9999999999963 	5.438750273907717e-13 	101324.9999999953
-0.6869369369369374 	300.0000000000079 	7.231150535057674e-13 	101324.9999999956
-0.6844344344344344 	300.0000000000159 	3.741153945194732e-13 	101324.9999999957
-0.6819319319319321 	299.9999999999724 	8.352205988370665e-13 	101324.9999999958
-0.6794294294294296 	299.9999999999594 	5.071607442786298e-13 	101324.9999999959
-0.6769269269269272 	299.9999999999394 	6.350683037453675e-13 	101324.9999999959
-0.6744244244244245 	299.9999999999751 	7.650848871237286e-13 	101324.9999999959
-0.6719219219219222 	299.999999999969 	1.195066795387112e-12 	101324.999999996
-0.6694194194194195 	299.9999999999994 	2.038407097713291e-12 	101324.9999999957
-0.6669169169169172 	300.0000000000144 	1.799581179851067e-12 	101324.9999999954
-0.6644144144144146 	299.9999999999742 	2.463414608272879e-12 	101324.9999999953
-0.661911911911912 	299.9999999999745 	1.764982228852525e-12 	101324.9999999955
-0.6594094094094097 	299.9999999999808 	2.725193580041476e-12 	101324.9999999954
-0.656906906906907 	299.9999999999579 	1.868668536564601e-12 	101324.9999999953
-0.6544044044044046 	299.9999999999648 	3.147297187462838e-12 	101324.9999999953
-0.6519019019019021 	299.9999999999887 	2.039782678302569e-12 	101324.9999999955
-0.6493993993993996 	300.0000000000164 	4.267058355173359e-12 	101324.9999999955
-0.6468968968968971 	300.0000000000239 	1.862742585220752e-12 	101324.9999999954
-0.6443943943943946 	299.9999999999979 	4.061608027364019e-12 	101324.9999999954
-0.6418918918918921 	299.9999999999961 	1.831433621061967e-12 	101324.9999999953
-0.6393893893893897 	299.9999999999985 	2.332730777688179e-12 	101324.9999999954
-0.6368868868868871 	299.9999999999843 	1.540444733161071e-12 	101324.9999999954
-0.6343843843843846 	299.9999999999956 	1.795590880189018e-12 	101324.9999999953
-0.6318818818818821 	299.9999999999662 	1.569705810810275e-12 	101324.9999999952
-0.6293793793793795 	300.0000000000022 	9.319391771841719e-13 	101324.9999999953
-0.6268768768768773 	300.0000000000117 	6.938312823424486e-13 	101324.9999999952
-0.6243743743743745 	299.9999999999839 	1.132163339688787e-12 	101324.9999999951
-0.6218718718718721 	300.0000000000044 	1.020585244221971e-12 	101324.9999999952
-0.6193693693693696 	299.9999999999562 	1.039097258710719e-12 	101324.9999999953
-0.6168668668668671 	299.9999999999852 	1.23624542318833e-12 	101324.9999999954
-0.6143643643643645 	300.0000000000095 	8.094728443938176e-13 	101324.9999999953
-0.6118618618618621 	299.9999999999916 	1.327271220293659e-12 	101324.9999999951
-0.6093593593593596 	299.9999999999914 	4.555842820980276e-13 	101324.999999995
-0.6068568568568571 	299.9999999999907 	8.629584803848819e-13 	101324.999999995
-0.6043543543543546 	299.9999999999689 	8.397911505307099e-13 	101324.9999999948
-0.6018518518518521 	299.9999999999773 	1.8421319422189e-12 	101324.9999999948
-0.5993493493493496 	299.9999999999607 	9.350005608142397e-13 	101324.9999999947
-0.5968468468468471 	299.999999999969 	1.526865048861666e-12 	101324.999999995
-0.5943443443443446 	299.9999999999948 	1.174440018884098e-12 	101324.9999999953
-0.591841841841842 	299.9999999999701 	1.622326429151277e-12 	101324.9999999955
-0.5893393393393397 	299.999999999962 	1.048363230805323e-12 	101324.9999999953
-0.5868368368368371 	299.9999999999947 	2.598547542750472e-12 	101324.9999999951
-0.5843343343343346 	300.0000000000059 	1.977072643813334e-12 	101324.9999999953
-0.5818318318318321 	300.0000000000237 	2.654142267037348e-12 	101324.9999999953
-0.5793293293293297 	299.9999999999924 	1.68866976040611e-12 	101324.9999999954
-0.5768268268268271 	300.0000000000032 	2.092230440334814e-12 	101324.9999999955
-0.5743243243243245 	300.0000000000167 	9.58623475802246e-13 	101324.9999999954
-0.5718218218218221 	300.000000000016 	1.215230497905576e-12 	101324.9999999952
-0.5693193193193196 	300.0000000000309 	9.659401335562871e-13 	101324.9999999952
-0.5668168168168171 	299.9999999999922 	3.905887673253863e-13 	101324.9999999951
-0.5643143143143147 	299.9999999999625 	1.338583697830892e-12 	101324.999999995
-0.5618118118118121 	300.000000000009 	6.115136076414774e-13 	101324.9999999951
-0.5593093093093094 	300.0000000000233 	1.685290691228897e-12 	101324.999999995
-0.5568068068068072 	300.0000000000111 	9.505309449104966e-13 	101324.9999999949
-0.5543043043043046 	300.0000000000113 	1.002275521185691e-12 	101324.9999999948
-0.551801801801802 	299.9999999999685 	5.839169181039871e-13 	101324.9999999947
-0.5492992992992995 	299.9999999999976 	7.921577344743181e-13 	101324.9999999947
-0.5467967967967969 	300.0000000000097 	5.307259253875242e-13 	101324.9999999948
-0.5442942942942947 	300.000000000006 	3.429960924188495e-13 	101324.9999999949
-0.5417917917917919 	299.999999999971 	1.316689675904581e-12 	101324.9999999951
-0.5392892892892895 	299.9999999999537 	5.865427641828524e-13 	101324.9999999952
-0.536786786786787 	299.9999999999681 	1.315795412352943e-12 	101324.9999999953
-0.5342842842842846 	299.9999999999719 	1.044198583566997e-12 	101324.9999999955
-0.531781781781782 	299.9999999999549 	1.512693499813379e-12 	101324.9999999956
-0.5292792792792794 	299.9999999999507 	2.108031116876301e-12 	101324.9999999954
-0.526776776776777 	299.9999999999374 	2.045404035870118e-12 	101324.9999999953
-0.5242742742742745 	299.9999999999838 	4.185679997318291e-12 	101324.9999999952
-0.521771771771772 	300.000000000012 	3.162775910534375e-12 	101324.9999999951
-0.5192692692692695 	299.9999999999737 	4.911976318897305e-12 	101324.9999999949
-0.516766766766767 	300.0000000000037 	3.735430797855443e-12 	101324.999999995
-0.5142642642642645 	299.9999999999788 	3.979778647732277e-12 	101324.9999999951
-0.511761761761762 	299.9999999999662 	3.18843544610212e-12 	101324.999999995
-0.5092592592592596 	299.9999999999806 	3.066606415332338e-12 	101324.9999999948
-0.506756756756757 	299.9999999999573 	2.248286430097186e-12 	101324.9999999946
-0.5042542542542544 	299.9999999999932 	2.238579542639494e-12 	101324.9999999946
-0.5017517517517521 	300.0000000000182 	2.028775469358165e-12 	101324.9999999944
-0.4992492492492494 	300.0000000000209 	1.070755092216661e-12 	101324.9999999945
-0.496746746746747 	299.9999999999904 	1.300557880721552e-12 	101324.9999999945
-0.4942442442442445 	299.9999999999611 	6.969964252608649e-13 	101324.9999999946
-0.4917417417417421 	299.9999999999615 	1.161768886285787e-12 	101324.9999999947
-0.4892392392392395 	299.9999999999706 	5.75626193290333e-13 	101324.9999999948
-0.486736736736737 	299.9999999999705 	2.068773663397157e-12 	101324.9999999949
-0.4842342342342345 	299.9999999999454 	7.287244038476222e-13 	101324.9999999949
-0.481731731731732 	300.0000000000248 	2.013581863608254e-12 	101324.9999999951
-0.4792292292292296 	300.0000000000142 	1.063747915680504e-12 	101324.999999995
-0.4767267267267268 	299.9999999999716 	3.12541948144198e-12 	101324.9999999951
-0.4742242242242246 	300.000000000002 	1.808466973921306e-12 	101324.999999995
-0.471721721721722 	299.9999999999707 	3.012382844313012e-12 	101324.9999999948
-0.4692192192192195 	299.9999999999867 	1.669391610511617e-12 	101324.9999999948
-0.4667167167167169 	299.9999999999395 	1.898197715402351e-12 	101324.9999999947
-0.4642142142142145 	299.9999999999959 	1.305966132232136e-12 	101324.9999999947
-0.461711711711712 	300.0000000000115 	1.654286999403969e-12 	101324.9999999946
-0.4592092092092094 	300.0000000000027 	1.178092316815403e-12 	101324.9999999946
-0.456706706706707 	300.0000000000343 	5.407545044848054e-13 	101324.9999999945
-0.4542042042042045 	299.9999999999558 	1.115224788613044e-12 	101324.9999999944
-0.451701701701702 	299.9999999999647 	6.061192473982485e-13 	101324.9999999944
-0.4491991991991995 	299.9999999999715 	1.431008305107479e-12 	101324.9999999943
-0.4466966966966969 	299.9999999999703 	4.864049457207649e-13 	101324.9999999944
-0.4441941941941945 	299.999999999999 	1.624212276186884e-12 	101324.9999999946
-0.441691691691692 	299.9999999999729 	1.242258554937482e-12 	101324.9999999949
-0.4391891891891895 	299.9999999999915 	2.178378342501429e-12 	101324.9999999947
-0.436686686686687 	299.9999999999805 	3.071907590526622e-12 	101324.9999999944
-0.4341841841841846 	299.9999999999963 	1.860734280135275e-12 	101324.9999999942
-0.431681681681682 	299.999999999966 	2.279280507117472e-12 	101324.999999994
-0.4291791791791794 	299.9999999999546 	2.235727227543329e-12 	101324.9999999942
-0.426676676676677 	299.9999999999409 	1.186198763040893e-12 	101324.9999999941
-0.4241741741741744 	299.9999999999787 	1.839318578249489e-12 	101324.9999999943
-0.421671671671672 	300.0000000000024 	1.109241545284362e-12 	101324.9999999945
-0.4191691691691694 	300.0000000000316 	8.867535776120119e-13 	101324.9999999948
-0.4166666666666669 	300.0000000000382 	9.474749696579166e-13 	101324.9999999947
-0.4141641641641645 	299.9999999999595 	3.255979411542593e-13 	101324.9999999944
-0.411661661661662 	299.9999999999989 	1.579119228954243e-13 	101324.9999999942
-0.4091591591591594 	300.0000000000076 	2.477127348663281e-14 	101324.999999994
-0.406656656656657 	299.9999999999668 	4.490778204839379e-13 	101324.9999999939
-0.4041541541541545 	300.0000000000095 	3.250636758392407e-13 	101324.9999999939
-0.401651651651652 	299.9999999999496 	2.0023355841403e-12 	101324.9999999941
-0.3991491491491494 	300.000000000004 	1.054450146206418e-12 	101324.9999999943
-0.396646646646647 	299.9999999999688 	3.305119594536175e-12 	101324.9999999944
-0.3941441441441444 	299.9999999999868 	1.856647862937965e-12 	101324.9999999944
-0.3916416416416419 	299.9999999999579 	3.081725808044598e-12 	101324.9999999942
-0.3891391391391395 	299.9999999999704 	1.09436290627152e-12 	101324.9999999944
-0.3866366366366368 	299.9999999999712 	1.846041666914301e-12 	101324.9999999944
-0.3841341341341344 	299.9999999999985 	7.933232898021368e-13 	101324.9999999946
-0.381631631631632 	299.9999999999667 	9.783886269167712e-13 	101324.9999999949
-0.3791291291291294 	299.9999999999993 	7.892119084734527e-13 	101324.9999999951
-0.3766266266266269 	300.0000000000142 	1.066540789620172e-12 	101324.9999999951
-0.3741241241241244 	300.0000000000159 	2.604434914214493e-12 	101324.9999999952
-0.371621621621622 	300.0000000000154 	1.058574646955862e-12 	101324.9999999952
-0.3691191191191194 	300.0000000000052 	3.332592387013371e-12 	101324.9999999952
-0.366616616616617 	300.0000000000035 	7.929437023375417e-13 	101324.9999999949
-0.3641141141141143 	299.9999999999838 	2.46651436996316e-12 	101324.9999999945
-0.3616116116116119 	299.9999999999608 	9.791133240075664e-13 	101324.9999999943
-0.3591091091091095 	299.9999999999862 	1.53267073324931e-12 	101324.9999999942
-0.356606606606607 	299.9999999999906 	7.771596146244361e-13 	101324.9999999944
-0.3541041041041044 	299.9999999999946 	6.490312528324344e-13 	101324.9999999944
-0.3516016016016019 	300.0000000000134 	1.630577760557116e-12 	101324.9999999944
-0.3490990990990994 	299.999999999996 	3.726114339742899e-13 	101324.9999999943
-0.346596596596597 	300.0000000000227 	2.319994268781287e-12 	101324.9999999944
-0.3440940940940944 	300.0000000000272 	5.322010856452461e-13 	101324.9999999943
-0.3415915915915919 	300.0000000000152 	2.617836001656268e-12 	101324.999999994
-0.3390890890890895 	299.9999999999872 	1.01872002733744e-12 	101324.999999994
-0.3365865865865869 	300.0000000000134 	2.370651835732896e-12 	101324.9999999939
-0.3340840840840844 	299.9999999999959 	2.464976156703593e-12 	101324.9999999939
-0.3315815815815819 	300.0000000000117 	3.356553133398772e-12 	101324.9999999941
-0.3290790790790794 	300.0000000000127 	3.410975320413663e-12 	101324.9999999944
-0.3265765765765769 	299.9999999999501 	3.452678301865745e-12 	101324.9999999945
-0.3240740740740744 	299.999999999999 	2.382966319911872e-12 	101324.9999999942
-0.3215715715715718 	300.000000000006 	3.921523710551878e-12 	101324.9999999943
-0.3190690690690695 	299.9999999999545 	2.954194082050598e-12 	101324.9999999943
-0.3165665665665668 	299.9999999999941 	3.902809084718854e-12 	101324.9999999941
-0.3140640640640644 	300.0000000000014 	2.434363223865586e-12 	101324.9999999938
-0.311561561561562 	299.9999999999517 	5.164311665981074e-12 	101324.9999999936
-0.3090590590590593 	299.9999999999977 	1.319210690040621e-12 	101324.9999999937
-0.3065565565565568 	300.0000000000036 	5.353449285780261e-12 	101324.9999999939
-0.3040540540540545 	300.0000000000022 	1.330923669057846e-12 	101324.9999999941
-0.3015515515515518 	300.0000000000231 	5.386581573906744e-12 	101324.999999994
-0.2990490490490494 	299.9999999999606 	2.912584828765433e-12 	101324.9999999941
-0.2965465465465469 	299.9999999999887 	4.589284323482961e-12 	101324.9999999942
-0.2940440440440444 	299.9999999999935 	3.8606607968704e-12 	101324.999999994
-0.2915415415415418 	300.0000000000054 	4.343180573252375e-12 	101324.999999994
-0.2890390390390395 	300.0000000000073 	5.322283357747651e-12 	101324.9999999937
-0.2865365365365368 	299.9999999999841 	4.246058854652046e-12 	101324.9999999938
-0.2840340340340343 	300.0000000000006 	6.387756308028464e-12 	101324.9999999938
-0.2815315315315318 	299.999999999947 	4.315786031771439e-12 	101324.9999999939
-0.2790290290290295 	299.9999999999776 	6.360314654254623e-12 	101324.999999994
-0.2765265265265269 	300.0000000000064 	5.422604930993122e-12 	101324.9999999939
-0.2740240240240244 	300.0000000000138 	5.71797315331287e-12 	101324.9999999937
-0.2715215215215219 	300.0000000000072 	5.129188805714919e-12 	101324.9999999938
-0.2690190190190194 	299.999999999963 	4.49221869266852e-12 	101324.9999999939
-0.2665165165165169 	299.9999999999969 	5.381937782558284e-12 	101324.9999999938
-0.2640140140140144 	299.9999999999807 	4.595261676147412e-12 	101324.9999999937
-0.2615115115115119 	299.9999999999981 	6.739662773501506e-12 	101324.9999999933
-0.2590090090090094 	299.9999999999519 	4.823351069712539e-12 	101324.9999999933
-0.2565065065065068 	299.9999999999944 	5.752868497644555e-12 	101324.9999999935
-0.2540040040040044 	299.9999999999931 	5.925482474914133e-12 	101324.9999999933
-0.2515015015015019 	300.0000000000214 	5.36755225465772e-12 	101324.9999999935
-0.2489989989989994 	300.000000000027 	6.834587149598017e-12 	101324.9999999936
-0.2464964964964968 	299.9999999999897 	4.979974520490591e-12 	101324.9999999935
-0.2439939939939944 	299.9999999999927 	7.87400937251152e-12 	101324.9999999936
-0.2414914914914919 	299.9999999999742 	4.429236076827185e-12 	101324.9999999937
-0.2389889889889893 	299.9999999999994 	8.059643374751514e-12 	101324.9999999939
-0.2364864864864869 	300.0000000000157 	5.480194093812012e-12 	101324.9999999938
-0.2339839839839843 	299.9999999999595 	8.83355730270701e-12 	101324.9999999939
-0.2314814814814819 	299.9999999999845 	4.911099213654447e-12 	101324.9999999939
-0.2289789789789792 	299.9999999999457 	7.166401070262279e-12 	101324.9999999936
-0.2264764764764769 	299.9999999999616 	4.95442947181372e-12 	101324.9999999937
-0.2239739739739743 	299.9999999999758 	6.229463691260668e-12 	101324.999999994
-0.2214714714714718 	299.9999999999592 	5.497629896276665e-12 	101324.9999999937
-0.2189689689689693 	299.9999999999774 	4.561591433724946e-12 	101324.9999999936
-0.2164664664664669 	299.9999999999862 	6.05661356271335e-12 	101324.9999999936
-0.2139639639639643 	299.9999999999566 	3.845067294979683e-12 	101324.9999999939
-0.2114614614614618 	299.9999999999809 	5.049243262923198e-12 	101324.999999994
-0.2089589589589593 	299.9999999999959 	4.934947036095312e-12 	101324.9999999939
-0.2064564564564568 	299.9999999999957 	4.732359616613376e-12 	101324.9999999939
-0.2039539539539543 	299.9999999999436 	5.176961062841192e-12 	101324.999999994
-0.2014514514514518 	299.9999999999586 	2.273552255108634e-12 	101324.9999999936
-0.1989489489489494 	299.9999999999782 	4.575134249906175e-12 	101324.9999999936
-0.1964464464464468 	299.999999999996 	1.414759294861826e-12 	101324.9999999935
-0.1939439439439443 	299.9999999999931 	4.693030908550547e-12 	101324.9999999937
-0.1914414414414418 	299.9999999999505 	2.792699508312177e-12 	101324.9999999937
-0.1889389389389393 	300.0000000000015 	3.949859430556972e-12 	101324.999999994
-0.1864364364364368 	300.0000000000222 	3.741504286727187e-12 	101324.9999999941
-0.1839339339339343 	299.9999999999833 	4.253082630610427e-12 	101324.9999999939
-0.1814314314314318 	299.9999999999954 	4.486717088937662e-12 	101324.9999999938
-0.1789289289289293 	299.9999999999347 	4.855120099555041e-12 	101324.9999999939
-0.1764264264264268 	299.999999999986 	3.718612210899773e-12 	101324.999999994
-0.1739239239239243 	299.999999999935 	4.391879610770885e-12 	101324.999999994
-0.1714214214214218 	299.9999999999897 	2.360536108712407e-12 	101324.9999999938
-0.1689189189189193 	299.9999999999666 	4.383487426419748e-12 	101324.999999994
-0.1664164164164168 	300.0000000000013 	9.263860400391252e-13 	101324.9999999938
-0.1639139139139143 	299.9999999999896 	5.186414990879884e-12 	101324.9999999939
-0.1614114114114118 	300.0000000000133 	1.329272973677366e-12 	101324.9999999939
-0.1589089089089093 	299.9999999999972 	6.947978491027156e-12 	101324.999999994
-0.1564064064064068 	299.9999999999854 	2.385226858124879e-12 	101324.9999999942
-0.1539039039039043 	299.9999999999943 	7.252030483631336e-12 	101324.999999994
-0.1514014014014018 	300.0000000000147 	2.060742672804648e-12 	101324.9999999939
-0.1488988988988993 	299.9999999999933 	6.26243245587952e-12 	101324.9999999937
-0.1463963963963968 	300.0000000000016 	7.766202445718588e-13 	101324.9999999935
-0.1438938938938943 	299.9999999999736 	5.514262917750643e-12 	101324.9999999933
-0.1413913913913918 	299.9999999999522 	1.154748054013942e-12 	101324.9999999931
-0.1388888888888893 	299.9999999999841 	4.397272799976412e-12 	101324.9999999933
-0.1363863863863868 	299.9999999999299 	2.824777615767927e-12 	101324.9999999933
-0.1338838838838843 	299.999999999949 	4.247226388094506e-12 	101324.9999999932
-0.1313813813813818 	299.9999999999936 	3.051481371773727e-12 	101324.9999999933
-0.1288788788788793 	299.999999999974 	3.712715701749636e-12 	101324.9999999937
-0.1263763763763768 	299.9999999999797 	2.182569472588931e-12 	101324.999999994
-0.1238738738738743 	299.9999999999558 	3.698877738438533e-12 	101324.999999994
-0.1213713713713717 	299.9999999999894 	2.068165015927311e-12 	101324.999999994
-0.1188688688688693 	300.0000000000081 	4.706333177549681e-12 	101324.9999999941
-0.1163663663663668 	299.9999999999416 	9.303781389254857e-13 	101324.9999999939
-0.1138638638638643 	299.9999999999943 	4.072464972833066e-12 	101324.999999994
-0.1113613613613618 	299.9999999999909 	8.020096405779168e-13 	101324.9999999941
-0.1088588588588592 	299.9999999999858 	4.113696994822803e-12 	101324.999999994
-0.1063563563563568 	299.9999999999709 	9.591427402733482e-13 	101324.9999999939
-0.1038538538538543 	299.9999999999872 	3.106829087777576e-12 	101324.9999999939
-0.1013513513513517 	300.0000000000094 	7.260504846290375e-13 	101324.9999999941
-0.09884884884884926 	299.9999999999648 	3.132364180384856e-12 	101324.999999994
-0.09634634634634676 	299.9999999999358 	1.871490075278375e-12 	101324.999999994
-0.09384384384384425 	299.9999999999494 	2.253467228389713e-12 	101324.9999999943
-0.09134134134134177 	300.0000000000123 	1.457853319287805e-12 	101324.9999999941
-0.08883883883883925 	300.0000000000073 	2.655840382465853e-12 	101324.9999999941
-0.08633633633633674 	299.9999999999682 	2.704094868266124e-12 	101324.9999999943
-0.08383383383383426 	300.0000000000035 	2.828458979649395e-12 	101324.9999999947
-0.08133133133133173 	299.9999999999824 	3.212382378361901e-12 	101324.9999999946
-0.07882882882882926 	299.9999999999289 	2.393322381179525e-12 	101324.9999999947
-0.07632632632632676 	299.9999999999726 	1.820065335245814e-12 	101324.9999999947
-0.07382382382382424 	299.9999999999353 	1.217210673892764e-12 	101324.9999999947
-0.07132132132132173 	300.0000000000074 	5.689488443473676e-13 	101324.9999999947
-0.06881881881881925 	299.999999999976 	4.094115132636675e-13 	101324.9999999948
-0.06631631631631671 	299.9999999999337 	6.902623986312394e-14 	101324.9999999946
-0.06381381381381425 	299.9999999999728 	7.590683319512767e-14 	101324.9999999944
-0.06131131131131173 	299.9999999999737 	7.447705562672025e-14 	101324.9999999943
-0.05880880880880923 	299.9999999999484 	3.603800874271161e-15 	101324.9999999943
-0.05630630630630672 	299.9999999999798 	4.737574061155285e-14 	101324.9999999946
-0.05380380380380424 	300.0000000000099 	3.584234764617793e-13 	101324.9999999946
-0.05130130130130173 	300.0000000000068 	4.312639808604115e-13 	101324.9999999945
-0.04879879879879922 	299.9999999999662 	7.275292506830124e-13 	101324.9999999946
-0.04629629629629672 	299.999999999958 	9.594943379665138e-13 	101324.999999995
-0.04379379379379422 	299.9999999999454 	1.716044497976729e-12 	101324.9999999949
-0.04129129129129173 	299.9999999999875 	1.43580093507849e-12 	101324.9999999948
-0.03878878878878922 	299.9999999999893 	1.516440325781777e-12 	101324.9999999945
-0.03628628628628671 	299.9999999999881 	1.070326403127688e-12 	101324.9999999943
-0.03378378378378422 	299.9999999999542 	1.23844050475845e-12 	101324.9999999941
-0.03128128128128172 	299.9999999999801 	1.504136695019189e-13 	101324.9999999938
-0.02877877877877922 	299.9999999999784 	3.958158249604724e-13 	101324.9999999939
-0.0262762762762767 	299.9999999999367 	5.550280396380909e-13 	101324.9999999942
-0.02377377377377422 	300.0000000000124 	9.444980376111939e-13 	101324.9999999944
-0.0212712712712717 	299.9999999999381 	1.287318121683395e-12 	101324.9999999944
-0.01876876876876921 	299.9999999999816 	8.084536911854251e-13 	101324.9999999944
-0.01626626626626671 	300.0000000000075 	1.531499593085717e-12 	101324.9999999944
-0.0137637637637642 	299.9999999999768 	1.000637185983617e-12 	101324.9999999945
-0.0112612612612617 	300.00000000001 	1.169694397901034e-12 	101324.9999999945
-0.008758758758759198 	299.999999999998 	5.866350342208176e-13 	101324.9999999947
-0.006256256256256697 	299.9999999999301 	6.060502543378408e-13 	101324.9999999948
-0.003753753753754195 	299.9999999999698 	5.090580103277487e-15 	101324.9999999949
-0.001251251251251693 	299.9999999999521 	6.59004749396753e-14 	101324.9999999949
0.00125125125125081 	299.9999999999703 	5.286233107892608e-13 	101324.9999999946
0.003753753753753312 	299.9999999999777 	1.16773259776616e-13 	101324.9999999946
0.006256256256255817 	299.9999999999288 	6.721260529059375e-13 	101324.9999999944
0.008758758758758317 	299.9999999999911 	7.077592107994235e-13 	101324.9999999945
0.01126126126126082 	300.0000000000067 	7.463079911441999e-13 	101324.9999999946
0.01376376376376332 	299.9999999999789 	8.701928363679786e-13 	101324.9999999946
0.01626626626626582 	300.0000000000059 	1.194939258534361e-12 	101324.9999999947
0.01876876876876833 	299.9999999999728 	7.581663042134935e-13 	101324.9999999947
0.02127127127127083 	299.9999999999793 	7.839466434543564e-13 	101324.9999999945
0.02377377377377332 	299.9999999999976 	5.396675359698155e-13 	101324.9999999944
0.02627627627627583 	299.9999999999411 	5.083194042310165e-14 	101324.9999999941
0.02877877877877833 	300.0000000000038 	3.565480399323983e-13 	101324.9999999943
0.03128128128128083 	299.9999999999641 	1.85093174536834e-14 	101324.9999999943
0.03378378378378333 	299.9999999999376 	9.524561720245406e-13 	101324.9999999942
0.03628628628628584 	299.9999999999838 	1.47227626751844e-12 	101324.9999999945
0.03878878878878834 	299.9999999999899 	1.771918965125768e-12 	101324.9999999943
0.04129129129129084 	299.9999999999856 	1.976846013856544e-12 	101324.9999999943
0.04379379379379333 	299.9999999999605 	1.847780878839069e-12 	101324.9999999944
0.04629629629629585 	299.9999999999288 	1.587110011812864e-12 	101324.9999999944
0.04879879879879834 	299.9999999999692 	1.653723425075356e-12 	101324.9999999943
0.05130130130130085 	300.0000000000082 	1.588041362095688e-12 	101324.9999999947
0.05380380380380335 	300.0000000000114 	9.728643843227042e-13 	101324.9999999945
0.05630630630630584 	299.999999999993 	6.035201926227388e-13 	101324.9999999944
0.05880880880880836 	299.9999999999524 	7.763295667388622e-13 	101324.9999999946
0.06131131131131085 	299.9999999999849 	1.391541290707591e-12 	101324.9999999949
0.06381381381381336 	299.9999999999762 	1.847511313610418e-12 	101324.9999999947
0.06631631631631586 	299.9999999999305 	1.82747130485242e-12 	101324.9999999943
0.06881881881881835 	299.9999999999665 	1.69233454456484e-12 	101324.9999999944
0.07132132132132088 	299.9999999999922 	1.282565389952444e-12 	101324.9999999942
0.07382382382382337 	299.9999999999408 	1.509750853705795e-12 	101324.9999999939
0.07632632632632587 	299.9999999999804 	2.108407161386801e-12 	101324.9999999938
0.07882882882882837 	299.9999999999606 	2.045828470687302e-12 	101324.9999999939
0.08133133133133086 	299.9999999999921 	2.35313258110829e-12 	101324.9999999941
0.08383383383383337 	299.9999999999914 	2.277457109028646e-12 	101324.9999999939
0.08633633633633589 	299.9999999999409 	2.925930072572821e-12 	101324.999999994
0.08883883883883838 	300.0000000000055 	3.745928318126691e-12 	101324.999999994
0.09134134134134086 	299.9999999999915 	3.176665287937133e-12 	101324.999999994
0.09384384384384339 	299.9999999999357 	3.779024638788788e-12 	101324.999999994
0.09634634634634588 	299.9999999999783 	3.443105983858369e-12 	101324.9999999942
0.09884884884884838 	299.999999999982 	3.489333308878877e-12 	101324.9999999942
0.1013513513513509 	300.0000000000132 	3.44223297877753e-12 	101324.9999999942
0.1038538538538534 	299.9999999999683 	3.048030148101182e-12 	101324.9999999945
0.1063563563563559 	300.0000000000082 	2.714578067977393e-12 	101324.9999999943
0.1088588588588584 	300.0000000000156 	1.987649175863422e-12 	101324.9999999943
0.1113613613613609 	299.999999999953 	2.43741679234297e-12 	101324.9999999942
0.1138638638638634 	299.9999999999648 	2.456977585645476e-12 	101324.9999999944
0.1163663663663659 	299.9999999999633 	2.676139323760012e-12 	101324.999999994
0.1188688688688684 	299.9999999999787 	2.901570354708221e-12 	101324.999999994
0.1213713713713709 	299.9999999999968 	2.362910234407729e-12 	101324.9999999939
0.1238738738738734 	299.9999999999507 	2.291364411209892e-12 	101324.999999994
0.1263763763763759 	299.9999999999879 	2.871783441909481e-12 	101324.9999999938
0.1288788788788784 	299.9999999999886 	2.695656499622888e-12 	101324.9999999935
0.1313813813813809 	299.999999999988 	2.509212098743811e-12 	101324.9999999934
0.1338838838838834 	299.9999999999836 	2.050016339636799e-12 	101324.9999999936
0.1363863863863859 	300.0000000000155 	2.40839077956643e-12 	101324.9999999938
0.1388888888888884 	300.0000000000288 	2.473219980247221e-12 	101324.9999999938
0.1413913913913909 	299.9999999999994 	2.456211400432787e-12 	101324.9999999938
0.1438938938938934 	299.9999999999945 	2.616592965556361e-12 	101324.9999999936
0.1463963963963959 	299.9999999999716 	2.189577284944746e-12 	101324.9999999937
0.1488988988988985 	299.999999999944 	2.981867326893114e-12 	101324.9999999935
0.1514014014014009 	299.9999999999752 	2.262842953864023e-12 	101324.9999999935
0.1539039039039035 	299.9999999999728 	3.546271428556166e-12 	101324.9999999937
0.1564064064064059 	299.9999999999653 	1.247373168249533e-12 	101324.9999999939
0.1589089089089084 	299.9999999999882 	3.522878653173835e-12 	101324.999999994
0.1614114114114109 	299.999999999984 	1.415156637647544e-12 	101324.9999999939
0.1639139139139134 	299.9999999999427 	3.640485147872241e-12 	101324.9999999941
0.166416416416416 	300.0000000000009 	3.272923993883271e-12 	101324.9999999941
0.1689189189189185 	300.0000000000153 	3.714743920370462e-12 	101324.9999999942
0.1714214214214209 	299.999999999993 	4.441321994789967e-12 	101324.9999999941
0.1739239239239235 	299.9999999999882 	3.426242067511627e-12 	101324.9999999941
0.1764264264264259 	299.9999999999773 	5.491888324148894e-12 	101324.9999999938
0.1789289289289284 	300.0000000000002 	2.908692091328772e-12 	101324.9999999934
0.181431431431431 	299.9999999999746 	5.496540300652141e-12 	101324.9999999932
0.1839339339339334 	299.9999999999785 	3.875314872747512e-12 	101324.9999999933
0.186436436436436 	299.9999999999538 	5.556338134431348e-12 	101324.9999999933
0.1889389389389385 	299.9999999999885 	4.939224300554542e-12 	101324.9999999933
0.191441441441441 	299.9999999999858 	4.792975378104224e-12 	101324.9999999937
0.1939439439439434 	299.9999999999486 	6.078555778434584e-12 	101324.9999999938
0.196446446446446 	299.9999999999678 	4.744740304469781e-12 	101324.9999999941
0.1989489489489485 	299.999999999978 	7.122727714822951e-12 	101324.9999999939
0.2014514514514509 	299.9999999999878 	4.620890586678594e-12 	101324.9999999942
0.2039539539539535 	299.9999999999942 	5.670547031447268e-12 	101324.9999999942
0.2064564564564559 	299.9999999999744 	4.234184265794215e-12 	101324.9999999944
0.2089589589589585 	299.9999999999888 	4.141746344736107e-12 	101324.9999999945
0.211461461461461 	299.9999999999574 	4.25623617966905e-12 	101324.9999999944
0.2139639639639635 	299.9999999999902 	4.209837236153832e-12 	101324.9999999944
0.2164664664664659 	299.9999999999991 	5.216251531570251e-12 	101324.9999999942
0.2189689689689684 	299.9999999999971 	3.599967879310353e-12 	101324.9999999943
0.221471471471471 	299.9999999999935 	6.038003229352026e-12 	101324.9999999941
0.2239739739739735 	299.9999999999712 	3.990828711575404e-12 	101324.9999999941
0.226476476476476 	299.999999999989 	5.61729871314308e-12 	101324.9999999941
0.2289789789789785 	299.9999999999942 	4.692411949295577e-12 	101324.9999999939
0.231481481481481 	299.999999999991 	4.483244129915956e-12 	101324.9999999939
0.2339839839839835 	299.999999999992 	4.27386765591676e-12 	101324.9999999941
0.236486486486486 	300.0000000000141 	3.285867418707287e-12 	101324.9999999942
0.2389889889889885 	300.0000000000014 	4.661412351615109e-12 	101324.9999999945
0.241491491491491 	299.9999999999526 	2.837674738118352e-12 	101324.9999999946
0.2439939939939935 	299.9999999999868 	5.426922006329698e-12 	101324.9999999948
0.246496496496496 	299.9999999999918 	2.71932497728254e-12 	101324.9999999946
0.2489989989989985 	300.000000000021 	4.11182407405687e-12 	101324.9999999944
0.251501501501501 	300.0000000000152 	2.777096116271897e-12 	101324.9999999942
0.2540040040040035 	299.9999999999919 	2.855765645092561e-12 	101324.999999994
0.256506506506506 	300.0000000000141 	3.917258206884573e-12 	101324.9999999937
0.2590090090090086 	299.9999999999442 	2.365060958421728e-12 	101324.9999999939
0.261511511511511 	300.0000000000007 	4.528871883021239e-12 	101324.9999999939
0.2640140140140135 	299.9999999999944 	2.382479061734524e-12 	101324.9999999939
0.2665165165165161 	299.9999999999572 	4.32103625916462e-12 	101324.9999999938
0.2690190190190185 	300.000000000005 	3.222394929243903e-12 	101324.9999999938
0.271521521521521 	300.0000000000027 	3.379763674576743e-12 	101324.9999999938
0.2740240240240235 	300.0000000000092 	2.834044683200103e-12 	101324.9999999939
0.276526526526526 	300.0000000000032 	1.348629407887746e-12 	101324.999999994
0.2790290290290286 	299.9999999999615 	2.028129066114916e-12 	101324.9999999938
0.281531531531531 	299.9999999999529 	7.907462789752746e-13 	101324.9999999937
0.2840340340340335 	299.9999999999865 	3.05047756577653e-12 	101324.9999999937
0.2865365365365361 	299.9999999999745 	1.220259709792832e-12 	101324.9999999936
0.2890390390390385 	299.9999999999972 	2.343782541299228e-12 	101324.9999999934
0.291541541541541 	299.9999999999966 	1.671457236708904e-12 	101324.9999999933
0.2940440440440436 	299.9999999999923 	1.912032476315546e-12 	101324.9999999934
0.296546546546546 	299.9999999999922 	3.156305993806952e-12 	101324.9999999933
0.2990490490490486 	299.9999999999572 	1.836207591381331e-12 	101324.9999999933
0.3015515515515511 	300.0000000000191 	4.793784886584771e-12 	101324.9999999934
0.3040540540540535 	299.9999999999915 	1.457086799434855e-12 	101324.9999999937
0.3065565565565562 	299.9999999999973 	5.667795562452768e-12 	101324.9999999941
0.3090590590590585 	299.999999999992 	1.079513237115653e-12 	101324.9999999941
0.3115615615615611 	299.9999999999596 	4.501627269127828e-12 	101324.9999999942
0.3140640640640635 	299.9999999999992 	1.548472404097134e-12 	101324.9999999941
0.316566566566566 	299.9999999999916 	3.089090001296721e-12 	101324.9999999938
0.3190690690690687 	299.9999999999692 	1.589482468527373e-12 	101324.9999999937
0.3215715715715711 	300.0000000000072 	2.992786912822857e-12 	101324.9999999937
0.3240740740740735 	299.999999999997 	1.650952837862911e-12 	101324.9999999936
0.326576576576576 	299.9999999999371 	2.620291234112746e-12 	101324.9999999936
0.3290790790790786 	300.0000000000011 	1.788991619970243e-12 	101324.9999999938
0.3315815815815811 	300.0000000000209 	1.810698602412216e-12 	101324.9999999937
0.3340840840840836 	299.999999999993 	1.005856413458013e-12 	101324.9999999937
0.3365865865865861 	300.0000000000343 	1.371869544236396e-12 	101324.9999999934
0.3390890890890886 	300.0000000000313 	3.36099158800384e-13 	101324.9999999935
0.3415915915915911 	300.0000000000003 	1.06976646331618e-12 	101324.9999999936
0.3440940940940935 	299.9999999999673 	9.759400006798695e-13 	101324.9999999936
0.3465965965965962 	300.0000000000212 	1.309519921514588e-12 	101324.9999999937
0.3490990990990985 	300.0000000000157 	3.302924041179933e-13 	101324.9999999937
0.3516016016016011 	299.9999999999889 	5.19624640724349e-13 	101324.9999999937
0.3541041041041035 	300.0000000000038 	2.094550510946846e-13 	101324.9999999935
0.3566066066066061 	299.9999999999702 	6.510864407839761e-13 	101324.9999999932
0.3591091091091085 	299.9999999999496 	7.529409321828828e-13 	101324.9999999931
0.3616116116116112 	299.9999999999596 	1.054415351643271e-12 	101324.9999999933
0.3641141141141137 	299.9999999999558 	1.641612414955043e-12 	101324.9999999933
0.3666166166166161 	299.9999999999506 	1.900197729833767e-12 	101324.9999999934
0.3691191191191185 	300.0000000000204 	2.387894543400955e-12 	101324.9999999935
0.371621621621621 	300.0000000000098 	1.532012167135718e-12 	101324.9999999935
0.3741241241241237 	300.0000000000289 	1.813603497700257e-12 	101324.9999999937
0.3766266266266261 	300.0000000000123 	7.10553425438528e-13 	101324.9999999938
0.3791291291291286 	299.999999999989 	1.360369677953711e-12 	101324.9999999939
0.3816316316316311 	299.99999999995 	7.09892093435054e-13 	101324.9999999937
0.3841341341341336 	300.0000000000041 	1.588668902383176e-12 	101324.9999999937
0.3866366366366362 	299.9999999999964 	5.399798579035671e-13 	101324.999999994
0.3891391391391387 	299.9999999999729 	1.353563231297922e-12 	101324.999999994
0.391641641641641 	299.9999999999966 	7.131457941754843e-13 	101324.999999994
0.3941441441441436 	300.0000000000038 	1.105762979080239e-12 	101324.9999999941
0.3966466466466462 	299.9999999999984 	9.682265915235223e-13 	101324.9999999944
0.3991491491491486 	299.9999999999695 	1.547578389729807e-12 	101324.9999999942
0.4016516516516512 	299.9999999999492 	4.922318433224234e-13 	101324.9999999941
0.4041541541541536 	299.9999999999688 	1.444896363206689e-12 	101324.9999999941
0.4066566566566561 	299.9999999999688 	7.426878567516144e-13 	101324.9999999943
0.4091591591591587 	299.9999999999964 	1.774780375166952e-12 	101324.9999999944
0.4116616616616612 	300.0000000000053 	9.37056699271252e-13 	101324.9999999945
0.4141641641641635 	300.0000000000204 	1.871265613145364e-13 	101324.9999999946
0.4166666666666662 	299.9999999999984 	7.685045397923363e-13 	101324.9999999944
0.4191691691691687 	299.9999999999629 	1.460734369035636e-12 	101324.9999999944
0.421671671671671 	300.0000000000036 	1.156364262860583e-12 	101324.9999999942
0.4241741741741737 	299.9999999999839 	2.281936878831021e-12 	101324.9999999941
0.4266766766766761 	299.9999999999673 	1.49376748889192e-12 	101324.9999999941
0.4291791791791785 	300.0000000000159 	3.687619927584787e-12 	101324.9999999943
0.4316816816816812 	300.0000000000076 	1.359584932705246e-12 	101324.9999999943
0.4341841841841836 	299.9999999999877 	3.921601142478054e-12 	101324.999999994
0.4366866866866862 	299.9999999999482 	6.064669658210906e-13 	101324.9999999939
0.4391891891891885 	299.9999999999962 	2.149156450988058e-12 	101324.9999999938
0.4416916916916913 	299.9999999999905 	7.122140965452248e-13 	101324.9999999938
0.4441941941941936 	299.9999999999932 	1.459604451616482e-12 	101324.999999994
0.4466966966966961 	299.9999999999507 	5.06590251212678e-13 	101324.9999999939
0.4491991991991987 	299.9999999999886 	6.818465384594208e-14 	101324.999999994
0.4517017017017012 	299.9999999999878 	2.60239435647261e-13 	101324.9999999943
0.4542042042042035 	299.9999999999908 	4.659885472273565e-13 	101324.9999999942
0.4567067067067062 	299.9999999999983 	1.252047833255033e-12 	101324.9999999941
0.4592092092092087 	299.9999999999565 	1.501131249974884e-12 	101324.9999999941
0.4617117117117112 	300.0000000000126 	2.102219890791065e-12 	101324.9999999943
0.4642142142142137 	299.9999999999782 	2.18108188510943e-12 	101324.9999999944
0.4667167167167162 	299.9999999999949 	1.958241445927761e-12 	101324.9999999945
0.4692192192192187 	299.9999999999748 	2.259437126861355e-12 	101324.9999999944
0.4717217217217212 	300.0000000000045 	2.231750582219062e-12 	101324.9999999943
0.4742242242242236 	299.9999999999718 	2.342901747932574e-12 	101324.9999999944
0.4767267267267262 	299.9999999999804 	1.912419612860709e-12 	101324.9999999944
0.4792292292292287 	300.0000000000081 	2.13088924969916e-12 	101324.9999999944
0.4817317317317312 	300.0000000000197 	2.063967393903852e-12 	101324.9999999944
0.4842342342342336 	299.9999999999899 	2.107583079315565e-12 	101324.9999999945
0.4867367367367362 	299.9999999999726 	2.29068101021655e-12 	101324.9999999945
0.4892392392392387 	300.0000000000189 	2.139524581715671e-12 	101324.9999999943
0.4917417417417412 	300.000000000004 	3.415777211844035e-12 	101324.9999999945
0.4942442442442437 	299.9999999999439 	2.628030051347133e-12 	101324.9999999945
0.4967467467467462 	299.9999999999549 	3.859632871135103e-12 	101324.9999999947
0.4992492492492487 	299.9999999999529 	1.792849049744987e-12 	101324.9999999947
0.5017517517517511 	299.9999999999723 	2.991226755670179e-12 	101324.9999999945
0.5042542542542537 	299.9999999999783 	1.777329406660146e-12 	101324.9999999946
0.5067567567567562 	299.9999999999692 	1.874616315055158e-12 	101324.9999999946
0.5092592592592589 	299.9999999999829 	1.432409199180957e-12 	101324.9999999945
0.5117617617617611 	299.9999999999742 	1.437401338109957e-12 	101324.9999999943
0.5142642642642637 	299.9999999999911 	2.972106103057314e-12 	101324.9999999942
0.5167667667667663 	299.9999999999832 	1.617392344196782e-12 	101324.9999999943
0.5192692692692688 	299.9999999999541 	4.10867507152878e-12 	101324.9999999945
0.5217717717717714 	299.9999999999623 	1.767813018643302e-12 	101324.9999999946
0.5242742742742736 	299.9999999999618 	3.360663165141258e-12 	101324.9999999944
0.5267767767767763 	299.9999999999731 	1.098770672570649e-12 	101324.9999999942
0.5292792792792789 	299.9999999999618 	3.234538903299595e-12 	101324.9999999941
0.5317817817817813 	299.9999999999447 	1.9780524084071e-12 	101324.9999999938
0.5342842842842837 	300.0000000000098 	2.916392845992298e-12 	101324.9999999936
0.5367867867867864 	300.0000000000005 	2.125606820095455e-12 	101324.9999999938
0.5392892892892888 	299.999999999974 	2.049962441344951e-12 	101324.999999994
0.5417917917917912 	300.0000000000026 	1.216573266036057e-12 	101324.999999994
0.5442942942942938 	299.9999999999879 	1.165785886334953e-12 	101324.9999999943
0.5467967967967964 	299.9999999999718 	6.006508479116712e-13 	101324.9999999945
0.5492992992992988 	299.9999999999652 	1.022790843959953e-12 	101324.9999999947
0.5518018018018012 	299.9999999999606 	4.482662052884698e-13 	101324.9999999949
0.5543043043043039 	300.0000000000137 	9.028953976558217e-13 	101324.9999999948
0.5568068068068063 	299.9999999999943 	8.827445706761587e-13 	101324.9999999946
0.5593093093093087 	299.9999999999422 	1.611081964131566e-12 	101324.9999999947
0.5618118118118114 	299.9999999999788 	6.976597429730388e-13 	101324.9999999947
0.5643143143143137 	299.9999999999665 	1.815702825698711e-12 	101324.9999999944
0.5668168168168163 	299.9999999999953 	9.675353258125719e-13 	101324.9999999941
0.5693193193193188 	300.0000000000197 	1.627921528346773e-12 	101324.9999999938
0.5718218218218213 	300.0000000000161 	1.944008871631776e-12 	101324.9999999939
0.5743243243243239 	300.0000000000055 	1.990493233355927e-12 	101324.9999999937
0.5768268268268262 	300.0000000000031 	2.936527752549752e-12 	101324.9999999939
0.5793293293293288 	299.9999999999694 	1.732216761530178e-12 	101324.9999999941
0.5818318318318314 	299.9999999999505 	3.826800569882073e-12 	101324.9999999943
0.5843343343343338 	299.9999999999872 	1.21985329004691e-12 	101324.9999999945
0.5868368368368363 	299.9999999999842 	3.433729031972793e-12 	101324.9999999945
0.5893393393393387 	299.999999999966 	1.032999558597119e-12 	101324.9999999948
0.5918418418418413 	299.9999999999635 	2.265648379454358e-12 	101324.9999999948
0.5943443443443439 	300.0000000000083 	1.26643056027344e-12 	101324.9999999947
0.5968468468468463 	300.0000000000109 	2.148068987364665e-12 	101324.9999999947
0.5993493493493487 	300.0000000000268 	1.423769092477211e-12 	101324.9999999949
0.6018518518518514 	299.9999999999895 	1.905979344565281e-12 	101324.9999999949
0.6043543543543537 	299.9999999999985 	1.576413588078689e-12 	101324.9999999949
0.6068568568568564 	299.9999999999907 	2.253876449019564e-12 	101324.9999999947
0.6093593593593587 	299.9999999999576 	2.222046739382132e-12 	101324.9999999947
0.6118618618618614 	299.9999999999536 	2.722266832065636e-12 	101324.9999999947
0.6143643643643638 	300.0000000000081 	2.964323189235601e-12 	101324.999999995
0.6168668668668662 	299.9999999999899 	4.007382607805832e-12 	101324.9999999951
0.6193693693693688 	299.9999999999747 	3.076228861309934e-12 	101324.9999999949
0.6218718718718714 	299.9999999999815 	4.118729949696502e-12 	101324.9999999948
0.6243743743743737 	299.9999999999617 	2.415676427766457e-12 	101324.9999999948
0.6268768768768762 	299.9999999999528 	3.3734752758754e-12 	101324.9999999949
0.629379379379379 	299.9999999999688 	2.474931484266895e-12 	101324.9999999947
0.6318818818818812 	299.9999999999814 	3.298387507646319e-12 	101324.9999999946
0.6343843843843838 	300.0000000000087 	2.942895417363476e-12 	101324.9999999945
0.6368868868868864 	299.9999999999887 	2.283052307090046e-12 	101324.9999999945
0.6393893893893888 	299.9999999999562 	2.597565763229672e-12 	101324.9999999944
0.6418918918918912 	300.0000000000063 	1.774143977383191e-12 	101324.9999999945
0.6443943943943939 	299.9999999999973 	3.899251903829907e-12 	101324.9999999946
0.6468968968968963 	299.9999999999913 	1.736403420240589e-12 	101324.9999999947
0.6493993993993988 	299.9999999999834 	3.877979494610328e-12 	101324.9999999948
0.6519019019019012 	299.9999999999817 	1.716084102685797e-12 	101324.9999999948
0.6544044044044038 	299.9999999999426 	3.724923517577253e-12 	101324.9999999947
0.6569069069069065 	299.9999999999754 	1.929768827823988e-12 	101324.9999999948
0.6594094094094087 	299.9999999999748 	3.248223699157249e-12 	101324.999999995
0.6619119119119113 	299.9999999999703 	1.882839486312118e-12 	101324.9999999948
0.664414414414414 	300.0000000000009 	2.940637962438658e-12 	101324.9999999948
0.6669169169169162 	300.0000000000112 	1.881242147972974e-12 	101324.9999999946
0.6694194194194188 	299.9999999999909 	2.643369609157369e-12 	101324.9999999944
0.6719219219219214 	299.9999999999551 	2.083254304774449e-12 	101324.9999999944
0.674424424424424 	299.9999999999851 	2.263349384190674e-12 	101324.9999999946
0.6769269269269262 	299.9999999999505 	1.466580945060087e-12 	101324.9999999946
0.679429429429429 	300.0000000000034 	1.68125353908418e-12 	101324.9999999948
0.6819319319319311 	299.9999999999866 	1.042342274181126e-12 	101324.999999995
0.6844344344344341 	299.9999999999969 	1.47744732597107e-12 	101324.999999995
0.686936936936936 	299.9999999999939 	5.744834975844346e-13 	101324.9999999949
0.6894394394394392 	299.9999999999905 	1.254993653397946e-12 	101324.9999999948
0.6919419419419413 	299.9999999999912 	1.332823417496758e-12 	101324.9999999948
0.694444444444444 	299.9999999999667 	1.684836917008883e-12 	101324.9999999945
0.6969469469469463 	299.9999999999569 	1.588677228319981e-12 	101324.9999999942
0.6994494494494489 	299.9999999999494 	1.226103165587312e-12 	101324.9999999941
0.7019519519519515 	299.9999999999874 	1.840288359215812e-12 	101324.999999994
0.7044544544544538 	299.9999999999712 	1.099916903836776e-12 	101324.9999999939
0.7069569569569564 	299.9999999999973 	2.296922275794507e-12 	101324.999999994
0.7094594594594589 	299.9999999999773 	1.007845802308781e-12 	101324.999999994
0.7119619619619615 	299.9999999999421 	2.245585519292752e-12 	101324.9999999942
0.7144644644644638 	299.9999999999675 	1.074699636996146e-12 	101324.9999999944
0.7169669669669665 	299.9999999999498 	1.930265543985297e-12 	101324.9999999946
0.7194694694694688 	299.9999999999941 	1.404584716915915e-12 	101324.9999999947
0.7219719719719715 	299.9999999999939 	1.802257993725415e-12 	101324.9999999946
0.7244744744744737 	300.0000000000016 	1.680667267113025e-12 	101324.9999999944
0.7269769769769764 	299.9999999999941 	2.301561750941237e-12 	101324.9999999938
0.7294794794794791 	299.9999999999868 	5.2498560965547e-12 	101324.9999999929
0.7319819819819813 	299.9999999999847 	9.02335094626571e-12 	101324.9999999911
0.7344844844844839 	299.999999999945 	2.165202079223099e-11 	101324.9999999868
0.7369869869869864 	299.9999999999579 	4.537251104450647e-11 	101324.9999999773
0.739489489489489 	299.9999999999334 	9.969915517368778e-11 	101324.9999999564
0.7419919919919914 	299.9999999998885 	2.162685654776419e-10 	101324.9999999111
0.7444944944944939 	299.9999999998323 	4.657836238543018e-10 	101324.9999998134
0.7469969969969963 	299.9999999996519 	9.999184630405556e-10 	101324.9999996048
0.7494994994994989 	299.999999999262 	2.123077092257232e-09 	101324.9999991642
0.7520020020020015 	299.9999999985004 	4.4758998658819e-09 	101324.999998243
0.7545045045045039 	299.9999999968857 	9.339394460412913e-09 	101324.9999963349
0.7570070070070062 	299.9999999935607 	1.930923308316996e-08 	101324.9999924217
0.7595095095095092 	299.999999986835 	3.952270724771329e-08 	101324.9999844783
0.7620120120120112 	299.9999999733804 	8.009569067904542e-08 	101324.9999685193
0.7645145145145138 	299.9999999465355 	1.606693696080914e-07 	101324.9999367929
0.7670170170170165 	299.9999998937259 	3.189681140924312e-07 	101324.9998743965
0.7695195195195191 	299.9999997910567 	6.265647270830697e-07 	101324.9997530236
0.7720220220220213 	299.9999995935994 	1.217578768492336e-06 	101324.9995195679
0.7745245245245239 	299.9999992181193 	2.340164292473593e-06 	101324.9990756563
0.7770270270270263 	299.9999985125232 	4.447456517934031e-06 	101324.9982414378
0.779529529529529 	299.9999972023829 	8.355789053875634e-06 	101324.9966925153
0.7820320320320313 	299.9999947996538 	1.551531520011822e-05 	101324.9938518964
0.784534534534534 	299.9999904487734 	2.846505915328104e-05 	101324.988708057
0.7870370370370364 	299.9999826721289 	5.158406040121778e-05 	101324.9795141439
0.7895395395395389 	299.9999689576049 	9.230742991557126e-05 	101324.9633002186
0.7920420420420413 	299.9999451032928 	0.0001630544027491864 	101324.9350986019
0.794544544544544 	299.9999041998178 	0.0002842173120862867 	101324.8867407875
0.7970470470470463 	299.9998350879597 	0.0004886831443315167 	101324.8050339687
0.799549549549549 	299.9997200827858 	0.0008284910350826065 	101324.6690705452
0.8020520520520515 	299.9995317154107 	0.001384342014381102 	101324.4463761297
0.8045545545545539 	299.9992282258071 	0.002278718940268966 	101324.0875814808
0.8070570570570563 	299.998747576648 	0.003693260112749544 	101323.5193459503
0.8095595595595589 	299.9979998877424 	0.005890634825779152 	101322.6354150535
0.8120620620620614 	299.9968584743416 	0.009240333672919945 	101321.2860285408
0.8145645645645638 	299.9951501657117 	0.01424633435315979 	101319.2664812028
0.8170670670670666 	299.992646341497 	0.02157239224228497 	101316.3065380761
0.8195695695695689 	299.9890571610769 	0.03205770870063592 	101312.0636334952
0.8220720720720714 	299.9840327048181 	0.04671216744261981 	101306.1242560601
0.8245745745745739 	299.977175994867 	0.06667681025625787 	101298.0193949173
0.8270770770770765 	299.9680737239875 	0.0931328789222434 	101287.2609364423
0.8295795795795788 	299.9563504154235 	0.1271432672305588 	101273.4057604439
0.8320820820820815 	299.9417499274919 	0.169415692594331 	101256.1521251306
0.834584584584584 	299.924243977258 	0.2199893775518067 	101235.4678870252
0.8370870870870865 	299.9041601926822 	0.2778682000566791 	101211.7416103156
0.8395895895895891 	299.8823112257581 	0.3406645376714036 	101185.9346630153
0.8420920920920915 	299.8600747389853 	0.4044168356752174 	101159.6750187072
0.844594594594594 	299.8393170441704 	0.4638441884879341 	101135.1663593595
0.8470970970970964 	299.8220907573472 	0.5131746676499489 	101114.8307483951
0.8495995995995991 	299.810190509751 	0.5473683723876265 	101100.7845442963
0.8521021021021015 	299.8047024027452 	0.5633817262352595 	101094.3068988395
0.8546046046046039 	299.8056605657662 	0.5611363945977061 	101095.4367745084
0.8571071071071066 	299.8119037446836 	0.5439241978747748 	101102.8066179386
0.8596096096096089 	299.8211992914025 	0.5180783803068194 	101113.7808900313
0.8621121121121116 	299.8306316421933 	0.4917988742465791 	101124.9154272652
0.8646146146146139 	299.8373325830452 	0.4730124063472637 	101132.8260271026
0.8671171171171166 	299.8394945815621 	0.4666917383914552 	101135.3790782992
0.8696196196196189 	299.8370895253358 	0.4729746457401911 	101132.539904044
0.8721221221221216 	299.831820507561 	0.4872178945389751 	101126.3179480771
0.874624624624624 	299.826394026422 	0.5019907079676126 	101119.9118741658
0.8771271271271264 	299.8233741804886 	0.5103280585686411 	101116.3467556857
0.879629629629629 	299.8239454724256 	0.5089957144239922 	101117.0205624572
0.8821321321321317 	299.8273527497943 	0.4999636173163723 	101121.0435049037
0.8846346346346339 	299.8314122224906 	0.4890855952001836 	101125.8364660277
0.8871371371371364 	299.8337726523225 	0.4826533513452957 	101128.6231995283
0.8896396396396391 	299.8333126615792 	0.4836745610119152 	101128.0805681549
0.8921421421421414 	299.830795583448 	0.4901893109093762 	101125.1084747703
0.8946446446446441 	299.8282500930509 	0.4968693256198543 	101122.1030210984
0.8971471471471464 	299.8275213595963 	0.4988646776432192 	101121.2424543203
0.8996496496496489 	299.828959180221 	0.4952126998938681 	101122.9395538253
0.9021521521521517 	299.8312571993067 	0.4892558028992862 	101125.6532593822
0.9046546546546541 	299.8325847790519 	0.4857302157100843 	101127.2207914292
0.9071571571571564 	299.8320843220635 	0.4868750792506383 	101126.6300709022
0.9096596596596589 	299.830522131422 	0.4907831676361202 	101124.7855162183
0.9121621621621616 	299.829497204887 	0.4933969041715311 	101123.5751691799
0.9146646646646639 	299.8299486774424 	0.4923069877987937 	101124.107812956
0.9171671671671666 	299.8313396737504 	0.4888116502617486 	101125.7504424169
0.9196696696696689 	299.8322996566189 	0.4863326590813721 	101126.8841147995
0.9221721721721714 	299.83204051195 	0.4868666324641824 	101126.5780052252
0.9246746746746741 	299.8311032360385 	0.4891181063164317 	101125.471468748
0.9271771771771765 	299.8306723320635 	0.4901772100306023 	101124.9625657341
0.9296796796796791 	299.8312445561558 	0.4887898329041894 	101125.6377549655
0.9321821821821816 	299.8321475803161 	0.4865520769661801 	101126.7042287751
0.9346846846846838 	299.8324193868849 	0.4858033486277084 	101127.0254023065
0.9371871871871866 	299.8319511322306 	0.4868461654559975 	101126.4724947427
0.9396896896896891 	299.8315295621831 	0.4878216581751301 	101125.9744361733
0.9421921921921914 	299.8317818188793 	0.4872137049897762 	101126.272175395
0.9446946946946939 	299.8324105774041 	0.4856878713649915 	101127.0146265949
0.9471971971971965 	299.8326765808557 	0.4849805845081567 	101127.3288802947
0.9496996996996991 	299.8324140321965 	0.4855132407081622 	101127.0189482544
0.9522022022022016 	299.8321863566899 	0.4859997416647112 	101126.749780091
0.9547047047047038 	299.8324305761427 	0.4854093871508867 	101127.0381607306
0.9572072072072064 	299.8328644696512 	0.4843595761272865 	101127.5505598646
0.9597097097097093 	299.8329757827311 	0.4840230515314075 	101127.6819241865
0.9622122122122114 	299.8327937953767 	0.484362605604173 	101127.4671228088
0.964714714714714 	299.8327780828237 	0.4843533883831929 	101127.4484789206
0.9672172172172167 	299.8330690675627 	0.4836570627221926 	101127.7918417714
0.969719719719719 	299.833313897366 	0.4830398037025145 	101128.0810888447
0.9722222222222214 	299.8332854078103 	0.4830205549714137 	101128.0475595193
0.9747247247247239 	299.8332271785408 	0.4830860421650353 	101127.9785082176
0.9772272272272267 	299.8333930861313 	0.4826722584962499 	101128.1743787172
0.9797297297297292 	299.8336267324415 	0.482096983056123 	101128.4504775801
0.9822322322322313 	299.8336824210171 	0.4818941582251409 	101128.516092333
0.9847347347347344 	299.8336574876121 	0.4818745251127987 	101128.4865263727
0.9872372372372363 	299.8337738285363 	0.4815658854674842 	101128.6239973625
0.9897397397397389 	299.8339676311474 	0.4810858036380353 	101128.8527613545
0.9922422422422417 	299.8340460106218 	0.4808371835920199 	101128.945241672
0.9947447447447441 	299.834058246462 	0.4807329391445951 	101128.9597253006
0.9972472472472468 	299.8341680560391 	0.4804366485582431 	101129.0892693809
0.999749749749749 	299.8343278808301 	0.4800313709089115 	101129.278054195
1.002252252252252 	299.8344025216586 	0.4797919868153903 	101129.366276815
1.004754754754754 	299.8344446596797 	0.4796248420446896 	101129.415792508
1.007257257257256 	299.8345616840011 	0.4793131256709889 	101129.553946631
1.009759759759759 	299.8346931106889 	0.4789664551110365 	101129.7093581505
1.012262262262261 	299.8347597194586 	0.4787446468266779 	101129.787795575
1.014764764764764 	299.8348285268387 	0.4785243070433148 	101129.868905563
1.017267267267267 	299.8349502563682 	0.4782026272135619 	101130.0128222679
1.019769769769769 	299.8350552717322 	0.4779081126295927 	101130.1367485129
1.022272272272272 	299.8351214907788 	0.4776879853457017 	101130.2147997988
1.024774774774774 	299.8352143556594 	0.4774217973647381 	101130.3246205869
1.027277277277277 	299.8353294969148 	0.4771124720550975 	101130.4605187025
1.029779779779779 	299.8354137454824 	0.4768574728917436 	101130.5598252066
1.032282282282282 	299.8354924690988 	0.4766151906377554 	101130.652836925
1.034784784784784 	299.8355989422801 	0.4763239663029328 	101130.778566249
1.037287287287286 	299.8356965747713 	0.4760459593536696 	101130.8937508348
1.039789789789789 	299.835775684576 	0.4758012709957206 	101130.9871680072
1.042292292292291 	299.8358716908274 	0.4755290574127666 	101131.1005692408
1.044794794794794 	299.8359734370381 	0.4752457232378 	101131.2205797328
1.047297297297296 	299.8360578396577 	0.4749914538689078 	101131.3201964852
1.049799799799799 	299.8361478610871 	0.474729166729481 	101131.4266030862
1.052302302302302 	299.836248462829 	0.4744489576202464 	101131.5452176143
1.054804804804804 	299.8363373055844 	0.4741871963366728 	101131.6500367798
1.057307307307306 	299.8364252851313 	0.4739278646014362 	101131.7541437722
1.059809809809809 	299.8365233958249 	0.473652667650905 	101131.8698409667
1.062312312312312 	299.836614632306 	0.4733875942098452 	101131.9774182476
1.064814814814814 	299.836702714239 	0.4731281762119174 	101132.0815333316
1.067317317317317 	299.8367986546943 	0.4728568336878625 	101132.1947967654
1.069819819819819 	299.8368906198411 	0.472590942435705 	101132.3032814341
1.072322322322321 	299.8369793786358 	0.4723305183746205 	101132.4081044275
1.074824824824824 	299.8370739104508 	0.4720616577050451 	101132.5197645584
1.077327327327327 	299.837165850076 	0.4717963316023596 	101132.6281973966
1.079829829829829 	299.8372553628932 	0.4715352419982219 	101132.7338238003
1.082332332332332 	299.837348990833 	0.4712683188567784 	101132.8444905767
1.084834834834834 	299.8374405673068 	0.4710041682195445 	101132.9524550471
1.087337337337337 	299.8375307171951 	0.4707422543741058 	101133.0587745287
1.089839839839839 	299.8376236660032 	0.4704763066224746 	101133.1687039764
1.092342342342342 	299.8377146593847 	0.4702133705150238 	101133.2760802594
1.094844844844844 	299.8378053055297 	0.4699513215420864 	101133.3830066937
1.097347347347347 	299.8378978159893 	0.4696865555481119 	101133.4922881228
1.099849849849849 	299.8379882835834 	0.4694244852486301 	101133.5992177427
1.102352352352352 	299.8380794494637 	0.4691623330867726 	101133.7066632685
1.104854854854854 	299.8381714863492 	0.4688989901060941 	101133.8151931446
1.107357357357357 	299.8382616725519 	0.4686376700437689 	101133.9218498983
1.109859859859859 	299.8383529867905 	0.4683755258473158 	101134.0296116557
1.112362362362362 	299.8384443752536 	0.4681135100034254 	101134.1373653078
1.114864864864865 	299.8385347375639 	0.4678527217388641 	101134.2440710903
1.117367367367367 	299.8386259929721 	0.4675909982797699 	101134.3518732091
1.119869869869869 	299.8387167566742 	0.4673302610669128 	101134.4589410099
1.122372372372372 	299.8388073610465 	0.4670700466607626 	101134.565860886
1.124874874874874 	299.8388983063928 	0.4668092981590812 	101134.6733427104
1.127377377377377 	299.8389887599687 	0.4665493219456799 	101134.7800079395
1.129879879879879 	299.8390795634685 	0.4662892095097443 	101134.8870966636
1.132382382382382 	299.8391700790733 	0.4660295822176111 	101134.9940483214
1.134884884884884 	299.8392602914198 	0.4657706673460502 	101135.1006282873
1.137387387387387 	299.839350921373 	0.4655114181736065 	101135.207582155
1.139889889889889 	299.8394412065819 	0.4652527018505435 	101135.3140710991
1.142392392392392 	299.8395315844364 	0.464994314740564 	101135.4207118814
1.144894894894894 	299.8396219149519 	0.4647362485564162 	101135.5273241962
1.147397397397397 	299.8397120287103 	0.4644786505092032 	101135.6336894795
1.149899899899899 	299.8398022903793 	0.464220970575565 	101135.7402387963
1.152402402402402 	299.8398922550967 	0.4639638239782434 	101135.8464779976
1.154904904904904 	299.8399823853416 	0.463707221215284 	101135.952781022
1.157407407407407 	299.8400724246875 	0.4634509111868173 	101136.0589940516
1.159909909909909 	299.8401622593459 	0.4631947866251391 	101136.1650931102
1.162412412412412 	299.8402522002231 	0.4629388337337305 	101136.2712573909
1.164914914914914 	299.8403419819751 	0.4626833865365004 	101136.3772346036
1.167417417417417 	299.8404318099849 	0.4624284119253514 	101136.4832554121
1.169919919919919 	299.8405214688934 	0.4621740373597255 	101136.5891318475
1.172422422422422 	299.8406111741861 	0.4619199767387381 	101136.6949764752
1.174924924924925 	299.8407009383012 	0.4616661568418337 	101136.8007826379
1.177427427427427 	299.840790570475 	0.4614128639858579 	101136.9065025491
1.179929929929929 	299.8408800959667 	0.4611599128129605 	101137.0122189275
1.182432432432432 	299.8409695434165 	0.460907540298627 	101137.11782492
1.184934934934934 	299.8410590674897 	0.4606558802856816 	101137.2234233816
1.187437437437437 	299.8411485850904 	0.4604045058370055 	101137.3289278843
1.189939939939939 	299.8412379038243 	0.4601534342631229 	101137.434400605
1.192442442442442 	299.8413270271795 	0.4599029895583069 	101137.5398055288
1.194944944944944 	299.841416405058 	0.4596531084844209 	101137.6451639991
1.197447447447447 	299.8415058427796 	0.4594039195004794 	101137.7504877694
1.199949949949949 	299.8415951997151 	0.459155577523016 	101137.8557623062
1.202452452452452 	299.8416843398671 	0.4589076342719526 	101137.9610069683
1.204954954954955 	299.841773336689 	0.4586602398837691 	101138.0661930891
1.207457457457457 	299.841862496987 	0.4584137518607047 	101138.1713589787
1.20995995995996 	299.8419517405354 	0.4581680147070327 	101138.2764835335
1.212462462462462 	299.8420409452608 	0.457922356906086 	101138.3815855666
1.214964964964964 	299.8421301956663 	0.4576787280018062 	101138.4866479526
1.217467467467467 	299.8422193206735 	0.4574332373638396 	101138.5916873259
1.219969969969969 	299.8423082123119 	0.4571938593350019 	101138.6966971569
1.222472472472472 	299.8423972762872 	0.4569405131766069 	101138.8016771014
1.224974974974975 	299.8424864366054 	0.4567267836246495 	101138.906669855
1.227477477477477 	299.8425756059149 	0.4564033337483787 	101139.0115756887
1.229979979979979 	299.8426650203916 	0.4563709205725527 	101139.1167765759
1.232482482482482 	299.8427539364299 	0.455113594682715 	101139.2210350989
1.234984984984984 	299.8428448202181 	0.4566902424455613 	101139.3288418941
1.237487487487487 	299.8429347176415 	0.4535954481948035 	101139.4316300039
1.239989989989989 	299.8430170343222 	0.4561246385743534 	101139.5334607977
1.242492492492492 	299.8431182413943 	0.4555347551086019 	101139.6436938348
1.244994994994994 	299.8421737008951 	0.4518112535498873 	101139.7347316962
1.247497497497497 	299.3468447865071 	0.456076752125063 	101139.8443331056
1.249999999999999 	303.1014642834317 	0.4541377782938258 	101139.9515232537
