-1.25 	300 	0.1178625949991122 	101277.4471741852
-1.247497497497497 	299.9571218921981 	0.1190720182583401 	101275.3249857174
-1.244994994994995 	299.9574486190967 	0.1224736161367751 	101274.6980636875
-1.242492492492492 	299.9575672459808 	0.1234135153562199 	101274.8434054034
-1.23998998998999 	299.9584003789207 	0.1200396216546044 	101275.8294812983
-1.237487487487487 	299.9601182907079 	0.1152750708460531 	101277.8595076374
-1.234984984984985 	299.9626037224938 	0.1080641639192208 	101280.7967727867
-1.232482482482482 	299.9657770338366 	0.09887926963672233 	101284.5470435361
-1.22997997997998 	299.9696132225375 	0.08783103682357826 	101289.0808530448
-1.227477477477477 	299.9739674962083 	0.07521080432896324 	101294.2271841379
-1.224974974974975 	299.9787371871572 	0.06140084660469787 	101299.864727408
-1.222472472472472 	299.9838759122665 	0.04654072397642831 	101305.938725167
-1.21996996996997 	299.9893198446935 	0.03082484335026162 	101312.3737784398
-1.217467467467467 	299.994944391575 	0.01455144557100139 	101319.0226257868
-1.214964964964965 	300.0006374515129 	0.008321670029730404 	101325.7527960489
-1.212462462462462 	300.0063585994848 	0.01846998265200804 	101332.5164871831
-1.20995995995996 	300.0119972401482 	0.03471037061738762 	101339.1829847231
-1.207457457457457 	300.0173979520047 	0.05034238245183942 	101345.5684858797
-1.204954954954955 	300.0224978987628 	0.06512876635718087 	101351.5986324296
-1.202452452452452 	300.0272218991076 	0.07880213491928773 	101357.1845159486
-1.19994994994995 	300.0314343559604 	0.09093785072407795 	101362.1657347578
-1.197447447447447 	300.0350315257039 	0.1013087697540295 	101366.4195176587
-1.194944944944945 	300.0379692554437 	0.1098034263135262 	101369.8936042925
-1.192442442442442 	300.0402133016781 	0.1162870831356332 	101372.5474475195
-1.18993993993994 	300.0417368099283 	0.1206845143811263 	101374.3492023484
-1.187437437437437 	300.0425212354393 	0.1229097415049187 	101375.2769358519
-1.184934934934935 	300.0425202180128 	0.122867331400885 	101375.2757440353
-1.182432432432432 	300.0416906554005 	0.1204823530156733 	101374.294773791
-1.17992992992993 	300.0400472586596 	0.1157576956680444 	101372.3514475379
-1.177427427427427 	300.0376523096853 	0.1088544232904645 	101369.5193091162
-1.174924924924925 	300.0345764782591 	0.09995474142910551 	101365.8820508386
-1.172422422422422 	300.0308782725515 	0.08924176902248397 	101361.5089170224
-1.16991991991992 	300.0266227746117 	0.07693703441689045 	101356.4769445845
-1.167417417417417 	300.0218867020631 	0.06324376027660197 	101350.8769174145
-1.164914914914915 	300.0167541429995 	0.04839476432680868 	101344.8082834493
-1.162412412412412 	300.0113143870017 	0.0326637467122697 	101338.3767182752
-1.15990990990991 	300.0056903188345 	0.0164029862415168 	101331.7275285541
-1.157407407407407 	299.9999929774506 	0.008208601004178449 	101324.9920217938
-1.154904904904904 	299.9942859171036 	0.01657355683232607 	101318.245352803
-1.152402402402403 	299.9886442398237 	0.03287544533863725 	101311.5762533512
-1.1498998998999 	299.9831704555188 	0.0486653198576374 	101305.1059292826
-1.147397397397397 	299.9779886041856 	0.06362979901289278 	101298.980951055
-1.144894894894895 	299.9732287511652 	0.07740422839742298 	101293.354993741
-1.142392392392392 	299.9689895741998 	0.08968762798611962 	101288.3446438926
-1.13988988988989 	299.9653409663097 	0.1002400275436585 	101284.032402291
-1.137387387387387 	299.9623291491951 	0.1089354006186331 	101280.4728758395
-1.134884884884885 	299.9599931469921 	0.1156720381944145 	101277.7120990064
-1.132382382382382 	299.9583826305074 	0.1203090938392069 	101275.8086794815
-1.12987987987988 	299.9575419107482 	0.122744379800991 	101274.815064206
-1.127377377377377 	299.9574937272163 	0.1228423127715683 	101274.7580848797
-1.124874874874875 	299.9582610460632 	0.1205884293732307 	101275.6648238117
-1.122372372372372 	299.9598305421828 	0.1160809102061299 	101277.5195543095
-1.11986986986987 	299.9621453617168 	0.1094114340184749 	101280.2551675386
-1.117367367367367 	299.9651445193916 	0.1007616572219074 	101283.7996149568
-1.114864864864865 	299.9687704447657 	0.09028105952314487 	101288.0849006469
-1.112362362362362 	299.9729509693268 	0.07814967928130845 	101293.0258347241
-1.10985985985986 	299.9776294325443 	0.06462747331656361 	101298.5554840366
-1.107357357357357 	299.9827175311269 	0.04993610168889836 	101304.5695800032
-1.104854854854855 	299.9880969568577 	0.03437241026739336 	101310.9283048058
-1.102352352352353 	299.9936577256664 	0.01825932966012906 	101317.5016788453
-1.09984984984985 	299.9993086278291 	0.007866972988379793 	101324.1819415589
-1.097347347347347 	300.0049902720078 	0.01451562588181547 	101330.8988446806
-1.094844844844845 	300.0106331828991 	0.03075596604010439 	101337.5703137237
-1.092342342342342 	300.0161021207356 	0.04655661112343255 	101344.0364028149
-1.08983983983984 	300.021271703103 	0.06154142109356452 	101350.1488229591
-1.087337337337337 	300.0260414047367 	0.0753552543128729 	101355.7887010231
-1.084834834834835 	300.0303230546027 	0.08770867622376888 	101360.8516623832
-1.082332332332332 	300.0340481768734 	0.09847446188693161 	101365.2567231625
-1.07982982982983 	300.0371739041665 	0.1075252820904483 	101368.9531036053
-1.077327327327327 	300.0396378212192 	0.1146559149991343 	101371.8669203801
-1.074824824824825 	300.0413820623826 	0.1196769535072881 	101373.9297293108
-1.072322322322323 	300.0423507526461 	0.1224035749740443 	101375.0753718444
-1.06981981981982 	300.042502120529 	0.122798868973648 	101375.2543987475
-1.067317317317317 	300.041839616154 	0.1209196074519769 	101374.4709897016
-1.064814814814815 	300.0404042802346 	0.1167846766773642 	101372.7736833862
-1.062312312312312 	300.0382271146248 	0.1105099830589494 	101370.1991024022
-1.05980980980981 	300.0353492996547 	0.102184884565114 	101366.795983042
-1.057307307307307 	300.0318146114818 	0.0919490278402275 	101362.616188163
-1.054804804804805 	300.0276802937109 	0.08003027561238896 	101357.7274750645
-1.052302302302302 	300.0230326262218 	0.06659220541748975 	101352.231916132
-1.0497997997998 	300.0179736374799 	0.05193537672675231 	101346.2502275921
-1.047297297297297 	300.0125948380909 	0.03636106449473656 	101339.8906603939
-1.044794794794795 	300.007003252867 	0.02016572532316389 	101333.2798080479
-1.042292292292292 	300.0012974247441 	0.007422015484649243 	101326.5342023589
-1.03978978978979 	299.9955591176619 	0.0129056360144613 	101319.7505034297
-1.037287287287287 	299.989883934473 	0.02929798694325335 	101313.0417448481
-1.034784784784785 	299.9843853785882 	0.04514836577414262 	101306.5420634911
-1.032282282282283 	299.9791788271354 	0.06019709058627842 	101300.3878270558
-1.02977977977978 	299.9743634999011 	0.07412743559598065 	101294.6962620452
-1.027277277277277 	299.9700098560799 	0.08674214624052808 	101289.5505540383
-1.024774774774775 	299.9661959159201 	0.09778276550559234 	101285.0428966608
-1.022272272272272 	299.9629986916115 	0.1070189951483053 	101281.2642106897
-1.01976976976977 	299.9604885215239 	0.1142686689815767 	101278.2975799413
-1.017267267267267 	299.9587283626162 	0.119318975803638 	101276.2173237082
-1.014764764764765 	299.9577570588505 	0.1221343131735513 	101275.0693506159
-1.012262262262262 	299.957569315195 	0.1226490106253469 	101274.8474559663
-1.00975975975976 	299.9581673280134 	0.1208895255561135 	101275.5541291885
-1.007257257257257 	299.9595398572371 	0.1169385483468822 	101277.1760790354
-1.004754754754755 	299.961662762722 	0.1107904969298769 	101279.684887099
-1.002252252252252 	299.9644980093728 	0.102611409912709 	101283.0355804938
-0.9997497497497498 	299.9679909662676 	0.0925572711114879 	101287.1637023962
-0.9972472472472473 	299.9720477819062 	0.08080428925602577 	101291.958396337
-0.9947447447447449 	299.9766070836111 	0.06762902243493173 	101297.3471586998
-0.9922422422422421 	299.9815851983365 	0.05322216928288996 	101303.2312012563
-0.9897397397397399 	299.9868895404867 	0.03785952378382672 	101309.5010905373
-0.9872372372372376 	299.9924139073207 	0.02188868052525145 	101316.0313769878
-0.9847347347347346 	299.998047795466 	0.006658727164102894 	101322.6914577494
-0.9822322322322323 	300.003714051513 	0.01080215628616939 	101329.3901045998
-0.9797297297297296 	300.0093288023995 	0.02698950017093991 	101336.0282074993
-0.9772272272272275 	300.0147815711434 	0.04276072688230338 	101342.4750903802
-0.9747247247247248 	300.0199706895353 	0.05775622995267221 	101348.6105499915
-0.9722222222222224 	300.0248088832831 	0.07177530572434024 	101354.331346981
-0.9697197197197196 	300.0292145312594 	0.0845063906541359 	101359.5408869131
-0.9672172172172175 	300.0331029968327 	0.09572601948647744 	101364.1390628624
-0.9647147147147147 	300.0363948721941 	0.1052630771281499 	101368.0318729162
-0.9622122122122124 	300.0390208120502 	0.112835264934834 	101371.1372892043
-0.9597097097097099 	300.0409278023851 	0.1183528248572938 	101373.3925531184
-0.9572072072072073 	300.0420739264636 	0.121628094765573 	101374.7480304406
-0.9547047047047047 	300.0424301203248 	0.1226066823817607 	101375.1693115516
-0.9522022022022023 	300.0419847065519 	0.1213324536785267 	101374.6425810564
-0.9496996996996998 	300.0407496959386 	0.1177516266880382 	101373.1821835742
-0.9471971971971973 	300.0387559092017 	0.1120330482263551 	101370.8244768893
-0.9446946946946947 	300.036048633878 	0.1042113456702018 	101367.6230110023
-0.9421921921921923 	300.032677112583 	0.09444018826790375 	101363.6361512682
-0.93968968968969 	300.0286990961484 	0.08296562538686776 	101358.9322012471
-0.9371871871871872 	300.0241847560785 	0.06989056363305216 	101353.5942607991
-0.9346846846846848 	300.0192193694445 	0.05555137394778671 	101347.7231998562
-0.9321821821821823 	300.0138982161581 	0.04014560358396126 	101341.4317168772
-0.9296796796796799 	300.0083311539422 	0.02400186573530164 	101334.8498041275
-0.9271771771771771 	300.002630638595 	0.007538307575736685 	101328.1103773436
-0.9246746746746748 	299.9968934451428 	0.01011502833323379 	101321.3279310701
-0.9221721721721724 	299.9912066364885 	0.02545094164163354 	101314.6053673956
-0.9196696696696698 	299.9856727170761 	0.0414207469634669 	101308.0638036416
-0.9171671671671672 	299.9803955546516 	0.05671080845313491 	101301.8260628955
-0.9146646646646649 	299.9754682613483 	0.07093305926128332 	101296.0020695607
-0.9121621621621623 	299.9709845721263 	0.0839133678366499 	101290.7026288459
-0.9096596596596597 	299.967040463923 	0.09529099653016343 	101286.041106182
-0.9071571571571573 	299.9637176908323 	0.1049111108924496 	101282.1140000057
-0.9046546546546547 	299.9610795019456 	0.1125812570993657 	101278.996082064
-0.9021521521521524 	299.9591716249654 	0.1180694273118906 	101276.7412323037
-0.8996496496496498 	299.9580222566188 	0.1213835511352619 	101275.3828078969
-0.8971471471471473 	299.9576541139774 	0.1223966905325724 	101274.9477346575
-0.894644644644645 	299.9580784711208 	0.1211666616160644 	101275.4491721726
-0.892142142142142 	299.9592810373063 	0.1177200009447712 	101276.8702836212
-0.8896396396396397 	299.9612343953353 	0.1120540552765015 	101279.1786882811
-0.8871371371371374 	299.9638986388346 	0.1043688982914446 	101282.3272768113
-0.8846346346346349 	299.9672213936994 	0.09474565292220551 	101286.254236429
-0.8821321321321324 	299.9711441377326 	0.08339946783686419 	101290.8904134287
-0.8796296296296297 	299.9755947922234 	0.07055772919267501 	101296.1507331236
-0.8771271271271271 	299.9804793772043 	0.05640865265990111 	101301.924160166
-0.8746246246246248 	299.9857024045011 	0.04131733732145929 	101308.0978741906
-0.8721221221221224 	299.9911557909343 	0.02555339608297754 	101314.5442042571
-0.8696196196196196 	299.9967257616707 	0.009420138324950492 	101321.1286264878
-0.8671171171171175 	300.0023393654596 	0.009420629731832244 	101327.7649672798
-0.8646146146146148 	300.0079281718016 	0.02296283514392852 	101334.3723153317
-0.8621121121121121 	300.0134006333213 	0.03877282297545159 	101340.8423971758
-0.8596096096096097 	300.0186600001945 	0.05395283123782289 	101347.060854607
-0.857107107107107 	300.0235954729097 	0.06824041296680958 	101352.8965879646
-0.8546046046046049 	300.0281074846606 	0.08127658651547 	101358.2318613386
-0.8521021021021022 	300.0321168088863 	0.09287960264290683 	101362.9729154633
-0.8495995995995997 	300.0355481154256 	0.1027806933680947 	101367.0305671876
-0.8470970970970974 	300.0383378441127 	0.1108247832570391 	101370.3296615654
-0.8445945945945946 	300.0404298993068 	0.1168756596861717 	101372.8037427301
-0.8420920920920922 	300.0417613323442 	0.1206921674619172 	101374.3783790572
-0.8395895895895897 	300.0422995794146 	0.1222633329702948 	101375.0149755141
-0.8370870870870872 	300.042046830472 	0.1215163014836679 	101374.7160726713
-0.8345845845845846 	300.0410200880155 	0.1185311402858245 	101373.5019653645
-0.8320820820820823 	300.0392410566299 	0.1134180811945609 	101371.3982053638
-0.8295795795795798 	300.0367318987913 	0.1061369902597345 	101368.4310332445
-0.8270770770770772 	300.0335164115694 	0.09685108169252532 	101364.6286617871
-0.8245745745745746 	300.0296571404421 	0.08570513242220491 	101360.0651042681
-0.8220720720720721 	300.025235848224 	0.07290273905386456 	101354.8371476639
-0.8195695695695699 	300.0203351158696 	0.05873395226795317 	101349.0424674188
-0.817067067067067 	300.0150529146875 	0.0434528992362075 	101342.7969968433
-0.8145645645645651 	300.0095095374239 	0.02743260018583335 	101336.2430129206
-0.8120620620620621 	300.0038266941962 	0.01103531413797612 	101329.5244226187
-0.8095595595595597 	299.9981304973215 	0.009132389465181625 	101322.790375837
-0.8070570570570572 	299.9924902379668 	0.02177273772884897 	101316.1227573683
-0.8045545545545546 	299.98695991084 	0.03776332909829318 	101309.585390584
-0.8020520520520523 	299.981613173504 	0.05320459548814763 	101303.26533731
-0.7995495495495494 	299.9765550322036 	0.06779605137610083 	101297.2866430487
-0.7970470470470474 	299.9719212755457 	0.08118035922405259 	101291.8097878024
-0.7945445445445446 	299.9678473393055 	0.0929760030050167 	101286.994772412
-0.7920420420420423 	299.9644177928799 	0.1029090942707536 	101282.9414634692
-0.7895395395395397 	299.9616772535847 	0.1108231507503567 	101279.70256502
-0.7870370370370371 	299.9596423197099 	0.116699792209681 	101277.2975815447
-0.7845345345345348 	299.9583149975912 	0.120538133472793 	101275.7288287767
-0.7820320320320323 	299.9577210900005 	0.12221700675021 	101275.0269300332
-0.7795295295295296 	299.9579286265501 	0.1216249283905764 	101275.2721519065
-0.7770270270270272 	299.9589604872268 	0.1186376855732536 	101276.4915159084
-0.7745245245245247 	299.9607997747044 	0.1133049016286738 	101278.6651059178
-0.7720220220220222 	299.9633627537432 	0.1059123505531279 	101281.6940085327
-0.7695195195195199 	299.9665467345192 	0.09672304452334919 	101285.4569337356
-0.767017017017017 	299.9702584864995 	0.08598772375541536 	101289.8437316026
-0.7645145145145147 	299.9744422393898 	0.07386786799454473 	101294.7885395104
-0.7620120120120122 	299.9790847749106 	0.06040545813916148 	101300.275806862
-0.7595095095095097 	299.9841795676015 	0.04565777474965421 	101306.2978607581
-0.7570070070070072 	299.9896690944121 	0.02979593194553288 	101312.7867982469
-0.7545045045045048 	299.9954243147229 	0.0131865091688116 	101319.5901444046
-0.7520020020020022 	300.0012559588732 	0.008515955605252727 	101326.4841765726
-0.7494994994994997 	300.0069474687277 	0.02004922791249686 	101333.2128991175
-0.7469969969969972 	300.0123199015418 	0.0355798994443562 	101339.5646968382
-0.7444944944944945 	300.0172919623246 	0.04999093717642555 	101345.4433900731
-0.7419919919919924 	300.0218884181662 	0.06333597695208518 	101350.8782151566
-0.7394894894894897 	300.0261902444583 	0.07582020467306189 	101355.9648413082
-0.7369869869869872 	300.0302573233526 	0.08759324775123298 	101360.7740693759
-0.7344844844844846 	300.0340658495574 	0.09857732442786561 	101365.2777287153
-0.7319819819819822 	300.0374861618437 	0.1084033558760381 	101369.3224511874
-0.7294794794794797 	300.0403033159417 	0.1164658343597107 	101372.6540327424
-0.7269769769769773 	300.0422674475706 	0.1220625652375506 	101374.9769103737
-0.7244744744744747 	300.0431555808995 	0.1245683769387919 	101376.0273073515
-0.721971971971972 	300.0428279173471 	0.1235937068500245 	101375.639813499
-0.7194694694694695 	300.0412652913611 	0.1190911357604279 	101373.7920199179
-0.7169669669669674 	300.0385820158443 	0.1113879854580265 	101370.6189706011
-0.7144644644644647 	300.0350086912583 	0.101139142552629 	101366.3933898419
-0.711961961961962 	300.0308521574572 	0.08921394065661205 	101361.4782539505
-0.7094594594594597 	300.0264422523077 	0.07654667110427485 	101356.2636613179
-0.7069569569569573 	300.0220783995522 	0.06398893671812664 	101351.1036906629
-0.7044544544544545 	300.0179913788573 	0.05220471493996162 	101346.2712089539
-0.7019519519519523 	300.0143311189649 	0.04163172877700004 	101341.9434547584
-0.6994494494494495 	300.0111741179704 	0.03249731853036964 	101338.2108312062
-0.6969469469469471 	300.0085385786425 	0.0248599882303778 	101335.0948161248
-0.6944444444444446 	300.0064011087842 	0.01865705555958166 	101332.5677164162
-0.6919419419419421 	300.0047122386551 	0.01374927039852705 	101330.571017321
-0.6894394394394396 	300.0034092780673 	0.009957989252922739 	101329.0305835218
-0.6869369369369374 	300.0024259602732 	0.007093205852067237 	101327.8680584702
-0.6844344344344344 	300.0016989557454 	0.004972603303670014 	101327.0085638292
-0.6819319319319321 	300.001171712807 	0.003432886291845297 	101326.3852378938
-0.6794294294294296 	300.0007962347082 	0.002335123152771118 	101325.9413348898
-0.6769269269269272 	300.0005334104106 	0.001565867131160306 	101325.6306154524
-0.6744244244244245 	300.0003524392781 	0.001035611719017718 	101325.4166655229
-0.6719219219219222 	300.0002297712918 	0.0006758067573899999 	101325.2716435055
-0.6694194194194195 	300.0001478661197 	0.0004353158560246829 	101325.1748125007
-0.6669169169169172 	300.0000939644194 	0.0002768876051940559 	101325.1110880897
-0.6644144144144146 	300.0000589833282 	0.0001739680342041259 	101325.0697323021
-0.661911911911912 	300.0000365853061 	0.0001080046495352815 	101325.0432525727
-0.6594094094094097 	300.0000224298752 	6.627563456170072e-05 	101325.0265174984
-0.656906906906907 	300.0000135960192 	4.02093746172831e-05 	101325.0160738227
-0.6544044044044046 	300.0000081504083 	2.412565053480347e-05 	101325.0096358052
-0.6519019019019021 	300.000004833272 	1.431920728974598e-05 	101325.005714112
-0.6493993993993996 	300.0000028359742 	8.409126347504547e-06 	101325.0033527803
-0.6468968968968971 	300.0000016468651 	4.887352054101763e-06 	101325.0019469522
-0.6443943943943946 	300.0000009466426 	2.811771474166176e-06 	101325.001119161
-0.6418918918918921 	300.0000005387639 	1.601622285985787e-06 	101325.0006369501
-0.6393893893893897 	300.0000003036521 	9.034355499304816e-07 	101325.0003589863
-0.6368868868868871 	300.0000001694879 	5.047476318330159e-07 	101325.0002003965
-0.6343843843843846 	300.000000093737 	2.793617818224666e-07 	101325.0001108196
-0.6318818818818821 	300.0000000513173 	1.531978959928325e-07 	101325.0000607194
-0.6293793793793795 	300.0000000278949 	8.325316386276901e-08 	101325.0000329673
-0.6268768768768773 	300.0000000150314 	4.484168509781385e-08 	101325.0000177394
-0.6243743743743745 	300.0000000079857 	2.39429392998291e-08 	101325.000009461
-0.6218718718718721 	300.0000000042378 	1.267418455012223e-08 	101325.0000050013
-0.6193693693693696 	300.0000000021632 	6.654451982364687e-09 	101325.0000026202
-0.6168668668668671 	300.0000000011415 	3.463609393926357e-09 	101325.0000013598
-0.6143643643643645 	300.0000000006148 	1.7893139780243e-09 	101325.0000006983
-0.6118618618618621 	300.0000000002917 	9.161033691619032e-10 	101325.0000003541
-0.6093593593593596 	300.0000000001433 	4.667090258634893e-10 	101325.0000001763
-0.6068568568568571 	300.0000000000665 	2.358715545694967e-10 	101325.0000000854
-0.6043543543543546 	300.0000000000006 	1.192556453649688e-10 	101325.0000000393
-0.6018518518518521 	299.9999999999879 	5.892664980443496e-11 	101325.000000016
-0.5993493493493496 	299.9999999999562 	3.002898234597728e-11 	101325.0000000044
-0.5968468468468471 	299.9999999999622 	1.430763472954609e-11 	101324.9999999986
-0.5943443443443446 	299.9999999999962 	8.254598358327522e-12 	101324.9999999956
-0.591841841841842 	299.9999999999637 	2.887873235988956e-12 	101324.9999999941
-0.5893393393393397 	299.9999999999467 	2.828736807886138e-12 	101324.9999999936
-0.5868368368368371 	299.999999999989 	2.346336171289939e-12 	101324.9999999933
-0.5843343343343346 	300.0000000000047 	3.067819125831273e-12 	101324.9999999932
-0.5818318318318321 	300.0000000000304 	2.078422911784779e-12 	101324.9999999931
-0.5793293293293297 	299.9999999999881 	3.524812439041351e-12 	101324.999999993
-0.5768268268268271 	300.0000000000006 	1.461945241223722e-12 	101324.999999993
-0.5743243243243245 	300.0000000000186 	3.239869724525655e-12 	101324.9999999932
-0.5718218218218221 	300.000000000016 	2.315675086835663e-12 	101324.9999999932
-0.5693193193193196 	300.0000000000418 	2.560990028504241e-12 	101324.9999999933
-0.5668168168168171 	299.9999999999868 	2.863793520212281e-12 	101324.9999999934
-0.5643143143143147 	299.9999999999501 	1.773979409222063e-12 	101324.9999999934
-0.5618118118118121 	300.0000000000125 	2.828101587575909e-12 	101324.9999999936
-0.5593093093093094 	300.0000000000323 	2.096040719701891e-12 	101324.9999999933
-0.5568068068068072 	300.0000000000149 	3.423700521991529e-12 	101324.9999999932
-0.5543043043043046 	300.0000000000143 	2.62631095937238e-12 	101324.9999999931
-0.551801801801802 	299.9999999999543 	3.009080490739677e-12 	101324.9999999931
-0.5492992992992995 	299.9999999999976 	1.99158535079602e-12 	101324.9999999929
-0.5467967967967969 	300.0000000000146 	3.056710733462309e-12 	101324.9999999927
-0.5442942942942947 	300.000000000009 	2.292493607112136e-12 	101324.9999999928
-0.5417917917917919 	299.9999999999632 	3.71954641452579e-12 	101324.999999993
-0.5392892892892895 	299.9999999999316 	1.683941508513729e-12 	101324.9999999932
-0.536786786786787 	299.9999999999579 	3.559720045408651e-12 	101324.9999999935
-0.5342842842842846 	299.9999999999638 	1.100723657522723e-12 	101324.9999999935
-0.531781781781782 	299.9999999999411 	4.306690706011444e-12 	101324.9999999935
-0.5292792792792794 	299.9999999999338 	1.451286956595607e-12 	101324.9999999936
-0.526776776776777 	299.999999999913 	5.014673081452537e-12 	101324.9999999936
-0.5242742742742745 	299.9999999999789 	3.671780277494485e-12 	101324.9999999936
-0.521771771771772 	300.000000000016 	6.092565448802755e-12 	101324.9999999934
-0.5192692692692695 	299.999999999962 	4.425672808509363e-12 	101324.999999993
-0.516766766766767 	300.0000000000035 	5.968952718312867e-12 	101324.9999999927
-0.5142642642642645 	299.9999999999719 	4.164728593686992e-12 	101324.9999999925
-0.511761761761762 	299.999999999955 	4.755331412609244e-12 	101324.9999999926
-0.5092592592592596 	299.9999999999736 	3.419082349445462e-12 	101324.9999999928
-0.506756756756757 	299.9999999999442 	4.00176804491095e-12 	101324.9999999928
-0.5042542542542544 	299.9999999999936 	2.814571613120978e-12 	101324.999999993
-0.5017517517517521 	300.0000000000276 	3.024380488484122e-12 	101324.999999993
-0.4992492492492494 	300.0000000000302 	1.527217963311275e-12 	101324.9999999929
-0.496746746746747 	299.9999999999877 	2.744714621439975e-12 	101324.9999999928
-0.4942442442442445 	299.999999999947 	1.064558536258166e-12 	101324.9999999926
-0.4917417417417421 	299.9999999999443 	1.87612121824601e-12 	101324.9999999928
-0.4892392392392395 	299.9999999999594 	8.831191831292462e-13 	101324.9999999928
-0.486736736736737 	299.9999999999606 	2.858987371361224e-12 	101324.999999993
-0.4842342342342345 	299.9999999999278 	1.044073792533036e-12 	101324.999999993
-0.481731731731732 	300.000000000034 	3.250028903373352e-12 	101324.999999993
-0.4792292292292296 	300.0000000000173 	1.05207078477774e-12 	101324.9999999928
-0.4767267267267268 	299.9999999999587 	3.898874857075045e-12 	101324.9999999928
-0.4742242242242246 	299.9999999999974 	2.15104696460526e-12 	101324.9999999931
-0.471721721721722 	299.9999999999612 	3.504071077734197e-12 	101324.9999999929
-0.4692192192192195 	299.99999999998 	2.019103681853265e-12 	101324.9999999928
-0.4667167167167169 	299.9999999999164 	2.413278828241401e-12 	101324.9999999926
-0.4642142142142145 	299.9999999999936 	1.347532335617625e-12 	101324.9999999925
-0.461711711711712 	300.0000000000151 	2.366568987522166e-12 	101324.9999999925
-0.4592092092092094 	300.0000000000086 	7.917806509994027e-13 	101324.9999999924
-0.456706706706707 	300.0000000000443 	2.743632607952643e-12 	101324.9999999922
-0.4542042042042045 	299.9999999999449 	1.630076585372161e-12 	101324.9999999919
-0.451701701701702 	299.9999999999538 	2.855249618452911e-12 	101324.9999999921
-0.4491991991991995 	299.9999999999666 	1.400257835246063e-12 	101324.999999992
-0.4466966966966969 	299.9999999999669 	3.154853446042513e-12 	101324.9999999922
-0.4441941941941945 	299.9999999999945 	1.015304737030839e-12 	101324.9999999922
-0.441691691691692 	299.9999999999622 	3.91745523408813e-12 	101324.9999999921
-0.4391891891891895 	299.9999999999872 	9.80905729434279e-13 	101324.9999999922
-0.436686686686687 	299.9999999999693 	4.553104903750581e-12 	101324.9999999924
-0.4341841841841846 	299.9999999999949 	1.653722622808206e-12 	101324.9999999923
-0.431681681681682 	299.9999999999516 	4.194672178980255e-12 	101324.9999999922
-0.4291791791791794 	299.9999999999322 	1.369059631608173e-12 	101324.9999999923
-0.426676676676677 	299.9999999999231 	2.574388229187842e-12 	101324.9999999921
-0.4241741741741744 	299.9999999999698 	1.689741859177313e-12 	101324.9999999919
-0.421671671671672 	300.0000000000009 	1.716555276707456e-12 	101324.9999999916
-0.4191691691691694 	300.0000000000402 	5.462730128081638e-13 	101324.9999999913
-0.4166666666666669 	300.0000000000479 	2.193255641662501e-12 	101324.9999999913
-0.4141641641641645 	299.9999999999432 	1.106486761076876e-12 	101324.9999999914
-0.411661661661662 	300.0000000000001 	1.723097633884657e-12 	101324.9999999916
-0.4091591591591594 	300.0000000000047 	1.568497834030927e-12 	101324.9999999918
-0.406656656656657 	299.9999999999509 	2.978526911786489e-12 	101324.9999999919
-0.4041541541541545 	300.0000000000095 	1.43062345256691e-12 	101324.9999999921
-0.401651651651652 	299.9999999999322 	3.468232226674534e-12 	101324.9999999921
-0.3991491491491494 	300.0000000000033 	7.355843245669906e-13 	101324.9999999922
-0.396646646646647 	299.9999999999603 	4.935050634726424e-12 	101324.9999999921
-0.3941441441441444 	299.9999999999829 	1.273762066609525e-12 	101324.999999992
-0.3916416416416419 	299.9999999999432 	5.056118918818427e-12 	101324.9999999918
-0.3891391391391395 	299.9999999999601 	1.933860579326863e-12 	101324.9999999917
-0.3866366366366368 	299.9999999999617 	3.851991929792351e-12 	101324.9999999917
-0.3841341341341344 	299.9999999999984 	2.121752621633686e-12 	101324.9999999917
-0.381631631631632 	299.9999999999539 	3.096217089145941e-12 	101324.9999999917
-0.3791291291291294 	299.9999999999989 	2.207796113853583e-12 	101324.9999999916
-0.3766266266266269 	300.0000000000171 	1.799890262880044e-12 	101324.9999999917
-0.3741241241241244 	300.0000000000203 	2.760089360627716e-12 	101324.999999992
-0.371621621621622 	300.0000000000169 	1.343102116254078e-12 	101324.999999992
-0.3691191191191194 	300.0000000000028 	4.703236468638503e-12 	101324.9999999919
-0.366616616616617 	300.0000000000056 	1.861552020023503e-12 	101324.9999999919
-0.3641141141141143 	299.99999999997 	5.357643589301557e-12 	101324.999999992
-0.3616116116116119 	299.9999999999559 	3.230877759781068e-12 	101324.9999999921
-0.3591091091091095 	299.9999999999867 	4.313441750870118e-12 	101324.9999999921
-0.356606606606607 	299.9999999999822 	3.120249651560451e-12 	101324.9999999922
-0.3541041041041044 	299.9999999999912 	2.943417235182459e-12 	101324.9999999922
-0.3516016016016019 	300.00000000001 	3.497804020427415e-12 	101324.9999999921
-0.3490990990990994 	299.9999999999945 	1.868755387310458e-12 	101324.9999999919
-0.346596596596597 	300.0000000000334 	3.956122355573171e-12 	101324.9999999917
-0.3440940940940944 	300.0000000000398 	2.05752449511926e-12 	101324.9999999919
-0.3415915915915919 	300.0000000000181 	4.534038813921848e-12 	101324.9999999918
-0.3390890890890895 	299.9999999999799 	2.70312033038036e-12 	101324.9999999922
-0.3365865865865869 	300.000000000013 	4.045409654728637e-12 	101324.9999999923
-0.3340840840840844 	299.999999999999 	3.559802341995324e-12 	101324.9999999922
-0.3315815815815819 	300.0000000000178 	4.180602499389382e-12 	101324.9999999923
-0.3290790790790794 	300.0000000000171 	3.560725993412691e-12 	101324.9999999925
-0.3265765765765769 	299.9999999999361 	3.929918162045754e-12 	101324.9999999925
-0.3240740740740744 	299.9999999999956 	2.658459780403335e-12 	101324.9999999924
-0.3215715715715718 	300.0000000000063 	4.066934305701263e-12 	101324.9999999925
-0.3190690690690695 	299.999999999943 	2.32781707637431e-12 	101324.9999999925
-0.3165665665665668 	299.9999999999899 	3.852193465407863e-12 	101324.9999999923
-0.3140640640640644 	299.9999999999995 	1.368245048673084e-12 	101324.9999999924
-0.311561561561562 	299.9999999999362 	4.214809485985749e-12 	101324.9999999923
-0.3090590590590593 	299.9999999999932 	1.0485319475218e-12 	101324.9999999925
-0.3065565565565568 	300.0000000000031 	5.54679166662532e-12 	101324.9999999926
-0.3040540540540545 	300.0000000000007 	1.475309402516575e-12 	101324.9999999924
-0.3015515515515518 	300.0000000000292 	5.347286037295548e-12 	101324.9999999922
-0.2990490490490494 	299.999999999954 	1.846618843270326e-12 	101324.999999992
-0.2965465465465469 	299.9999999999864 	3.870810004426691e-12 	101324.9999999918
-0.2940440440440444 	299.999999999996 	3.027611487730832e-12 	101324.999999992
-0.2915415415415418 	300.0000000000054 	3.635926083753522e-12 	101324.9999999922
-0.2890390390390395 	300.0000000000063 	4.319812877470155e-12 	101324.9999999925
-0.2865365365365368 	299.9999999999815 	3.309625012113084e-12 	101324.9999999923
-0.2840340340340343 	299.9999999999981 	5.290151419688965e-12 	101324.9999999923
-0.2815315315315318 	299.9999999999365 	3.218443666158734e-12 	101324.9999999924
-0.2790290290290295 	299.9999999999652 	5.375954588205399e-12 	101324.9999999926
-0.2765265265265269 	300.0000000000046 	3.943177291330651e-12 	101324.9999999926
-0.2740240240240244 	300.0000000000205 	4.690379534204555e-12 	101324.9999999923
-0.2715215215215219 	300.0000000000139 	4.687589274916174e-12 	101324.9999999919
-0.2690190190190194 	299.99999999995 	4.716518616444657e-12 	101324.9999999918
-0.2665165165165169 	299.9999999999966 	5.84921479629154e-12 	101324.9999999919
-0.2640140140140144 	299.9999999999717 	4.281254183115455e-12 	101324.999999992
-0.2615115115115119 	300.0000000000005 	5.592162093715916e-12 	101324.999999992
-0.2590090090090094 	299.9999999999433 	3.451726849847259e-12 	101324.9999999919
-0.2565065065065068 	299.9999999999936 	4.133599023035013e-12 	101324.9999999921
-0.2540040040040044 	299.9999999999958 	3.90141133811538e-12 	101324.9999999921
-0.2515015015015019 	300.0000000000347 	3.67280526554838e-12 	101324.9999999921
-0.2489989989989994 	300.0000000000377 	5.95533480896691e-12 	101324.9999999923
-0.2464964964964968 	299.9999999999903 	3.726910615044547e-12 	101324.9999999925
-0.2439939939939944 	299.9999999999959 	7.160575032408579e-12 	101324.9999999929
-0.2414914914914919 	299.9999999999709 	3.501273532812582e-12 	101324.999999993
-0.2389889889889893 	300.0000000000016 	7.364500256685819e-12 	101324.9999999929
-0.2364864864864869 	300.0000000000217 	3.620267134009296e-12 	101324.9999999929
-0.2339839839839843 	299.9999999999411 	7.294050934842885e-12 	101324.9999999924
-0.2314814814814819 	299.9999999999836 	2.968129677312882e-12 	101324.9999999921
-0.2289789789789792 	299.99999999993 	5.886323514901767e-12 	101324.9999999922
-0.2264764764764769 	299.9999999999532 	3.076729395520841e-12 	101324.9999999921
-0.2239739739739743 	299.9999999999637 	4.462390794365917e-12 	101324.9999999924
-0.2214714714714718 	299.9999999999471 	3.998911215146183e-12 	101324.9999999927
-0.2189689689689693 	299.999999999972 	3.29220529045957e-12 	101324.9999999925
-0.2164664664664669 	299.9999999999874 	4.221112679922933e-12 	101324.9999999924
-0.2139639639639643 	299.9999999999434 	2.316463677388508e-12 	101324.9999999925
-0.2114614614614618 	299.9999999999771 	3.423737456618458e-12 	101324.9999999924
-0.2089589589589593 	299.9999999999903 	2.718825172649048e-12 	101324.9999999925
-0.2064564564564568 	299.9999999999907 	2.296909558383108e-12 	101324.9999999928
-0.2039539539539543 	299.999999999924 	3.157944085385111e-12 	101324.9999999928
-0.2014514514514518 	299.9999999999534 	9.667933512708593e-13 	101324.9999999927
-0.1989489489489494 	299.9999999999725 	3.641147337964915e-12 	101324.9999999925
-0.1964464464464468 	299.999999999992 	8.905570763843117e-13 	101324.9999999925
-0.1939439439439443 	299.9999999999906 	3.340725521275271e-12 	101324.9999999924
-0.1914414414414418 	299.9999999999334 	6.88185705081396e-13 	101324.9999999925
-0.1889389389389393 	300.0000000000055 	2.473588015488785e-12 	101324.9999999927
-0.1864364364364368 	300.0000000000313 	1.935472991687964e-12 	101324.9999999926
-0.1839339339339343 	299.9999999999787 	2.840528833323972e-12 	101324.9999999927
-0.1814314314314318 	299.999999999996 	1.776069224240787e-12 	101324.9999999925
-0.1789289289289293 	299.9999999999162 	2.811035313280065e-12 	101324.9999999922
-0.1764264264264268 	299.9999999999853 	1.547217061134108e-12 	101324.9999999921
-0.1739239239239243 	299.9999999999164 	3.465591953998885e-12 	101324.9999999921
-0.1714214214214218 	299.9999999999885 	1.261902249252082e-12 	101324.9999999922
-0.1689189189189193 	299.9999999999587 	4.767057731687978e-12 	101324.9999999922
-0.1664164164164168 	300.0000000000034 	6.753540478345794e-13 	101324.999999992
-0.1639139139139143 	299.9999999999866 	6.158282511400636e-12 	101324.9999999921
-0.1614114114114118 	300.0000000000215 	1.957914773251658e-12 	101324.9999999922
-0.1589089089089093 	299.9999999999944 	8.062090739468904e-12 	101324.9999999925
-0.1564064064064068 	299.9999999999853 	3.029871302925031e-12 	101324.9999999923
-0.1539039039039043 	299.9999999999925 	8.823738119578025e-12 	101324.9999999925
-0.1514014014014018 	300.000000000024 	1.449779463440487e-12 	101324.9999999925
-0.1488988988988993 	299.9999999999862 	8.892975186219692e-12 	101324.9999999927
-0.1463963963963968 	300.0000000000003 	7.403605764961058e-13 	101324.9999999929
-0.1438938938938943 	299.9999999999591 	7.110862190139947e-12 	101324.9999999931
-0.1413913913913918 	299.9999999999388 	1.374360767875882e-12 	101324.9999999932
-0.1388888888888893 	299.9999999999823 	5.021356701404959e-12 	101324.9999999932
-0.1363863863863868 	299.9999999999083 	1.591948862720794e-12 	101324.9999999934
-0.1338838838838843 	299.9999999999295 	3.107964857244512e-12 	101324.9999999931
-0.1313813813813818 	299.999999999995 	4.807198846671397e-13 	101324.999999993
-0.1288788788788793 	299.9999999999649 	1.736714566681861e-12 	101324.9999999929
-0.1263763763763768 	299.9999999999749 	2.206133520350757e-13 	101324.9999999929
-0.1238738738738743 	299.9999999999434 	3.474124246065117e-12 	101324.999999993
-0.1213713713713717 	299.9999999999835 	1.391430316562038e-12 	101324.999999993
-0.1188688688688693 	300.0000000000084 	5.152872917901905e-12 	101324.9999999932
-0.1163663663663668 	299.9999999999225 	1.154158796821248e-12 	101324.9999999932
-0.1138638638638643 	299.9999999999911 	5.322598365991723e-12 	101324.9999999933
-0.1113613613613618 	299.999999999987 	3.36233878464682e-13 	101324.9999999931
-0.1088588588588592 	299.999999999982 	5.091668232743745e-12 	101324.999999993
-0.1063563563563568 	299.9999999999622 	4.644552620835355e-13 	101324.999999993
-0.1038538538538543 	299.9999999999787 	4.203327186094711e-12 	101324.9999999931
-0.1013513513513517 	300.0000000000126 	1.204710194129025e-12 	101324.9999999927
-0.09884884884884926 	299.9999999999558 	4.74859130948345e-12 	101324.9999999925
-0.09634634634634676 	299.9999999999145 	2.338801737980545e-12 	101324.9999999925
-0.09384384384384425 	299.9999999999376 	4.116192529615876e-12 	101324.9999999926
-0.09134134134134177 	300.0000000000172 	2.282454552002997e-12 	101324.9999999926
-0.08883883883883925 	300.0000000000049 	2.995731079416091e-12 	101324.9999999925
-0.08633633633633674 	299.999999999959 	2.380239965890288e-12 	101324.9999999925
-0.08383383383383426 	300.0000000000057 	3.067821931719711e-12 	101324.9999999925
-0.08133133133133173 	299.9999999999731 	3.216652079968913e-12 	101324.9999999925
-0.07882882882882926 	299.9999999999008 	2.260283629668485e-12 	101324.9999999926
-0.07632632632632676 	299.9999999999674 	1.995789039556053e-12 	101324.9999999928
-0.07382382382382424 	299.999999999915 	1.944744127222768e-12 	101324.9999999925
-0.07132132132132173 	300.0000000000115 	1.678943338904568e-12 	101324.9999999925
-0.06881881881881925 	299.9999999999651 	2.106104009863638e-12 	101324.9999999925
-0.06631631631631671 	299.999999999909 	1.779205829180115e-12 	101324.9999999924
-0.06381381381381425 	299.9999999999598 	1.211421515840187e-12 	101324.9999999923
-0.06131131131131173 	299.9999999999615 	1.542929471285654e-12 	101324.9999999922
-0.05880880880880923 	299.9999999999312 	1.725347218478921e-12 	101324.9999999922
-0.05630630630630672 	299.9999999999712 	1.812316566901209e-12 	101324.9999999922
-0.05380380380380424 	300.0000000000129 	1.958210740224398e-12 	101324.9999999924
-0.05130130130130173 	300.0000000000097 	2.238195916548757e-12 	101324.9999999927
-0.04879879879879922 	299.999999999953 	2.440086395469499e-12 	101324.9999999929
-0.04629629629629672 	299.9999999999463 	1.191397782684241e-12 	101324.9999999929
-0.04379379379379422 	299.9999999999304 	8.093463641718014e-13 	101324.999999993
-0.04129129129129173 	299.9999999999799 	1.55426911882966e-13 	101324.9999999929
-0.03878878878878922 	299.9999999999856 	1.250034119257218e-13 	101324.9999999926
-0.03628628628628671 	299.9999999999829 	2.801502678413469e-13 	101324.9999999925
-0.03378378378378422 	299.999999999942 	3.15503876295881e-13 	101324.9999999924
-0.03128128128128172 	299.9999999999738 	2.347559180308917e-13 	101324.9999999924
-0.02877877877877922 	299.9999999999732 	9.312139626622753e-13 	101324.9999999925
-0.0262762762762767 	299.999999999916 	1.27977321069984e-12 	101324.9999999924
-0.02377377377377422 	300.0000000000156 	9.317382545553802e-13 	101324.9999999923
-0.0212712712712717 	299.9999999999164 	1.139100879002362e-12 	101324.999999992
-0.01876876876876921 	299.9999999999757 	7.277195787597782e-13 	101324.9999999918
-0.01626626626626671 	300.0000000000109 	1.602145147316525e-12 	101324.9999999917
-0.0137637637637642 	299.9999999999696 	1.12002411744519e-12 	101324.9999999916
-0.0112612612612617 	300.0000000000119 	1.076761621889958e-12 	101324.9999999913
-0.008758758758759198 	299.9999999999959 	5.539031104796826e-13 	101324.9999999914
-0.006256256256256697 	299.999999999904 	5.209923908308622e-13 	101324.9999999913
-0.003753753753754195 	299.9999999999595 	3.24945141268178e-13 	101324.9999999914
-0.001251251251251693 	299.9999999999375 	1.067585645230894e-13 	101324.9999999914
0.00125125125125081 	299.9999999999596 	4.811247836249381e-13 	101324.9999999915
0.003753753753753312 	299.9999999999688 	2.474896100273717e-13 	101324.9999999915
0.006256256256255817 	299.9999999999046 	1.650573769236162e-13 	101324.9999999918
0.008758758758758317 	299.9999999999893 	1.393417273769029e-13 	101324.9999999919
0.01126126126126082 	300.0000000000069 	1.108974843525422e-13 	101324.9999999919
0.01376376376376332 	299.9999999999717 	3.477480999195751e-13 	101324.9999999919
0.01626626626626582 	300.0000000000065 	9.062987907376469e-13 	101324.9999999922
0.01876876876876833 	299.9999999999626 	8.238806235191654e-13 	101324.9999999923
0.02127127127127083 	299.999999999973 	1.266522305951577e-12 	101324.9999999922
0.02377377377377332 	299.9999999999949 	1.227300093440254e-12 	101324.9999999923
0.02627627627627583 	299.9999999999202 	1.047421880524508e-12 	101324.9999999922
0.02877877877877833 	300.0000000000063 	1.415126899772046e-12 	101324.9999999921
0.03128128128128083 	299.9999999999535 	1.087740899904943e-12 	101324.9999999923
0.03378378378378333 	299.999999999918 	1.647525295192688e-12 	101324.9999999923
0.03628628628628584 	299.9999999999774 	1.556095869687379e-12 	101324.9999999921
0.03878878878878834 	299.9999999999812 	1.672518397922928e-12 	101324.999999992
0.04129129129129084 	299.9999999999797 	1.620642225022646e-12 	101324.999999992
0.04379379379379333 	299.9999999999487 	2.020745749945141e-12 	101324.9999999922
0.04629629629629585 	299.9999999999056 	2.346278513159645e-12 	101324.9999999921
0.04879879879879834 	299.999999999959 	2.192677236017517e-12 	101324.999999992
0.05130130130130085 	300.0000000000106 	1.710179106780141e-12 	101324.9999999922
0.05380380380380335 	300.0000000000142 	1.151494316958333e-12 	101324.9999999923
0.05630630630630584 	299.9999999999891 	9.294502209244001e-13 	101324.9999999924
0.05880880880880836 	299.9999999999351 	9.861262503630867e-13 	101324.9999999927
0.06131131131131085 	299.9999999999794 	1.141864024113296e-12 	101324.9999999927
0.06381381381381336 	299.999999999971 	1.417757570479278e-12 	101324.9999999926
0.06631631631631586 	299.9999999999072 	1.475833868708478e-12 	101324.9999999926
0.06881881881881835 	299.9999999999551 	2.289090381329281e-12 	101324.9999999925
0.07132132132132088 	299.9999999999911 	2.213119260008701e-12 	101324.9999999923
0.07382382382382337 	299.9999999999197 	2.572838870430385e-12 	101324.9999999921
0.07632632632632587 	299.9999999999761 	2.716493343836466e-12 	101324.9999999923
0.07882882882882837 	299.9999999999472 	2.668094855526686e-12 	101324.9999999926
0.08133133133133086 	299.9999999999887 	3.051609606330954e-12 	101324.9999999928
0.08383383383383337 	299.9999999999872 	2.277846169307757e-12 	101324.9999999924
0.08633633633633589 	299.9999999999195 	2.778138461256298e-12 	101324.9999999925
0.08883883883883838 	300.0000000000097 	3.354012328256062e-12 	101324.9999999929
0.09134134134134086 	299.9999999999939 	2.535158667224518e-12 	101324.9999999929
0.09384384384384339 	299.9999999999147 	3.398973419246082e-12 	101324.999999993
0.09634634634634588 	299.9999999999716 	3.495369414987362e-12 	101324.9999999929
0.09884884884884838 	299.9999999999767 	3.840001591418205e-12 	101324.9999999928
0.1013513513513509 	300.0000000000161 	3.334731722492826e-12 	101324.999999993
0.1038538538538534 	299.9999999999545 	3.098646178595187e-12 	101324.9999999926
0.1063563563563559 	300.0000000000137 	3.425089860757627e-12 	101324.9999999922
0.1088588588588584 	300.0000000000223 	2.967199372629823e-12 	101324.9999999922
0.1113613613613609 	299.9999999999316 	3.509645562069649e-12 	101324.9999999923
0.1138638638638634 	299.9999999999555 	3.815070681763525e-12 	101324.9999999923
0.1163663663663659 	299.9999999999519 	3.872978909864814e-12 	101324.9999999927
0.1188688688688684 	299.9999999999739 	3.439801008758006e-12 	101324.9999999928
0.1213713713713709 	299.9999999999932 	2.298200783172165e-12 	101324.9999999929
0.1238738738738734 	299.9999999999368 	2.263401134549168e-12 	101324.999999993
0.1263763763763759 	299.9999999999861 	1.88419320564474e-12 	101324.9999999929
0.1288788788788784 	299.9999999999889 	1.728687633080673e-12 	101324.9999999928
0.1313813813813809 	299.9999999999885 	2.06021435416707e-12 	101324.9999999927
0.1338838838838834 	299.9999999999804 	2.200467650419369e-12 	101324.9999999929
0.1363863863863859 	300.0000000000237 	2.230864898837666e-12 	101324.9999999928
0.1388888888888884 	300.0000000000387 	2.106054433156127e-12 	101324.9999999928
0.1413913913913909 	300.0000000000001 	1.221552914145902e-12 	101324.9999999927
0.1438938938938934 	299.9999999999952 	1.333250533230307e-12 	101324.9999999925
0.1463963963963959 	299.9999999999663 	1.133624453610343e-12 	101324.9999999921
0.1488988988988985 	299.9999999999254 	3.15278428453013e-12 	101324.9999999921
0.1514014014014009 	299.9999999999731 	1.934929852960777e-12 	101324.9999999921
0.1539039039039035 	299.9999999999666 	3.6143069858479e-12 	101324.999999992
0.1564064064064059 	299.9999999999472 	1.108199789979161e-12 	101324.9999999921
0.1589089089089084 	299.9999999999836 	4.096238974178185e-12 	101324.9999999925
0.1614114114114109 	299.9999999999799 	1.870747056396921e-12 	101324.9999999924
0.1639139139139134 	299.9999999999224 	3.813385702628118e-12 	101324.9999999924
0.166416416416416 	300.0000000000053 	3.280078709617372e-12 	101324.9999999926
0.1689189189189185 	300.0000000000205 	3.085646473517354e-12 	101324.9999999923
0.1714214214214209 	299.9999999999937 	3.491353267214566e-12 	101324.9999999924
0.1739239239239235 	299.9999999999845 	2.470377603715608e-12 	101324.9999999922
0.1764264264264259 	299.9999999999709 	4.393420296047916e-12 	101324.999999992
0.1789289289289284 	300.0000000000024 	1.243866833491719e-12 	101324.9999999921
0.181431431431431 	299.9999999999666 	3.760995356990216e-12 	101324.9999999921
0.1839339339339334 	299.9999999999716 	1.476590764098327e-12 	101324.9999999924
0.186436436436436 	299.9999999999361 	2.628093237974691e-12 	101324.9999999925
0.1889389389389385 	299.9999999999856 	1.951205056646475e-12 	101324.9999999925
0.191441441441441 	299.9999999999818 	1.447899411835311e-12 	101324.9999999928
0.1939439439439434 	299.9999999999323 	3.121858000147441e-12 	101324.9999999927
0.196446446446446 	299.9999999999557 	1.401456302936982e-12 	101324.9999999926
0.1989489489489485 	299.9999999999661 	4.259909799575035e-12 	101324.9999999925
0.2014514514514509 	299.999999999986 	2.212749150344447e-12 	101324.9999999922
0.2039539539539535 	299.9999999999957 	3.421066941919383e-12 	101324.9999999921
0.2064564564564559 	299.9999999999648 	2.360099854024484e-12 	101324.9999999919
0.2089589589589585 	299.9999999999862 	2.658512669309128e-12 	101324.9999999921
0.211461461461461 	299.9999999999399 	3.165258509811762e-12 	101324.9999999921
0.2139639639639635 	299.9999999999837 	2.911642639603002e-12 	101324.9999999922
0.2164664664664659 	299.9999999999961 	4.261853614039546e-12 	101324.9999999919
0.2189689689689684 	299.999999999996 	1.975691987110823e-12 	101324.9999999919
0.221471471471471 	299.9999999999928 	3.97180256003324e-12 	101324.999999992
0.2239739739739735 	299.9999999999642 	1.323215839121245e-12 	101324.999999992
0.226476476476476 	299.9999999999829 	2.588373728032164e-12 	101324.9999999919
0.2289789789789785 	299.9999999999928 	1.935574783454299e-12 	101324.999999992
0.231481481481481 	299.9999999999902 	2.151986899754953e-12 	101324.9999999922
0.2339839839839835 	299.9999999999886 	3.158126648075558e-12 	101324.9999999922
0.236486486486486 	300.0000000000176 	2.194028024090162e-12 	101324.9999999922
0.2389889889889885 	300.000000000003 	3.866521960822421e-12 	101324.999999992
0.241491491491491 	299.9999999999357 	1.793090007085399e-12 	101324.9999999922
0.2439939939939935 	299.9999999999805 	5.043406319641761e-12 	101324.9999999922
0.246496496496496 	299.999999999992 	2.440237801224939e-12 	101324.9999999923
0.2489989989989985 	300.0000000000303 	4.472675784901255e-12 	101324.9999999922
0.251501501501501 	300.0000000000255 	3.337689809113406e-12 	101324.9999999922
0.2540040040040035 	299.9999999999904 	3.324885545766612e-12 	101324.9999999925
0.256506506506506 	300.000000000021 	3.824319861159056e-12 	101324.9999999924
0.2590090090090086 	299.9999999999214 	2.342739046982222e-12 	101324.9999999923
0.261511511511511 	299.9999999999986 	5.083387791831501e-12 	101324.9999999923
0.2640140140140135 	299.9999999999923 	2.657894366121182e-12 	101324.9999999924
0.2665165165165161 	299.9999999999425 	4.123673071224812e-12 	101324.9999999924
0.2690190190190185 	300.0000000000018 	2.769951950122141e-12 	101324.9999999925
0.271521521521521 	300.0000000000044 	3.234704136263192e-12 	101324.9999999924
0.2740240240240235 	300.0000000000138 	3.267607021207565e-12 	101324.9999999924
0.276526526526526 	300.0000000000067 	2.235494312654317e-12 	101324.9999999922
0.2790290290290286 	299.9999999999504 	3.962186543388479e-12 	101324.9999999922
0.281531531531531 	299.9999999999379 	2.834083646019002e-12 	101324.9999999923
0.2840340340340335 	299.9999999999795 	5.201541600384917e-12 	101324.9999999922
0.2865365365365361 	299.9999999999637 	3.533381672328779e-12 	101324.9999999919
0.2890390390390385 	299.999999999999 	4.277379590183239e-12 	101324.9999999921
0.291541541541541 	299.9999999999985 	3.008740862141271e-12 	101324.9999999921
0.2940440440440436 	299.9999999999913 	1.962212215465259e-12 	101324.9999999922
0.296546546546546 	299.9999999999939 	2.460483224675579e-12 	101324.9999999922
0.2990490490490486 	299.9999999999462 	8.400948706235519e-13 	101324.9999999921
0.3015515515515511 	300.000000000029 	4.135536468257985e-12 	101324.999999992
0.3040540540540535 	299.999999999997 	1.944640821673642e-12 	101324.999999992
0.3065565565565562 	299.9999999999981 	4.765632286386154e-12 	101324.9999999919
0.3090590590590585 	299.9999999999915 	1.441818008880884e-12 	101324.9999999918
0.3115615615615611 	299.999999999949 	4.408677638408338e-12 	101324.9999999917
0.3140640640640635 	300.0000000000065 	1.28268978296747e-12 	101324.9999999916
0.316566566566566 	299.9999999999956 	3.606650167029327e-12 	101324.9999999914
0.3190690690690687 	299.9999999999617 	1.867826885318081e-12 	101324.9999999916
0.3215715715715711 	300.0000000000129 	3.918654152178076e-12 	101324.9999999918
0.3240740740740735 	299.9999999999992 	2.572736028922023e-12 	101324.9999999919
0.326576576576576 	299.9999999999226 	4.467373783785775e-12 	101324.9999999917
0.3290790790790786 	300.0000000000043 	3.282206166000394e-12 	101324.9999999917
0.3315815815815811 	300.0000000000227 	3.294090552615212e-12 	101324.9999999919
0.3340840840840836 	299.9999999999914 	1.626819616484631e-12 	101324.9999999917
0.3365865865865861 	300.0000000000426 	1.873362386330444e-12 	101324.999999992
0.3390890890890886 	300.0000000000406 	3.648666458745147e-13 	101324.9999999921
0.3415915915915911 	299.9999999999989 	1.13510273523399e-12 	101324.9999999921
0.3440940940940935 	299.9999999999571 	1.053803761282312e-12 	101324.9999999923
0.3465965965965962 	300.0000000000273 	1.484700020205658e-12 	101324.9999999921
0.3490990990990985 	300.0000000000216 	4.984370242971351e-13 	101324.9999999918
0.3516016016016011 	299.9999999999897 	5.525888444976657e-14 	101324.9999999914
0.3541041041041035 	300.0000000000036 	2.953463567883701e-13 	101324.9999999913
0.3566066066066061 	299.999999999961 	7.690871360736001e-13 	101324.9999999914
0.3591091091091085 	299.999999999933 	1.294307410648958e-12 	101324.9999999913
0.3616116116116112 	299.9999999999498 	1.12012430351735e-12 	101324.9999999914
0.3641141141141137 	299.9999999999438 	2.695477581855176e-12 	101324.9999999916
0.3666166166166161 	299.999999999938 	1.124162788421162e-12 	101324.9999999919
0.3691191191191185 	300.0000000000327 	4.315722911962228e-12 	101324.999999992
0.371621621621621 	300.0000000000103 	8.585211510486885e-13 	101324.9999999921
0.3741241241241237 	300.0000000000413 	2.741553909844163e-12 	101324.9999999924
0.3766266266266261 	300.0000000000226 	9.667663947579039e-13 	101324.9999999925
0.3791291291291286 	299.9999999999865 	1.64402875472122e-12 	101324.9999999925
0.3816316316316311 	299.9999999999345 	1.234574165989875e-12 	101324.9999999924
0.3841341341341336 	300.0000000000084 	1.339590595747858e-12 	101324.9999999925
0.3866366366366362 	299.9999999999982 	7.346681576691094e-13 	101324.9999999926
0.3891391391391387 	299.9999999999634 	1.316751176389969e-12 	101324.9999999923
0.391641641641641 	299.9999999999936 	4.717966592135363e-13 	101324.9999999921
0.3941441441441436 	300.0000000000067 	1.034019404087567e-12 	101324.9999999922
0.3966466466466462 	299.9999999999984 	5.415323805053287e-13 	101324.9999999922
0.3991491491491486 	299.9999999999546 	7.050749466780794e-13 	101324.9999999922
0.4016516516516512 	299.9999999999305 	8.548969997164196e-13 	101324.999999992
0.4041541541541536 	299.9999999999593 	9.764684776598406e-13 	101324.999999992
0.4066566566566561 	299.9999999999575 	1.336331996164339e-12 	101324.9999999918
0.4091591591591587 	299.9999999999964 	7.693076833313625e-13 	101324.9999999918
0.4116616616616612 	300.0000000000049 	1.091990296974134e-12 	101324.9999999919
0.4141641641641635 	300.0000000000337 	1.31709316501663e-13 	101324.999999992
0.4166666666666662 	299.9999999999937 	3.094165290818488e-13 	101324.999999992
0.4191691691691687 	299.9999999999505 	1.008665352492942e-12 	101324.9999999919
0.421671671671671 	300.0000000000064 	2.008546598077902e-12 	101324.9999999918
0.4241741741741737 	299.9999999999804 	1.634107957645193e-12 	101324.9999999919
0.4266766766766761 	299.9999999999584 	3.470135526441554e-12 	101324.9999999919
0.4291791791791785 	300.0000000000164 	1.516669357531492e-12 	101324.9999999917
0.4316816816816812 	300.0000000000083 	4.002364910665808e-12 	101324.9999999919
0.4341841841841836 	299.9999999999837 	1.294375386046183e-12 	101324.9999999918
0.4366866866866862 	299.9999999999326 	2.898110469586789e-12 	101324.9999999919
0.4391891891891885 	299.9999999999898 	8.16946912330498e-13 	101324.9999999919
0.4416916916916913 	299.9999999999842 	1.807368270556741e-12 	101324.9999999918
0.4441941941941936 	299.9999999999895 	9.793541619578769e-13 	101324.9999999915
0.4466966966966961 	299.9999999999327 	3.722597704377534e-13 	101324.9999999914
0.4491991991991987 	299.9999999999879 	7.206512343934633e-13 	101324.9999999914
0.4517017017017012 	299.9999999999848 	8.498980014725909e-13 	101324.9999999914
0.4542042042042035 	299.9999999999857 	7.951520241728751e-13 	101324.9999999915
0.4567067067067062 	299.9999999999967 	1.053153052695697e-12 	101324.9999999915
0.4592092092092087 	299.9999999999405 	6.659157686375633e-13 	101324.9999999916
0.4617117117117112 	300.0000000000128 	1.360817159687713e-12 	101324.9999999918
0.4642142142142137 	299.9999999999714 	1.59037291335317e-12 	101324.999999992
0.4667167167167162 	299.999999999994 	1.213931929694178e-12 	101324.999999992
0.4692192192192187 	299.9999999999668 	7.750965551764891e-13 	101324.999999992
0.4717217217217212 	300.0000000000086 	3.249881763175865e-13 	101324.999999992
0.4742242242242236 	299.999999999964 	4.364654947204113e-13 	101324.9999999919
0.4767267267267262 	299.9999999999819 	3.67006054670208e-13 	101324.9999999917
0.4792292292292287 	300.0000000000114 	2.697353490298179e-13 	101324.9999999919
0.4817317317317312 	300.0000000000233 	4.571792284691275e-13 	101324.999999992
0.4842342342342336 	299.9999999999867 	1.605849595877784e-13 	101324.9999999921
0.4867367367367362 	299.9999999999605 	8.956276469397217e-13 	101324.999999992
0.4892392392392387 	300.0000000000233 	1.146134701805423e-12 	101324.9999999918
0.4917417417417412 	300.0000000000031 	9.798297994065253e-13 	101324.9999999916
0.4942442442442437 	299.9999999999227 	1.218550183140389e-12 	101324.9999999917
0.4967467467467462 	299.9999999999398 	2.232746220121349e-12 	101324.9999999917
0.4992492492492487 	299.9999999999364 	5.909557483083452e-13 	101324.9999999918
0.5017517517517511 	299.9999999999623 	1.577474139283403e-12 	101324.999999992
0.5042542542542537 	299.9999999999717 	4.25037822237979e-13 	101324.999999992
0.5067567567567562 	299.9999999999584 	6.283830343507688e-13 	101324.9999999919
0.5092592592592589 	299.9999999999771 	1.01726709932284e-12 	101324.9999999919
0.5117617617617611 	299.999999999965 	7.836054042995115e-13 	101324.9999999916
0.5142642642642637 	299.9999999999864 	2.367000513001971e-12 	101324.9999999916
0.5167667667667663 	299.9999999999746 	1.427651858274781e-12 	101324.9999999916
0.5192692692692688 	299.9999999999364 	4.083190311191029e-12 	101324.9999999919
0.5217717717717714 	299.9999999999506 	2.884040538790256e-12 	101324.999999992
0.5242742742742736 	299.9999999999515 	3.453993581793939e-12 	101324.9999999921
0.5267767767767763 	299.9999999999711 	1.700563659557358e-12 	101324.9999999923
0.5292792792792789 	299.999999999953 	2.765577516324008e-12 	101324.9999999923
0.5317817817817813 	299.9999999999282 	9.728931546895814e-13 	101324.9999999922
0.5342842842842837 	300.0000000000177 	1.142458848077937e-12 	101324.9999999922
0.5367867867867864 	300.0000000000048 	9.421591276766537e-13 	101324.9999999923
0.5392892892892888 	299.999999999969 	1.270244122717696e-12 	101324.9999999922
0.5417917917917912 	300.0000000000045 	6.621914876685535e-13 	101324.9999999923
0.5442942942942938 	299.9999999999855 	1.183907799463401e-12 	101324.9999999923
0.5467967967967964 	299.9999999999579 	3.367651185993721e-13 	101324.9999999922
0.5492992992992988 	299.9999999999516 	8.996696464863869e-13 	101324.9999999921
0.5518018018018012 	299.9999999999476 	6.09579944666779e-13 	101324.9999999921
0.5543043043043039 	300.0000000000167 	1.391034197902062e-12 	101324.9999999921
0.5568068068068063 	299.9999999999923 	1.208758543371989e-12 	101324.999999992
0.5593093093093087 	299.9999999999224 	1.873890047832773e-12 	101324.9999999921
0.5618118118118114 	299.9999999999669 	7.592184555320129e-13 	101324.999999992
0.5643143143143137 	299.9999999999569 	1.873400837503731e-12 	101324.9999999917
0.5668168168168163 	299.9999999999897 	1.381909383507691e-12 	101324.9999999915
0.5693193193193188 	300.0000000000232 	1.707863590881134e-12 	101324.9999999915
0.5718218218218213 	300.0000000000184 	1.957924191048002e-12 	101324.9999999915
0.5743243243243239 	300.0000000000034 	1.91757627721837e-12 	101324.9999999916
0.5768268268268262 	300.0000000000034 	3.797185016182458e-12 	101324.9999999914
0.5793293293293288 	299.9999999999576 	2.880214037786844e-12 	101324.9999999911
0.5818318318318314 	299.9999999999334 	7.181203428974509e-12 	101324.9999999901
0.5843343343343338 	299.9999999999807 	9.036352415012391e-12 	101324.9999999879
0.5868368368368363 	299.999999999971 	2.370004331468322e-11 	101324.9999999831
0.5893393393393387 	299.9999999999385 	4.536673587309829e-11 	101324.9999999738
0.5918418418418413 	299.9999999999213 	9.704090274358883e-11 	101324.9999999545
0.5943443443443439 	299.9999999999518 	1.971959350722486e-10 	101324.9999999147
0.5968468468468463 	299.9999999998829 	4.042744432005773e-10 	101324.999999834
0.5993493493493487 	299.9999999997601 	8.152028619422566e-10 	101324.9999996724
0.6018518518518514 	299.9999999994436 	1.633618742450578e-09 	101324.9999993506
0.6043543543543537 	299.9999999989156 	3.24389848000171e-09 	101324.9999987161
0.6068568568568564 	299.9999999978584 	6.393138161404423e-09 	101324.9999974749
0.6093593593593587 	299.9999999957848 	1.24956572473649e-08 	101324.9999950674
0.6118618618618614 	299.9999999918605 	2.422483224995714e-08 	101324.9999904368
0.6143643643643638 	299.9999999844583 	4.657042892824356e-08 	101324.9999816068
0.6168668668668662 	299.9999999703209 	8.877493300919974e-08 	101324.9999649167
0.6193693693693688 	299.9999999438514 	1.677691071089062e-07 	101324.9999336509
0.6218718718718714 	299.999999894759 	3.142885396593381e-07 	101324.9998756107
0.6243743743743737 	299.999999804423 	5.835305065150579e-07 	101324.9997688637
0.6268768768768762 	299.9999996399394 	1.073660700888531e-06 	101324.9995743845
0.629379379379379 	299.9999993431381 	1.957315952477833e-06 	101324.9992234598
0.6318818818818812 	299.9999988128 	3.534804853032736e-06 	101324.9985964491
0.6343843843843838 	299.999997874718 	6.322677052641355e-06 	101324.9974873684
0.6368868868868864 	299.9999962323172 	1.119913189673361e-05 	101324.9955456769
0.6393893893893888 	299.9999933870635 	1.963936932490951e-05 	101324.9921819489
0.6418918918918912 	299.9999885110988 	3.409083109723461e-05 	101324.9864172936
0.6443943943943939 	299.999980246674 	5.856207935433872e-05 	101324.9766467618
0.6468968968968963 	299.99996639756 	9.95314470515072e-05 	101324.9602737841
0.6493993993993988 	299.9999434593456 	0.0001673243277994378 	101324.9331553442
0.6519019019019012 	299.9999059208337 	0.0002781607567948345 	101324.8887759078
0.6544044044044038 	299.999845244973 	0.0004571368471696989 	101324.8170428003
0.6569069069069065 	299.9997484167059 	0.0007424675219172676 	101324.7025691065
0.6594094094094087 	299.9995959237591 	0.001191372788089658 	101324.5222871756
0.6619119119119113 	299.9993590304064 	0.001888012420652258 	101324.2422252105
0.664414414414414 	299.9989962140237 	0.002953831597506764 	101323.8132950057
0.6669169169169162 	299.9984486884825 	0.004560523041084705 	101323.1660004327
0.6694194194194188 	299.9976350504184 	0.006945478317308146 	101322.2041093807
0.6719219219219214 	299.9964452814673 	0.01042902023156478 	101320.7975659015
0.674424424424424 	299.9947346468504 	0.01543181469927569 	101318.7752820866
0.6769269269269262 	299.9923184588558 	0.02248961670710134 	101315.9189570002
0.679429429429429 	299.9889692188409 	0.03226094130269905 	101311.9597124931
0.6819319319319311 	299.9844182566864 	0.04552150971709207 	101306.580056309
0.6844344344344341 	299.9783645635802 	0.06313770972551741 	101299.4243576759
0.686936936936936 	299.970493868138 	0.08601033305960779 	101290.1214430168
0.6894394394394392 	299.9605109154995 	0.114980211751413 	101278.3228007968
0.6919419419419413 	299.9481870673709 	0.1506898958067736 	101263.7588819626
0.694444444444444 	299.9334234761918 	0.193400996815344 	101246.3137625827
0.6969469469469463 	299.9163269975539 	0.2427758100630173 	101226.1147712374
0.6994494494494489 	299.8972916761273 	0.2976449735693382 	101203.6285666568
0.7019519519519515 	299.8770718127137 	0.355809649097085 	101179.7471061949
0.7044544544544538 	299.8568115138184 	0.4139862894665499 	101155.8220869751
0.7069569569569564 	299.8379674235649 	0.468040043121933 	101133.573267517
0.7094594594594589 	299.822103209953 	0.5135495440630631 	101114.8456598965
0.7119619619619615 	299.810610661833 	0.5465845544165857 	101101.2805719485
0.7144644644644638 	299.8044226892291 	0.5645159045651691 	101093.9772045569
0.7169669669669665 	299.8037771805148 	0.5666862153811094 	101093.2145528362
0.7194694694694688 	299.8080806065514 	0.554789351198659 	101098.2936223563
0.7219719719719715 	299.8159221173008 	0.5328412827487619 	101107.5515500242
0.7244744744744737 	299.8252481873144 	0.5066900953774491 	101118.5604921857
0.7269769769769764 	299.8336934833719 	0.4829773248231672 	101128.5300856438
0.7294794794794791 	299.839165840062 	0.4675083217317152 	101134.990538407
0.7319819819819813 	299.8405154005764 	0.4634808105899921 	101136.5841938474
0.7344844844844839 	299.837919219802 	0.4704429623509233 	101133.5194119989
0.7369869869869864 	299.8327873794301 	0.484502444738559 	101127.4595214248
0.739489489489489 	299.8272767710875 	0.4996683426827971 	101120.9538922434
0.7419919919919914 	299.8235561016108 	0.5099801420551029 	101116.5617425522
0.7444944944944939 	299.8229405570513 	0.5118280262328033 	101115.8348973417
0.7469969969969963 	299.8253458912226 	0.5053985765893184 	101118.6740243391
0.7494994994994989 	299.8293907875947 	0.4944344022974941 	101123.45017877
0.7520020020020015 	299.833064378846 	0.4844186531568038 	101127.7871483233
0.7545045045045039 	299.8346725959339 	0.4799359732042978 	101129.685777484
0.7570070070070062 	299.833699569185 	0.4824040888416559 	101128.5373594695
0.7595095095095092 	299.8310341503101 	0.4894701214772443 	101125.3901268177
0.7620120120120112 	299.8284103414076 	0.4964853899941809 	101122.2923541897
0.7645145145145138 	299.8273992248571 	0.4992505049045804 	101121.0983516631
0.7670170170170165 	299.8284742187308 	0.4964735510420673 	101122.367255635
0.7695195195195191 	299.8307784549605 	0.4903901770217615 	101125.0882348609
0.7720220220220213 	299.8327533518155 	0.4851229933449561 	101127.4197311949
0.7745245245245239 	299.833190045665 	0.4838662086511953 	101127.9354481221
0.7770270270270263 	299.8320425636333 	0.486774203747488 	101126.5809139929
0.779529529529529 	299.8303888555673 	0.4910543969836417 	101124.6281403244
0.7820320320320313 	299.8295744057887 	0.4931963214302185 	101123.6663470838
0.784534534534534 	299.8301881003944 	0.4916466755957691 	101124.3907061302
0.7870370370370364 	299.8316538667784 	0.4878594363132677 	101126.1216288438
0.7895395395395389 	299.8327763290794 	0.4849119100463228 	101127.4467419521
0.7920420420420413 	299.8327546757625 	0.484876309890485 	101127.4213777054
0.794544544544544 	299.8318308033033 	0.4871667150743201 	101126.3307926963
0.7970470470470463 	299.8310020233744 	0.4892583562237326 	101125.3517870871
0.799549549549549 	299.831079526616 	0.4890764583548597 	101125.4431195657
0.8020520520520515 	299.8319669223769 	0.4868327561895306 	101126.4911279822
0.8045545545545539 	299.8328247412342 	0.4846270227212096 	101127.5038532162
0.8070570570570563 	299.8329290109556 	0.4842875686656029 	101127.6270075926
0.8095595595595589 	299.8323675324524 	0.4856231015192604 	101126.9642935948
0.8120620620620614 	299.8318837928116 	0.4867998745915549 	101126.3928566361
0.8145645645645638 	299.8320601998269 	0.4863591541256447 	101126.6009570611
0.8170670670670666 	299.8327263586621 	0.4846933753050784 	101127.3876284991
0.8195695695695689 	299.8332100362682 	0.4834469224217122 	101127.958722462
0.8220720720720714 	299.8331123455781 	0.4836131020707116 	101127.8434679598
0.8245745745745739 	299.8327248063246 	0.4845054685331392 	101127.3858521476
0.8270770770770765 	299.8326331368934 	0.4847044270223366 	101127.2774073037
0.8295795795795788 	299.8330129981279 	0.4837637446554105 	101127.725891589
0.8320820820820815 	299.8334649805159 	0.4826269007157782 	101128.2596897442
0.834584584584584 	299.833551248566 	0.4823512391315559 	101128.3615393984
0.8370870870870865 	299.8333322365781 	0.4828134136532225 	101128.1029524776
0.8395895895895891 	299.8332402500607 	0.4829948029100284 	101127.9942471751
0.8420920920920915 	299.8334933850595 	0.4823643041192797 	101128.2930096814
0.844594594594594 	299.8338385858451 	0.4815003243733416 	101128.7006624036
0.8470970970970964 	299.8339347198599 	0.4812073365866221 	101128.8141481787
0.8495995995995991 	299.8338147031146 	0.4814256172475773 	101128.6725243995
0.8521021021021015 	299.8337994505093 	0.4814167530343712 	101128.6545016772
0.8546046046046039 	299.8340240548272 	0.4808556193288991 	101128.9193917419
0.8571071071071066 	299.8342707190444 	0.4802292715407102 	101129.210766463
0.8596096096096089 	299.8343197048318 	0.4800477967345498 	101129.2688504711
0.8621121121121116 	299.8342651437792 	0.4801120915509818 	101129.2041641404
0.8646146146146139 	299.8343391968621 	0.4798951967831412 	101129.2914214195
0.8671171171171166 	299.834551324564 	0.4793619016054033 	101129.5421741692
0.8696196196196189 	299.8347024687447 	0.4789557377021461 	101129.7205113053
0.8721221221221216 	299.8347138309994 	0.4788617210516814 	101129.7338220196
0.874624624624624 	299.8347340169595 	0.4787570479172616 	101129.7577867189
0.8771271271271264 	299.8348767468976 	0.4783847701495514 	101129.9262027971
0.879629629629629 	299.8350441193753 	0.4779507771586591 	101130.1237360666
0.8821321321321317 	299.8351125898899 	0.4777284486967755 	101130.204726185
0.8846346346346339 	299.8351383312414 	0.4776052001675648 	101130.2350360452
0.8871371371371364 	299.8352396849012 	0.4773232774619973 	101130.3546479467
0.8896396396396391 	299.8353905346942 	0.4769304794567234 	101130.5328375348
0.8921421421421414 	299.8354846877039 	0.4766546037189907 	101130.6438520196
0.8946446446446441 	299.8355290278967 	0.4764873250458538 	101130.6962790527
0.8971471471471464 	299.8356163180188 	0.4762339060136358 	101130.7993766797
0.8996496496496489 	299.8357492584185 	0.4758825842827867 	101130.9562045094
0.9021521521521517 	299.8358483600904 	0.4755976120301831 	101131.0732821883
0.9046546546546541 	299.8359075980752 	0.475397417534119 	101131.1432606799
0.9071571571571564 	299.8359946782771 	0.4751436293062949 	101131.2459408541
0.9096596596596589 	299.8361149466503 	0.4748197832867284 	101131.3880145955
0.9121621621621616 	299.8362108606469 	0.4745427652183588 	101131.5012558655
0.9146646646646639 	299.8362799187249 	0.4743220066668029 	101131.5826501725
0.9171671671671666 	299.8363711728886 	0.4740587454787842 	101131.6904983745
0.9196696696696689 	299.8364828798469 	0.4737531036255923 	101131.8224494021
0.9221721721721714 	299.8365735672138 	0.4734879032963719 	101131.929221205
0.9246746746746741 	299.8366495776451 	0.473252651839947 	101132.0191357148
0.9271771771771765 	299.8367456773101 	0.4729795290334673 	101132.1327374644
0.9296796796796791 	299.8368502690087 	0.4726888256551245 	101132.2559910786
0.9321821821821816 	299.8369360691194 	0.4724333175676163 	101132.3572966248
0.9346846846846838 	299.8370189814302 	0.4721848084321352 	101132.4553302611
0.9371871871871866 	299.837118219711 	0.4719059127218924 	101132.5723793146
0.9396896896896891 	299.8372152700063 	0.471629668893778 	101132.6869095416
0.9421921921921914 	299.83729928996 	0.4713780744580817 	101132.7861459289
0.9446946946946939 	299.8373890608499 	0.4711171050134483 	101132.8921012017
0.9471971971971965 	299.8374875415979 	0.4708393042588921 	101133.0084242589
0.9496996996996991 	299.837578098838 	0.4705755149654075 	101133.1153338316
0.9522022022022016 	299.8376642969363 	0.4703207784379346 	101133.216974453
0.9547047047047038 	299.837758562142 	0.4700513611685065 	101133.3283882212
0.9572072072072064 	299.8378530819691 	0.4697809196303104 	101133.4399755451
0.9597097097097093 	299.8379406194551 	0.469523281145565 	101133.5431980621
0.9622122122122114 	299.8380309774627 	0.4692610496376694 	101133.6499388623
0.964714714714714 	299.8381256571573 	0.4689909386773715 	101133.7617923265
0.9672172172172167 	299.838215773452 	0.4687289221893278 	101133.8680213813
0.969719719719719 	299.8383044516676 	0.4684696455487389 	101133.9727713361
0.9722222222222214 	299.8383975964859 	0.4682026953810756 	101134.0828359121
0.9747247247247239 	299.8384893731027 	0.4679381563352075 	101134.1910005986
0.9772272272272267 	299.8385780180492 	0.4676788892510241 	101134.2956877673
0.9797297297297292 	299.8386695032675 	0.4674148735211076 	101134.4038597545
0.9822322322322313 	299.8387617128898 	0.4671498841309207 	101134.5125916212
0.9847347347347344 	299.838850995707 	0.4668898882945016 	101134.6179130711
0.9872372372372363 	299.8389414313062 	0.4666278929859708 	101134.7248458768
0.9897397397397389 	299.8390334061627 	0.4663635240032562 	101134.8333430064
0.9922422422422417 	299.8391231599154 	0.4661028267013245 	101134.9392406481
0.9947447447447441 	299.839213117821 	0.4658420010994425 	101135.0455244597
0.9972472472472468 	299.8393046332253 	0.4655788258649643 	101135.1534975861
0.999749749749749 	299.8393945556509 	0.465317947438665 	101135.2596956517
1.002252252252252 	299.8394842269137 	0.4650576224969681 	101135.3656784948
1.004754754754754 	299.8395753899234 	0.464795448015704 	101135.4731076626
1.007257257257256 	299.8396654043049 	0.4645347885261381 	101135.579361916
1.009759759759759 	299.8397548789629 	0.4642749236439228 	101135.6852235908
1.012262262262261 	299.839845657095 	0.4640137039229392 	101135.7922210086
1.014764764764764 	299.8399356914792 	0.4637534362800423 	101135.8983865432
1.017267267267267 	299.840025119758 	0.4634938481888672 	101136.0041634009
1.019769769769769 	299.8401154668131 	0.4632333259675343 	101136.1107850041
1.022272272272272 	299.8402053404229 	0.4629736077137202 	101136.2167597492
1.024774774774774 	299.8402947104149 	0.4627144724139484 	101136.3224523828
1.027277277277277 	299.8403847726225 	0.4624546589224292 	101136.4287597593
1.029779779779779 	299.8404744874938 	0.4621954429729558 	101136.5345226876
1.032282282282282 	299.8405638955091 	0.4619365583768869 	101136.6401445789
1.034784784784784 	299.8406536854031 	0.4616774124936521 	101136.7461866912
1.037287287287286 	299.8407431520934 	0.4614189653682269 	101136.8517371568
1.039789789789789 	299.8408325125814 	0.4611605280579641 	101136.9572557102
1.042292292292291 	299.8409220283877 	0.4609018591159546 	101137.0630022791
1.044794794794794 	299.8410113292417 	0.4606439395730623 	101137.1683284995
1.047297297297296 	299.8411006452754 	0.46038610215566 	101137.2737422922
1.049799799799799 	299.8411898856986 	0.4601281232780038 	101137.3792344294
1.052302302302302 	299.8412790813862 	0.4598706009992217 	101137.4843956204
1.054804804804804 	299.8413683275097 	0.4596131213720963 	101137.5896817761
1.057307307307306 	299.8414572346754 	0.459355807616607 	101137.6948888665
1.059809809809809 	299.8415462541344 	0.4590988122627895 	101137.7998718875
1.062312312312312 	299.8416354035967 	0.458841848592764 	101137.9049812858
1.064814814814814 	299.8417242037225 	0.4585852434565979 	101138.0099427135
1.067317317317317 	299.8418130266966 	0.458328825557867 	101138.1148154094
1.069819819819819 	299.8419019742536 	0.4580724113593328 	101138.2197413871
1.072322322322321 	299.8419906566354 	0.4578163315894165 	101138.3244728441
1.074824824824824 	299.8420792992581 	0.4575603381156152 	101138.4291893378
1.077327327327327 	299.8421680531288 	0.4573044695264705 	101138.5338702998
1.079829829829829 	299.842256653017 	0.4570490631513134 	101138.6384145044
1.082332332332332 	299.8423451115279 	0.4567938814240674 	101138.7429851108
1.084834834834834 	299.8424337128004 	0.4565387851687913 	101138.8474512903
1.087337337337337 	299.8425222359097 	0.4562836955208351 	101138.9518423287
1.089839839839839 	299.8426104779986 	0.4560288221061434 	101139.0562158192
1.092342342342342 	299.8426988147684 	0.4557744435081381 	101139.1604709887
1.094844844844844 	299.8427871794574 	0.4555201591437935 	101139.2647046313
1.097347347347347 	299.8428753578935 	0.4552659130433359 	101139.3688676843
1.099849849849849 	299.8429634009275 	0.4550119668417911 	101139.4729475555
1.102352352352352 	299.8430516779221 	0.4547582764560725 	101139.5769969618
1.104854854854854 	299.8431398444985 	0.4545048177867376 	101139.6809488935
1.107357357357357 	299.8432277061922 	0.4542514942244599 	101139.7848612772
1.109859859859859 	299.8433156964378 	0.4539983775564101 	101139.8887149701
1.112362362362362 	299.8434037195538 	0.453745588694461 	101139.9924980323
1.114864864864865 	299.8434915747699 	0.4534929257795237 	101140.0962403687
1.117367367367367 	299.8435793125569 	0.4532404182443725 	101140.1998973838
1.119869869869869 	299.8436671385379 	0.4529883128478148 	101140.3035058556
1.122372372372372 	299.8437548870618 	0.4527365157006127 	101140.4070512017
1.124874874874874 	299.8438424389132 	0.4524848022371095 	101140.5105328292
1.127377377377377 	299.8439301410699 	0.4522331477909094 	101140.6139627808
1.129879879879879 	299.844017783858 	0.4519816861172148 	101140.7173168926
1.132382382382382 	299.8441052119665 	0.4517306578108202 	101140.820620184
1.134884884884884 	299.8441925860594 	0.4514800261596141 	101140.9238579392
1.137387387387387 	299.8442800148478 	0.4512294677341835 	101141.0270433249
1.139889889889889 	299.8443674550214 	0.4509790999700837 	101141.1301784674
1.142392392392392 	299.8444548100206 	0.450729095176607 	101141.2332520675
1.144894894894894 	299.844542092323 	0.4504793715815682 	101141.3362684233
1.147397397397397 	299.8446293034797 	0.450229874555889 	101141.4392103699
1.149899899899899 	299.8447164567921 	0.4499804663076998 	101141.5420922421
1.152402402402402 	299.8448035217878 	0.4497314038156391 	101141.6449151034
1.154904904904904 	299.8448906557791 	0.4494829126691446 	101141.7476893844
1.157407407407407 	299.8449777413848 	0.4492346909417269 	101141.8504143105
1.159909909909909 	299.8450646685559 	0.4489865453773333 	101141.9530820185
1.162412412412412 	299.8451515933561 	0.4487385753534898 	101142.0556917796
1.164914914914914 	299.8452384625925 	0.448490929707692 	101142.1582349765
1.167417417417417 	299.8453252928463 	0.4482437131443195 	101142.260719157
1.169919919919919 	299.8454120242828 	0.4479969795575701 	101142.3631442215
1.172422422422422 	299.8454987815282 	0.4477505078805608 	101142.4655194279
1.174924924924925 	299.8455855931294 	0.4475042179909935 	101142.5678457837
1.177427427427427 	299.8456723107477 	0.4472583201068007 	101142.6701220023
1.179929929929929 	299.8457588758694 	0.4470126972834354 	101142.7723431714
1.182432432432432 	299.8458454012723 	0.4467674812760254 	101142.8745072796
1.184934934934934 	299.8459319628081 	0.4465228560736334 	101142.9766189552
1.187437437437437 	299.8460185629656 	0.4462784291492468 	101143.0786796728
1.189939939939939 	299.8461049585839 	0.4460342060404878 	101143.180691837
1.192442442442442 	299.8461911585742 	0.4457904610807237 	101143.2826547453
1.194944944944944 	299.8462776047925 	0.4455471101381007 	101143.3845727829
1.197447447447447 	299.8463641122186 	0.4453042286462444 	101143.4864437792
1.199949949949949 	299.8464505480553 	0.4450619481237368 	101143.5882642699
1.202452452452452 	299.8465367485227 	0.4448198966117757 	101143.6900296597
1.204954954954955 	299.8466227981353 	0.4445781548932166 	101143.791742975
1.207457457457457 	299.8467089835915 	0.4443370252321411 	101143.8934134055
1.20995995995996 	299.8467952668822 	0.4440964220347932 	101143.9950515448
1.212462462462462 	299.8468815055637 	0.4438556487573401 	101144.096658128
1.214964964964964 	299.8469677941362 	0.443616586971651 	101144.1982270092
1.217467467467467 	299.8470539493604 	0.4433753586184979 	101144.2997510304
1.219969969969969 	299.8471398521465 	0.4431402186276701 	101144.4012340876
1.222472472472472 	299.8472258994395 	0.4428898637846164 	101144.5026692526
1.224974974974975 	299.8473120338562 	0.4426815895229265 	101144.604098152
1.227477477477477 	299.8473981615947 	0.4423486901763451 	101144.7054272321
1.229979979979979 	299.847484564733 	0.4423676076200418 	101144.8070663851
1.232482482482482 	299.8475702051073 	0.4410434511701982 	101144.9075012241
1.234984984984984 	299.8476567764775 	0.4425052846207204 	101145.0101771509
1.237487487487487 	299.8477446102755 	0.4400341019100034 	101145.1105958355
1.239989989989989 	299.8478242277234 	0.4417268039426503 	101145.2091735572
1.242492492492492 	299.8479202700106 	0.4419170237659893 	101145.315122441
1.244994994994994 	299.8463783545151 	0.4384104681949637 	101145.4097348639
1.247497497497497 	299.2563189232235 	0.4413808925418341 	101145.5130076655
1.249999999999999 	302.3655687956165 	0.4402139185767773 	101145.6157785678
