-1.25 	287.5655056417544 	0.0006151346529586228 	101325.0056548668
-1.247497497497497 	300.1835969410304 	0.0005069199321020718 	101324.9910441891
-1.244994994994995 	300.0006598259664 	0.0002798611854896388 	101325.0045464942
-1.242492492492492 	299.9999944644784 	9.356631635964722e-05 	101324.9918914943
-1.23998998998999 	300.000002677281 	0.0001203151002837618 	101325.0031713979
-1.237487487487487 	299.9999935390367 	0.0002869806737873041 	101324.9923577451
-1.234984984984985 	300.0000017698853 	0.0004311766932892759 	101325.0020953492
-1.232482482482482 	299.9999944711806 	0.0005544101548148111 	101324.9934584496
-1.22997997997998 	300.0000016794152 	0.0006607044081526983 	101325.001988561
-1.227477477477477 	299.9999950045596 	0.0007470986334114145 	101324.9940906169
-1.224974974974975 	300.0000005130501 	0.0008195841075454083 	101325.0006116749
-1.222472472472472 	299.9999949293461 	0.0008759559761537859 	101324.9940074484
-1.21996996996997 	299.9999998436614 	0.0009211875289001048 	101324.9998229892
-1.217467467467467 	299.9999952430906 	0.0009513979019579237 	101324.9943741885
-1.214964964964965 	299.9999997605007 	0.000972489560516596 	101324.9997184228
-1.212462462462462 	299.9999954702698 	0.0009869997407963285 	101324.9946390172
-1.20995995995996 	299.9999988499939 	0.0009892013941024643 	101324.9986452077
-1.207457457457457 	299.9999958172418 	0.0009802150246373017 	101324.9950534981
-1.204954954954955 	299.9999989571625 	0.0009685402193427379 	101324.9987749014
-1.202452452452452 	299.9999959790341 	0.0009515509620328993 	101324.9952416985
-1.19994994994995 	299.9999990047388 	0.0009299340174166268 	101324.9988264733
-1.197447447447447 	299.9999963921297 	0.0009035600470570088 	101324.9957266589
-1.194944944944945 	299.9999986578541 	0.0008755295434269191 	101324.9984170046
-1.192442442442442 	299.9999959062446 	0.0008418339090016331 	101324.9951570738
-1.18993993993994 	299.9999977764608 	0.000810252523574374 	101324.9973821556
-1.187437437437437 	299.9999953663307 	0.0007733825037861776 	101324.9945222133
-1.184934934934935 	299.9999975423891 	0.0007380076040338277 	101324.9971030584
-1.182432432432432 	299.9999958938469 	0.0007011586859766443 	101324.9951396624
-1.17992992992993 	299.9999982101948 	0.0006638017391138796 	101324.9978869066
-1.177427427427427 	299.9999966235696 	0.0006266648669089244 	101324.9960004299
-1.174924924924925 	299.9999982779124 	0.0005911733361605837 	101324.9979684502
-1.172422422422422 	299.9999962941417 	0.000553454459996671 	101324.9956137416
-1.16991991991992 	299.9999975549819 	0.000520404146009839 	101324.997115212
-1.167417417417417 	299.99999591324 	0.000484885662754621 	101324.9951670755
-1.164914914914915 	299.9999974447304 	0.0004531970560295807 	101324.9969831193
-1.162412412412412 	299.9999962294441 	0.0004207997590434605 	101324.9955368823
-1.15990990990991 	299.9999974819916 	0.0003923065584576412 	101324.9970269728
-1.157407407407407 	299.9999960601063 	0.000361878417456981 	101324.9953395169
-1.154904904904904 	299.9999968934852 	0.0003371845386056699 	101324.9963322933
-1.152402402402403 	299.9999957258639 	0.0003100256187838685 	101324.9949454629
-1.1498998998999 	299.9999969828411 	0.0002874099974788305 	101324.9964365913
-1.147397397397397 	299.9999965260262 	0.0002645085727225688 	101324.99589025
-1.144894894894895 	299.9999977917386 	0.0002440234215125946 	101324.9973907656
-1.142392392392392 	299.9999967051468 	0.0002234714677352394 	101324.9961020651
-1.13988988988989 	299.9999973340533 	0.0002071186625624996 	101324.9968496338
-1.137387387387387 	299.9999966670602 	0.0001867004458389418 	101324.9960575421
-1.134884884884885 	299.9999966166301 	0.0001713956404983012 	101324.9960009615
-1.132382382382382 	299.9999962536499 	0.0001524454005698477 	101324.9955697794
-1.12987987987988 	299.9999966298815 	0.0001392856145472711 	101324.9960172444
-1.127377377377377 	299.9999962241782 	0.0001234438919791666 	101324.995536542
-1.124874874874875 	299.9999967443829 	0.0001121162192470486 	101324.996152893
-1.122372372372372 	299.9999964651098 	9.807879632158322e-05 	101324.9958212536
-1.11986986986987 	299.9999968904466 	8.811977125982475e-05 	101324.9963235956
-1.117367367367367 	299.9999967490751 	7.551225643847328e-05 	101324.9961559566
-1.114864864864865 	299.9999969451201 	6.724294644289848e-05 	101324.9963879824
-1.112362362362362 	299.9999968355634 	5.597565689338237e-05 	101324.9962592269
-1.10985985985986 	299.9999969085547 	4.939809533420242e-05 	101324.9963463245
-1.107357357357357 	299.9999968948814 	3.951361494931613e-05 	101324.9963299458
-1.104854854854855 	299.9999968193794 	3.468380924475377e-05 	101324.9962397754
-1.102352352352353 	299.9999968082772 	2.616286448212273e-05 	101324.9962258805
-1.09984984984985 	299.9999967006375 	2.324726791871542e-05 	101324.9960980426
-1.097347347347347 	299.9999966971299 	1.626078889827024e-05 	101324.9960940731
-1.094844844844845 	299.9999966903685 	1.470964339361967e-05 	101324.9960858794
-1.092342342342342 	299.9999967785556 	9.530368518615401e-06 	101324.9961908767
-1.08983983983984 	299.9999968827616 	8.754999289751922e-06 	101324.9963152704
-1.087337337337337 	299.9999970469717 	8.844112776009174e-06 	101324.9965097001
-1.084834834834835 	299.9999971699103 	7.900265272476412e-06 	101324.9966545321
-1.082332332332332 	299.9999972925959 	8.101111136883722e-06 	101324.9967992064
-1.07982982982983 	299.9999973388269 	7.523014899006708e-06 	101324.9968530843
-1.077327327327327 	299.999997353555 	7.829014665925732e-06 	101324.9968700004
-1.074824824824825 	299.9999973185821 	7.691711059379835e-06 	101324.9968286134
-1.072322322322323 	299.9999972659416 	7.985795349325692e-06 	101324.9967668111
-1.06981981981982 	299.9999972076639 	8.058814805472979e-06 	101324.9966983614
-1.067317317317317 	299.9999971635097 	8.222004559196196e-06 	101324.9966463783
-1.064814814814815 	299.9999971454978 	8.256374862205711e-06 	101324.9966250436
-1.062312312312312 	299.9999971599355 	8.217980954898997e-06 	101324.9966420346
-1.05980980980981 	299.9999972060509 	8.085882744880429e-06 	101324.9966965713
-1.057307307307307 	299.999997277929 	7.880913764169308e-06 	101324.9967815548
-1.054804804804805 	299.9999973667708 	7.627236963531298e-06 	101324.9968863531
-1.052302302302302 	299.9999974633783 	7.350672674828316e-06 	101324.9970002882
-1.0497997997998 	299.999997560222 	7.071958497939176e-06 	101324.9971147693
-1.047297297297297 	299.9999976523214 	6.805634298156673e-06 	101324.9972239101
-1.044794794794795 	299.9999977366663 	6.560958284554053e-06 	101324.9973239882
-1.042292292292292 	299.999997811785 	6.342880504096283e-06 	101324.9974129155
-1.03978978978979 	299.9999978777988 	6.151363970208e-06 	101324.9974908195
-1.037287287287287 	299.9999979363305 	5.981187736562252e-06 	101324.9975598434
-1.034784784784785 	299.9999979902525 	5.823742514598801e-06 	101324.99762356
-1.032282282282283 	299.9999980428475 	5.66995618546067e-06 	101324.9976859012
-1.02977977977978 	299.999998097077 	5.511458163855052e-06 	101324.9977501425
-1.027277277277277 	299.9999981563563 	5.338578711451246e-06 	101324.9978201791
-1.024774774774775 	299.999998224701 	5.141280850194054e-06 	101324.9979006615
-1.022272272272272 	299.9999983027591 	4.917631750313384e-06 	101324.9979926953
-1.01976976976977 	299.9999983853595 	4.68057784440654e-06 	101324.9980905244
-1.017267267267267 	299.9999984651519 	4.449538184547525e-06 	101324.9981853927
-1.014764764764765 	299.9999985394629 	4.232925441866044e-06 	101324.9982735546
-1.012262262262262 	299.9999986105194 	4.027382806280964e-06 	101324.9983572549
-1.00975975975976 	299.9999986789106 	3.831849139649139e-06 	101324.998437373
-1.007257257257257 	299.9999987426631 	3.646924545019583e-06 	101324.9985122476
-1.004754754754755 	299.999998805337 	3.460932110341795e-06 	101324.9985866424
-1.002252252252252 	299.9999988768957 	3.248994356279484e-06 	101324.9986722606
-0.9997497497497498 	299.9999989640441 	2.996021551039088e-06 	101324.9987760576
-0.9972472472472473 	299.999999063059 	2.713702904044545e-06 	101324.9988927856
-0.9947447447447449 	299.9999991636353 	2.428545502081627e-06 	101324.9990104539
-0.9922422422422421 	299.9999992566198 	2.162965632995265e-06 	101324.99911921
-0.9897397397397399 	299.999999338537 	1.924160791840767e-06 	101324.9992161023
-0.9872372372372376 	299.9999994130251 	1.702660063630243e-06 	101324.9993054566
-0.9847347347347346 	299.9999994874566 	1.48166677962535e-06 	101324.9993949594
-0.9822322322322323 	299.9999995672547 	1.249444896240417e-06 	101324.9994896821
-0.9797297297297296 	299.9999996530831 	1.003570584670571e-06 	101324.9995900832
-0.9772272272272275 	299.9999997437808 	7.444803987999689e-07 	101324.9996956292
-0.9747247247247248 	299.9999998391657 	4.706873080300346e-07 	101324.9998073386
-0.9722222222222224 	299.9999999383488 	1.837174600422951e-07 	101324.9999249566
-0.9697197197197196 	300.0000000383805 	1.627201799482598e-07 	101325.0000445634
-0.9672172172172175 	300.0000001366953 	3.966879053921415e-07 	101325.0001622914
-0.9647147147147147 	300.0000002343874 	6.821854586806833e-07 	101325.000278578
-0.9622122122122124 	300.0000003329225 	9.662184356415004e-07 	101325.000394878
-0.9597097097097099 	300.0000004296726 	1.242650633240342e-06 	101325.0005083396
-0.9572072072072073 	300.0000005202654 	1.50268683340157e-06 	101325.0006143313
-0.9547047047047047 	300.0000006052976 	1.749181695482084e-06 	101325.0007138887
-0.9522022022022023 	300.0000006909489 	1.998208312055172e-06 	101325.0008146429
-0.9496996996996998 	300.0000007828565 	2.263744258222166e-06 	101325.0009231192
-0.9471971971971973 	300.0000008807917 	2.545761570820688e-06 	101325.0010388037
-0.9446946946946947 	300.0000009812219 	2.836424047990741e-06 	101325.0011575222
-0.9421921921921923 	300.0000010835178 	3.133390542471624e-06 	101325.0012783121
-0.93968968968969 	300.0000011895601 	3.440024089084206e-06 	101325.0014034745
-0.9371871871871872 	300.0000012985809 	3.753502079778163e-06 	101325.0015322576
-0.9346846846846848 	300.0000014051141 	4.060247291288061e-06 	101325.0016583263
-0.9321821821821823 	300.000001504044 	4.347716847671451e-06 	101325.0017755699
-0.9296796796796799 	300.0000015963416 	4.618349721802443e-06 	101325.0018850276
-0.9271771771771771 	300.0000016883207 	4.887859895261839e-06 	101325.0019941424
-0.9246746746746748 	300.0000017853267 	5.169340463322651e-06 	101325.0021090761
-0.9221721721721724 	300.0000018865931 	5.461312901144108e-06 	101325.0022289311
-0.9196696696696698 	300.0000019875075 	5.753192098080212e-06 	101325.0023483764
-0.9171671671671672 	300.0000020862103 	6.040454282824e-06 	101325.0024651677
-0.9146646646646649 	300.0000021858635 	6.33021348725625e-06 	101325.0025829044
-0.9121621621621623 	300.0000022897467 	6.630335010126001e-06 	101325.0027056014
-0.9096596596596597 	300.0000023962684 	6.936984872731224e-06 	101325.0028315356
-0.9071571571571573 	300.0000025001746 	7.236853480194435e-06 	101325.0029543752
-0.9046546546546547 	300.0000025979218 	7.521405273620851e-06 	101325.0030700301
-0.9021521521521524 	300.0000026920295 	7.797199591417585e-06 	101325.0031815039
-0.8996496496496498 	300.0000027893753 	8.081042239736468e-06 	101325.0032966933
-0.8971471471471473 	300.0000028942843 	8.383562927434853e-06 	101325.0034207452
-0.894644644644645 	300.0000030035724 	8.696683981338042e-06 	101325.003550011
-0.892142142142142 	300.0000031087455 	8.999181708947171e-06 	101325.0036744957
-0.8896396396396397 	300.000003204055 	9.2765742318287e-06 	101325.0037873474
-0.8871371371371374 	300.0000032918745 	9.534601487719085e-06 	101325.0038913649
-0.8846346346346349 	300.0000033799828 	9.79242290094151e-06 	101325.0039955369
-0.8821321321321324 	300.0000034739402 	1.006491234230654e-05 	101325.0041065128
-0.8796296296296297 	300.0000035738311 	1.035354459049306e-05 	101325.0042245569
-0.8771271271271271 	300.0000036766978 	1.065121268223627e-05 	101325.0043462204
-0.8746246246246248 	300.0000037803319 	1.095177842287543e-05 	101325.0044687696
-0.8721221221221224 	300.0000038845322 	1.125401361331648e-05 	101325.0045919327
-0.8696196196196196 	300.000003989673 	1.155781659264402e-05 	101325.0047161567
-0.8671171171171175 	300.0000040936725 	1.185667480098967e-05 	101325.0048390302
-0.8646146146146148 	300.0000041906315 	1.213552169326024e-05 	101325.0049538116
-0.8621121121121121 	300.0000042752838 	1.23814840776601e-05 	101325.0050540693
-0.8596096096096097 	300.000004349708 	1.260123796749826e-05 	101325.0051421239
-0.857107107107107 	300.0000044251781 	1.282418719758139e-05 	101325.0052312853
-0.8546046046046049 	300.0000045136641 	1.308016645304271e-05 	101325.0053356372
-0.8521021021021022 	300.0000046156982 	1.337080398409123e-05 	101325.0054561002
-0.8495995995995997 	300.000004719615 	1.366754968984167e-05 	101325.0055790909
-0.8470970970970974 	300.0000048140226 	1.394191770382229e-05 	101325.0056910752
-0.8445945945945946 	300.000004899679 	1.419402732100856e-05 	101325.0057925089
-0.8420920920920922 	300.0000049861247 	1.444593907221121e-05 	101325.0058945043
-0.8395895895895897 	300.0000050783253 	1.471001756203496e-05 	101325.0060031409
-0.8370870870870872 	300.0000051705275 	1.497321893051141e-05 	101325.0061118437
-0.8345845845845846 	300.0000052542196 	1.52157366180829e-05 	101325.0062108008
-0.8320820820820823 	300.0000053292684 	1.543710269646691e-05 	101325.0062999148
-0.8295795795795798 	300.0000054037399 	1.565597641608633e-05 	101325.0063884046
-0.8270770770770772 	300.0000054835559 	1.588650928436125e-05 	101325.0064829404
-0.8245745745745746 	300.0000055662287 	1.61236747565572e-05 	101325.0065806249
-0.8220720720720721 	300.0000056461373 	1.635429201586281e-05 	101325.006674807
-0.8195695695695699 	300.0000057222113 	1.657588023131732e-05 	101325.0067644393
-0.817067067067067 	300.0000057987126 	1.679864814738745e-05 	101325.0068547699
-0.8145645645645651 	300.0000058790309 	1.703042889378607e-05 	101325.0069497608
-0.8120620620620621 	300.000005960834 	1.726524008130377e-05 	101325.0070465532
-0.8095595595595597 	300.0000060382832 	1.748892399405596e-05 	101325.0071383515
-0.8070570570570572 	300.0000061085891 	1.769449701193703e-05 	101325.0072218001
-0.8045545545545546 	300.0000061751515 	1.788965185232352e-05 	101325.0073005721
-0.8020520520520523 	300.0000062437084 	1.808794112716619e-05 	101325.0073812664
-0.7995495495495494 	300.0000063154136 	1.829202622656236e-05 	101325.0074654546
-0.7970470470470474 	300.0000063839857 	1.848664738658852e-05 	101325.007546116
-0.7945445445445446 	300.0000064411455 	1.865242298243149e-05 	101325.0076137624
-0.7920420420420423 	300.0000064865283 	1.879038835614315e-05 	101325.0076681308
-0.7895395395395397 	300.0000065321802 	1.893141247700485e-05 	101325.0077231663
-0.7870370370370371 	300.0000065938407 	1.911344275092674e-05 	101325.0077968271
-0.7845345345345348 	300.0000066752735 	1.934356897937275e-05 	101325.0078930174
-0.7820320320320323 	300.0000067620591 	1.958436257785558e-05 	101325.0079945757
-0.7795295295295296 	300.0000068336181 	1.978530192961315e-05 	101325.0080777571
-0.7770270270270272 	300.0000068833436 	1.993121288788195e-05 	101325.0081353889
-0.7745245245245247 	300.0000069245162 	2.00559657239782e-05 	101325.008183759
-0.7720220220220222 	300.0000069747878 	2.02026462744205e-05 	101325.0082437667
-0.7695195195195199 	300.0000070349919 	2.037217834901529e-05 	101325.0083160535
-0.767017017017017 	300.0000070872209 	2.051956921300581e-05 	101325.0083788226
-0.7645145145145147 	300.0000071158431 	2.060759553314687e-05 	101325.0084132837
-0.7620120120120122 	300.0000071297843 	2.066119477985612e-05 	101325.0084301026
-0.7595095095095097 	300.0000071594276 	2.075787337870158e-05 	101325.0084655824
-0.7570070070070072 	300.0000072275803 	2.095305707230904e-05 	101325.0085468004
-0.7545045045045048 	300.0000073217832 	2.121230345400148e-05 	101325.0086590794
-0.7520020020020022 	300.0000073989722 	2.142429970749232e-05 	101325.0087513487
-0.7494994994994997 	300.0000074221391 	2.149442367174583e-05 	101325.0087792193
-0.7469969969969972 	300.0000073961454 	2.143640592280573e-05 	101325.0087480533
-0.7444944944944945 	300.0000073685101 	2.137338489832698e-05 	101325.0087141527
-0.7419919919919924 	300.0000073908276 	2.143818096099607e-05 	101325.0087388562
-0.7394894894894897 	300.0000074731783 	2.165704945227195e-05 	101325.008834804
-0.7369869869869872 	300.000007572852 	2.192021923013707e-05 	101325.0089519071
-0.7344844844844846 	300.000007628111 	2.206931693503728e-05 	101325.0090175013
-0.7319819819819822 	300.0000076101343 	2.203039861276482e-05 	101325.0089971569
-0.7294794794794797 	300.0000075489681 	2.188151956668949e-05 	101325.0089260539
-0.7269769769769773 	300.0000075121142 	2.179681582496827e-05 	101325.0088833727
-0.7244744744744747 	300.0000075517272 	2.191061897902664e-05 	101325.0089304751
-0.721971971971972 	300.000007663029 	2.22092551764222e-05 	101325.0090616619
-0.7194694694694695 	300.0000077859314 	2.253500697283371e-05 	101325.0092058434
-0.7169669669669674 	300.0000078480741 	2.269896990619728e-05 	101325.009277922
-0.7144644644644647 	300.0000078172482 	2.261732239129303e-05 	101325.0092399278
-0.711961961961962 	300.0000077243437 	2.237226085230627e-05 	101325.0091287543
-0.7094594594594597 	300.0000076416399 	2.215469283568687e-05 	101325.0090301143
-0.7069569569569573 	300.000007632442 	2.213198760653215e-05 	101325.0090189348
-0.7044544544544545 	300.0000077082713 	2.233449286384448e-05 	101325.0091088836
-0.7019519519519523 	300.0000078213205 	2.263568257706786e-05 	101325.0092434103
-0.6994494494494495 	300.0000078964906 	2.283562132198522e-05 	101325.0093335572
-0.6969469469469471 	300.0000078796099 	2.27895487131575e-05 	101325.0093148364
-0.6944444444444446 	300.0000077717673 	2.250116993613532e-05 	101325.0091883766
-0.6919419419419421 	300.0000076311191 	2.212612758548657e-05 	101325.0090227126
-0.6894394394394396 	300.0000075397739 	2.188596397157296e-05 	101325.0089150887
-0.6869369369369374 	300.0000075593452 	2.194605317234925e-05 	101325.0089382311
-0.6844344344344344 	300.0000076965669 	2.232344263417143e-05 	101325.0091003254
-0.6819319319319321 	300.0000078969559 	2.287010042509496e-05 	101325.009337166
-0.6794294294294296 	300.0000080700582 	2.333880150376777e-05 	101325.0095417554
-0.6769269269269272 	300.0000081296488 	2.349328590862818e-05 	101325.0096122252
-0.6744244244244245 	300.0000080304172 	2.321013579576675e-05 	101325.0094948539
-0.6719219219219222 	300.0000077881398 	2.253455648241174e-05 	101325.0092083852
-0.6694194194194195 	300.0000074761995 	2.166811774255012e-05 	101325.0088393825
-0.6669169169169172 	300.0000071968652 	2.089407799077521e-05 	101325.0085088264
-0.6644144144144146 	300.0000070456334 	2.047924823566701e-05 	101325.0083297196
-0.661911911911912 	300.0000070829356 	2.059140515392274e-05 	101325.0083734275
-0.6594094094094097 	300.000007315886 	2.124892297360091e-05 	101325.0086484819
-0.656906906906907 	300.0000076947631 	2.231314365353606e-05 	101325.0090962439
-0.6544044044044046 	300.0000081281512 	2.35297993962614e-05 	101325.0096085654
-0.6519019019019021 	300.0000085105571 	2.460246525411375e-05 	101325.0100607418
-0.6493993993993996 	300.0000087475982 	2.52630359956562e-05 	101325.0103411822
-0.6468968968968971 	300.0000087717986 	2.531914730537628e-05 	101325.010370122
-0.6443943943943946 	300.0000085509177 	2.46784468236415e-05 	101325.0101094079
-0.6418918918918921 	300.0000080895701 	2.335293809338589e-05 	101325.0095643329
-0.6393893893893897 	300.0000074242309 	2.144529048918445e-05 	101325.0087780236
-0.6368868868868871 	300.0000066136386 	1.912124420625279e-05 	101325.0078199255
-0.6343843843843846 	300.0000057263109 	1.657428114460848e-05 	101325.0067709771
-0.6318818818818821 	300.0000048277807 	1.399053370744108e-05 	101325.0057087521
-0.6293793793793795 	300.0000039712521 	1.152208549964258e-05 	101325.0046960097
-0.6268768768768773 	300.0000031928791 	9.274513451983224e-06 	101325.0037756634
-0.6243743743743745 	300.0000025131206 	7.307744360150911e-06 	101325.0029716771
-0.6218718718718721 	300.0000019389638 	5.643953797016258e-06 	101325.002292597
-0.6193693693693696 	300.0000014676827 	4.277473939170277e-06 	101325.0017356782
-0.6168668668668671 	300.0000010914372 	3.184403175792158e-06 	101325.0012908025
-0.6143643643643645 	300.000000798052 	2.330726768284952e-06 	101325.000943804
-0.6118618618618621 	300.0000005741131 	1.678487029291775e-06 	101325.0006790091
-0.6093593593593596 	300.000000406692 	1.190183727398243e-06 	101325.0004810006
-0.6068568568568571 	300.0000002838397 	8.31482332109287e-07 	101325.0003357111
-0.6043543543543546 	300.0000001952519 	5.726447095969203e-07 	101325.000230985
-0.6018518518518521 	300.0000001325014 	3.889871144532616e-07 	101325.0001567567
-0.5993493493493496 	300.000000088703 	2.607430110716454e-07 	101325.0001049775
-0.5968468468468471 	300.0000000586352 	1.725452551570888e-07 	101325.0000694035
-0.5943443443443446 	300.000000038309 	1.127697770159479e-07 	101325.0000453163
-0.591841841841842 	300.0000000246828 	7.281633664867972e-08 	101325.0000292331
-0.5893393393393397 	300.0000000157013 	4.647274485342208e-08 	101325.0000186375
-0.5868368368368371 	300.0000000099268 	2.93206212891568e-08 	101325.0000117466
-0.5843343343343346 	300.0000000062013 	1.829937657810286e-08 	101325.0000073208
-0.5818318318318321 	300.000000003858 	1.129458403120168e-08 	101325.0000045124
-0.5793293293293297 	300.0000000023217 	6.902271087526245e-09 	101325.0000027509
-0.5768268268268271 	300.0000000014135 	4.171852176028031e-09 	101325.0000016586
-0.5743243243243245 	300.0000000008642 	2.499213461755596e-09 	101325.0000009886
-0.5718218218218221 	300.0000000005149 	1.481988749346811e-09 	101325.0000005824
-0.5693193193193196 	300.0000000003374 	8.718407092454293e-10 	101325.0000003382
-0.5668168168168171 	300.0000000001544 	5.089515552272425e-10 	101325.000000193
-0.5643143143143147 	300.0000000000391 	2.937206875625819e-10 	101325.0000001072
-0.5618118118118121 	300.0000000000667 	1.697244610229756e-10 	101325.0000000572
-0.5593093093093094 	300.0000000000653 	9.676706721130154e-11 	101325.0000000286
-0.5568068068068072 	300.000000000033 	5.717185468461369e-11 	101325.0000000122
-0.5543043043043046 	300.0000000000222 	3.286230770711774e-11 	101325.0000000032
-0.551801801801802 	299.9999999999525 	2.050393202182882e-11 	101324.9999999981
-0.5492992992992995 	299.9999999999961 	1.139026137569785e-11 	101324.9999999952
-0.5467967967967969 	300.0000000000135 	8.355841993179467e-12 	101324.9999999937
-0.5442942942942947 	300.000000000007 	5.002873526582978e-12 	101324.999999993
-0.5417917917917919 	299.9999999999577 	5.520039072965338e-12 	101324.9999999927
-0.5392892892892895 	299.9999999999288 	2.379802813704788e-12 	101324.9999999923
-0.536786786786787 	299.9999999999531 	3.926891148958386e-12 	101324.999999992
-0.5342842842842846 	299.9999999999562 	1.11694815895115e-12 	101324.9999999919
-0.531781781781782 	299.9999999999268 	3.93920610176876e-12 	101324.9999999916
-0.5292792792792794 	299.9999999999239 	2.155729217371782e-12 	101324.9999999914
-0.526776776776777 	299.9999999999021 	4.997388853669761e-12 	101324.9999999914
-0.5242742742742745 	299.9999999999744 	3.703004050679419e-12 	101324.9999999913
-0.521771771771772 	300.0000000000147 	6.761203751492278e-12 	101324.9999999914
-0.5192692692692695 	299.99999999996 	4.382252914560473e-12 	101324.9999999915
-0.516766766766767 	300.0000000000058 	7.06258843754097e-12 	101324.9999999915
-0.5142642642642645 	299.9999999999756 	4.086971436521692e-12 	101324.9999999915
-0.511761761761762 	299.9999999999505 	6.158147505078092e-12 	101324.9999999916
-0.5092592592592596 	299.9999999999692 	3.112983617394646e-12 	101324.9999999916
-0.506756756756757 	299.9999999999344 	4.911923599135712e-12 	101324.9999999915
-0.5042542542542544 	299.9999999999891 	2.351638145390515e-12 	101324.9999999918
-0.5017517517517521 	300.0000000000265 	4.32664848900707e-12 	101324.999999992
-0.4992492492492494 	300.00000000003 	1.264749248091316e-12 	101324.999999992
-0.496746746746747 	299.9999999999818 	4.882465061523143e-12 	101324.999999992
-0.4942442442442445 	299.9999999999483 	2.879035880549484e-12 	101324.9999999922
-0.4917417417417421 	299.9999999999371 	5.254856086661309e-12 	101324.999999992
-0.4892392392392395 	299.9999999999542 	2.949070263265893e-12 	101324.9999999922
-0.486736736736737 	299.9999999999571 	5.442348564302013e-12 	101324.999999992
-0.4842342342342345 	299.9999999999204 	2.530690064659973e-12 	101324.999999992
-0.481731731731732 	300.0000000000355 	5.006142509094471e-12 	101324.9999999918
-0.4792292292292296 	300.0000000000207 	1.592159498048034e-12 	101324.9999999916
-0.4767267267267268 	299.999999999953 	5.388497335716895e-12 	101324.9999999914
-0.4742242242242246 	299.9999999999939 	1.725292311369767e-12 	101324.9999999915
-0.471721721721722 	299.9999999999596 	4.963066631584836e-12 	101324.9999999915
-0.4692192192192195 	299.9999999999779 	1.132051349766093e-12 	101324.9999999916
-0.4667167167167169 	299.999999999912 	3.351312908858296e-12 	101324.9999999914
-0.4642142142142145 	299.9999999999926 	1.232088323526937e-12 	101324.9999999914
-0.461711711711712 	300.0000000000143 	2.787889092728406e-12 	101324.9999999911
-0.4592092092092094 	300.0000000000127 	6.629714180482372e-13 	101324.9999999912
-0.456706706706707 	300.0000000000495 	2.829170659677472e-12 	101324.9999999911
-0.4542042042042045 	299.99999999994 	1.422022356557418e-12 	101324.999999991
-0.451701701701702 	299.9999999999495 	2.541494173939259e-12 	101324.9999999911
-0.4491991991991995 	299.9999999999568 	6.459302885131106e-13 	101324.9999999911
-0.4466966966966969 	299.9999999999488 	2.011447547748907e-12 	101324.9999999909
-0.4441941941941945 	299.9999999999908 	1.453216725083784e-12 	101324.9999999907
-0.441691691691692 	299.9999999999592 	3.068939237721887e-12 	101324.9999999905
-0.4391891891891895 	299.9999999999869 	1.726150366831935e-12 	101324.9999999905
-0.436686686686687 	299.9999999999637 	4.673912402997713e-12 	101324.9999999906
-0.4341841841841846 	299.9999999999998 	2.370923767170931e-12 	101324.9999999908
-0.431681681681682 	299.9999999999488 	5.069304136033961e-12 	101324.9999999912
-0.4291791791791794 	299.9999999999288 	1.267299981870471e-12 	101324.9999999913
-0.426676676676677 	299.9999999999087 	3.922069257548955e-12 	101324.9999999914
-0.4241741741741744 	299.9999999999657 	1.033992054613161e-12 	101324.9999999914
-0.421671671671672 	300.0000000000016 	3.722201375618189e-12 	101324.9999999914
-0.4191691691691694 	300.0000000000487 	1.904186639886718e-12 	101324.9999999912
-0.4166666666666669 	300.0000000000569 	3.867578068975473e-12 	101324.999999991
-0.4141641641641645 	299.9999999999361 	1.985253206782888e-12 	101324.999999991
-0.411661661661662 	300.0000000000066 	2.887008200064491e-12 	101324.9999999912
-0.4091591591591594 	300.0000000000009 	2.111787372085306e-12 	101324.999999991
-0.406656656656657 	299.9999999999466 	3.537756909735104e-12 	101324.9999999908
-0.4041541541541545 	300.0000000000167 	1.46583968437696e-12 	101324.9999999907
-0.401651651651652 	299.999999999921 	3.647577756666875e-12 	101324.9999999909
-0.3991491491491494 	299.9999999999964 	1.538794972707806e-12 	101324.9999999908
-0.396646646646647 	299.9999999999565 	4.710331028657189e-12 	101324.999999991
-0.3941441441441444 	299.9999999999779 	1.964197456845792e-12 	101324.9999999912
-0.3916416416416419 	299.9999999999304 	4.533659014713871e-12 	101324.9999999912
-0.3891391391391395 	299.999999999961 	1.213591135517327e-12 	101324.9999999915
-0.3866366366366368 	299.9999999999582 	2.56667227972089e-12 	101324.9999999916
-0.3841341341341344 	299.9999999999961 	9.213425203936929e-13 	101324.9999999918
-0.381631631631632 	299.9999999999544 	1.635878152300718e-12 	101324.9999999918
-0.3791291291291294 	300.000000000005 	1.133959037031189e-12 	101324.9999999919
-0.3766266266266269 	300.0000000000233 	1.149157617669181e-12 	101324.9999999919
-0.3741241241241244 	300.0000000000251 	2.366501808692546e-12 	101324.9999999921
-0.371621621621622 	300.0000000000193 	1.072016672456242e-12 	101324.9999999919
-0.3691191191191194 	300.0000000000032 	3.916366997018217e-12 	101324.999999992
-0.366616616616617 	300.0000000000024 	8.729490931691079e-13 	101324.9999999919
-0.3641141141141143 	299.9999999999642 	3.620743167184715e-12 	101324.9999999914
-0.3616116116116119 	299.9999999999503 	1.939446222510674e-12 	101324.9999999913
-0.3591091091091095 	299.9999999999867 	4.044060651236121e-12 	101324.9999999911
-0.356606606606607 	299.9999999999885 	3.612215881006279e-12 	101324.999999991
-0.3541041041041044 	299.9999999999866 	3.617878125671423e-12 	101324.9999999909
-0.3516016016016019 	300.0000000000063 	3.987025598577443e-12 	101324.9999999911
-0.3490990990990994 	299.9999999999907 	2.140662566333745e-12 	101324.9999999912
-0.346596596596597 	300.0000000000385 	3.942096072458339e-12 	101324.9999999914
-0.3440940940940944 	300.0000000000461 	1.778853267208319e-12 	101324.9999999912
-0.3415915915915919 	300.0000000000215 	4.346711921895979e-12 	101324.9999999909
-0.3390890890890895 	299.9999999999811 	2.629670531658129e-12 	101324.9999999907
-0.3365865865865869 	300.0000000000184 	3.726628679701338e-12 	101324.9999999907
-0.3340840840840844 	300.0000000000006 	2.366815778471243e-12 	101324.9999999908
-0.3315815815815819 	300.0000000000207 	2.983270793195048e-12 	101324.9999999909
-0.3290790790790794 	300.0000000000198 	2.611793300926081e-12 	101324.9999999912
-0.3265765765765769 	299.999999999929 	3.701393674110821e-12 	101324.9999999915
-0.3240740740740744 	299.9999999999965 	2.779370938328114e-12 	101324.9999999913
-0.3215715715715718 	300.0000000000081 	4.308577076078674e-12 	101324.9999999912
-0.3190690690690695 	299.9999999999376 	2.91325009524101e-12 	101324.9999999914
-0.3165665665665668 	299.9999999999906 	4.938287521389167e-12 	101324.9999999916
-0.3140640640640644 	300.0000000000081 	2.438066661906226e-12 	101324.9999999913
-0.311561561561562 	299.9999999999269 	5.647535123304132e-12 	101324.999999991
-0.3090590590590593 	299.9999999999908 	1.567152017302241e-12 	101324.9999999912
-0.3065565565565568 	300.0000000000031 	7.283135457900396e-12 	101324.9999999914
-0.3040540540540545 	299.9999999999991 	1.443050910383168e-12 	101324.9999999914
-0.3015515515515518 	300.0000000000306 	5.85116981719966e-12 	101324.9999999916
-0.2990490490490494 	299.9999999999516 	2.071331853212733e-12 	101324.9999999916
-0.2965465465465469 	299.999999999985 	4.556389254493911e-12 	101324.9999999915
-0.2940440440440444 	299.9999999999918 	3.270988780180089e-12 	101324.9999999913
-0.2915415415415418 	300.0000000000022 	4.025852227349289e-12 	101324.9999999912
-0.2890390390390395 	300.0000000000032 	4.322450068185346e-12 	101324.9999999913
-0.2865365365365368 	299.9999999999807 	2.622299114602634e-12 	101324.9999999915
-0.2840340340340343 	299.9999999999962 	4.225838183663227e-12 	101324.9999999913
-0.2815315315315318 	299.9999999999342 	2.132412164387309e-12 	101324.9999999913
-0.2790290290290295 	299.9999999999647 	4.010169852545956e-12 	101324.9999999912
-0.2765265265265269 	300.0000000000077 	2.958457642588041e-12 	101324.9999999914
-0.2740240240240244 	300.0000000000216 	4.158266761237254e-12 	101324.9999999916
-0.2715215215215219 	300.00000000002 	4.573539200379541e-12 	101324.9999999919
-0.2690190190190194 	299.9999999999419 	4.335653930779924e-12 	101324.9999999919
-0.2665165165165169 	300 	4.852351218316726e-12 	101324.999999992
-0.2640140140140144 	299.9999999999698 	3.580895317573581e-12 	101324.9999999919
-0.2615115115115119 	300.000000000003 	5.347536730075628e-12 	101324.9999999918
-0.2590090090090094 	299.9999999999347 	3.283795322921564e-12 	101324.9999999916
-0.2565065065065068 	299.9999999999905 	4.293749065953693e-12 	101324.9999999912
-0.2540040040040044 	299.9999999999962 	3.963453834085822e-12 	101324.9999999914
-0.2515015015015019 	300.0000000000337 	2.993467376730011e-12 	101324.9999999915
-0.2489989989989994 	300.000000000038 	4.559914541639179e-12 	101324.9999999914
-0.2464964964964968 	299.9999999999901 	1.749297264656503e-12 	101324.9999999914
-0.2439939939939944 	300.0000000000024 	4.688749925126397e-12 	101324.9999999914
-0.2414914914914919 	299.999999999974 	7.566139007292609e-13 	101324.9999999912
-0.2389889889889893 	299.9999999999992 	4.938300737717712e-12 	101324.9999999914
-0.2364864864864869 	300.0000000000265 	9.267085476550316e-13 	101324.9999999915
-0.2339839839839843 	299.9999999999348 	4.420285041233447e-12 	101324.9999999913
-0.2314814814814819 	299.9999999999843 	1.053760133045227e-12 	101324.9999999915
-0.2289789789789792 	299.9999999999172 	2.956065579412543e-12 	101324.9999999915
-0.2264764764764769 	299.9999999999531 	5.339883620095517e-13 	101324.9999999915
-0.2239739739739743 	299.999999999964 	2.212981411204397e-12 	101324.9999999914
-0.2214714714714718 	299.9999999999435 	1.461012492693692e-12 	101324.9999999916
-0.2189689689689693 	299.9999999999704 	1.187237328905673e-12 	101324.9999999917
-0.2164664664664669 	299.9999999999814 	3.323850216152518e-12 	101324.9999999918
-0.2139639639639643 	299.9999999999329 	2.123436304495725e-12 	101324.9999999918
-0.2114614614614618 	299.9999999999786 	3.50686611480257e-12 	101324.9999999919
-0.2089589589589593 	299.9999999999909 	3.710086267415378e-12 	101324.999999992
-0.2064564564564568 	299.9999999999888 	4.154203296680458e-12 	101324.9999999921
-0.2039539539539543 	299.9999999999158 	5.700153616314848e-12 	101324.9999999921
-0.2014514514514518 	299.9999999999547 	3.382628361554748e-12 	101324.9999999921
-0.1989489489489494 	299.9999999999701 	5.957603323877984e-12 	101324.9999999923
-0.1964464464464468 	299.9999999999916 	1.956621682672725e-12 	101324.9999999924
-0.1939439439439443 	299.9999999999911 	4.836313116598751e-12 	101324.9999999925
-0.1914414414414418 	299.9999999999226 	2.005239274137886e-12 	101324.999999993
-0.1889389389389393 	300.000000000013 	3.421271792979481e-12 	101324.9999999929
-0.1864364364364368 	300.0000000000436 	2.132264548103989e-12 	101324.9999999929
-0.1839339339339343 	299.9999999999793 	2.780445543120876e-12 	101324.9999999927
-0.1814314314314318 	299.9999999999957 	2.047470220455238e-12 	101324.9999999922
-0.1789289289289293 	299.9999999999086 	3.134032810158854e-12 	101324.9999999921
-0.1764264264264268 	299.9999999999806 	9.257163236069108e-13 	101324.999999992
-0.1739239239239243 	299.9999999999073 	2.967776689972874e-12 	101324.9999999918
-0.1714214214214218 	299.9999999999818 	1.806875445109602e-12 	101324.9999999918
-0.1689189189189193 	299.9999999999513 	2.847210236763406e-12 	101324.9999999919
-0.1664164164164168 	299.9999999999972 	3.45344521050241e-12 	101324.9999999918
-0.1639139139139143 	299.9999999999858 	4.23840961686042e-12 	101324.9999999919
-0.1614114114114118 	300.0000000000261 	4.404693043108315e-12 	101324.999999992
-0.1589089089089093 	299.9999999999989 	6.390182091513994e-12 	101324.9999999922
-0.1564064064064068 	299.9999999999871 	5.138199919756732e-12 	101324.9999999923
-0.1539039039039043 	299.9999999999923 	6.454205695542201e-12 	101324.9999999924
-0.1514014014014018 	300.0000000000231 	5.248699223240364e-12 	101324.9999999923
-0.1488988988988993 	299.9999999999895 	5.662912893037423e-12 	101324.999999992
-0.1463963963963968 	299.999999999999 	3.361607751155789e-12 	101324.999999992
-0.1438938938938943 	299.9999999999607 	5.554465526398074e-12 	101324.999999992
-0.1413913913913918 	299.9999999999316 	1.400732009406685e-12 	101324.999999992
-0.1388888888888893 	299.9999999999814 	4.042889050508252e-12 	101324.9999999919
-0.1363863863863868 	299.9999999998988 	4.440174459211425e-13 	101324.9999999919
-0.1338838838838843 	299.9999999999141 	2.988856770806347e-12 	101324.9999999918
-0.1313813813813818 	299.9999999999943 	7.373922499377357e-13 	101324.9999999917
-0.1288788788788793 	299.9999999999591 	3.068089541387941e-12 	101324.9999999917
-0.1263763763763768 	299.999999999971 	1.274649223236101e-12 	101324.9999999917
-0.1238738738738743 	299.9999999999248 	4.054326650791516e-12 	101324.9999999918
-0.1213713713713717 	299.9999999999716 	8.33470808516189e-13 	101324.9999999916
-0.1188688688688693 	300.0000000000031 	4.566893002485732e-12 	101324.9999999918
-0.1163663663663668 	299.9999999999148 	2.824674318713329e-13 	101324.9999999918
-0.1138638638638643 	299.9999999999933 	4.409554115107958e-12 	101324.9999999916
-0.1113613613613618 	299.9999999999897 	1.834501957150091e-12 	101324.9999999917
-0.1088588588588592 	299.9999999999793 	4.465988624151633e-12 	101324.9999999916
-0.1063563563563568 	299.9999999999509 	1.931658957245436e-12 	101324.9999999917
-0.1038538538538543 	299.9999999999714 	3.379127056051345e-12 	101324.9999999919
-0.1013513513513517 	300.000000000016 	6.935187236157689e-13 	101324.9999999922
-0.09884884884884926 	299.9999999999431 	3.701017991100674e-12 	101324.9999999921
-0.09634634634634676 	299.9999999998926 	1.002368835101394e-12 	101324.9999999923
-0.09384384384384425 	299.9999999999353 	2.920640329725329e-12 	101324.9999999926
-0.09134134134134177 	300.0000000000241 	1.491202425391667e-12 	101324.9999999925
-0.08883883883883925 	300.0000000000132 	2.649626624143317e-12 	101324.9999999925
-0.08633633633633674 	299.9999999999534 	2.132063779239185e-12 	101324.9999999926
-0.08383383383383426 	300.0000000000107 	1.983475552697432e-12 	101324.9999999927
-0.08133133133133173 	299.9999999999704 	2.989511489944924e-12 	101324.9999999926
-0.07882882882882926 	299.999999999886 	2.401160558514452e-12 	101324.9999999923
-0.07632632632632676 	299.99999999996 	2.755629599446016e-12 	101324.9999999922
-0.07382382382382424 	299.9999999999019 	3.047843007807494e-12 	101324.9999999921
-0.07132132132132173 	300.0000000000147 	3.179285754581533e-12 	101324.999999992
-0.06881881881881925 	299.9999999999542 	3.200124989694774e-12 	101324.9999999917
-0.06631631631631671 	299.9999999998979 	2.871027842212475e-12 	101324.9999999914
-0.06381381381381425 	299.9999999999639 	2.599127615903215e-12 	101324.9999999916
-0.06131131131131173 	299.9999999999652 	3.018971196578586e-12 	101324.9999999914
-0.05880880880880923 	299.9999999999264 	2.995899611180949e-12 	101324.9999999911
-0.05630630630630672 	299.9999999999773 	2.694310554557672e-12 	101324.9999999912
-0.05380380380380424 	300.0000000000165 	2.308938175790547e-12 	101324.9999999912
-0.05130130130130173 	300.0000000000139 	1.839359981049672e-12 	101324.9999999914
-0.04879879879879922 	299.9999999999364 	1.813725625962825e-12 	101324.9999999915
-0.04629629629629672 	299.9999999999195 	8.282981671781612e-13 	101324.9999999918
-0.04379379379379422 	299.9999999999357 	5.149778296803587e-13 	101324.9999999917
-0.04129129129129173 	299.9999999999774 	9.882197502013685e-13 	101324.9999999918
-0.03878878878878922 	299.9999999999862 	1.816107259081884e-12 	101324.9999999918
-0.03628628628628671 	299.9999999999844 	2.13695699150191e-12 	101324.999999992
-0.03378378378378422 	299.9999999999268 	2.019487970796951e-12 	101324.9999999921
-0.03128128128128172 	299.9999999999651 	1.026521439340661e-12 	101324.9999999922
-0.02877877877877922 	299.9999999999677 	1.129718511477496e-12 	101324.9999999922
-0.0262762762762767 	299.9999999999059 	4.801244225366972e-13 	101324.9999999924
-0.02377377377377422 	300.0000000000202 	4.900203689866726e-13 	101324.9999999927
-0.0212712712712717 	299.9999999999065 	8.609067010496237e-13 	101324.9999999928
-0.01876876876876921 	299.9999999999712 	4.567818378234456e-13 	101324.9999999928
-0.01626626626626671 	300.0000000000159 	1.13979575871312e-12 	101324.9999999925
-0.0137637637637642 	299.9999999999706 	6.803603317781352e-13 	101324.9999999924
-0.0112612612612617 	300.0000000000125 	6.193343780536158e-13 	101324.9999999924
-0.008758758758759198 	299.9999999999891 	1.138937261584189e-13 	101324.9999999924
-0.006256256256256697 	299.99999999989 	7.715044803638418e-13 	101324.9999999924
-0.003753753753754195 	299.9999999999546 	6.711794957843209e-14 	101324.9999999925
-0.001251251251251693 	299.9999999999308 	5.938815644782761e-13 	101324.9999999924
0.00125125125125081 	299.9999999999563 	1.954765082927155e-13 	101324.9999999922
0.003753753753753312 	299.9999999999609 	9.072917388194289e-13 	101324.9999999922
0.006256256256255817 	299.9999999998871 	9.346090422684956e-14 	101324.9999999919
0.008758758758758317 	299.9999999999941 	1.749682627682516e-13 	101324.9999999917
0.01126126126126082 	300.0000000000064 	4.778998913069679e-13 	101324.9999999916
0.01376376376376332 	299.9999999999666 	1.30685170351195e-12 	101324.9999999913
0.01626626626626582 	300.0000000000145 	9.440787990427625e-13 	101324.9999999913
0.01876876876876833 	299.9999999999547 	1.631879842992065e-12 	101324.9999999914
0.02127127127127083 	299.9999999999727 	1.113839493127969e-12 	101324.9999999917
0.02377377377377332 	299.9999999999974 	1.090581451602324e-12 	101324.9999999919
0.02627627627627583 	299.9999999999042 	5.083859599788012e-13 	101324.9999999919
0.02877877877877833 	300.0000000000086 	1.954030256654027e-14 	101324.9999999915
0.03128128128128083 	299.9999999999519 	6.756829937376791e-13 	101324.9999999915
0.03378378378378333 	299.9999999999063 	1.870760517206206e-12 	101324.9999999915
0.03628628628628584 	299.9999999999643 	2.381961122787427e-12 	101324.9999999916
0.03878878878878834 	299.9999999999809 	2.494258342650883e-12 	101324.9999999915
0.04129129129129084 	299.9999999999774 	3.078231120928309e-12 	101324.9999999917
0.04379379379379333 	299.9999999999446 	3.328141454916115e-12 	101324.9999999918
0.04629629629629585 	299.9999999998971 	2.885647266408227e-12 	101324.9999999917
0.04879879879879834 	299.9999999999611 	3.19306740646356e-12 	101324.9999999916
0.05130130130130085 	300.0000000000141 	2.977123950085322e-12 	101324.9999999913
0.05380380380380335 	300.0000000000158 	2.964794987020687e-12 	101324.9999999911
0.05630630630630584 	299.9999999999959 	2.344636028147189e-12 	101324.9999999909
0.05880880880880836 	299.9999999999249 	2.505502694505927e-12 	101324.9999999911
0.06131131131131085 	299.9999999999687 	2.354542775018663e-12 	101324.9999999912
0.06381381381381336 	299.9999999999586 	2.324074454189629e-12 	101324.9999999914
0.06631631631631586 	299.9999999998987 	2.192741948979746e-12 	101324.9999999915
0.06881881881881835 	299.9999999999598 	2.739657342093802e-12 	101324.9999999915
0.07132132132132088 	299.9999999999861 	2.158084025469879e-12 	101324.9999999916
0.07382382382382337 	299.9999999999062 	2.30317709942561e-12 	101324.9999999917
0.07632632632632587 	299.9999999999698 	2.473895048688705e-12 	101324.9999999916
0.07882882882882837 	299.9999999999445 	2.165715608452401e-12 	101324.9999999915
0.08133133133133086 	299.9999999999798 	2.224326190566369e-12 	101324.9999999916
0.08383383383383337 	299.9999999999894 	1.95240446037827e-12 	101324.9999999917
0.08633633633633589 	299.9999999999142 	2.563792025447174e-12 	101324.9999999917
0.08883883883883838 	300.0000000000036 	3.102149666359115e-12 	101324.9999999918
0.09134134134134086 	299.9999999999808 	1.874012995815007e-12 	101324.9999999919
0.09384384384384339 	299.9999999999002 	2.007204925182201e-12 	101324.9999999917
0.09634634634634588 	299.9999999999698 	2.489135108238062e-12 	101324.9999999916
0.09884884884884838 	299.9999999999732 	2.504912155771906e-12 	101324.9999999913
0.1013513513513509 	300.0000000000176 	2.412963831118514e-12 	101324.9999999912
0.1038538538538534 	299.999999999957 	1.706525526347422e-12 	101324.9999999913
0.1063563563563559 	300.0000000000071 	1.846818691384708e-12 	101324.9999999916
0.1088588588588584 	300.0000000000215 	1.744909263326186e-12 	101324.9999999917
0.1113613613613609 	299.9999999999166 	1.846181085848021e-12 	101324.9999999917
0.1138638638638634 	299.9999999999484 	2.157037207760551e-12 	101324.9999999916
0.1163663663663659 	299.9999999999542 	2.410265628789557e-12 	101324.9999999918
0.1188688688688684 	299.9999999999681 	2.862295368783548e-12 	101324.999999992
0.1213713713713709 	299.9999999999952 	2.699634666763125e-12 	101324.9999999916
0.1238738738738734 	299.9999999999336 	3.221526395752744e-12 	101324.9999999918
0.1263763763763759 	299.999999999982 	3.111463291304312e-12 	101324.9999999915
0.1288788788788784 	299.9999999999844 	2.970587272930942e-12 	101324.9999999915
0.1313813813813809 	299.9999999999833 	2.902558538137645e-12 	101324.9999999914
0.1338838838838834 	299.9999999999762 	2.577827766216899e-12 	101324.9999999915
0.1363863863863859 	300.0000000000194 	2.319995472473845e-12 	101324.9999999915
0.1388888888888884 	300.0000000000475 	1.947807012319243e-12 	101324.9999999915
0.1413913913913909 	300.000000000009 	8.851483025378543e-13 	101324.9999999917
0.1438938938938934 	299.9999999999937 	1.684514660585044e-12 	101324.9999999916
0.1463963963963959 	299.9999999999529 	6.134995522335105e-13 	101324.9999999916
0.1488988988988985 	299.9999999999166 	2.19341852834032e-12 	101324.9999999916
0.1514014014014009 	299.9999999999706 	1.036898377651208e-12 	101324.9999999917
0.1539039039039035 	299.9999999999662 	3.168755145476887e-12 	101324.9999999916
0.1564064064064059 	299.9999999999308 	6.117452834156537e-13 	101324.9999999913
0.1589089089089084 	299.9999999999781 	4.444970144818893e-12 	101324.9999999913
0.1614114114114109 	299.9999999999731 	2.141066281878705e-12 	101324.9999999913
0.1639139139139134 	299.9999999999169 	4.842986402346007e-12 	101324.9999999913
0.166416416416416 	300.0000000000036 	3.787686026463261e-12 	101324.9999999913
0.1689189189189185 	300.0000000000269 	3.557661540857876e-12 	101324.9999999916
0.1714214214214209 	300.0000000000069 	3.305233298186684e-12 	101324.9999999913
0.1739239239239235 	299.9999999999894 	2.064656424463775e-12 	101324.9999999917
0.1764264264264259 	299.9999999999707 	4.207980928464898e-12 	101324.999999992
0.1789289289289284 	300.0000000000085 	1.809182135848238e-12 	101324.9999999919
0.181431431431431 	299.9999999999646 	3.108295535585231e-12 	101324.9999999919
0.1839339339339334 	299.9999999999723 	8.373222657206794e-13 	101324.9999999917
0.186436436436436 	299.9999999999339 	2.190630578317601e-12 	101324.9999999915
0.1889389389389385 	299.9999999999839 	2.081812617685067e-12 	101324.9999999917
0.191441441441441 	299.999999999979 	2.012709543596027e-12 	101324.9999999919
0.1939439439439434 	299.999999999923 	3.491705598353176e-12 	101324.9999999919
0.196446446446446 	299.9999999999505 	1.404037486567247e-12 	101324.9999999921
0.1989489489489485 	299.9999999999679 	3.279798236430087e-12 	101324.999999992
0.2014514514514509 	299.9999999999811 	1.306135651542564e-12 	101324.9999999918
0.2039539539539535 	299.9999999999938 	3.138366800362511e-12 	101324.9999999915
0.2064564564564559 	299.9999999999605 	2.484585531596763e-12 	101324.9999999914
0.2089589589589585 	299.9999999999891 	3.128521929875797e-12 	101324.9999999914
0.211461461461461 	299.9999999999343 	3.259490077889499e-12 	101324.9999999911
0.2139639639639635 	299.9999999999814 	3.255414288259336e-12 	101324.9999999911
0.2164664664664659 	300.000000000002 	4.759852976297456e-12 	101324.9999999911
0.2189689689689684 	300.000000000001 	2.872348208965255e-12 	101324.999999991
0.221471471471471 	299.9999999999985 	5.155053921457745e-12 	101324.9999999912
0.2239739739739735 	299.9999999999612 	2.890402677200606e-12 	101324.9999999912
0.226476476476476 	299.9999999999846 	4.094674853582822e-12 	101324.9999999912
0.2289789789789785 	299.9999999999916 	2.481439034371342e-12 	101324.9999999914
0.231481481481481 	299.9999999999717 	2.486361620290133e-12 	101324.9999999916
0.2339839839839835 	299.9999999999957 	2.676984145624113e-12 	101324.9999999914
0.236486486486486 	300.0000000000229 	1.119610726096431e-12 	101324.9999999913
0.2389889889889885 	300.0000000000021 	2.577399241539825e-12 	101324.9999999911
0.241491491491491 	299.9999999999229 	4.728647149040684e-13 	101324.9999999912
0.2439939939939935 	299.9999999999767 	3.319711059451049e-12 	101324.9999999911
0.246496496496496 	299.999999999991 	5.202943180206948e-13 	101324.999999991
0.2489989989989985 	300.0000000000367 	2.384502025910047e-12 	101324.9999999909
0.251501501501501 	300.0000000000308 	1.544655903580703e-12 	101324.9999999909
0.2540040040040035 	299.9999999999872 	1.473391333157574e-12 	101324.9999999911
0.256506506506506 	300.0000000000216 	2.012731082315915e-12 	101324.9999999911
0.2590090090090086 	299.9999999999163 	6.313177978925556e-13 	101324.9999999912
0.261511511511511 	299.9999999999997 	2.691286694511198e-12 	101324.9999999911
0.2640140140140135 	299.9999999999911 	8.36143165886009e-13 	101324.9999999909
0.2665165165165161 	299.9999999999349 	1.788390291673278e-12 	101324.9999999908
0.2690190190190185 	300.0000000000086 	7.078791907457449e-13 	101324.9999999908
0.271521521521521 	300.0000000000125 	9.096502183631093e-13 	101324.9999999909
0.2740240240240235 	300.000000000015 	1.350027677486933e-12 	101324.9999999908
0.276526526526526 	300.0000000000072 	3.799721842473578e-13 	101324.9999999908
0.2790290290290286 	299.9999999999435 	1.692634765457515e-12 	101324.9999999907
0.281531531531531 	299.9999999999344 	4.359693051070137e-13 	101324.9999999909
0.2840340340340335 	299.9999999999816 	2.244929161234605e-12 	101324.9999999911
0.2865365365365361 	299.9999999999596 	7.792769021150703e-13 	101324.999999991
0.2890390390390385 	299.9999999999971 	1.512508321312427e-12 	101324.9999999912
0.291541541541541 	299.9999999999964 	1.223230823399155e-12 	101324.999999991
0.2940440440440436 	299.9999999999931 	3.520146312404809e-13 	101324.999999991
0.296546546546546 	299.9999999999908 	2.020712098122299e-12 	101324.9999999912
0.2990490490490486 	299.9999999999412 	9.910937301718411e-13 	101324.9999999914
0.3015515515515511 	300.0000000000317 	3.99327978035846e-12 	101324.9999999914
0.3040540540540535 	300.0000000000058 	1.682989907257169e-12 	101324.9999999913
0.3065565565565562 	299.9999999999899 	5.841135569582149e-12 	101324.999999991
0.3090590590590585 	299.9999999999857 	1.261479122472829e-12 	101324.9999999911
0.3115615615615611 	299.9999999999408 	4.866474649912387e-12 	101324.9999999911
0.3140640640640635 	300.0000000000092 	1.027381250112423e-12 	101324.9999999911
0.316566566566566 	299.9999999999921 	3.145645704029593e-12 	101324.999999991
0.3190690690690687 	299.9999999999474 	7.101829208976443e-13 	101324.9999999909
0.3215715715715711 	300.0000000000111 	1.304048431019016e-12 	101324.999999991
0.3240740740740735 	299.9999999999936 	1.655937512565118e-12 	101324.9999999908
0.326576576576576 	299.9999999999104 	4.680606955758104e-13 	101324.9999999907
0.3290790790790786 	300.0000000000041 	9.786514155315017e-13 	101324.9999999906
0.3315815815815811 	300.0000000000304 	5.546937112414933e-13 	101324.9999999907
0.3340840840840836 	299.9999999999898 	8.938275910887715e-13 	101324.9999999908
0.3365865865865861 	300.0000000000507 	3.212128833870428e-13 	101324.999999991
0.3390890890890886 	300.0000000000437 	1.742874502569164e-12 	101324.999999991
0.3415915915915911 	299.9999999999956 	6.965600171142476e-13 	101324.999999991
0.3440940940940935 	299.9999999999574 	1.682944833886744e-12 	101324.9999999911
0.3465965965965962 	300.0000000000301 	1.197215638245138e-12 	101324.9999999912
0.3490990990990985 	300.0000000000232 	7.807940731902941e-13 	101324.9999999911
0.3516016016016011 	299.9999999999886 	1.549668979261165e-13 	101324.9999999914
0.3541041041041035 	300.0000000000024 	7.797306772638509e-14 	101324.9999999913
0.3566066066066061 	299.9999999999562 	4.35406411101381e-13 	101324.9999999915
0.3591091091091085 	299.9999999999296 	1.295019580240604e-12 	101324.9999999917
0.3616116116116112 	299.9999999999453 	1.533642714847826e-12 	101324.9999999917
0.3641141141141137 	299.9999999999403 	2.139031989344651e-12 	101324.9999999917
0.3666166166166161 	299.9999999999342 	1.811565405034728e-12 	101324.9999999918
0.3691191191191185 	300.0000000000384 	3.606879362797597e-12 	101324.9999999915
0.371621621621621 	300.0000000000064 	1.65144812090577e-12 	101324.9999999912
0.3741241241241237 	300.0000000000464 	2.647520069476223e-12 	101324.9999999912
0.3766266266266261 	300.0000000000275 	1.314427102380001e-12 	101324.9999999909
0.3791291291291286 	299.9999999999838 	1.796912771274733e-12 	101324.9999999906
0.3816316316316311 	299.9999999999302 	1.39030934481687e-12 	101324.9999999904
0.3841341341341336 	300.0000000000111 	1.676114973972649e-12 	101324.9999999905
0.3866366366366362 	299.9999999999989 	7.101956715706003e-13 	101324.9999999904
0.3891391391391387 	299.9999999999565 	1.754602383454358e-12 	101324.9999999901
0.391641641641641 	299.9999999999998 	4.767330572570118e-13 	101324.9999999901
0.3941441441441436 	300.0000000000066 	1.375440853691591e-12 	101324.9999999899
0.3966466466466462 	299.9999999999975 	2.141408168597541e-13 	101324.9999999899
0.3991491491491486 	299.9999999999519 	1.127396447828911e-12 	101324.9999999902
0.4016516516516512 	299.9999999999179 	6.448592744538212e-13 	101324.9999999904
0.4041541541541536 	299.9999999999499 	1.14642930659804e-12 	101324.9999999905
0.4066566566566561 	299.9999999999488 	1.461708830928753e-12 	101324.9999999908
0.4091591591591587 	299.9999999999892 	4.998035705887838e-13 	101324.9999999909
0.4116616616616612 	300.0000000000032 	7.877226599272839e-13 	101324.9999999909
0.4141641641641635 	300.0000000000431 	1.325580601623006e-13 	101324.9999999909
0.4166666666666662 	299.9999999999959 	2.870973808872592e-13 	101324.999999991
0.4191691691691687 	299.9999999999417 	1.376837525159888e-12 	101324.9999999911
0.421671671671671 	300.0000000000122 	1.887032746104545e-12 	101324.999999991
0.4241741741741737 	299.9999999999826 	2.681396564497749e-12 	101324.999999991
0.4266766766766761 	299.9999999999606 	2.194462965242797e-12 	101324.9999999911
0.4291791791791785 	300.0000000000184 	3.957826932744231e-12 	101324.9999999913
0.4316816816816812 	300.0000000000076 	2.663521568432167e-12 	101324.9999999914
0.4341841841841836 	299.9999999999849 	3.595762913572535e-12 	101324.9999999916
0.4366866866866862 	299.9999999999214 	1.423499694383656e-12 	101324.9999999916
0.4391891891891885 	299.9999999999835 	2.489981079401527e-12 	101324.9999999914
0.4416916916916913 	299.9999999999824 	1.068008212753652e-12 	101324.9999999914
0.4441941941941936 	299.999999999988 	1.533253936043847e-12 	101324.9999999911
0.4466966966966961 	299.9999999999267 	3.888553971700097e-13 	101324.9999999909
0.4491991991991987 	299.9999999999817 	4.577826260250099e-13 	101324.9999999909
0.4517017017017012 	299.9999999999773 	1.589659696326793e-13 	101324.9999999912
0.4542042042042035 	299.9999999999849 	9.208437411056809e-14 	101324.9999999911
0.4567067067067062 	299.9999999999955 	4.034429815231305e-13 	101324.9999999909
0.4592092092092087 	299.9999999999338 	2.158155795712176e-13 	101324.9999999912
0.4617117117117112 	300.0000000000174 	3.463801312122585e-13 	101324.9999999911
0.4642142142142137 	299.9999999999695 	2.442285379613311e-13 	101324.9999999911
0.4667167167167162 	299.9999999999957 	1.322097947834858e-13 	101324.9999999911
0.4692192192192187 	299.9999999999624 	2.06633221000319e-13 	101324.999999991
0.4717217217217212 	300.0000000000104 	4.112028989254785e-13 	101324.9999999911
0.4742242242242236 	299.9999999999615 	5.075209356676069e-13 	101324.9999999912
0.4767267267267262 	299.9999999999775 	6.573688590324638e-13 	101324.9999999913
0.4792292292292287 	300.000000000018 	4.854588938101933e-13 	101324.9999999914
0.4817317317317312 	300.0000000000356 	2.76459050205614e-13 	101324.9999999915
0.4842342342342336 	299.9999999999853 	5.925624410510608e-13 	101324.9999999913
0.4867367367367362 	299.9999999999586 	2.601287068259663e-13 	101324.9999999913
0.4892392392392387 	300.0000000000271 	1.240728631561523e-12 	101324.9999999912
0.4917417417417412 	300.000000000006 	1.098101854398938e-12 	101324.9999999913
0.4942442442442437 	299.9999999999203 	1.386583735625887e-12 	101324.9999999911
0.4967467467467462 	299.9999999999345 	1.667780789128119e-12 	101324.9999999909
0.4992492492492487 	299.9999999999271 	1.163075883860462e-12 	101324.9999999908
0.5017517517517511 	299.9999999999628 	5.753664466777741e-13 	101324.9999999907
0.5042542542542537 	299.9999999999677 	1.449014842787317e-13 	101324.9999999906
0.5067567567567562 	299.9999999999508 	1.326642685340802e-13 	101324.9999999905
0.5092592592592589 	299.9999999999679 	7.10132279618881e-13 	101324.9999999903
0.5117617617617611 	299.9999999999649 	1.353351573360191e-12 	101324.9999999903
0.5142642642642637 	299.9999999999911 	1.387721589702233e-12 	101324.9999999903
0.5167667667667663 	299.999999999977 	2.952325202612409e-12 	101324.9999999903
0.5192692692692688 	299.9999999999259 	1.967580351147101e-12 	101324.9999999905
0.5217717717717714 	299.9999999999474 	4.113323496397017e-12 	101324.9999999905
0.5242742742742736 	299.9999999999477 	1.861278084076226e-12 	101324.9999999905
0.5267767767767763 	299.9999999999635 	3.410282688890271e-12 	101324.9999999904
0.5292792792792789 	299.9999999999468 	1.592936164209063e-12 	101324.9999999905
0.5317817817817813 	299.9999999999177 	2.117128405493157e-12 	101324.9999999907
0.5342842842842837 	300.0000000000136 	9.392817667902411e-13 	101324.9999999908
0.5367867867867864 	300.000000000001 	2.060790419469895e-12 	101324.999999991
0.5392892892892888 	299.9999999999621 	1.126804218022281e-12 	101324.9999999909
0.5417917917917912 	300.0000000000057 	2.152711549914759e-12 	101324.9999999911
0.5442942942942938 	299.9999999999861 	6.163920789335158e-13 	101324.9999999912
0.5467967967967964 	299.999999999949 	1.145303678168694e-12 	101324.9999999912
0.5492992992992988 	299.9999999999445 	6.379560009601127e-13 	101324.9999999912
0.5518018018018012 	299.9999999999457 	8.580724548710384e-13 	101324.999999991
0.5543043043043039 	300.0000000000173 	1.097595968185559e-12 	101324.9999999909
0.5568068068068063 	299.9999999999908 	8.20340411622318e-13 	101324.9999999911
0.5593093093093087 	299.999999999917 	1.284511389221529e-12 	101324.999999991
0.5618118118118114 	299.9999999999665 	9.55820009626746e-13 	101324.999999991
0.5643143143143137 	299.9999999999511 	6.98006829500323e-13 	101324.9999999911
0.5668168168168163 	299.9999999999931 	5.562096103302017e-13 	101324.9999999912
0.5693193193193188 	300.0000000000275 	6.267402989417669e-13 	101324.9999999914
0.5718218218218213 	300.0000000000219 	8.821098888851607e-13 	101324.9999999914
0.5743243243243239 	300.000000000005 	1.341368936603742e-12 	101324.9999999914
0.5768268268268262 	300.0000000000049 	1.826399066721266e-12 	101324.9999999914
0.5793293293293288 	299.9999999999523 	2.892401706705666e-12 	101324.9999999912
0.5818318318318314 	299.9999999999275 	2.208015421999092e-12 	101324.9999999914
0.5843343343343338 	299.9999999999837 	4.175023025595489e-12 	101324.9999999913
0.5868368368368363 	299.9999999999785 	1.420337680018433e-12 	101324.9999999911
0.5893393393393387 	299.9999999999524 	2.871619925221789e-12 	101324.9999999909
0.5918418418418413 	299.9999999999483 	1.088354869615969e-12 	101324.999999991
0.5943443443443439 	300.0000000000139 	2.212965022774159e-12 	101324.9999999912
0.5968468468468463 	300.0000000000113 	1.136439012082043e-12 	101324.999999991
0.5993493493493487 	300.0000000000323 	1.041165701093766e-12 	101324.999999991
0.6018518518518514 	299.9999999999795 	1.557644946985081e-12 	101324.9999999911
0.6043543543543537 	299.9999999999931 	7.70891344426509e-13 	101324.9999999911
0.6068568568568564 	299.9999999999831 	1.82612288643419e-12 	101324.9999999912
0.6093593593593587 	299.9999999999424 	7.15883441280269e-13 	101324.9999999913
0.6118618618618614 	299.9999999999358 	1.518284416830296e-12 	101324.9999999916
0.6143643643643638 	300.0000000000173 	1.437968361906955e-12 	101324.9999999919
0.6168668668668662 	299.999999999986 	1.873642778449953e-12 	101324.9999999924
0.6193693693693688 	299.9999999999611 	1.256590194734721e-12 	101324.9999999925
0.6218718718718714 	299.9999999999719 	1.545368391205491e-12 	101324.9999999926
0.6243743743743737 	299.9999999999452 	1.708159690753461e-12 	101324.9999999924
0.6268768768768762 	299.9999999999275 	5.075051503658252e-13 	101324.9999999923
0.629379379379379 	299.999999999959 	9.30582233265853e-13 	101324.9999999921
0.6318818818818812 	299.9999999999799 	7.194857148306155e-13 	101324.9999999918
0.6343843843843838 	300.0000000000121 	1.000203836005368e-12 	101324.9999999917
0.6368868868868864 	299.9999999999824 	1.336947078601073e-12 	101324.9999999917
0.6393893893893888 	299.9999999999305 	3.011452505815642e-12 	101324.9999999917
0.6418918918918912 	300.0000000000051 	1.885773907697485e-12 	101324.9999999919
0.6443943943943939 	299.9999999999878 	4.12630533965302e-12 	101324.999999992
0.6468968968968963 	299.9999999999868 	2.635231367080756e-12 	101324.9999999921
0.6493993993993988 	299.9999999999813 	3.573142517464005e-12 	101324.9999999923
0.6519019019019012 	299.9999999999771 	2.482591923505875e-12 	101324.9999999925
0.6544044044044038 	299.9999999999143 	2.469104709252546e-12 	101324.9999999925
0.6569069069069065 	299.9999999999592 	2.614124222787138e-12 	101324.9999999924
0.6594094094094087 	299.9999999999675 	1.316999993986835e-12 	101324.9999999924
0.6619119119119113 	299.9999999999565 	2.408879928361585e-12 	101324.9999999924
0.664414414414414 	300.000000000004 	1.360235527873001e-12 	101324.9999999924
0.6669169169169162 	300.0000000000158 	2.668899506816655e-12 	101324.9999999926
0.6694194194194188 	299.9999999999872 	1.367754669971205e-12 	101324.9999999924
0.6719219219219214 	299.9999999999337 	2.512309365962308e-12 	101324.999999992
0.674424424424424 	299.999999999975 	1.60469078246362e-12 	101324.9999999919
0.6769269269269262 	299.9999999999263 	2.201832139646745e-12 	101324.9999999921
0.679429429429429 	300.0000000000066 	1.462478476666793e-12 	101324.9999999924
0.6819319319319311 	299.9999999999746 	1.888571189311365e-12 	101324.9999999927
0.6844344344344341 	299.9999999999842 	1.030117065211015e-12 	101324.9999999928
0.686936936936936 	299.9999999999835 	1.959586462044185e-12 	101324.9999999928
0.6894394394394392 	299.9999999999934 	1.234465742981635e-12 	101324.9999999927
0.6919419419419413 	299.9999999999852 	1.088144609488956e-12 	101324.9999999929
0.694444444444444 	299.9999999999423 	1.397489327500712e-12 	101324.9999999931
0.6969469469469463 	299.9999999999368 	1.647533096615646e-12 	101324.9999999933
0.6994494494494489 	299.9999999999303 	2.333409495225415e-12 	101324.9999999932
0.7019519519519515 	299.999999999984 	1.772534684751514e-12 	101324.9999999931
0.7044544544544538 	299.9999999999547 	2.886733278693069e-12 	101324.9999999929
0.7069569569569564 	299.9999999999941 	1.366993307614753e-12 	101324.9999999927
0.7094594594594589 	299.9999999999677 	3.285005190875054e-12 	101324.9999999927
0.7119619619619615 	299.9999999999191 	1.854346795529423e-12 	101324.9999999928
0.7144644644644638 	299.9999999999561 	3.34556272360275e-12 	101324.9999999928
0.7169669669669665 	299.9999999999305 	2.252317122097163e-12 	101324.9999999927
0.7194694694694688 	299.9999999999923 	2.756048057574156e-12 	101324.9999999928
0.7219719719719715 	299.9999999999887 	1.402202817054763e-12 	101324.9999999928
0.7244744744744737 	300.0000000000044 	1.557785787071152e-12 	101324.999999993
0.7269769769769764 	299.9999999999964 	1.505920865441229e-12 	101324.9999999932
0.7294794794794791 	299.9999999999897 	8.01417581173499e-13 	101324.9999999933
0.7319819819819813 	299.9999999999839 	1.139357737205928e-12 	101324.9999999934
0.7344844844844839 	299.9999999999326 	7.656762365073242e-13 	101324.9999999933
0.7369869869869864 	299.999999999957 	8.320216803180026e-13 	101324.9999999934
0.739489489489489 	299.9999999999476 	9.306174795758788e-13 	101324.9999999933
0.7419919919919914 	299.9999999999387 	1.178923758228626e-12 	101324.9999999933
0.7444944944944939 	299.9999999999814 	2.481880817751381e-12 	101324.9999999932
0.7469969969969963 	299.9999999999734 	1.923377638970581e-12 	101324.9999999932
0.7494994994994989 	299.9999999999498 	3.683071043063985e-12 	101324.999999993
0.7520020020020015 	299.9999999999757 	1.997717956464374e-12 	101324.999999993
0.7545045045045039 	299.9999999999742 	5.037683596602634e-12 	101324.9999999931
0.7570070070070062 	299.9999999999492 	3.29421041858165e-12 	101324.9999999931
0.7595095095095092 	299.9999999999379 	4.762076507704321e-12 	101324.9999999931
0.7620120120120112 	300.0000000000061 	3.527664868157051e-12 	101324.9999999929
0.7645145145145138 	299.9999999999908 	3.096911089483626e-12 	101324.999999993
0.7670170170170165 	299.9999999999406 	2.991831234335412e-12 	101324.999999993
0.7695195195195191 	299.9999999999295 	2.027197805570997e-12 	101324.9999999934
0.7720220220220213 	299.9999999999365 	3.731514425986447e-12 	101324.9999999936
0.7745245245245239 	299.999999999938 	2.286028217236674e-12 	101324.9999999936
0.7770270270270263 	299.9999999999742 	3.873987427144654e-12 	101324.9999999937
0.779529529529529 	299.9999999999861 	3.084787068192688e-12 	101324.9999999937
0.7820320320320313 	299.999999999976 	4.096324060115382e-12 	101324.9999999937
0.784534534534534 	299.9999999999986 	4.193586370580996e-12 	101324.9999999937
0.7870370370370364 	299.999999999997 	3.882157553155131e-12 	101324.9999999938
0.7895395395395389 	299.9999999999927 	4.36709328939085e-12 	101324.9999999939
0.7920420420420413 	299.9999999999782 	2.846746007842093e-12 	101324.9999999939
0.794544544544544 	299.9999999999693 	4.224445885175153e-12 	101324.9999999935
0.7970470470470463 	300.0000000000003 	2.143553545347894e-12 	101324.9999999934
0.799549549549549 	299.9999999999847 	4.48200387744375e-12 	101324.9999999933
0.8020520520520515 	299.9999999999915 	2.071880459026587e-12 	101324.9999999934
0.8045545545545539 	299.9999999999592 	3.52949423196833e-12 	101324.9999999933
0.8070570570570563 	299.9999999999786 	2.406628509615724e-12 	101324.9999999934
0.8095595595595589 	299.9999999999591 	2.991375015391214e-12 	101324.9999999936
0.8120620620620614 	299.9999999999472 	3.131564957908446e-12 	101324.9999999937
0.8145645645645638 	300.0000000000026 	2.870098169712972e-12 	101324.9999999938
0.8170670670670666 	299.999999999996 	3.207210221572581e-12 	101324.9999999938
0.8195695695695689 	299.9999999999775 	2.023738500222254e-12 	101324.9999999941
0.8220720720720714 	299.9999999999529 	4.24433440278697e-12 	101324.9999999942
0.8245745745745739 	299.9999999999949 	2.820125323500154e-12 	101324.9999999941
0.8270770770770765 	299.999999999974 	4.648756063390108e-12 	101324.999999994
0.8295795795795788 	299.9999999999557 	4.08203502636313e-12 	101324.9999999941
0.8320820820820815 	300.0000000000126 	4.969155742598192e-12 	101324.9999999942
0.834584584584584 	300.000000000008 	4.262708268323866e-12 	101324.9999999944
0.8370870870870865 	299.9999999999789 	4.033615462598591e-12 	101324.9999999944
0.8395895895895891 	299.9999999999441 	4.849570899980018e-12 	101324.9999999942
0.8420920920920915 	299.9999999999479 	4.630726515849295e-12 	101324.9999999941
0.844594594594594 	299.9999999999474 	5.308418100992024e-12 	101324.9999999941
0.8470970970970964 	299.9999999999661 	5.278219171677617e-12 	101324.999999994
0.8495995995995991 	299.9999999999907 	4.896188013940927e-12 	101324.9999999941
0.8521021021021015 	299.9999999999843 	4.877616728516118e-12 	101324.9999999942
0.8546046046046039 	299.9999999999822 	4.132776667685468e-12 	101324.9999999944
0.8571071071071066 	300.0000000000013 	5.005675057978392e-12 	101324.9999999945
0.8596096096096089 	299.9999999999714 	3.174177823899829e-12 	101324.9999999946
0.8621121121121116 	299.9999999999414 	5.155087799739856e-12 	101324.9999999946
0.8646146146146139 	299.9999999999946 	3.131114798041651e-12 	101324.9999999946
0.8671171171171166 	299.999999999978 	4.227817283779986e-12 	101324.9999999947
0.8696196196196189 	299.9999999999559 	3.482499887428086e-12 	101324.9999999948
0.8721221221221216 	299.9999999999833 	4.417990628506718e-12 	101324.9999999949
0.874624624624624 	300.0000000000018 	4.407394632431084e-12 	101324.999999995
0.8771271271271264 	299.9999999999992 	4.52858254436877e-12 	101324.9999999951
0.879629629629629 	300.0000000000088 	5.668665004916099e-12 	101324.9999999949
0.8821321321321317 	299.999999999985 	4.294682656961647e-12 	101324.9999999947
0.8846346346346339 	299.9999999999378 	6.35072926181776e-12 	101324.9999999946
0.8871371371371364 	299.9999999999651 	4.622958133615319e-12 	101324.9999999946
0.8896396396396391 	299.9999999999646 	6.633503409726048e-12 	101324.9999999948
0.8921421421421414 	299.9999999999684 	5.885667955251747e-12 	101324.9999999951
0.8946446446446441 	299.9999999999854 	6.816808016188229e-12 	101324.999999995
0.8971471471471464 	299.9999999999994 	6.221830833428185e-12 	101324.9999999951
0.8996496496496489 	299.9999999999837 	5.701426984097829e-12 	101324.999999995
0.9021521521521517 	299.9999999999717 	6.525651928818034e-12 	101324.999999995
0.9046546546546541 	299.9999999999942 	5.957003528906093e-12 	101324.999999995
0.9071571571571564 	299.9999999999603 	7.018892099243294e-12 	101324.9999999949
0.9096596596596589 	299.9999999999569 	6.978564730372483e-12 	101324.9999999949
0.9121621621621616 	300.0000000000068 	7.233445797561342e-12 	101324.9999999949
0.9146646646646639 	299.9999999999812 	7.353066754255139e-12 	101324.9999999949
0.9171671671671666 	299.999999999954 	7.103377645846232e-12 	101324.9999999947
0.9196696696696689 	299.9999999999978 	7.574634586956448e-12 	101324.9999999947
0.9221721721721714 	299.9999999999968 	6.092020930456302e-12 	101324.9999999948
0.9246746746746741 	299.9999999999493 	8.646440048492055e-12 	101324.999999995
0.9271771771771765 	299.999999999958 	6.76523037515545e-12 	101324.9999999951
0.9296796796796791 	299.9999999999913 	8.617217318135602e-12 	101324.9999999953
0.9321821821821816 	299.9999999999736 	7.450929523358169e-12 	101324.9999999954
0.9346846846846838 	299.9999999999566 	8.544599310844515e-12 	101324.9999999955
0.9371871871871866 	300.0000000000078 	8.02972574396729e-12 	101324.9999999955
0.9396896896896891 	300.0000000000089 	8.160449108851078e-12 	101324.9999999955
0.9421921921921914 	300.0000000000057 	8.126478036178474e-12 	101324.9999999954
0.9446946946946939 	299.9999999999726 	6.555773280264533e-12 	101324.9999999954
0.9471971971971965 	299.9999999999359 	7.953758090553843e-12 	101324.9999999954
0.9496996996996991 	299.9999999999652 	6.041737269844267e-12 	101324.9999999955
0.9522022022022016 	299.9999999999775 	7.638417537493137e-12 	101324.9999999955
0.9547047047047038 	299.9999999999776 	6.896468141088216e-12 	101324.9999999955
0.9572072072072064 	299.9999999999692 	8.002502814142058e-12 	101324.9999999954
0.9597097097097093 	299.999999999969 	8.053707435221307e-12 	101324.9999999952
0.9622122122122114 	299.999999999967 	8.278541340949091e-12 	101324.999999995
0.964714714714714 	299.9999999999646 	9.627283801267923e-12 	101324.999999995
0.9672172172172167 	299.999999999966 	9.400361520925004e-12 	101324.9999999951
0.969719719719719 	299.9999999999916 	1.070626738442117e-11 	101324.9999999953
0.9722222222222214 	299.9999999999839 	1.076414137179973e-11 	101324.9999999953
0.9747247247247239 	299.999999999977 	1.110194377331486e-11 	101324.9999999951
0.9772272272272267 	300.0000000000009 	1.121205239003986e-11 	101324.9999999951
0.9797297297297292 	299.9999999999891 	1.122499676711444e-11 	101324.9999999953
0.9822322322322313 	299.9999999999922 	1.177165646858698e-11 	101324.9999999954
0.9847347347347344 	299.9999999999905 	1.033937881526316e-11 	101324.9999999953
0.9872372372372363 	299.999999999954 	1.262216481436294e-11 	101324.9999999954
0.9897397397397389 	299.9999999999761 	1.065857528565383e-11 	101324.9999999953
0.9922422422422417 	299.9999999999629 	1.223989280597155e-11 	101324.9999999953
0.9947447447447441 	299.9999999999653 	1.106562212657108e-11 	101324.9999999954
0.9972472472472468 	299.9999999999773 	1.216909279894723e-11 	101324.9999999955
0.999749749749749 	299.9999999999698 	1.160356265347071e-11 	101324.9999999955
1.002252252252252 	299.9999999999749 	1.196599840701604e-11 	101324.9999999956
1.004754754754754 	299.9999999999898 	1.215547641403684e-11 	101324.999999996
1.007257257257256 	299.9999999999711 	1.178366029962731e-11 	101324.9999999964
1.009759759759759 	299.9999999999632 	1.392370759169075e-11 	101324.9999999964
1.012262262262261 	299.9999999999673 	1.208291743779117e-11 	101324.9999999964
1.014764764764764 	299.999999999944 	1.381516634703731e-11 	101324.9999999962
1.017267267267267 	299.9999999999357 	1.32931327759426e-11 	101324.9999999961
1.019769769769769 	299.9999999999726 	1.44442111678469e-11 	101324.999999996
1.022272272272272 	299.9999999999828 	1.404559079995598e-11 	101324.9999999959
1.024774774774774 	299.9999999999846 	1.387764085446979e-11 	101324.9999999957
1.027277277277277 	299.99999999998 	1.487842471162156e-11 	101324.9999999953
1.029779779779779 	300.0000000000015 	1.405637921811222e-11 	101324.9999999955
1.032282282282282 	300.0000000000019 	1.463805521833759e-11 	101324.9999999954
1.034784784784784 	299.9999999999947 	1.402767123948186e-11 	101324.9999999954
1.037287287287286 	299.9999999999684 	1.454509381439165e-11 	101324.9999999956
1.039789789789789 	299.9999999999753 	1.432006622525554e-11 	101324.9999999959
1.042292292292291 	300.0000000000034 	1.407378716517406e-11 	101324.9999999961
1.044794794794794 	300.0000000000166 	1.369087647326111e-11 	101324.9999999963
1.047297297297296 	300.0000000000322 	1.248033806439665e-11 	101324.9999999964
1.049799799799799 	299.999999999994 	1.412249276682244e-11 	101324.9999999964
1.052302302302302 	299.9999999999629 	1.197576513106034e-11 	101324.9999999964
1.054804804804804 	299.9999999999485 	1.361103801831671e-11 	101324.9999999964
1.057307307307306 	299.9999999999371 	1.240906527906904e-11 	101324.9999999963
1.059809809809809 	299.9999999999634 	1.323797581417873e-11 	101324.9999999962
1.062312312312312 	299.9999999999577 	1.268492277065528e-11 	101324.9999999961
1.064814814814814 	299.9999999999548 	1.342724495650544e-11 	101324.999999996
1.067317317317317 	299.9999999999397 	1.332144207527562e-11 	101324.9999999961
1.069819819819819 	299.9999999999392 	1.344027106361081e-11 	101324.9999999963
1.072322322322321 	299.9999999999909 	1.507748370977731e-11 	101324.9999999961
1.074824824824824 	300.0000000000071 	1.301407236493633e-11 	101324.9999999961
1.077327327327327 	300.0000000000238 	1.427311453935598e-11 	101324.9999999961
1.079829829829829 	300.0000000000355 	1.31129017752898e-11 	101324.999999996
1.082332332332332 	300.0000000000018 	1.398520134939225e-11 	101324.999999996
1.084834834834834 	299.9999999999792 	1.393769888630654e-11 	101324.9999999959
1.087337337337337 	299.9999999999508 	1.44715311624956e-11 	101324.9999999961
1.089839839839839 	299.999999999942 	1.641554580060853e-11 	101324.9999999962
1.092342342342342 	299.9999999999752 	1.524480271717298e-11 	101324.9999999961
1.094844844844844 	299.9999999999739 	1.638006465410301e-11 	101324.9999999961
1.097347347347347 	299.9999999999488 	1.50646070053842e-11 	101324.9999999962
1.099849849849849 	299.9999999999355 	1.723612457995526e-11 	101324.9999999962
1.102352352352352 	299.9999999999577 	1.472560982241196e-11 	101324.9999999962
1.104854854854854 	299.9999999999779 	1.638551038619658e-11 	101324.9999999962
1.107357357357357 	299.9999999999674 	1.486762632645961e-11 	101324.9999999962
1.109859859859859 	299.9999999999607 	1.648179122832718e-11 	101324.9999999962
1.112362362362362 	300.0000000000161 	1.545248248277247e-11 	101324.9999999964
1.114864864864865 	300.0000000000163 	1.556255483370906e-11 	101324.9999999964
1.117367367367367 	299.9999999999704 	1.647790103797197e-11 	101324.9999999965
1.119869869869869 	299.9999999999393 	1.522480540189193e-11 	101324.9999999968
1.122372372372372 	299.99999999997 	1.648498281691397e-11 	101324.999999997
1.124874874874874 	299.999999999965 	1.513533652408825e-11 	101324.9999999972
1.127377377377377 	299.9999999999731 	1.590547497990853e-11 	101324.9999999974
1.129879879879879 	300.0000000000161 	1.550167402220039e-11 	101324.9999999973
1.132382382382382 	300.0000000000276 	1.63313010629881e-11 	101324.9999999973
1.134884884884884 	300.0000000000076 	1.620840028803408e-11 	101324.9999999975
1.137387387387387 	300.0000000000129 	1.590084267962237e-11 	101324.9999999976
1.139889889889889 	299.99999999997 	1.640028861503824e-11 	101324.9999999976
1.142392392392392 	299.9999999999604 	1.472363363692311e-11 	101324.9999999977
1.144894894894894 	300.0000000000121 	1.599720920446433e-11 	101324.9999999976
1.147397397397397 	299.9999999999977 	1.533418548646632e-11 	101324.9999999976
1.149899899899899 	299.9999999999507 	1.67613400479513e-11 	101324.9999999976
1.152402402402402 	299.999999999942 	1.602618430073001e-11 	101324.9999999977
1.154904904904904 	299.9999999999701 	1.642754324261398e-11 	101324.9999999978
1.157407407407407 	299.9999999999706 	1.573359114547618e-11 	101324.9999999979
1.159909909909909 	299.9999999999429 	1.598644009241488e-11 	101324.999999998
1.162412412412412 	299.9999999999361 	1.756065963699648e-11 	101324.999999998
1.164914914914914 	299.9999999999684 	1.61521640074078e-11 	101324.9999999981
1.167417417417417 	299.999999999977 	1.789946513425347e-11 	101324.9999999981
1.169919919919919 	300.0000000000144 	1.723307083938489e-11 	101324.9999999978
1.172422422422422 	300.0000000000364 	1.812929764332526e-11 	101324.9999999978
1.174924924924925 	299.9999999999942 	1.655781300774783e-11 	101324.9999999979
1.177427427427427 	299.9999999999716 	1.647431064698252e-11 	101324.9999999982
1.179929929929929 	300.0000000000133 	1.677305424936726e-11 	101324.9999999983
1.182432432432432 	300.0000000000368 	1.474392673525581e-11 	101324.9999999983
1.184934934934934 	300.0000000000064 	1.580789543446105e-11 	101324.9999999983
1.187437437437437 	299.9999999999748 	1.515912144065958e-11 	101324.9999999984
1.189939939939939 	299.9999999999634 	1.655767432543231e-11 	101324.9999999985
1.192442442442442 	299.9999999999417 	1.641657178495644e-11 	101324.9999999987
1.194944944944944 	299.9999999999456 	1.815253218309685e-11 	101324.9999999988
1.197447447447447 	299.9999999999924 	1.750985724017137e-11 	101324.9999999987
1.199949949949949 	300.0000000000095 	1.742564160220834e-11 	101324.9999999986
1.202452452452452 	299.9999999999646 	1.830469878422065e-11 	101324.9999999983
1.204954954954955 	299.9999999999586 	1.719445958105472e-11 	101324.9999999981
1.207457457457457 	299.9999999999815 	1.829430812746795e-11 	101324.9999999984
1.20995995995996 	299.9999999999789 	1.726484547491367e-11 	101324.9999999985
1.212462462462462 	299.9999999999889 	1.861132356623955e-11 	101324.9999999983
1.214964964964964 	299.9999999999886 	1.797083033101479e-11 	101324.9999999982
1.217467467467467 	299.9999999999965 	1.887884501529647e-11 	101324.9999999983
1.219969969969969 	299.9999999999761 	1.771468412310646e-11 	101324.9999999985
1.222472472472472 	300.0000000000057 	1.815102594943083e-11 	101324.9999999987
1.224974974974975 	300.0000000000389 	1.898510306839266e-11 	101324.9999999987
1.227477477477477 	299.9999999999953 	1.759335969473326e-11 	101324.9999999987
1.229979979979979 	299.9999999999833 	1.876518431700642e-11 	101324.9999999987
1.232482482482482 	299.9999999999625 	1.728633535410421e-11 	101324.9999999987
1.234984984984984 	299.9999999999633 	1.887267834827914e-11 	101324.9999999988
1.237487487487487 	299.9999999999839 	1.791707607604792e-11 	101324.9999999989
1.239989989989989 	299.9999999999869 	1.865757051017453e-11 	101324.9999999989
1.242492492492492 	300.0000000000146 	1.910570136741595e-11 	101324.9999999989
1.244994994994994 	299.9999999999851 	1.790276099335102e-11 	101324.999999999
1.247497497497497 	299.9999999999879 	1.919674967505201e-11 	101324.999999999
1.249999999999999 	300.0000000002192 	1.837529148757251e-11 	101324.999999999
