-1.25 	324.087683705084 	0.05756794956346244 	101349.0876837051
-1.247497497497497 	301.0672691008016 	0.06059270371768634 	101349.661818571
-1.244994994994995 	300.0359245140209 	0.06258746495279759 	101350.2474405114
-1.242492492492492 	300.0219846891558 	0.0628541544648826 	101350.8362168541
-1.23998998998999 	300.0223388516036 	0.06476651606316174 	101351.4110829046
-1.237487487487487 	300.0228235727352 	0.0661006929633685 	101351.9845832434
-1.234984984984985 	300.023304433081 	0.06748501045557738 	101352.5531099138
-1.232482482482482 	300.0237809587087 	0.06886819625416657 	101353.1165674629
-1.22997997997998 	300.0242531137156 	0.07023588561783214 	101353.6748597281
-1.227477477477477 	300.0247208112156 	0.07159144851362249 	101354.2278834737
-1.224974974974975 	300.0251839702633 	0.07293346913917066 	101354.7755427932
-1.222472472472472 	300.0256425039185 	0.07426220717231698 	101355.317735009
-1.21996996996997 	300.026096321624 	0.0755771831063775 	101355.8543529227
-1.217467467467467 	300.0265453339147 	0.07687824144451413 	101356.3852905207
-1.214964964964965 	300.0269894546929 	0.07816509590936956 	101356.9104461376
-1.212462462462462 	300.0274286011659 	0.07943752634669522 	101357.4297216922
-1.20995995995996 	300.0278626921562 	0.08069528958168753 	101357.9430212514
-1.207457457457457 	300.0282916481417 	0.08193815891665217 	101358.4502506457
-1.204954954954955 	300.0287153905212 	0.08316590666843057 	101358.9513167038
-1.202452452452452 	300.0291338413184 	0.08437831315331867 	101359.4461274557
-1.19994994994995 	300.0295469242135 	0.08557515772389354 	101359.9345924919
-1.197447447447447 	300.0299545634214 	0.08675622020841384 	101360.4166219959
-1.194944944944945 	300.0303566843288 	0.08792128438088408 	101360.8921277616
-1.192442442442442 	300.0307532135866 	0.08907013982579504 	101361.3610231071
-1.18993993993994 	300.0311440783555 	0.09020257840564097 	101361.8232216636
-1.187437437437437 	300.0315292069837 	0.09131839226018057 	101362.2786385558
-1.184934934934935 	300.0319085293859 	0.09241737692981113 	101362.7271911406
-1.182432432432432 	300.0322819759062 	0.09349933223280213 	101363.1687968177
-1.17992992992993 	300.0326494776126 	0.09456406140981127 	101363.6033737434
-1.177427427427427 	300.0330109680898 	0.09561137044245825 	101364.030843423
-1.174924924924925 	300.0333663812727 	0.09664106745108364 	101364.4511283683
-1.172422422422422 	300.0337156502931 	0.09765296265946337 	101364.864149908
-1.16991991991992 	300.0340587112365 	0.09864687056868142 	101365.2698308255
-1.167417417417417 	300.0343955044931 	0.09962261201985076 	101365.6680988925
-1.164914914914915 	300.0347259692192 	0.100580011573655 	101366.0588834718
-1.162412412412412 	300.03505004064 	0.1015188926831151 	101366.4421114867
-1.15990990990991 	300.0353676554765 	0.1024390775932816 	101366.8177092022
-1.157407407407407 	300.0356787582481 	0.103340394786144 	101367.1856068189
-1.154904904904904 	300.0359832987275 	0.104222685780335 	101367.5457401927
-1.152402402402403 	300.0362812236323 	0.1050857976860709 	101367.8980464012
-1.1498998998999 	300.036572474251 	0.1059295717245551 	101368.2424609194
-1.147397397397397 	300.0368569899797 	0.1067538456281431 	101368.5789174434
-1.144894894894895 	300.0371347151973 	0.107558463244283 	101368.9073512248
-1.142392392392392 	300.0374056018292 	0.1083432768340353 	101369.2277015231
-1.13988988988989 	300.0376696062615 	0.1091081441562288 	101369.5399107103
-1.137387387387387 	300.0379266858112 	0.109852929879128 	101369.8439241365
-1.134884884884885 	300.0381767947256 	0.1105775026042804 	101370.1396873965
-1.132382382382382 	300.0384198853589 	0.1112817303044379 	101370.4271466318
-1.12987987987988 	300.0386559098275 	0.1119654824161567 	101370.706248789
-1.127377377377377 	300.0388848218251 	0.112628632905714 	101370.9769415676
-1.124874874874875 	300.0391065783069 	0.113271059418149 	101371.239175246
-1.122372372372372 	300.0393211373054 	0.113892641163633 	101371.4929006572
-1.11986986986987 	300.0395284595432 	0.1144932640795336 	101371.7380710779
-1.117367367367367 	300.0397285077645 	0.1150728198561764 	101371.9746418532
-1.114864864864865 	300.0399212454155 	0.1156312009500351 	101372.2025689776
-1.112362362362362 	300.0401066381117 	0.1161683050008666 	101372.4218113878
-1.10985985985986 	300.0402846513694 	0.1166840340973714 	101372.6323281331
-1.107357357357357 	300.0404552530562 	0.117178293470083 	101372.834080634
-1.104854854854855 	300.0406184128838 	0.1176509926465688 	101373.0270326756
-1.102352352352353 	300.0407740996968 	0.1181020445694971 	101373.2111474776
-1.09984984984985 	300.0409222852891 	0.1185313669807865 	101373.3863920662
-1.097347347347347 	300.0410629424827 	0.1189388797472977 	101373.552733904
-1.094844844844845 	300.0411960455255 	0.1193245085174641 	101373.7101416358
-1.092342342342342 	300.0413215709139 	0.1196881849262415 	101373.8585881521
-1.08983983983984 	300.0414394933817 	0.1200298390141039 	101373.9980446845
-1.087337337337337 	300.041549792016 	0.1203494079739073 	101374.1284857221
-1.084834834834835 	300.0416524490161 	0.1206468354648382 	101374.2498882079
-1.082332332332332 	300.0417474429539 	0.1209220644438252 	101374.362227183
-1.07982982982983 	300.0418347554886 	0.1211750463350611 	101374.4654841416
-1.077327327327327 	300.0419143707023 	0.1214057346288037 	101374.5596409945
-1.074824824824825 	300.0419862753219 	0.1216140827606945 	101374.6446781685
-1.072322322322323 	300.0420504610609 	0.121800055849284 	101374.7205822721
-1.06981981981982 	300.0421069112127 	0.1219636198032928 	101374.7873364582
-1.067317317317317 	300.0421556074472 	0.1221047422535235 	101374.8449259491
-1.064814814814815 	300.0421965442785 	0.1222233993710273 	101374.893345266
-1.062312312312312 	300.0422297189941 	0.1223195636655905 	101374.9325839924
-1.05980980980981 	300.0422551315809 	0.122393216547948 	101374.9626345957
-1.057307307307307 	300.0422727793811 	0.122444353516081 	101374.9834955486
-1.054804804804805 	300.0422826451136 	0.1224729649086467 	101374.9951566006
-1.052302302302302 	300.0422847196846 	0.1224790460861538 	101374.9976144996
-1.0497997997998 	300.0422790086383 	0.122462594969004 	101374.9908738067
-1.047297297297297 	300.0422655179897 	0.1224235988392937 	101374.9749303426
-1.044794794794795 	300.0422442614541 	0.1223620635930308 	101374.9497896012
-1.042292292292292 	300.042215248483 	0.1222780116586789 	101374.9154636179
-1.03978978978979 	300.0421784664561 	0.1221714547296828 	101374.8719492718
-1.037287287287287 	300.0421339089738 	0.1220424185488913 	101374.819251815
-1.034784784784785 	300.0420815876018 	0.1218909403747039 	101374.7573886382
-1.032282282282283 	300.0420215116109 	0.1217170343857007 	101374.6863629748
-1.02977977977978 	300.0419537011547 	0.1215207225535712 	101374.6061861239
-1.027277277277277 	300.0418781881206 	0.1213020481696079 	101374.5168862751
-1.024774774774775 	300.041794984111 	0.1210610361189381 	101374.4184743529
-1.022272272272272 	300.0417040938919 	0.1207977189324058 	101374.3109611514
-1.01976976976977 	300.0416055354689 	0.1205121651548363 	101374.1943796682
-1.017267267267267 	300.0414993144282 	0.1202044284904145 	101374.0687488242
-1.014764764764765 	300.0413854325447 	0.1198745502329951 	101373.9340764588
-1.012262262262262 	300.0412639205034 	0.119522609820899 	101373.7903969767
-1.00975975975976 	300.0411348105209 	0.1191486859984859 	101373.6377444134
-1.007257257257257 	300.0409981147649 	0.1187528232033511 	101373.4761297408
-1.004754754754755 	300.0408538622474 	0.1183350922292031 	101373.3055817839
-1.002252252252252 	300.0407021011331 	0.1178955960216371 	101373.1261496131
-0.9997497497497498 	300.0405428570485 	0.117434402940714 	101372.93785927
-0.9972472472472473 	300.0403761423444 	0.116951569665303 	101372.7407285987
-0.9947447447447449 	300.0402019947421 	0.1164472057163616 	101372.5348067157
-0.9922422422422421 	300.0400204612807 	0.115921427494861 	101372.3201469916
-0.9897397397397399 	300.039831564533 	0.1153742975088349 	101372.0967700227
-0.9872372372372376 	300.0396353253575 	0.1148058916389722 	101371.8647009523
-0.9847347347347346 	300.0394317943256 	0.1142163608031263 	101371.6240090546
-0.9822322322322323 	300.0392210166495 	0.1136058359771129 	101371.3747554236
-0.9797297297297296 	300.0390030013862 	0.1129743595557241 	101371.116946126
-0.9772272272272275 	300.0387777832978 	0.1123220245977995 	101370.8506103969
-0.9747247247247248 	300.0385454564351 	0.1116490519111446 	101370.5758559486
-0.9722222222222224 	300.0383060678133 	0.1109555818893338 	101370.2927498204
-0.9697197197197196 	300.0380595764893 	0.1102415949711699 	101370.0012580869
-0.9672172172172175 	300.0378060175883 	0.109507217360225 	101369.7014228699
-0.9647147147147147 	300.0375455534049 	0.1087527895380975 	101369.3934203174
-0.9622122122122124 	300.0372782458759 	0.1079784309506165 	101369.0773076015
-0.9597097097097099 	300.0370040011902 	0.1071839985924709 	101368.7529752343
-0.9572072072072073 	300.0367228651202 	0.1063696882910798 	101368.4204964964
-0.9547047047047047 	300.0364350664136 	0.105536039298021 	101368.0801605042
-0.9522022022022023 	300.0361406336867 	0.1046831211577215 	101367.7320014917
-0.9496996996996998 	300.0358393767424 	0.1038105579716592 	101367.3757752267
-0.9471971971971973 	300.0355313987499 	0.1029186128868297 	101367.0115813402
-0.9446946946946947 	300.0352171104516 	0.1020081720258837 	101366.6398990342
-0.9421921921921923 	300.0348965411478 	0.1010793149142523 	101366.2607778021
-0.93968968968969 	300.0345692668735 	0.1001312393354482 	101365.8737416971
-0.9371871871871872 	300.0342352994836 	0.09916411586430081 	101365.4788217628
-0.9346846846846848 	300.0338953018157 	0.09817940792422646 	101365.0767980687
-0.9321821821821823 	300.0335495031244 	0.09717752934033481 	101364.6679198203
-0.9296796796796799 	300.0331972402076 	0.09615702092605456 	101364.2513778726
-0.9271771771771771 	300.0328382208057 	0.09511737254450517 	101363.8268146133
-0.9246746746746748 	300.0324733751065 	0.09406073725098819 	101363.3953367158
-0.9221721721721724 	300.0321034841566 	0.09298881031391362 	101362.9578877789
-0.9196696696696698 	300.0317277173198 	0.09189973363778756 	101362.5135084766
-0.9171671671671672 	300.0313448767132 	0.09079100805748358 	101362.060798042
-0.9146646646646649 	300.0309556638721 	0.08966442485709589 	101361.6005881821
-0.9121621621621623 	300.0305620275437 	0.08852435639323389 	101361.1351710077
-0.9096596596596597 	300.0301641071951 	0.08737089827032035 	101360.6646902067
-0.9071571571571573 	300.0297596529705 	0.08619886627682474 	101360.1864649226
-0.9046546546546547 	300.0293474617804 	0.0850057606230943 	101359.6990605175
-0.9021521521521524 	300.0289298351866 	0.08379713074842313 	101359.2051958397
-0.8996496496496498 	300.0285097677187 	0.08257981269828044 	101358.7084150961
-0.8971471471471473 	300.0280863808746 	0.08135148257430842 	101358.2076867819
-0.894644644644645 	300.0276555092634 	0.08010240658036168 	101357.698096762
-0.892142142142142 	300.0272154875281 	0.07882908621744542 	101357.177689002
-0.8896396396396397 	300.0267703233901 	0.07754136672837691 	101356.6512121231
-0.8871371371371374 	300.0263251385092 	0.07625130545596893 	101356.1247245768
-0.8846346346346349 	300.0258791818454 	0.07495668273196326 	101355.5973358079
-0.8821321321321324 	300.0254258213924 	0.0736414253617375 	101355.0612031676
-0.8796296296296297 	300.0249605303229 	0.07229500458245473 	101354.5109775678
-0.8771271271271271 	300.0244873582515 	0.07092777400000365 	101353.9514507189
-0.8746246246246248 	300.0240153230092 	0.06956179199885945 	101353.3932828001
-0.8721221221221224 	300.0235480655743 	0.06820553796267177 	101352.8407708482
-0.8696196196196196 	300.0230786956417 	0.06684161613114804 	101352.2857610759
-0.8671171171171175 	300.0225964703222 	0.06544354904862043 	101351.7155520489
-0.8646146146146148 	300.022098685793 	0.06400518316188482 	101351.1269538449
-0.8621121121121121 	300.0215948629116 	0.06255075059636417 	101350.5312285206
-0.8596096096096097 	300.0210980399142 	0.06111288316769163 	101349.9437887422
-0.857107107107107 	300.0206115598141 	0.05969953341833173 	101349.3685777578
-0.8546046046046049 	300.0201247146299 	0.05828321563088437 	101348.7929277679
-0.8521021021021022 	300.0196220035791 	0.05682462145881961 	101348.1985137252
-0.8495995995995997 	300.0190976370563 	0.05530947277226379 	101347.5785002921
-0.8470970970970974 	300.0185618795903 	0.05376451724804365 	101346.9450325252
-0.8445945945945946 	300.0180331648912 	0.05223723210192463 	101346.3199049926
-0.8420920920920922 	300.0175226624173 	0.05075619053642932 	101345.7163142336
-0.8395895895895897 	300.0170244712487 	0.04930573984671993 	101345.1272723251
-0.8370870870870872 	300.016519502278 	0.04783602337051033 	101344.5302057021
-0.8345845845845846 	300.0159898343905 	0.04630038711368046 	101343.9039324402
-0.8320820820820823 	300.0154324793793 	0.04469136619038894 	101343.244932102
-0.8295795795795798 	300.0148623542477 	0.04304847487936449 	101342.5708506431
-0.8270770770770772 	300.0143024471498 	0.04143245616551849 	101341.9088668322
-0.8245745745745746 	300.0137684056789 	0.03988470432198514 	101341.2774712132
-0.8220720720720721 	300.0132581889957 	0.038399671710416 	101340.6742380386
-0.8195695695695699 	300.0127531068599 	0.03692730626471023 	101340.0770620792
-0.817067067067067 	300.0122288037137 	0.03540226844783574 	101339.4571495962
-0.8145645645645651 	300.011669191075 	0.03378140267439459 	101338.7954892895
-0.8120620620620621 	300.0110755083719 	0.03206823988570331 	101338.0935593542
-0.8095595595595597 	300.010465947074 	0.03031210385648966 	101337.3728762991
-0.8070570570570572 	300.0098665566266 	0.02858374326831941 	101336.6642384629
-0.8045545545545546 	300.0092987027826 	0.02694146329820728 	101335.9928982581
-0.8020520520520523 	300.0087695089159 	0.02540487799296846 	101335.3672655481
-0.7995495495495494 	300.0082691637706 	0.02394713965875942 	101334.7757300569
-0.7970470470470474 	300.007775234602 	0.02250633722028128 	101334.191764678
-0.7945445445445446 	300.0072611454417 	0.02100873945128201 	101333.5839505211
-0.7920420420420423 	300.0067051716807 	0.01939389252132944 	101332.9266102164
-0.7895395395395397 	300.0060971281063 	0.01763344873139804 	101332.2077124434
-0.7870370370370371 	300.0054411998451 	0.01573919953627214 	101331.4322156209
-0.7845345345345348 	300.0047546270827 	0.0137594678467919 	101330.6205099113
-0.7820320320320323 	300.0040630648876 	0.0117662351434861 	101329.8029293035
-0.7795295295295296 	300.0033943008026 	0.00983787626780711 	101329.0123240321
-0.7770270270270272 	300.0027726155688 	0.00804360451448671 	101328.2773947466
-0.7745245245245247 	300.0022155539528 	0.006434000180153764 	101327.618877082
-0.7720220220220222 	300.0017330242565 	0.005038009178426815 	101327.0484785238
-0.7695195195195199 	300.0013278958409 	0.003864424972902718 	101326.5695859312
-0.767017017017017 	300.0009974191019 	0.002905836737289089 	101326.1789445602
-0.7645145145145147 	300.0007349535664 	0.002143526207159515 	101325.8687013615
-0.7620120120120122 	300.0005316363001 	0.001552241350175261 	101325.628377181
-0.7595095095095097 	300.0003777736216 	0.001104207689976576 	101325.4465117667
-0.7570070070070072 	300.0002638669546 	0.0007721046675504939 	101325.3118759941
-0.7545045045045048 	300.0001812727003 	0.0005309973236480069 	101325.2142521124
-0.7520020020020022 	300.0001225505086 	0.0003593686896504615 	101325.1448451378
-0.7494994994994997 	300.000081575456 	0.0002394670269916284 	101325.0964149784
-0.7469969969969972 	300.0000534905954 	0.0001571883036431029 	101325.0632205874
-0.7444944944944945 	300.0000345673848 	0.0001016861561959154 	101325.0408548986
-0.7419919919919924 	300.0000220248453 	6.485689117660032e-05 	101325.0260307693
-0.7394894894894897 	300.0000138417089 	4.080161054592669e-05 	101325.0163591703
-0.7369869869869872 	300.0000085834673 	2.53273016029429e-05 	101325.0101444964
-0.7344844844844846 	300.0000052539055 	1.551832510328868e-05 	101325.0062093829
-0.7319819819819822 	300.0000031754166 	9.388366674391454e-06 	101325.003752839
-0.7294794794794797 	300.0000018955934 	5.60997701712439e-06 	101325.0022402765
-0.7269769769769773 	300.0000011180303 	3.311977385040814e-06 	101325.0013213031
-0.7244744744744747 	300.0000006516981 	1.932372007935244e-06 	101325.0007701658
-0.721971971971972 	300.000000375473 	1.114518593506951e-06 	101325.0004437746
-0.7194694694694695 	300.0000002139335 	6.356037544035753e-07 	101325.0002528403
-0.7169669669669674 	300.0000001205099 	3.585035041693512e-07 	101325.0001424749
-0.7144644644644647 	300.0000000671862 	2.000356457520356e-07 	101325.0000794211
-0.711961961961962 	300.0000000370808 	1.104391034869118e-07 	101325.0000438056
-0.7094594594594597 	300.0000000202561 	6.034421521392855e-08 	101325.0000239112
-0.7069569569569573 	300.0000000109566 	3.263710806077756e-08 	101325.0000129187
-0.7044544544544545 	300.000000005876 	1.747735673133449e-08 	101325.0000069093
-0.7019519519519523 	300.0000000031093 	9.267588364076358e-09 	101325.0000036582
-0.6994494494494495 	300.0000000015714 	4.867613901021724e-09 	101325.0000019172
-0.6969469469469471 	300.0000000008014 	2.53194733466963e-09 	101325.0000009941
-0.6944444444444446 	300.0000000004054 	1.304950247233949e-09 	101325.0000005092
-0.6919419419419421 	300.0000000002487 	6.662244179539029e-10 	101325.0000002571
-0.6894394394394396 	300.0000000001093 	3.376695867053731e-10 	101325.0000001272
-0.6869369369369374 	300.0000000000625 	1.689182363545211e-10 	101325.0000000609
-0.6844344344344344 	300.0000000000422 	8.457691977428377e-11 	101325.0000000272
-0.6819319319319321 	299.9999999999765 	4.143792409561479e-11 	101325.0000000105
-0.6794294294294296 	299.9999999999578 	2.009867836019778e-11 	101325.0000000022
-0.6769269269269272 	299.9999999999309 	9.397634114378057e-12 	101324.9999999985
-0.6744244244244245 	299.9999999999726 	4.341199921179693e-12 	101324.9999999966
-0.6719219219219222 	299.9999999999624 	1.913639451538381e-12 	101324.9999999957
-0.6694194194194195 	299.9999999999922 	1.249455963010815e-12 	101324.9999999952
-0.6669169169169172 	300.0000000000092 	9.182523914520147e-13 	101324.999999995
-0.6644144144144146 	299.9999999999713 	1.998243967386641e-12 	101324.9999999949
-0.661911911911912 	299.9999999999752 	1.644497722872142e-12 	101324.9999999948
-0.6594094094094097 	299.9999999999822 	2.838573683135859e-12 	101324.9999999947
-0.656906906906907 	299.999999999952 	2.4538746995362e-12 	101324.9999999945
-0.6544044044044046 	299.9999999999573 	4.383484371598942e-12 	101324.9999999942
-0.6519019019019021 	299.9999999999858 	2.865171196435618e-12 	101324.9999999944
-0.6493993993993996 	300.0000000000193 	4.706229710125781e-12 	101324.9999999945
-0.6468968968968971 	300.0000000000287 	1.746020479079023e-12 	101324.9999999946
-0.6443943943943946 	299.9999999999953 	3.394025756844742e-12 	101324.9999999945
-0.6418918918918921 	299.9999999999971 	1.589731013288879e-12 	101324.9999999945
-0.6393893893893897 	300.000000000002 	1.195275691627394e-12 	101324.9999999946
-0.6368868868868871 	299.9999999999822 	1.701615551684097e-12 	101324.9999999947
-0.6343843843843846 	299.999999999993 	1.330157169831245e-12 	101324.9999999945
-0.6318818818818821 	299.9999999999604 	2.190542043112566e-12 	101324.9999999944
-0.6293793793793795 	300.0000000000037 	2.377397022782257e-12 	101324.9999999945
-0.6268768768768773 	300.0000000000163 	1.564030675182721e-12 	101324.9999999947
-0.6243743743743745 	299.9999999999824 	1.286791876563434e-12 	101324.999999995
-0.6218718718718721 	300.0000000000044 	1.335425821003249e-12 	101324.9999999953
-0.6193693693693696 	299.9999999999513 	6.15197707288667e-13 	101324.9999999954
-0.6168668668668671 	299.9999999999886 	2.161160437610785e-12 	101324.9999999955
-0.6143643643643645 	300.0000000000121 	1.086803183946627e-12 	101324.9999999954
-0.6118618618618621 	299.9999999999879 	1.416065234660801e-12 	101324.9999999953
-0.6093593593593596 	299.9999999999877 	4.777511352326918e-13 	101324.9999999953
-0.6068568568568571 	299.999999999989 	8.906061702753164e-13 	101324.9999999954
-0.6043543543543546 	299.9999999999609 	4.882476674972044e-13 	101324.9999999952
-0.6018518518518521 	299.9999999999731 	1.058755854868859e-12 	101324.9999999948
-0.5993493493493496 	299.9999999999567 	6.080795780140017e-13 	101324.9999999947
-0.5968468468468471 	299.9999999999648 	1.488731664245073e-12 	101324.9999999947
-0.5943443443443446 	299.9999999999957 	1.107927252216145e-12 	101324.9999999943
-0.591841841841842 	299.9999999999652 	2.461072195226533e-12 	101324.9999999941
-0.5893393393393397 	299.9999999999575 	1.269274540633367e-12 	101324.9999999944
-0.5868368368368371 	299.9999999999972 	2.589388117711947e-12 	101324.9999999947
-0.5843343343343346 	300.0000000000099 	2.338014679545274e-12 	101324.9999999946
-0.5818318318318321 	300.0000000000271 	2.525668479212965e-12 	101324.9999999944
-0.5793293293293297 	299.9999999999893 	2.454421120263706e-12 	101324.9999999943
-0.5768268268268271 	299.9999999999991 	1.587349750728e-12 	101324.9999999943
-0.5743243243243245 	300.0000000000165 	1.488024243563883e-12 	101324.9999999942
-0.5718218218218221 	300.0000000000144 	1.014128388632371e-12 	101324.999999994
-0.5693193193193196 	300.0000000000339 	3.202948734280667e-13 	101324.999999994
-0.5668168168168171 	299.9999999999856 	3.161123683137215e-13 	101324.999999994
-0.5643143143143147 	299.9999999999567 	1.043116572692708e-12 	101324.999999994
-0.5618118118118121 	300.0000000000089 	4.391909352580878e-13 	101324.9999999942
-0.5593093093093094 	300.0000000000258 	1.032736080153169e-12 	101324.9999999942
-0.5568068068068072 	300.0000000000148 	1.098485344757502e-12 	101324.9999999944
-0.5543043043043046 	300.0000000000149 	6.877983268025104e-13 	101324.9999999942
-0.551801801801802 	299.999999999963 	1.240557310626766e-12 	101324.9999999942
-0.5492992992992995 	299.9999999999952 	7.715243982540328e-13 	101324.9999999942
-0.5467967967967969 	300.0000000000081 	1.12126258348719e-12 	101324.9999999941
-0.5442942942942947 	300.0000000000009 	8.754449137332083e-13 	101324.9999999941
-0.5417917917917919 	299.999999999964 	2.353472124744894e-12 	101324.9999999942
-0.5392892892892895 	299.9999999999454 	1.080910789800992e-12 	101324.9999999943
-0.536786786786787 	299.9999999999654 	2.480504358123231e-12 	101324.9999999941
-0.5342842842842846 	299.9999999999715 	1.105611954294897e-12 	101324.9999999937
-0.531781781781782 	299.9999999999529 	1.925143456856022e-12 	101324.9999999936
-0.5292792792792794 	299.9999999999474 	3.203926802410574e-12 	101324.9999999935
-0.526776776776777 	299.9999999999271 	1.946209579638617e-12 	101324.9999999934
-0.5242742742742745 	299.9999999999795 	4.994216853294284e-12 	101324.9999999935
-0.521771771771772 	300.0000000000091 	3.562613389622946e-12 	101324.9999999937
-0.5192692692692695 	299.9999999999674 	5.364346731295489e-12 	101324.9999999939
-0.516766766766767 	300.000000000002 	3.960757492180933e-12 	101324.999999994
-0.5142642642642645 	299.9999999999804 	4.403582315590111e-12 	101324.9999999942
-0.511761761761762 	299.9999999999623 	3.680319283295335e-12 	101324.9999999943
-0.5092592592592596 	299.999999999976 	3.307909603247495e-12 	101324.9999999945
-0.506756756756757 	299.999999999952 	3.146333241025223e-12 	101324.9999999942
-0.5042542542542544 	299.9999999999953 	2.509966909140835e-12 	101324.999999994
-0.5017517517517521 	300.0000000000219 	2.406721086897332e-12 	101324.9999999939
-0.4992492492492494 	300.0000000000239 	1.633868573806704e-12 	101324.9999999937
-0.496746746746747 	299.9999999999923 	2.018502253125905e-12 	101324.9999999936
-0.4942442442442445 	299.9999999999575 	1.371311659115515e-12 	101324.9999999938
-0.4917417417417421 	299.9999999999538 	1.637188692624177e-12 	101324.999999994
-0.4892392392392395 	299.9999999999693 	1.230145416403975e-12 	101324.999999994
-0.486736736736737 	299.9999999999658 	1.766536510095056e-12 	101324.9999999938
-0.4842342342342345 	299.9999999999366 	1.612267968130558e-12 	101324.9999999937
-0.481731731731732 	300.0000000000276 	2.31584290784294e-12 	101324.9999999937
-0.4792292292292296 	300.0000000000173 	1.482050529734377e-12 	101324.9999999937
-0.4767267267267268 	299.9999999999677 	3.366126986757409e-12 	101324.9999999937
-0.4742242242242246 	300.0000000000002 	1.432885130281078e-12 	101324.9999999937
-0.471721721721722 	299.9999999999646 	3.88434013484481e-12 	101324.9999999937
-0.4692192192192195 	299.9999999999766 	1.339676478868008e-12 	101324.9999999935
-0.4667167167167169 	299.999999999927 	2.246672412501792e-12 	101324.9999999935
-0.4642142142142145 	299.9999999999958 	1.195104001352301e-12 	101324.9999999938
-0.461711711711712 	300.000000000014 	2.364885728541695e-12 	101324.9999999941
-0.4592092092092094 	300.0000000000081 	6.849161509378496e-13 	101324.999999994
-0.456706706706707 	300.0000000000393 	2.454538254799456e-12 	101324.999999994
-0.4542042042042045 	299.9999999999525 	1.906073728086906e-12 	101324.9999999941
-0.451701701701702 	299.9999999999619 	3.320356412904826e-12 	101324.999999994
-0.4491991991991995 	299.9999999999688 	1.975729916903096e-12 	101324.9999999937
-0.4466966966966969 	299.9999999999663 	3.26329722122683e-12 	101324.9999999937
-0.4441941941941945 	299.9999999999928 	1.231585064265225e-12 	101324.9999999939
-0.441691691691692 	299.9999999999657 	3.235044800163927e-12 	101324.9999999939
-0.4391891891891895 	299.9999999999868 	1.411215569434177e-12 	101324.9999999937
-0.436686686686687 	299.9999999999717 	3.718422340190861e-12 	101324.9999999935
-0.4341841841841846 	299.9999999999962 	2.178970430628178e-12 	101324.9999999935
-0.431681681681682 	299.9999999999594 	3.204849957981441e-12 	101324.9999999935
-0.4291791791791794 	299.9999999999321 	1.340926664075304e-12 	101324.9999999936
-0.426676676676677 	299.9999999999388 	2.327816074469769e-12 	101324.9999999935
-0.4241741741741744 	299.9999999999748 	1.536546405415489e-12 	101324.9999999936
-0.421671671671672 	299.9999999999998 	1.611379341161379e-12 	101324.9999999933
-0.4191691691691694 	300.0000000000344 	1.06604374632336e-12 	101324.9999999932
-0.4166666666666669 	300.0000000000401 	1.020361778734042e-12 	101324.999999993
-0.4141641641641645 	299.9999999999517 	5.62438753628923e-13 	101324.9999999929
-0.411661661661662 	300.0000000000009 	1.191625918738686e-12 	101324.999999993
-0.4091591591591594 	300.000000000008 	1.143199538648728e-12 	101324.999999993
-0.406656656656657 	299.9999999999602 	2.314407374407892e-12 	101324.9999999932
-0.4041541541541545 	300.0000000000128 	6.978347554746454e-13 	101324.9999999931
-0.401651651651652 	299.9999999999408 	2.845940023056068e-12 	101324.999999993
-0.3991491491491494 	300.0000000000032 	1.132723909533886e-12 	101324.9999999931
-0.396646646646647 	299.9999999999656 	3.45591228339607e-12 	101324.9999999932
-0.3941441441441444 	299.9999999999774 	1.689485502479157e-12 	101324.9999999933
-0.3916416416416419 	299.9999999999465 	3.572315420845383e-12 	101324.9999999933
-0.3891391391391395 	299.9999999999699 	9.367111188856512e-13 	101324.9999999933
-0.3866366366366368 	299.999999999966 	2.010823307716319e-12 	101324.9999999935
-0.3841341341341344 	300.0000000000021 	7.970029567782423e-13 	101324.9999999933
-0.381631631631632 	299.9999999999657 	1.624089902332252e-12 	101324.9999999932
-0.3791291291291294 	300.0000000000006 	1.544105698533491e-12 	101324.999999993
-0.3766266266266269 	300.0000000000141 	1.133768357573852e-12 	101324.9999999928
-0.3741241241241244 	300.0000000000148 	2.026889480240695e-12 	101324.9999999927
-0.371621621621622 	300.000000000013 	6.223243881979619e-13 	101324.9999999927
-0.3691191191191194 	300.0000000000056 	2.882349075305018e-12 	101324.9999999929
-0.366616616616617 	300.0000000000048 	1.200008068829692e-12 	101324.9999999929
-0.3641141141141143 	299.9999999999743 	3.150589024222559e-12 	101324.9999999929
-0.3616116116116119 	299.999999999957 	1.381491394284827e-12 	101324.9999999931
-0.3591091091091095 	299.9999999999873 	3.483470662167997e-12 	101324.9999999929
-0.356606606606607 	299.9999999999845 	3.346055562017675e-12 	101324.9999999929
-0.3541041041041044 	299.9999999999952 	3.613413862541268e-12 	101324.9999999931
-0.3516016016016019 	300.0000000000101 	4.125345764874902e-12 	101324.9999999934
-0.3490990990990994 	299.9999999999929 	2.753386523896916e-12 	101324.9999999932
-0.346596596596597 	300.0000000000299 	4.222893537022527e-12 	101324.9999999931
-0.3440940940940944 	300.0000000000359 	2.317096421131449e-12 	101324.999999993
-0.3415915915915919 	300.000000000018 	4.1704515010476e-12 	101324.9999999932
-0.3390890890890895 	299.9999999999852 	2.403332075600591e-12 	101324.9999999933
-0.3365865865865869 	300.000000000012 	3.779649273080132e-12 	101324.9999999932
-0.3340840840840844 	300.000000000001 	3.644269950772794e-12 	101324.9999999933
-0.3315815815815819 	300.0000000000155 	4.528975346264233e-12 	101324.9999999933
-0.3290790790790794 	300.0000000000163 	4.548191911376802e-12 	101324.9999999933
-0.3265765765765769 	299.9999999999477 	5.556472820746334e-12 	101324.9999999933
-0.3240740740740744 	299.9999999999978 	4.267588162508879e-12 	101324.9999999933
-0.3215715715715718 	300.0000000000064 	5.777743936187713e-12 	101324.999999993
-0.3190690690690695 	299.9999999999549 	4.416486793175688e-12 	101324.999999993
-0.3165665665665668 	299.999999999991 	5.848742164466364e-12 	101324.9999999928
-0.3140640640640644 	300.0000000000009 	4.073941470946887e-12 	101324.9999999928
-0.311561561561562 	299.9999999999451 	6.432570233447535e-12 	101324.9999999931
-0.3090590590590593 	299.9999999999908 	2.518319197246716e-12 	101324.9999999929
-0.3065565565565568 	300.0000000000007 	7.370797779313106e-12 	101324.9999999929
-0.3040540540540545 	299.9999999999987 	2.343550954116067e-12 	101324.9999999928
-0.3015515515515518 	300.000000000024 	6.321029873998285e-12 	101324.999999993
-0.2990490490490494 	299.9999999999619 	2.868835122745753e-12 	101324.9999999931
-0.2965465465465469 	299.9999999999943 	4.995663651027008e-12 	101324.9999999933
-0.2940440440440444 	299.9999999999999 	4.549595609172603e-12 	101324.9999999936
-0.2915415415415418 	300.0000000000065 	5.517453797303461e-12 	101324.9999999933
-0.2890390390390395 	300.0000000000063 	5.541333634151893e-12 	101324.9999999934
-0.2865365365365368 	299.9999999999863 	4.585297311298772e-12 	101324.9999999934
-0.2840340340340343 	299.999999999991 	6.1622107718299e-12 	101324.9999999931
-0.2815315315315318 	299.9999999999451 	3.709202203308836e-12 	101324.9999999927
-0.2790290290290295 	299.9999999999663 	4.655720047613395e-12 	101324.9999999928
-0.2765265265265269 	300.0000000000058 	2.923399335793096e-12 	101324.9999999931
-0.2740240240240244 	300.0000000000194 	2.980388526042949e-12 	101324.9999999931
-0.2715215215215219 	300.0000000000084 	3.039599792739049e-12 	101324.999999993
-0.2690190190190194 	299.9999999999538 	3.36227871031517e-12 	101324.9999999931
-0.2665165165165169 	299.9999999999987 	4.51062099246098e-12 	101324.9999999932
-0.2640140140140144 	299.9999999999788 	3.73204936456945e-12 	101324.9999999931
-0.2615115115115119 	300.0000000000002 	5.760577139636998e-12 	101324.9999999934
-0.2590090090090094 	299.9999999999472 	3.360901235627216e-12 	101324.9999999936
-0.2565065065065068 	299.999999999993 	4.03974372674996e-12 	101324.9999999936
-0.2540040040040044 	299.9999999999965 	3.666091698979705e-12 	101324.9999999934
-0.2515015015015019 	300.0000000000294 	3.371219536882395e-12 	101324.9999999933
-0.2489989989989994 	300.000000000033 	4.870530857733667e-12 	101324.9999999934
-0.2464964964964968 	299.9999999999907 	2.74209312444508e-12 	101324.9999999935
-0.2439939939939944 	299.9999999999966 	6.022790309987036e-12 	101324.9999999935
-0.2414914914914919 	299.9999999999782 	2.901141279494255e-12 	101324.9999999934
-0.2389889889889893 	300.0000000000018 	6.420028917484054e-12 	101324.9999999932
-0.2364864864864869 	300.0000000000164 	3.648698266373777e-12 	101324.9999999931
-0.2339839839839843 	299.9999999999507 	7.632867500774906e-12 	101324.9999999933
-0.2314814814814819 	299.999999999989 	3.942444269773173e-12 	101324.9999999935
-0.2289789789789792 	299.9999999999408 	6.756287137045165e-12 	101324.9999999936
-0.2264764764764769 	299.9999999999595 	4.833045881372124e-12 	101324.9999999934
-0.2239739739739743 	299.9999999999673 	6.138507719720069e-12 	101324.9999999933
-0.2214714714714718 	299.9999999999526 	5.297622645397932e-12 	101324.9999999935
-0.2189689689689693 	299.9999999999762 	3.873838751263997e-12 	101324.9999999933
-0.2164664664664669 	299.9999999999833 	5.063678730009271e-12 	101324.9999999933
-0.2139639639639643 	299.9999999999465 	2.93927290092604e-12 	101324.9999999932
-0.2114614614614618 	299.9999999999813 	4.30410586016208e-12 	101324.9999999927
-0.2089589589589593 	299.9999999999939 	4.220698218253382e-12 	101324.9999999929
-0.2064564564564568 	299.9999999999947 	4.70341333057071e-12 	101324.9999999933
-0.2039539539539543 	299.9999999999386 	6.620304365303267e-12 	101324.9999999932
-0.2014514514514518 	299.9999999999555 	5.585838411658856e-12 	101324.9999999926
-0.1989489489489494 	299.9999999999795 	8.271667165169412e-12 	101324.9999999927
-0.1964464464464468 	299.9999999999903 	4.426517847937053e-12 	101324.9999999926
-0.1939439439439443 	299.999999999992 	7.189358085463282e-12 	101324.9999999929
-0.1914414414414418 	299.9999999999386 	5.412731933684186e-12 	101324.9999999929
-0.1889389389389393 	300.0000000000055 	6.074392993963378e-12 	101324.9999999932
-0.1864364364364368 	300.0000000000302 	5.010553253472878e-12 	101324.9999999932
-0.1839339339339343 	299.9999999999794 	5.306909899917482e-12 	101324.9999999931
-0.1814314314314318 	299.9999999999977 	4.675633065198539e-12 	101324.9999999933
-0.1789289289289293 	299.9999999999293 	4.501416087323454e-12 	101324.9999999929
-0.1764264264264268 	299.9999999999811 	3.067239781582265e-12 	101324.9999999935
-0.1739239239239243 	299.9999999999299 	4.145991829225826e-12 	101324.9999999937
-0.1714214214214218 	299.9999999999886 	1.715245348146574e-12 	101324.9999999938
-0.1689189189189193 	299.9999999999618 	4.836254777386185e-12 	101324.9999999941
-0.1664164164164168 	299.9999999999991 	1.005886201748033e-12 	101324.9999999941
-0.1639139139139143 	299.999999999991 	6.992972769359314e-12 	101324.9999999943
-0.1614114114114118 	300.0000000000242 	8.637849529990163e-13 	101324.9999999938
-0.1589089089089093 	299.999999999998 	9.218645021435535e-12 	101324.9999999937
-0.1564064064064068 	299.9999999999835 	1.594150582974127e-12 	101324.9999999934
-0.1539039039039043 	299.9999999999945 	9.607751120260455e-12 	101324.9999999933
-0.1514014014014018 	300.0000000000194 	8.653372133554225e-13 	101324.9999999935
-0.1488988988988993 	299.9999999999919 	8.776655165415959e-12 	101324.9999999936
-0.1463963963963968 	300.0000000000015 	9.197388475130922e-13 	101324.9999999937
-0.1438938938938943 	299.9999999999695 	6.679096925588367e-12 	101324.9999999938
-0.1413913913913918 	299.9999999999398 	1.885156431137019e-12 	101324.9999999935
-0.1388888888888893 	299.9999999999818 	5.397617212236847e-12 	101324.9999999934
-0.1363863863863868 	299.9999999999255 	2.665535276322237e-12 	101324.9999999935
-0.1338838838838843 	299.9999999999421 	4.001700711112662e-12 	101324.9999999936
-0.1313813813813818 	299.9999999999885 	1.899158138794939e-12 	101324.9999999935
-0.1288788788788793 	299.9999999999702 	3.097107138054536e-12 	101324.9999999935
-0.1263763763763768 	299.9999999999749 	1.257040278132536e-12 	101324.9999999936
-0.1238738738738743 	299.9999999999428 	2.867950683444013e-12 	101324.9999999936
-0.1213713713713717 	299.9999999999807 	3.428486326644578e-13 	101324.9999999936
-0.1188688688688693 	300.0000000000084 	4.065627550196626e-12 	101324.9999999938
-0.1163663663663668 	299.9999999999306 	9.832436400629852e-13 	101324.9999999936
-0.1138638638638643 	299.9999999999912 	4.657385125529538e-12 	101324.9999999937
-0.1113613613613618 	299.9999999999917 	6.594233071669609e-13 	101324.9999999936
-0.1088588588588592 	299.999999999982 	4.644725687713354e-12 	101324.9999999934
-0.1063563563563568 	299.9999999999613 	2.425376946378926e-13 	101324.9999999933
-0.1038538538538543 	299.9999999999825 	4.179810969720854e-12 	101324.9999999933
-0.1013513513513517 	300.0000000000103 	1.147487741700886e-12 	101324.9999999934
-0.09884884884884926 	299.9999999999584 	3.841450560701689e-12 	101324.9999999933
-0.09634634634634676 	299.9999999999253 	1.374276324457247e-12 	101324.9999999934
-0.09384384384384425 	299.999999999944 	1.932598190554095e-12 	101324.9999999934
-0.09134134134134177 	300.0000000000181 	6.867357708318368e-13 	101324.9999999935
-0.08883883883883925 	300.0000000000044 	1.692582239435165e-12 	101324.9999999936
-0.08633633633633674 	299.9999999999653 	1.217120316671942e-12 	101324.9999999936
-0.08383383383383426 	300.0000000000067 	1.062295058362182e-12 	101324.999999994
-0.08133133133133173 	299.9999999999715 	1.161513468345996e-12 	101324.9999999938
-0.07882882882882926 	299.9999999999132 	6.63224972110551e-13 	101324.9999999937
-0.07632632632632676 	299.9999999999702 	7.299916004006014e-13 	101324.9999999937
-0.07382382382382424 	299.999999999925 	8.828357661102069e-13 	101324.9999999937
-0.07132132132132173 	300.0000000000065 	4.975897087525916e-13 	101324.9999999936
-0.06881881881881925 	299.9999999999641 	8.584473189943733e-13 	101324.9999999935
-0.06631631631631671 	299.9999999999188 	4.378713715541191e-13 	101324.9999999936
-0.06381381381381425 	299.9999999999701 	5.645954298963874e-13 	101324.9999999936
-0.06131131131131173 	299.9999999999716 	9.7496355510871e-13 	101324.9999999937
-0.05880880880880923 	299.999999999938 	1.062328199093069e-12 	101324.9999999939
-0.05630630630630672 	299.9999999999781 	1.273389142956935e-12 	101324.9999999936
-0.05380380380380424 	300.0000000000108 	1.439133745795998e-12 	101324.9999999935
-0.05130130130130173 	300.0000000000072 	2.345760492505124e-12 	101324.9999999937
-0.04879879879879922 	299.9999999999556 	2.393041752471349e-12 	101324.9999999934
-0.04629629629629672 	299.9999999999511 	1.897348588574846e-12 	101324.9999999933
-0.04379379379379422 	299.9999999999394 	1.319361622868835e-12 	101324.9999999934
-0.04129129129129173 	299.9999999999864 	1.076265380840466e-12 	101324.9999999935
-0.03878878878878922 	299.9999999999868 	1.384086745833336e-12 	101324.9999999932
-0.03628628628628671 	299.9999999999857 	6.799307530144495e-13 	101324.9999999934
-0.03378378378378422 	299.9999999999474 	1.549520506066187e-13 	101324.9999999937
-0.03128128128128172 	299.9999999999755 	5.197908421824203e-13 	101324.9999999937
-0.02877877877877922 	299.9999999999757 	1.863820024152846e-13 	101324.9999999937
-0.0262762762762767 	299.9999999999273 	9.677048925536509e-14 	101324.9999999938
-0.02377377377377422 	300.0000000000106 	2.360338708537783e-13 	101324.999999994
-0.0212712712712717 	299.9999999999299 	1.631829957999754e-13 	101324.999999994
-0.01876876876876921 	299.9999999999828 	3.7370250760833e-13 	101324.9999999939
-0.01626626626626671 	300.000000000011 	5.382562034404135e-13 	101324.9999999942
-0.0137637637637642 	299.9999999999743 	9.623107653027038e-13 	101324.9999999942
-0.0112612612612617 	300.0000000000127 	1.106956662786405e-12 	101324.9999999944
-0.008758758758759198 	299.9999999999966 	6.874851045932622e-13 	101324.9999999944
-0.006256256256256697 	299.9999999999169 	1.50231648328104e-13 	101324.999999994
-0.003753753753754195 	299.9999999999655 	9.159829630934437e-14 	101324.9999999936
-0.001251251251251693 	299.9999999999488 	5.540054681139497e-13 	101324.9999999933
0.00125125125125081 	299.9999999999617 	5.117216005993214e-13 	101324.9999999931
0.003753753753753312 	299.9999999999712 	6.059667728160815e-13 	101324.9999999933
0.006256256256255817 	299.9999999999213 	1.498761143212211e-13 	101324.9999999936
0.008758758758758317 	299.9999999999978 	2.588932571451739e-13 	101324.9999999936
0.01126126126126082 	300.0000000000071 	3.232456522354907e-13 	101324.9999999936
0.01376376376376332 	299.999999999976 	3.130829439656083e-13 	101324.9999999935
0.01626626626626582 	300.0000000000092 	2.157680143045985e-13 	101324.9999999933
0.01876876876876833 	299.9999999999595 	5.115083911359186e-14 	101324.9999999931
0.02127127127127083 	299.9999999999752 	1.038737067682794e-12 	101324.999999993
0.02377377377377332 	299.9999999999966 	1.141713571942442e-12 	101324.999999993
0.02627627627627583 	299.9999999999289 	2.126213824851088e-12 	101324.9999999934
0.02877877877877833 	300.0000000000108 	2.421279422025562e-12 	101324.9999999938
0.03128128128128083 	299.9999999999575 	1.76884967234627e-12 	101324.9999999938
0.03378378378378333 	299.9999999999282 	2.202956100145605e-12 	101324.9999999935
0.03628628628628584 	299.9999999999746 	2.229475604258629e-12 	101324.9999999933
0.03878878878878834 	299.9999999999874 	2.077595068867207e-12 	101324.9999999935
0.04129129129129084 	299.9999999999861 	1.527918715004979e-12 	101324.9999999934
0.04379379379379333 	299.9999999999619 	1.306884939725165e-12 	101324.9999999935
0.04629629629629585 	299.9999999999198 	9.460893456738562e-13 	101324.9999999933
0.04879879879879834 	299.9999999999703 	1.119983396349528e-12 	101324.9999999932
0.05130130130130085 	300.0000000000076 	1.129564725970081e-12 	101324.999999993
0.05380380380380335 	300.0000000000092 	1.309948667666774e-12 	101324.9999999931
0.05630630630630584 	299.9999999999973 	1.58895841849785e-12 	101324.9999999934
0.05880880880880836 	299.999999999944 	1.679848404845087e-12 	101324.9999999936
0.06131131131131085 	299.9999999999764 	1.790519647510272e-12 	101324.9999999934
0.06381381381381336 	299.9999999999745 	1.842679836264568e-12 	101324.9999999933
0.06631631631631586 	299.9999999999176 	1.670555602772021e-12 	101324.999999993
0.06881881881881835 	299.9999999999654 	1.830027832360832e-12 	101324.9999999931
0.07132132132132088 	299.9999999999932 	1.645760102364511e-12 	101324.999999993
0.07382382382382337 	299.9999999999287 	2.548636367143186e-12 	101324.9999999935
0.07632632632632587 	299.999999999975 	3.271977849030801e-12 	101324.9999999936
0.07882882882882837 	299.9999999999515 	3.82130731982262e-12 	101324.9999999937
0.08133133133133086 	299.9999999999836 	3.846897757451016e-12 	101324.999999994
0.08383383383383337 	299.9999999999907 	3.073224937714535e-12 	101324.9999999937
0.08633633633633589 	299.9999999999345 	2.798357908447777e-12 	101324.9999999938
0.08883883883883838 	300.0000000000014 	3.669343125815045e-12 	101324.999999994
0.09134134134134086 	299.9999999999786 	3.440942804372284e-12 	101324.9999999937
0.09384384384384339 	299.9999999999229 	4.145927655908215e-12 	101324.9999999939
0.09634634634634588 	299.9999999999747 	3.98746374675126e-12 	101324.9999999937
0.09884884884884838 	299.9999999999823 	4.137650041167162e-12 	101324.9999999937
0.1013513513513509 	300.0000000000143 	3.344173195468494e-12 	101324.9999999933
0.1038538538538534 	299.9999999999668 	2.65294557976359e-12 	101324.9999999935
0.1063563563563559 	300.0000000000027 	3.811732853920224e-12 	101324.9999999936
0.1088588588588584 	300.0000000000242 	4.242100320992455e-12 	101324.9999999937
0.1113613613613609 	299.9999999999467 	4.942615918479547e-12 	101324.9999999938
0.1138638638638634 	299.999999999958 	5.065328602285213e-12 	101324.9999999937
0.1163663663663659 	299.9999999999621 	4.362616147834702e-12 	101324.9999999939
0.1188688688688684 	299.9999999999858 	3.6268676565234e-12 	101324.9999999935
0.1213713713713709 	299.9999999999985 	3.230427395219504e-12 	101324.9999999935
0.1238738738738734 	299.9999999999428 	3.398980748686508e-12 	101324.9999999938
0.1263763763763759 	299.9999999999866 	3.027145002698305e-12 	101324.9999999936
0.1288788788788784 	299.9999999999876 	2.469165036929163e-12 	101324.9999999938
0.1313813813813809 	299.9999999999868 	2.048437462235611e-12 	101324.9999999939
0.1338838838838834 	299.9999999999798 	2.12795382770812e-12 	101324.9999999935
0.1363863863863859 	300.0000000000118 	2.36362262263474e-12 	101324.9999999937
0.1388888888888884 	300.0000000000346 	2.514542898263253e-12 	101324.9999999936
0.1413913913913909 	300.000000000001 	2.853890404318934e-12 	101324.9999999935
0.1438938938938934 	299.999999999991 	3.521737647292536e-12 	101324.9999999934
0.1463963963963959 	299.9999999999615 	2.4656027924483e-12 	101324.9999999931
0.1488988988988985 	299.9999999999329 	3.55664775266136e-12 	101324.9999999932
0.1514014014014009 	299.9999999999728 	1.905335853715258e-12 	101324.9999999931
0.1539039039039035 	299.9999999999716 	3.707675250035608e-12 	101324.9999999928
0.1564064064064059 	299.9999999999554 	1.955920290868601e-12 	101324.9999999928
0.1589089089089084 	299.9999999999871 	5.535415111464718e-12 	101324.9999999928
0.1614114114114109 	299.9999999999837 	3.296473938971546e-12 	101324.999999993
0.1639139139139134 	299.9999999999296 	5.210587090179449e-12 	101324.9999999931
0.166416416416416 	300.0000000000018 	4.227665495979291e-12 	101324.9999999934
0.1689189189189185 	300.000000000019 	4.381656482449018e-12 	101324.9999999938
0.1714214214214209 	300.0000000000005 	5.473003575121858e-12 	101324.9999999936
0.1739239239239235 	299.9999999999849 	4.265997607637247e-12 	101324.9999999935
0.1764264264264259 	299.999999999977 	6.931550943403503e-12 	101324.9999999935
0.1789289289289284 	299.9999999999992 	4.691268792791109e-12 	101324.9999999933
0.181431431431431 	299.9999999999687 	7.221126878443529e-12 	101324.9999999931
0.1839339339339334 	299.9999999999727 	4.295223184903179e-12 	101324.9999999936
0.186436436436436 	299.9999999999463 	5.679581246612689e-12 	101324.9999999934
0.1889389389389385 	299.999999999983 	4.53627935299505e-12 	101324.9999999933
0.191441441441441 	299.9999999999802 	4.097291564287472e-12 	101324.9999999935
0.1939439439439434 	299.999999999944 	5.490354106325513e-12 	101324.9999999935
0.196446446446446 	299.999999999959 	3.627425537653696e-12 	101324.9999999933
0.1989489489489485 	299.9999999999726 	5.505972679998811e-12 	101324.9999999934
0.2014514514514509 	299.9999999999857 	2.95270129139776e-12 	101324.9999999934
0.2039539539539535 	299.9999999999984 	4.299904120304335e-12 	101324.9999999933
0.2064564564564559 	299.9999999999703 	2.506121896023037e-12 	101324.9999999931
0.2089589589589585 	299.9999999999891 	2.513036359615504e-12 	101324.9999999931
0.211461461461461 	299.9999999999498 	2.872659829890537e-12 	101324.9999999932
0.2139639639639635 	299.9999999999846 	2.85388075899531e-12 	101324.999999993
0.2164664664664659 	300.0000000000041 	4.45156359187343e-12 	101324.9999999935
0.2189689689689684 	300.0000000000032 	2.313200939334597e-12 	101324.9999999935
0.221471471471471 	299.9999999999927 	4.821410468487659e-12 	101324.9999999936
0.2239739739739735 	299.9999999999661 	2.999763319134202e-12 	101324.9999999932
0.226476476476476 	299.9999999999847 	4.777053502725523e-12 	101324.9999999932
0.2289789789789785 	299.9999999999957 	4.395365667441491e-12 	101324.9999999931
0.231481481481481 	299.9999999999948 	4.695819315826651e-12 	101324.9999999931
0.2339839839839835 	299.9999999999878 	5.659547644844945e-12 	101324.9999999935
0.236486486486486 	300.0000000000197 	4.650011512700134e-12 	101324.9999999933
0.2389889889889885 	300.0000000000015 	6.203211714916064e-12 	101324.9999999933
0.241491491491491 	299.9999999999429 	3.775793381101437e-12 	101324.9999999929
0.2439939939939935 	299.9999999999788 	6.858628345319786e-12 	101324.9999999928
0.246496496496496 	299.9999999999914 	3.901736935703122e-12 	101324.9999999927
0.2489989989989985 	300.0000000000279 	4.812753642275208e-12 	101324.9999999928
0.251501501501501 	300.0000000000226 	3.454129014513628e-12 	101324.9999999928
0.2540040040040035 	299.9999999999891 	3.501326259810971e-12 	101324.9999999927
0.256506506506506 	300.0000000000239 	3.963862966997632e-12 	101324.9999999929
0.2590090090090086 	299.9999999999305 	2.462713573084852e-12 	101324.9999999929
0.261511511511511 	300.0000000000003 	5.248199782157131e-12 	101324.9999999926
0.2640140140140135 	299.999999999996 	2.581579175603108e-12 	101324.9999999928
0.2665165165165161 	299.9999999999491 	4.053102708788007e-12 	101324.999999993
0.2690190190190185 	300.0000000000054 	2.63423430778939e-12 	101324.9999999932
0.271521521521521 	300.0000000000084 	2.798480065767757e-12 	101324.999999993
0.2740240240240235 	300.0000000000147 	2.943889981867496e-12 	101324.9999999927
0.276526526526526 	300.0000000000076 	2.079588644132238e-12 	101324.9999999928
0.2790290290290286 	299.9999999999583 	3.562870661610707e-12 	101324.9999999928
0.281531531531531 	299.9999999999422 	2.184492934702288e-12 	101324.9999999929
0.2840340340340335 	299.9999999999853 	4.264440371236842e-12 	101324.9999999931
0.2865365365365361 	299.999999999967 	2.301173516376685e-12 	101324.9999999928
0.2890390390390385 	300.0000000000005 	2.96671486924991e-12 	101324.9999999928
0.291541541541541 	300.0000000000007 	2.127358103342936e-12 	101324.9999999927
0.2940440440440436 	299.9999999999959 	1.649788291466733e-12 	101324.9999999927
0.296546546546546 	299.9999999999945 	2.841694748902917e-12 	101324.9999999929
0.2990490490490486 	299.9999999999532 	1.406051254366964e-12 	101324.9999999929
0.3015515515515511 	300.0000000000325 	4.719327787273837e-12 	101324.9999999927
0.3040540540540535 	300.0000000000009 	1.346512279367067e-12 	101324.9999999929
0.3065565565565562 	299.999999999994 	4.121294497196121e-12 	101324.9999999931
0.3090590590590585 	299.9999999999885 	1.29529740524015e-12 	101324.999999993
0.3115615615615611 	299.9999999999509 	3.405186271204918e-12 	101324.9999999931
0.3140640640640635 	300.0000000000018 	9.446092100742106e-13 	101324.9999999934
0.316566566566566 	299.9999999999918 	2.616082696696186e-12 	101324.9999999936
0.3190690690690687 	299.999999999966 	6.578888131157035e-13 	101324.9999999935
0.3215715715715711 	300.0000000000135 	2.208879166143902e-12 	101324.9999999935
0.3240740740740735 	300.0000000000004 	1.039452092160397e-12 	101324.9999999932
0.326576576576576 	299.9999999999271 	2.162382028233553e-12 	101324.9999999932
0.3290790790790786 	300.0000000000063 	1.326083563071478e-12 	101324.9999999933
0.3315815815815811 	300.0000000000259 	1.446241415241458e-12 	101324.9999999934
0.3340840840840836 	299.9999999999858 	8.143496029001189e-13 	101324.9999999935
0.3365865865865861 	300.0000000000438 	1.442418492470808e-12 	101324.9999999933
0.3390890890890886 	300.0000000000388 	2.928053128395569e-13 	101324.9999999932
0.3415915915915911 	300.0000000000023 	1.303668035255728e-12 	101324.9999999931
0.3440940940940935 	299.9999999999692 	4.142251552895341e-13 	101324.9999999929
0.3465965965965962 	300.0000000000247 	1.678586500091856e-12 	101324.9999999929
0.3490990990990985 	300.0000000000191 	5.473699065522418e-13 	101324.9999999931
0.3516016016016011 	299.9999999999925 	1.087004214090446e-12 	101324.9999999932
0.3541041041041035 	300.0000000000067 	9.043354233790319e-13 	101324.9999999933
0.3566066066066061 	299.9999999999658 	4.251914029165259e-13 	101324.9999999934
0.3591091091091085 	299.9999999999412 	1.536616880989526e-12 	101324.9999999934
0.3616116116116112 	299.9999999999579 	1.054592773824308e-12 	101324.9999999933
0.3641141141141137 	299.9999999999485 	2.804256675677495e-12 	101324.9999999932
0.3666166166166161 	299.9999999999429 	9.233620313143452e-13 	101324.9999999931
0.3691191191191185 	300.0000000000263 	3.655452794689831e-12 	101324.9999999933
0.371621621621621 	300.0000000000139 	6.236536947905387e-13 	101324.9999999934
0.3741241241241237 	300.0000000000333 	2.793182735330992e-12 	101324.9999999935
0.3766266266266261 	300.0000000000182 	4.404275970095998e-13 	101324.9999999933
0.3791291291291286 	299.9999999999895 	1.731629264484946e-12 	101324.999999993
0.3816316316316311 	299.9999999999395 	6.705232850089148e-13 	101324.9999999928
0.3841341341341336 	300.0000000000051 	1.331306794241464e-12 	101324.999999993
0.3866366366366362 	299.9999999999956 	5.809325345756958e-13 	101324.9999999928
0.3891391391391387 	299.9999999999678 	1.084380743454672e-12 	101324.9999999927
0.391641641641641 	299.9999999999964 	5.734336533444898e-13 	101324.9999999925
0.3941441441441436 	300.0000000000032 	3.50947036858258e-13 	101324.9999999924
0.3966466466466462 	299.9999999999972 	3.603542650409674e-13 	101324.9999999925
0.3991491491491486 	299.99999999996 	7.497179508146631e-13 	101324.9999999925
0.4016516516516512 	299.9999999999408 	1.384465045215896e-12 	101324.9999999925
0.4041541541541536 	299.9999999999621 	5.035352698656337e-13 	101324.9999999924
0.4066566566566561 	299.9999999999655 	1.683091655487059e-12 	101324.9999999926
0.4091591591591587 	299.9999999999994 	3.281502179934546e-13 	101324.9999999927
0.4116616616616612 	300.0000000000055 	1.649049944110192e-12 	101324.9999999929
0.4141641641641635 	300.0000000000247 	4.019174131214818e-13 	101324.9999999934
0.4166666666666662 	299.999999999997 	2.015294412690767e-13 	101324.9999999932
0.4191691691691687 	299.9999999999599 	8.223288798399489e-13 	101324.9999999932
0.421671671671671 	300.0000000000063 	1.406107083364037e-12 	101324.9999999934
0.4241741741741737 	299.9999999999845 	2.480045799656635e-12 	101324.9999999936
0.4266766766766761 	299.9999999999658 	1.994562228476883e-12 	101324.9999999935
0.4291791791791785 	300.0000000000165 	3.344874209451726e-12 	101324.9999999933
0.4316816816816812 	300.0000000000076 	2.096408573908166e-12 	101324.9999999932
0.4341841841841836 	299.9999999999889 	2.579612301039904e-12 	101324.999999993
0.4366866866866862 	299.9999999999428 	1.581584946675474e-12 	101324.9999999928
0.4391891891891885 	299.9999999999895 	1.65718828362834e-12 	101324.9999999926
0.4416916916916913 	299.9999999999902 	9.261916967208502e-13 	101324.9999999927
0.4441941941941936 	299.9999999999939 	2.435966332946692e-12 	101324.9999999928
0.4466966966966961 	299.9999999999406 	1.21258794604358e-12 	101324.9999999929
0.4491991991991987 	299.9999999999898 	1.388794264605843e-12 	101324.9999999932
0.4517017017017012 	299.9999999999894 	1.664798053813024e-12 	101324.9999999931
0.4542042042042035 	299.9999999999906 	1.603737748797366e-12 	101324.9999999932
0.4567067067067062 	299.9999999999993 	2.181706897971249e-12 	101324.999999993
0.4592092092092087 	299.9999999999499 	2.076683604786878e-12 	101324.9999999928
0.4617117117117112 	300.0000000000123 	2.406669666877676e-12 	101324.9999999929
0.4642142142142137 	299.9999999999737 	2.320963971261799e-12 	101324.9999999929
0.4667167167167162 	299.9999999999956 	2.019552578818412e-12 	101324.9999999931
0.4692192192192187 	299.9999999999703 	1.889608931092363e-12 	101324.9999999933
0.4717217217217212 	300.0000000000028 	2.299061040565411e-12 	101324.9999999935
0.4742242242242236 	299.9999999999685 	2.775616245179516e-12 	101324.9999999934
0.4767267267267262 	299.9999999999803 	2.03830326555103e-12 	101324.9999999936
0.4792292292292287 	300.000000000015 	1.573901236864832e-12 	101324.9999999937
0.4817317317317312 	300.0000000000226 	9.61765188111045e-13 	101324.9999999935
0.4842342342342336 	299.9999999999895 	7.380395742926741e-13 	101324.9999999936
0.4867367367367362 	299.9999999999695 	9.799524590528616e-13 	101324.9999999936
0.4892392392392387 	300.0000000000228 	7.531507065490792e-13 	101324.9999999933
0.4917417417417412 	300.0000000000056 	2.248633065540883e-12 	101324.9999999935
0.4942442442442437 	299.999999999935 	1.535798561599139e-12 	101324.9999999936
0.4967467467467462 	299.9999999999513 	3.253579493347723e-12 	101324.9999999936
0.4992492492492487 	299.9999999999413 	1.390914424451272e-12 	101324.9999999935
0.5017517517517511 	299.9999999999661 	2.20857511233351e-12 	101324.9999999935
0.5042542542542537 	299.9999999999743 	1.073714343885207e-12 	101324.9999999936
0.5067567567567562 	299.9999999999633 	1.18428946778717e-12 	101324.9999999934
0.5092592592592589 	299.999999999975 	1.086839801438153e-12 	101324.9999999933
0.5117617617617611 	299.9999999999723 	7.644518476960391e-13 	101324.9999999934
0.5142642642642637 	299.9999999999932 	2.271820118519653e-12 	101324.9999999936
0.5167667667667663 	299.9999999999825 	1.709708266023931e-12 	101324.9999999934
0.5192692692692688 	299.9999999999421 	3.226509712151801e-12 	101324.9999999932
0.5217717717717714 	299.9999999999597 	2.914755134330564e-12 	101324.9999999932
0.5242742742742736 	299.9999999999599 	3.302823317966044e-12 	101324.9999999933
0.5267767767767763 	299.999999999975 	1.450413004731688e-12 	101324.9999999934
0.5292792792792789 	299.9999999999584 	3.433397875247157e-12 	101324.9999999933
0.5317817817817813 	299.9999999999335 	1.549702209603123e-12 	101324.9999999935
0.5342842842842837 	300.0000000000142 	2.949176315752937e-12 	101324.9999999934
0.5367867867867864 	300.0000000000033 	1.959895523481803e-12 	101324.9999999931
0.5392892892892888 	299.9999999999713 	2.326471787256393e-12 	101324.999999993
0.5417917917917912 	300.0000000000053 	1.369020311953555e-12 	101324.9999999932
0.5442942942942938 	299.9999999999861 	1.631788364487544e-12 	101324.9999999931
0.5467967967967964 	299.9999999999681 	3.793816112543333e-13 	101324.9999999933
0.5492992992992988 	299.9999999999617 	8.526116341510077e-13 	101324.9999999934
0.5518018018018012 	299.9999999999576 	5.518261062732681e-13 	101324.9999999935
0.5543043043043039 	300.0000000000172 	1.183525503661044e-12 	101324.9999999936
0.5568068068068063 	299.9999999999937 	9.421110842338082e-13 	101324.9999999937
0.5593093093093087 	299.9999999999349 	1.932115292845835e-12 	101324.9999999939
0.5618118118118114 	299.9999999999775 	1.126805655477162e-12 	101324.9999999938
0.5643143143143137 	299.9999999999604 	2.274937550703169e-12 	101324.9999999935
0.5668168168168163 	299.999999999994 	1.298348384544436e-12 	101324.9999999933
0.5693193193193188 	300.0000000000202 	1.741761374603198e-12 	101324.9999999934
0.5718218218218213 	300.0000000000147 	2.045315151453573e-12 	101324.9999999935
0.5743243243243239 	300.0000000000034 	1.984244622174281e-12 	101324.9999999937
0.5768268268268262 	300.0000000000002 	3.206434131683089e-12 	101324.9999999938
0.5793293293293288 	299.9999999999603 	1.535116092627994e-12 	101324.9999999937
0.5818318318318314 	299.9999999999461 	4.022061131871873e-12 	101324.9999999937
0.5843343343343338 	299.999999999989 	1.619206487483136e-12 	101324.9999999938
0.5868368368368363 	299.9999999999854 	3.817084344606523e-12 	101324.9999999939
0.5893393393393387 	299.9999999999678 	1.284748623196622e-12 	101324.9999999941
0.5918418418418413 	299.9999999999651 	2.994471048782526e-12 	101324.9999999942
0.5943443443443439 	300.0000000000143 	1.441063736630442e-12 	101324.9999999941
0.5968468468468463 	300.0000000000117 	2.415122086897906e-12 	101324.999999994
0.5993493493493487 	300.0000000000257 	1.179571103485023e-12 	101324.999999994
0.6018518518518514 	299.9999999999864 	1.367761377212853e-12 	101324.9999999939
0.6043543543543537 	299.9999999999959 	7.238410892655891e-13 	101324.9999999938
0.6068568568568564 	299.9999999999873 	1.680404419039543e-12 	101324.9999999934
0.6093593593593587 	299.9999999999533 	1.517475642753107e-12 	101324.9999999933
0.6118618618618614 	299.9999999999467 	2.43748633370917e-12 	101324.9999999936
0.6143643643643638 	300.0000000000117 	2.377645232235439e-12 	101324.9999999937
0.6168668668668662 	299.9999999999902 	3.704764374980247e-12 	101324.9999999939
0.6193693693693688 	299.9999999999687 	2.770202483317442e-12 	101324.999999994
0.6218718718718714 	299.9999999999766 	3.847104705675782e-12 	101324.9999999939
0.6243743743743737 	299.9999999999591 	1.75833761409838e-12 	101324.9999999937
0.6268768768768762 	299.9999999999478 	2.949640969524507e-12 	101324.9999999938
0.629379379379379 	299.9999999999639 	2.225985246580015e-12 	101324.9999999938
0.6318818818818812 	299.9999999999793 	3.007437776726271e-12 	101324.9999999941
0.6343843843843838 	300.0000000000132 	2.709210863988039e-12 	101324.9999999943
0.6368868868868864 	299.9999999999885 	2.359699370880809e-12 	101324.9999999941
0.6393893893893888 	299.9999999999447 	3.088185349256624e-12 	101324.9999999942
0.6418918918918912 	300.0000000000044 	1.75337140231462e-12 	101324.9999999938
0.6443943943943939 	299.999999999994 	4.158108993940448e-12 	101324.9999999939
0.6468968968968963 	299.9999999999911 	2.097885985448161e-12 	101324.9999999939
0.6493993993993988 	299.9999999999835 	3.335280307376993e-12 	101324.999999994
0.6519019019019012 	299.9999999999815 	1.588369980132379e-12 	101324.999999994
0.6544044044044038 	299.9999999999352 	3.918411529214873e-12 	101324.9999999937
0.6569069069069065 	299.9999999999702 	2.384872631627758e-12 	101324.9999999935
0.6594094094094087 	299.9999999999749 	4.294144095169154e-12 	101324.9999999935
0.6619119119119113 	299.9999999999663 	2.419161017360007e-12 	101324.9999999936
0.664414414414414 	299.9999999999985 	2.984230160207446e-12 	101324.9999999936
0.6669169169169162 	300.0000000000105 	2.075030749063496e-12 	101324.9999999937
0.6694194194194188 	299.9999999999872 	3.119677779628728e-12 	101324.9999999936
0.6719219219219214 	299.999999999945 	2.103808741212178e-12 	101324.9999999937
0.674424424424424 	299.9999999999824 	3.011755656096535e-12 	101324.9999999939
0.6769269269269262 	299.9999999999442 	2.953925401155157e-12 	101324.9999999941
0.679429429429429 	300.0000000000029 	3.762658378850646e-12 	101324.9999999943
0.6819319319319311 	299.9999999999827 	3.525432003403788e-12 	101324.9999999947
0.6844344344344341 	299.9999999999983 	4.441325971548007e-12 	101324.999999995
0.686936936936936 	299.9999999999969 	3.681652286280832e-12 	101324.9999999948
0.6894394394394392 	299.9999999999927 	4.704535787445032e-12 	101324.9999999945
0.6919419419419413 	299.9999999999883 	4.387604249798645e-12 	101324.9999999943
0.694444444444444 	299.9999999999544 	3.990048053055621e-12 	101324.9999999942
0.6969469469469463 	299.9999999999482 	3.376720310688495e-12 	101324.9999999942
0.6994494494494489 	299.9999999999437 	2.469761024619738e-12 	101324.9999999941
0.7019519519519515 	299.9999999999903 	2.774390113592819e-12 	101324.9999999939
0.7044544544544538 	299.9999999999677 	1.319912665656719e-12 	101324.9999999938
0.7069569569569564 	299.9999999999949 	2.500409501697819e-12 	101324.9999999937
0.7094594594594589 	299.9999999999738 	9.847122176997749e-13 	101324.9999999937
0.7119619619619615 	299.9999999999362 	2.077565691419472e-12 	101324.9999999937
0.7144644644644638 	299.9999999999611 	5.566858374493093e-13 	101324.9999999938
0.7169669669669665 	299.9999999999408 	1.058110067485199e-12 	101324.9999999938
0.7194694694694688 	299.9999999999906 	1.551470977656199e-13 	101324.9999999939
0.7219719719719715 	299.9999999999877 	3.46310092025342e-13 	101324.9999999939
0.7244744744744737 	299.9999999999987 	5.234479411762386e-13 	101324.999999994
0.7269769769769764 	299.9999999999914 	1.162961916538309e-12 	101324.9999999939
0.7294794794794791 	299.9999999999914 	1.603462172539422e-12 	101324.999999994
0.7319819819819813 	299.9999999999864 	8.433069376475861e-13 	101324.999999994
0.7344844844844839 	299.9999999999477 	1.599339538921432e-12 	101324.9999999942
0.7369869869869864 	299.9999999999682 	5.819296760066902e-13 	101324.9999999943
0.739489489489489 	299.9999999999594 	9.591609772327873e-13 	101324.9999999945
0.7419919919919914 	299.9999999999517 	1.479680788194987e-12 	101324.9999999946
0.7444944944944939 	299.9999999999856 	1.475509267565196e-12 	101324.9999999947
0.7469969969969963 	299.9999999999776 	2.111696127884167e-12 	101324.9999999947
0.7494994994994989 	299.9999999999586 	2.324004792592475e-12 	101324.9999999946
0.7520020020020015 	299.9999999999791 	2.346307231321731e-12 	101324.9999999945
0.7545045045045039 	299.9999999999782 	2.237329613980927e-12 	101324.9999999944
0.7570070070070062 	299.9999999999598 	1.013506675646595e-12 	101324.9999999942
0.7595095095095092 	299.9999999999492 	2.399227853098921e-12 	101324.9999999941
0.7620120120120112 	300.0000000000005 	1.666171512563141e-12 	101324.9999999941
0.7645145145145138 	299.9999999999915 	1.234998390552219e-12 	101324.9999999939
0.7670170170170165 	299.9999999999559 	1.296617023469237e-12 	101324.9999999938
0.7695195195195191 	299.9999999999446 	1.421746731979417e-12 	101324.9999999938
0.7720220220220213 	299.9999999999533 	2.09797230238002e-12 	101324.9999999938
0.7745245245245239 	299.999999999956 	1.172437070154886e-12 	101324.9999999938
0.7770270270270263 	299.9999999999857 	2.565586230610825e-12 	101324.9999999941
0.779529529529529 	299.9999999999891 	1.424895456596346e-12 	101324.9999999943
0.7820320320320313 	299.9999999999766 	1.652498107716542e-12 	101324.9999999944
0.784534534534534 	299.9999999999964 	1.071620740715071e-12 	101324.9999999945
0.7870370370370364 	299.9999999999933 	9.407276908998481e-13 	101324.9999999944
0.7895395395395389 	299.9999999999827 	1.26007785921244e-12 	101324.9999999943
0.7920420420420413 	299.9999999999791 	1.624510902719767e-12 	101324.9999999943
0.794544544544544 	299.9999999999851 	2.808206096883654e-12 	101324.9999999944
0.7970470470470463 	300.000000000002 	1.857267573715811e-12 	101324.9999999945
0.799549549549549 	299.999999999987 	2.601944909328826e-12 	101324.9999999947
0.8020520520520515 	299.9999999999894 	1.426106852314029e-12 	101324.9999999948
0.8045545545545539 	299.9999999999629 	1.269614207106419e-12 	101324.9999999948
0.8070570570570563 	299.9999999999882 	3.727722179166672e-13 	101324.9999999946
0.8095595595595589 	299.9999999999702 	1.334114852179206e-12 	101324.9999999946
0.8120620620620614 	299.999999999952 	2.000012282587938e-12 	101324.9999999945
0.8145645645645638 	299.9999999999963 	2.39352856202627e-12 	101324.9999999943
0.8170670670670666 	299.9999999999923 	2.911549107787976e-12 	101324.999999994
0.8195695695695689 	299.9999999999807 	1.817331140492389e-12 	101324.9999999939
0.8220720720720714 	299.9999999999609 	3.210144244756018e-12 	101324.9999999938
0.8245745745745739 	299.9999999999978 	1.257961509399583e-12 	101324.9999999939
0.8270770770770765 	299.9999999999834 	2.384441220476779e-12 	101324.9999999943
0.8295795795795788 	299.9999999999689 	1.636708646017462e-12 	101324.9999999945
0.8320820820820815 	300.0000000000131 	2.342348955909771e-12 	101324.9999999944
0.834584584584584 	300.0000000000018 	1.313835112588533e-12 	101324.9999999943
0.8370870870870865 	299.9999999999779 	8.527517497128759e-13 	101324.9999999943
0.8395895895895891 	299.9999999999512 	1.085912639514862e-12 	101324.9999999942
0.8420920920920915 	299.9999999999612 	4.765197473504028e-13 	101324.9999999942
0.844594594594594 	299.9999999999566 	9.75688376510712e-13 	101324.9999999942
0.8470970970970964 	299.9999999999599 	1.671283499112829e-12 	101324.999999994
0.8495995995995991 	299.9999999999864 	2.647111165642352e-12 	101324.9999999939
0.8521021021021015 	299.9999999999823 	3.520290875604099e-12 	101324.9999999938
0.8546046046046039 	299.9999999999839 	3.215645948563458e-12 	101324.9999999939
0.8571071071071066 	299.9999999999972 	3.826588675011266e-12 	101324.999999994
0.8596096096096089 	299.9999999999717 	2.015316704658777e-12 	101324.9999999942
0.8621121121121116 	299.9999999999504 	3.423720553548693e-12 	101324.9999999943
0.8646146146146139 	299.9999999999903 	1.809968192356409e-12 	101324.9999999943
0.8671171171171166 	299.9999999999806 	3.023246617366032e-12 	101324.9999999943
0.8696196196196189 	299.9999999999628 	2.555613334004785e-12 	101324.9999999942
0.8721221221221216 	299.9999999999751 	3.503350554851442e-12 	101324.9999999941
0.874624624624624 	299.9999999999968 	4.055772578499754e-12 	101324.9999999941
0.8771271271271264 	299.9999999999985 	3.804337360665254e-12 	101324.9999999941
0.879629629629629 	300.0000000000052 	4.395032467846926e-12 	101324.999999994
0.8821321321321317 	299.9999999999897 	3.484564066209293e-12 	101324.9999999941
0.8846346346346339 	299.999999999947 	5.83829920208717e-12 	101324.9999999942
0.8871371371371364 	299.9999999999712 	3.973581052899002e-12 	101324.9999999942
0.8896396396396391 	299.9999999999757 	4.607134947493928e-12 	101324.9999999941
0.8921421421421414 	299.9999999999731 	3.259785673381524e-12 	101324.999999994
0.8946446446446441 	299.999999999986 	4.181881034662978e-12 	101324.9999999941
0.8971471471471464 	300.0000000000028 	4.393252965460849e-12 	101324.9999999944
0.8996496496496489 	299.9999999999855 	4.274073720118919e-12 	101324.9999999944
0.9021521521521517 	299.9999999999766 	5.040069085648301e-12 	101324.9999999942
0.9046546546546541 	299.9999999999978 	4.1097533652661e-12 	101324.9999999944
0.9071571571571564 	299.9999999999666 	4.020720856830456e-12 	101324.9999999946
0.9096596596596589 	299.9999999999649 	4.110205163982797e-12 	101324.9999999947
0.9121621621621616 	300.0000000000011 	4.746538523747401e-12 	101324.9999999947
0.9146646646646639 	299.9999999999855 	4.565979355318736e-12 	101324.9999999949
0.9171671671671666 	299.9999999999666 	4.55614116254228e-12 	101324.999999995
0.9196696696696689 	300.0000000000011 	5.231539715340718e-12 	101324.9999999952
0.9221721721721714 	300.0000000000009 	4.445937764666889e-12 	101324.9999999953
0.9246746746746741 	299.9999999999617 	6.035337870188833e-12 	101324.9999999953
0.9271771771771765 	299.9999999999639 	4.519599876475214e-12 	101324.999999995
0.9296796796796791 	299.9999999999906 	6.141176087465052e-12 	101324.999999995
0.9321821821821816 	299.9999999999733 	5.282221592043842e-12 	101324.999999995
0.9346846846846838 	299.9999999999618 	6.289639141575306e-12 	101324.9999999948
0.9371871871871866 	300.0000000000082 	6.202794698613861e-12 	101324.9999999945
0.9396896896896891 	300.0000000000075 	6.362060050575691e-12 	101324.9999999946
0.9421921921921914 	300.0000000000034 	6.699559568330139e-12 	101324.9999999947
0.9446946946946939 	299.9999999999752 	6.222877759558859e-12 	101324.9999999949
0.9471971971971965 	299.9999999999479 	7.761288602107629e-12 	101324.9999999951
0.9496996996996991 	299.9999999999724 	6.375538422260751e-12 	101324.999999995
0.9522022022022016 	299.999999999982 	7.757570153386704e-12 	101324.9999999946
0.9547047047047038 	299.9999999999834 	7.268848987629574e-12 	101324.9999999945
0.9572072072072064 	299.9999999999795 	8.120634549287329e-12 	101324.9999999944
0.9597097097097093 	299.9999999999784 	8.415238268657157e-12 	101324.9999999947
0.9622122122122114 	299.9999999999733 	8.310206371836099e-12 	101324.999999995
0.964714714714714 	299.9999999999729 	9.024743642475724e-12 	101324.9999999949
0.9672172172172167 	299.9999999999698 	8.385842417323271e-12 	101324.9999999948
0.969719719719719 	299.999999999985 	8.72856920298237e-12 	101324.9999999947
0.9722222222222214 	299.9999999999829 	7.266228813773583e-12 	101324.9999999947
0.9747247247247239 	299.9999999999795 	6.273135413342234e-12 	101324.9999999945
0.9772272272272267 	300.0000000000007 	5.68994627453785e-12 	101324.9999999946
0.9797297297297292 	299.9999999999889 	5.145106198291173e-12 	101324.9999999946
0.9822322322322313 	299.9999999999898 	5.346957695817173e-12 	101324.9999999949
0.9847347347347344 	299.999999999991 	4.064055808949145e-12 	101324.9999999952
0.9872372372372363 	299.9999999999656 	5.930792684855433e-12 	101324.9999999955
0.9897397397397389 	299.999999999981 	4.733865625924339e-12 	101324.9999999955
0.9922422422422417 	299.9999999999709 	6.599549837485748e-12 	101324.9999999954
0.9947447447447441 	299.9999999999736 	6.040556993443214e-12 	101324.9999999955
0.9972472472472468 	299.9999999999745 	6.884944535789255e-12 	101324.9999999956
0.999749749749749 	299.9999999999768 	6.733781302595918e-12 	101324.9999999955
1.002252252252252 	299.999999999987 	7.260636585029411e-12 	101324.9999999952
1.004754754754754 	299.9999999999891 	8.017846861006602e-12 	101324.999999995
1.007257257257256 	299.999999999974 	7.815242978314303e-12 	101324.999999995
1.009759759759759 	299.9999999999663 	9.287196170739602e-12 	101324.9999999951
1.012262262262261 	299.9999999999732 	7.659011451266446e-12 	101324.9999999954
1.014764764764764 	299.9999999999559 	8.835995413148757e-12 	101324.9999999958
1.017267267267267 	299.99999999995 	7.698214762678512e-12 	101324.9999999962
1.019769769769769 	299.9999999999838 	7.8555501346749e-12 	101324.9999999966
1.022272272272272 	299.9999999999908 	7.394983788340835e-12 	101324.9999999968
1.024774774774774 	299.9999999999892 	7.493485127269003e-12 	101324.9999999968
1.027277277277277 	299.9999999999868 	7.94282964201916e-12 	101324.9999999967
1.029779779779779 	300.0000000000069 	6.836221751213872e-12 	101324.9999999963
1.032282282282282 	300.000000000007 	7.111380504331698e-12 	101324.9999999961
1.034784784784784 	300.0000000000013 	6.679556289034061e-12 	101324.9999999962
1.037287287287286 	299.9999999999803 	7.13848672887633e-12 	101324.9999999962
1.039789789789789 	299.9999999999797 	7.587435273279028e-12 	101324.9999999962
1.042292292292291 	300.0000000000024 	8.002613424997907e-12 	101324.9999999963
1.044794794794794 	300.0000000000142 	8.301412369409576e-12 	101324.9999999965
1.047297297297296 	300.0000000000253 	7.610828091856009e-12 	101324.9999999963
1.049799799799799 	299.9999999999912 	8.726582201671178e-12 	101324.999999996
1.052302302302302 	299.9999999999666 	7.123548794977225e-12 	101324.999999996
1.054804804804804 	299.9999999999536 	8.349998482570768e-12 	101324.9999999961
1.057307307307306 	299.9999999999473 	7.626244704406203e-12 	101324.9999999962
1.059809809809809 	299.9999999999729 	8.676416436797905e-12 	101324.9999999961
1.062312312312312 	299.9999999999701 	8.576253636317491e-12 	101324.999999996
1.064814814814814 	299.9999999999677 	9.38405023494528e-12 	101324.999999996
1.067317317317317 	299.9999999999472 	9.075999803190806e-12 	101324.9999999961
1.069819819819819 	299.9999999999493 	8.368075107087748e-12 	101324.9999999963
1.072322322322321 	299.9999999999957 	8.950858717577317e-12 	101324.9999999965
1.074824824824824 	300.000000000003 	7.430142476638402e-12 	101324.9999999964
1.077327327327327 	300.0000000000171 	8.764748063810982e-12 	101324.9999999966
1.079829829829829 	300.0000000000244 	7.805335549841124e-12 	101324.9999999965
1.082332332332332 	300.0000000000031 	8.47626696869081e-12 	101324.9999999965
1.084834834834834 	299.9999999999901 	8.191881305845588e-12 	101324.9999999967
1.087337337337337 	299.9999999999615 	8.347662644816798e-12 	101324.9999999967
1.089839839839839 	299.9999999999516 	9.516416684802339e-12 	101324.9999999968
1.092342342342342 	299.9999999999766 	8.272847687303905e-12 	101324.9999999968
1.094844844844844 	299.9999999999794 	8.756223347801063e-12 	101324.9999999969
1.097347347347347 	299.9999999999627 	7.800347246981873e-12 	101324.9999999969
1.099849849849849 	299.9999999999559 	9.863523794325719e-12 	101324.999999997
1.102352352352352 	299.9999999999719 	8.457832109438121e-12 	101324.9999999969
1.104854854854854 	299.9999999999866 	1.018367120217994e-11 	101324.9999999969
1.107357357357357 	299.9999999999739 	9.405876007891016e-12 	101324.999999997
1.109859859859859 	299.9999999999667 	1.090139161412976e-11 	101324.999999997
1.112362362362362 	300.0000000000131 	1.004054782377368e-11 	101324.9999999969
1.114864864864865 	300.0000000000111 	1.002711455109905e-11 	101324.9999999968
1.117367367367367 	299.9999999999765 	1.138696067683154e-11 	101324.9999999967
1.119869869869869 	299.9999999999518 	1.096690392020533e-11 	101324.9999999967
1.122372372372372 	299.9999999999699 	1.220590902778188e-11 	101324.9999999969
1.124874874874874 	299.9999999999693 	1.131956001690629e-11 	101324.9999999972
1.127377377377377 	299.9999999999839 	1.209681551468227e-11 	101324.9999999974
1.129879879879879 	300.0000000000181 	1.134181600021548e-11 	101324.9999999973
1.132382382382382 	300.0000000000223 	1.14827880971871e-11 	101324.9999999973
1.134884884884884 	300.0000000000059 	1.074659938845286e-11 	101324.9999999973
1.137387387387387 	300.0000000000125 	1.071199854172538e-11 	101324.999999997
1.139889889889889 	299.999999999977 	1.194181417795325e-11 	101324.9999999968
1.142392392392392 	299.9999999999677 	1.14381127486101e-11 	101324.999999997
1.144894894894894 	300.0000000000056 	1.232903173612016e-11 	101324.9999999973
1.147397397397397 	299.9999999999948 	1.101061629145959e-11 	101324.9999999975
1.149899899899899 	299.9999999999586 	1.137048412932339e-11 	101324.9999999978
1.152402402402402 	299.9999999999519 	1.080817199867406e-11 	101324.999999998
1.154904904904904 	299.9999999999752 	1.155766341630594e-11 	101324.9999999981
1.157407407407407 	299.999999999974 	1.118263085817111e-11 	101324.9999999981
1.159909909909909 	299.9999999999591 	1.107069981352909e-11 	101324.9999999981
1.162412412412412 	299.999999999957 	1.185472534923039e-11 	101324.9999999981
1.164914914914914 	299.9999999999702 	1.065099902155809e-11 	101324.999999998
1.167417417417417 	299.9999999999736 	1.191448132944985e-11 	101324.999999998
1.169919919919919 	300.0000000000083 	1.113189621024057e-11 	101324.9999999979
1.172422422422422 	300.0000000000288 	1.135623680152781e-11 	101324.9999999981
1.174924924924925 	299.999999999996 	9.795629233742566e-12 	101324.9999999985
1.177427427427427 	299.9999999999756 	1.035136978706301e-11 	101324.9999999985
1.179929929929929 	300.0000000000063 	1.147586904844119e-11 	101324.9999999983
1.182432432432432 	300.00000000002 	1.042034647807424e-11 	101324.9999999983
1.184934934934934 	299.9999999999969 	1.12954760676664e-11 	101324.9999999982
1.187437437437437 	299.9999999999848 	1.043185681645354e-11 	101324.9999999983
1.189939939939939 	299.9999999999794 	1.098657141922159e-11 	101324.9999999986
1.192442442442442 	299.9999999999557 	1.04200603673558e-11 	101324.9999999985
1.194944944944944 	299.9999999999609 	1.187759378242473e-11 	101324.9999999983
1.197447447447447 	299.9999999999958 	1.168992722058902e-11 	101324.9999999982
1.199949949949949 	300.0000000000032 	1.18340845822452e-11 	101324.9999999983
1.202452452452452 	299.9999999999693 	1.277639405079029e-11 	101324.9999999984
1.204954954954955 	299.9999999999649 	1.193942316183878e-11 	101324.9999999983
1.207457457457457 	299.9999999999857 	1.271962542935871e-11 	101324.9999999984
1.20995995995996 	299.9999999999865 	1.192535564451084e-11 	101324.9999999987
1.212462462462462 	299.9999999999955 	1.258028434301535e-11 	101324.9999999989
1.214964964964964 	299.9999999999944 	1.130362391640742e-11 	101324.9999999989
1.217467467467467 	299.9999999999875 	1.166649778777013e-11 	101324.9999999987
1.219969969969969 	299.9999999999778 	1.088147644232746e-11 	101324.9999999986
1.222472472472472 	300.0000000000111 	1.159462827252134e-11 	101324.9999999986
1.224974974974975 	300.0000000000305 	1.231127136462898e-11 	101324.9999999985
1.227477477477477 	299.9999999999978 	1.153394007406003e-11 	101324.9999999985
1.229979979979979 	299.9999999999872 	1.289935673693355e-11 	101324.9999999986
1.232482482482482 	299.999999999971 	1.191750799192997e-11 	101324.9999999987
1.234984984984984 	299.9999999999732 	1.354310546535355e-11 	101324.9999999987
1.237487487487487 	299.9999999999835 	1.285012791584138e-11 	101324.9999999988
1.239989989989989 	299.9999999999803 	1.359651136141988e-11 	101324.999999999
1.242492492492492 	300.0000000000017 	1.396277384654014e-11 	101324.999999999
1.244994994994994 	299.9999999999831 	1.250702708194489e-11 	101324.999999999
1.247497497497497 	299.9999999999899 	1.322319098820058e-11 	101324.9999999991
1.249999999999999 	300.0000000001461 	1.242243247789648e-11 	101324.9999999993
