-1.25 	300 	1 	101277.4471741852
-1.247497497497497 	299.8468709314384 	19.01006657548655 	101352.3091273762
-1.244994994994995 	299.8146060217113 	17.22993964849351 	101283.1300123075
-1.242492492492492 	299.8937494703877 	15.57812687904667 	101350.5391505322
-1.23998998998999 	299.8748829545799 	14.05638658954751 	101295.4529152609
-1.237487487487487 	299.9351521965339 	12.66184183861152 	101348.6512485021
-1.234984984984985 	299.9186903820743 	11.36999222520566 	101306.4431074571
-1.232482482482482 	299.965929750429 	10.20042026407013 	101350.1985142051
-1.22997997997998 	299.9534378034187 	9.113513736104245 	101319.8651811993
-1.227477477477477 	299.9903173458729 	8.140705497216739 	101355.5607082848
-1.224974974974975 	299.9802159002906 	7.232838512486447 	101333.0971606937
-1.222472472472472 	300.0089668622981 	6.4335597664709 	101362.0648193704
-1.21996996996997 	300.0006109845605 	5.681638118640587 	101345.1618681867
-1.217467467467467 	300.0244843450901 	5.03191505880757 	101370.3009382977
-1.214964964964965 	300.0179231991477 	4.416497413920413 	101357.9144875084
-1.212462462462462 	300.0374158404694 	3.89775372444775 	101379.1661820001
-1.20995995995996 	300.0316408977471 	3.399888165938362 	101369.3211242447
-1.207457457457457 	300.0471737283833 	2.991553870320613 	101386.7081910842
-1.204954954954955 	300.0435323116858 	2.594307151776261 	101380.4568124956
-1.202452452452452 	300.0556594227422 	2.282205398692364 	101394.3304535927
-1.19994994994995 	300.0476102705798 	1.952561428392239 	101383.5081976485
-1.197447447447447 	300.0623728292792 	1.679276371645827 	101400.6965684434
-1.194944944944945 	300.0535803420008 	1.389542170678668 	101389.4338014717
-1.192442442442442 	300.0646317441272 	1.163456620890439 	101402.3855931153
-1.18993993993994 	300.0561890413619 	0.9336402960360581 	101391.8990082457
-1.187437437437437 	300.0632346840526 	0.7643257032850208 	101400.2050984884
-1.184934934934935 	300.0559735170174 	0.5885369947742112 	101391.3510530187
-1.182432432432432 	300.0609922916941 	0.4694177265151872 	101397.2939043734
-1.17992992992993 	300.0555684817155 	0.3444724505030876 	101390.7540050519
-1.177427427427427 	300.0564009564327 	0.2683266401051019 	101391.7526825467
-1.174924924924925 	300.0519584695941 	0.1869621640700216 	101386.4459711224
-1.172422422422422 	300.0506769372487 	0.1415823131764684 	101384.941127504
-1.16991991991992 	300.0464148434677 	0.1482401914635494 	101379.8801429781
-1.167417417417417 	300.0435308083397 	0.1158831014746609 	101376.4742921918
-1.164914914914915 	300.0394211994626 	0.12269137949421 	101371.607089153
-1.162412412412412 	300.0360817148353 	0.09858991405596908 	101367.6613953774
-1.15990990990991 	300.0322972835127 	0.09758439593891191 	101363.1850669907
-1.157407407407407 	300.02891102329 	0.08168302454518143 	101359.1815519287
-1.154904904904904 	300.0253514256618 	0.0736666921543344 	101354.9726884873
-1.152402402402403 	300.0219028115701 	0.06348865893601584 	101350.894989555
-1.1498998998999 	300.0186905245429 	0.05424893494626039 	101347.0966625494
-1.147397397397397 	300.0158898818687 	0.04617579386005077 	101343.7853298747
-1.144894894894895 	300.0136066353659 	0.03955530928623986 	101341.0857985209
-1.142392392392392 	300.0118252636644 	0.03436205042681378 	101338.9795487015
-1.13988988988989 	300.0104663749078 	0.03042569542188433 	101337.3729073451
-1.137387387387387 	300.0095323326216 	0.02777035045270954 	101336.2686531794
-1.134884884884885 	300.0091417825216 	0.02669507423205413 	101335.806818216
-1.132382382382382 	300.0094166759865 	0.0275275493715958 	101336.1317332143
-1.12987987987988 	300.0104141533278 	0.03042996120278314 	101337.3110922466
-1.127377377377377 	300.0121139587572 	0.03529687466229314 	101339.3206710336
-1.124874874874875 	300.0143277597019 	0.04159385067130898 	101341.9379776533
-1.122372372372372 	300.0167532063551 	0.04858383162808598 	101344.8058494372
-1.11986986986987 	300.019306172819 	0.05608869718943602 	101347.824376969
-1.117367367367367 	300.0222631083753 	0.06479108784598339 	101351.3204471338
-1.114864864864865 	300.0259569612679 	0.07551953400706592 	101355.6882003005
-1.112362362362362 	300.0304358109336 	0.08839635090749841 	101360.984297414
-1.10985985985986 	300.0354228606679 	0.1026686718392433 	101366.8814686475
-1.107357357357357 	300.0404501611301 	0.1170608111772198 	101372.8266486507
-1.104854854854855 	300.0450821631541 	0.1304602904411654 	101378.3046249257
-1.102352352352353 	300.0492968517352 	0.1428875978120615 	101383.2891195443
-1.09984984984985 	300.0536698732077 	0.1558188748791809 	101388.4610276777
-1.097347347347347 	300.0588590293976 	0.1708135326506497 	101394.5984523273
-1.094844844844845 	300.0647414848507 	0.1874654041766632 	101401.5562111535
-1.092342342342342 	300.0703212379074 	0.2032821660795213 	101408.1563861419
-1.08983983983984 	300.0747356554108 	0.2161533838210502 	101413.3783741683
-1.087337337337337 	300.078218862319 	0.2266380806333179 	101417.4987846996
-1.084834834834835 	300.0817778767699 	0.2371346987825529 	101421.7090009356
-1.082332332332332 	300.0858743527234 	0.2486653864151974 	101426.5553184332
-1.07982982982983 	300.0896372098883 	0.2589492753569209 	101431.0070627916
-1.077327327327327 	300.0915229083138 	0.2641108250704979 	101433.2380247196
-1.074824824824825 	300.0908691246639 	0.2626704426916639 	101432.4645593315
-1.072322322322323 	300.0889664962754 	0.2582235108549267 	101430.2137426605
-1.06981981981982 	300.0886113365017 	0.2583256691922693 	101429.7941890843
-1.067317317317317 	300.0925657985316 	0.2703390901641528 	101434.4726141276
-1.064814814814815 	300.1018695359157 	0.2967741062657992 	101445.4791238692
-1.062312312312312 	300.1147877142433 	0.3327724207753795 	101460.7641460982
-1.05980980980981 	300.1274157491579 	0.3677463199586635 	101475.7084305383
-1.057307307307307 	300.1355599205017 	0.390119745946643 	101485.3473362407
-1.054804804804805 	300.1363150698811 	0.3917525059890565 	101486.2396456026
-1.052302302302302 	300.1287993024802 	0.3701978098269098 	101477.3455853807
-1.0497997997998 	300.1142241308883 	0.3288196903211895 	101460.0997392195
-1.047297297297297 	300.0952984248612 	0.2750874318163439 	101437.7070863596
-1.044794794794795 	300.0751725775215 	0.2177128611198766 	101413.8976205304
-1.042292292292292 	300.0564105138677 	0.1639158112137596 	101391.7050058262
-1.03978978978979 	300.04049606027 	0.1180352917442037 	101372.8832916438
-1.037287287287287 	300.0279329830599 	0.08165288126312988 	101358.0268727052
-1.034784784784785 	300.0185767625928 	0.05445204370226545 	101346.963665989
-1.032282282282283 	300.011944886581 	0.0351045378764086 	101339.1223295292
-1.02977977977978 	300.0074431170441 	0.02192952028468039 	101333.7997923087
-1.027277277277277 	300.0045033096963 	0.01330031015430443 	101330.3240898269
-1.024774774774775 	300.0026499297152 	0.007844904721497296 	101328.1328944841
-1.022272272272272 	300.0015187569344 	0.004506471044706822 	101326.7955552043
-1.01976976976977 	300.0008488737923 	0.002524417295406425 	101326.0035833737
-1.017267267267267 	300.0004632193499 	0.001380548281339722 	101325.5476427465
-1.014764764764765 	300.0002470335664 	0.0007378140160614368 	101325.292056714
-1.012262262262262 	300.0001288681334 	0.0003856943318426891 	101325.1523552716
-1.00975975975976 	300.0000658133652 	0.0001973789162236491 	101325.0778084704
-1.007257257257257 	300.0000329298479 	9.895748108184807e-05 	101325.0389317027
-1.004754754754755 	300.0000161537843 	4.863953795904765e-05 	101325.0190980304
-1.002252252252252 	300.0000077740178 	2.345322143409871e-05 	101325.0091909596
-0.9997497497497498 	300.0000036724979 	1.110060714496619e-05 	101325.0043418851
-0.9972472472472473 	300.0000017039757 	5.160158496767404e-06 	101325.0020145641
-0.9947447447447449 	300.000000776904 	2.357090265342749e-06 	101325.0009185296
-0.9922422422422421 	300.0000003482527 	1.058515264860429e-06 	101325.000411741
-0.9897397397397399 	300.0000001535456 	4.675449133509535e-07 	101325.000181539
-0.9872372372372376 	300.0000000666145 	2.032093871305992e-07 	101325.0000787616
-0.9847347347347346 	300.0000000284368 	8.69422819919332e-08 	101325.0000336377
-0.9822322322322323 	300.0000000119496 	3.663170294850819e-08 	101325.0000141468
-0.9797297297297296 	300.0000000049515 	1.520465254534732e-08 	101325.0000058606
-0.9772272272272275 	300.0000000020235 	6.219322602746224e-09 	101325.0000023918
-0.9747247247247248 	300.000000000816 	2.508182339172893e-09 	101325.0000009614
-0.9722222222222224 	300.0000000003031 	9.977977764529241e-10 	101325.00000038
-0.9697197197197196 	300.000000000101 	3.919698692380569e-10 	101325.0000001471
-0.9672172172172175 	300.0000000000276 	1.519759201054774e-10 	101325.000000055
-0.9647147147147147 	300.0000000000045 	5.865925458729988e-11 	101325.0000000193
-0.9622122122122124 	299.9999999999972 	2.218505752127724e-11 	101325.0000000056
-0.9597097097097099 	299.9999999999944 	8.743357863927626e-12 	101325.0000000002
-0.9572072072072073 	299.9999999999875 	3.897883464341078e-12 	101324.9999999983
-0.9547047047047047 	299.9999999999981 	1.929911214377696e-12 	101324.9999999977
-0.9522022022022023 	299.9999999999909 	1.847084137820564e-12 	101324.9999999974
-0.9496996996996998 	299.9999999999912 	1.435484357969669e-12 	101324.9999999972
-0.9471971971971973 	299.9999999999977 	1.836671208242242e-12 	101324.9999999973
-0.9446946946946947 	299.999999999977 	1.604368936975037e-12 	101324.9999999973
-0.9421921921921923 	299.9999999999875 	1.637374689234509e-12 	101324.9999999972
-0.93968968968969 	299.9999999999994 	1.104383899978443e-12 	101324.9999999973
-0.9371871871871872 	299.9999999999957 	1.837701668590659e-12 	101324.999999997
-0.9346846846846848 	299.999999999982 	2.131568091801078e-12 	101324.999999997
-0.9321821821821823 	299.9999999999886 	1.408339875801334e-12 	101324.9999999969
-0.9296796796796799 	300.0000000000002 	1.654858904544743e-12 	101324.9999999968
-0.9271771771771771 	299.9999999999965 	9.946971618961832e-13 	101324.9999999967
-0.9246746746746748 	299.9999999999916 	1.473306973663409e-12 	101324.9999999968
-0.9221721721721724 	299.999999999999 	1.390001698751898e-12 	101324.9999999968
-0.9196696696696698 	299.9999999999947 	1.868802814639636e-12 	101324.9999999968
-0.9171671671671672 	299.9999999999819 	1.131067534382014e-12 	101324.9999999968
-0.9146646646646649 	299.9999999999937 	8.124972454318695e-13 	101324.999999997
-0.9121621621621623 	300.0000000000027 	1.008027944294535e-12 	101324.9999999972
-0.9096596596596597 	299.9999999999879 	8.139046956829982e-13 	101324.9999999973
-0.9071571571571573 	299.9999999999962 	8.111976256329156e-13 	101324.9999999975
-0.9046546546546547 	300.0000000000047 	5.991046013434254e-13 	101324.9999999977
-0.9021521521521524 	299.9999999999884 	1.094470310385393e-12 	101324.9999999976
-0.8996496496496498 	299.9999999999948 	7.392487616834564e-13 	101324.9999999975
-0.8971471471471473 	300.0000000000031 	1.127029593224085e-12 	101324.9999999974
-0.894644644644645 	299.9999999999997 	1.553754927779187e-12 	101324.9999999975
-0.892142142142142 	300.0000000000003 	1.240666364257668e-12 	101324.9999999976
-0.8896396396396397 	300.0000000000044 	2.578599030547093e-12 	101324.9999999977
-0.8871371371371374 	299.9999999999872 	1.550457252250105e-12 	101324.9999999976
-0.8846346346346349 	299.9999999999809 	2.673178734184068e-12 	101324.9999999977
-0.8821321321321324 	299.9999999999807 	2.062013812944432e-12 	101324.9999999976
-0.8796296296296297 	299.9999999999828 	2.700726088596025e-12 	101324.9999999975
-0.8771271271271271 	299.9999999999832 	2.428238030932986e-12 	101324.9999999976
-0.8746246246246248 	299.9999999999963 	2.480443119928973e-12 	101324.9999999976
-0.8721221221221224 	300.0000000000021 	1.33339346904006e-12 	101324.9999999975
-0.8696196196196196 	299.9999999999899 	1.771542931336568e-12 	101324.9999999973
-0.8671171171171175 	299.9999999999955 	1.247649061291955e-12 	101324.9999999972
-0.8646146146146148 	299.9999999999811 	8.927006418278064e-13 	101324.9999999971
-0.8621121121121121 	299.9999999999915 	6.540031746465082e-13 	101324.9999999969
-0.8596096096096097 	300.000000000006 	5.249812740825696e-13 	101324.9999999968
-0.857107107107107 	299.999999999988 	8.620109201355978e-13 	101324.999999997
-0.8546046046046049 	299.9999999999949 	6.388744186045407e-13 	101324.9999999973
-0.8521021021021022 	300.0000000000005 	3.144084334455691e-13 	101324.9999999972
-0.8495995995995997 	299.9999999999969 	5.726385151320245e-13 	101324.9999999972
-0.8470970970970974 	299.9999999999768 	6.960076728508085e-13 	101324.9999999971
-0.8445945945945946 	299.9999999999839 	6.893933593157158e-13 	101324.9999999971
-0.8420920920920922 	300.0000000000015 	1.025431256240661e-12 	101324.999999997
-0.8395895895895897 	299.9999999999961 	1.714195621240594e-12 	101324.9999999971
-0.8370870870870872 	299.9999999999979 	1.443987138569295e-12 	101324.9999999972
-0.8345845845845846 	300.0000000000014 	1.618277024679738e-12 	101324.9999999973
-0.8320820820820823 	299.9999999999852 	9.516030815850539e-13 	101324.9999999975
-0.8295795795795798 	299.999999999972 	5.357305050156841e-13 	101324.9999999976
-0.8270770770770772 	299.9999999999828 	8.789223149322395e-13 	101324.9999999977
-0.8245745745745746 	299.9999999999741 	1.415468640027581e-12 	101324.9999999976
-0.8220720720720721 	299.9999999999833 	7.128073355702051e-13 	101324.9999999975
-0.8195695695695699 	299.9999999999955 	7.505565499443973e-13 	101324.9999999975
-0.817067067067067 	299.9999999999839 	1.442450349667812e-12 	101324.9999999976
-0.8145645645645651 	299.9999999999745 	2.169621878222075e-12 	101324.9999999976
-0.8120620620620621 	299.9999999999945 	1.241110816375828e-12 	101324.9999999975
-0.8095595595595597 	300.0000000000027 	1.373327638064505e-12 	101324.9999999976
-0.8070570570570572 	299.9999999999812 	1.513698753078963e-12 	101324.9999999975
-0.8045545545545546 	299.999999999979 	9.760506123433056e-13 	101324.9999999976
-0.8020520520520523 	299.9999999999943 	2.401152183415363e-12 	101324.9999999975
-0.7995495495495494 	300.0000000000066 	1.937163816042555e-12 	101324.9999999974
-0.7970470470470474 	299.9999999999995 	2.53621460435411e-12 	101324.9999999974
-0.7945445445445446 	300.0000000000008 	2.466475449181786e-12 	101324.9999999974
-0.7920420420420423 	300.0000000000038 	2.734697696466275e-12 	101324.9999999975
-0.7895395395395397 	300.0000000000027 	2.692691397823566e-12 	101324.9999999976
-0.7870370370370371 	299.999999999999 	2.189831675898209e-12 	101324.9999999975
-0.7845345345345348 	299.9999999999881 	2.267473874288403e-12 	101324.9999999975
-0.7820320320320323 	299.9999999999892 	1.638469334378694e-12 	101324.9999999976
-0.7795295295295296 	299.9999999999749 	2.612978166278562e-12 	101324.9999999975
-0.7770270270270272 	299.9999999999693 	2.467645869210553e-12 	101324.9999999975
-0.7745245245245247 	299.9999999999675 	1.934396522851817e-12 	101324.9999999974
-0.7720220220220222 	299.999999999982 	2.250760878176576e-12 	101324.9999999973
-0.7695195195195199 	299.999999999984 	1.380612046193254e-12 	101324.9999999973
-0.767017017017017 	299.9999999999926 	2.548831545425025e-12 	101324.9999999972
-0.7645145145145147 	300.0000000000046 	2.122718065594654e-12 	101324.9999999974
-0.7620120120120122 	300.0000000000074 	2.658816956605926e-12 	101324.9999999975
-0.7595095095095097 	299.9999999999748 	3.043992333438378e-12 	101324.9999999976
-0.7570070070070072 	299.9999999999758 	4.293372006436688e-12 	101324.9999999976
-0.7545045045045048 	299.9999999999941 	3.467468762545398e-12 	101324.9999999977
-0.7520020020020022 	299.9999999999871 	4.27936009238321e-12 	101324.9999999978
-0.7494994994994997 	299.9999999999845 	2.3392242935651e-12 	101324.9999999977
-0.7469969969969972 	299.9999999999967 	2.660463206497099e-12 	101324.9999999977
-0.7444944944944945 	299.999999999995 	1.114626958050063e-12 	101324.9999999979
-0.7419919919919924 	299.9999999999952 	1.422227901246213e-12 	101324.999999998
-0.7394894894894897 	299.9999999999845 	9.913929908593148e-13 	101324.9999999978
-0.7369869869869872 	299.9999999999956 	5.699809541152105e-13 	101324.9999999976
-0.7344844844844846 	299.9999999999893 	1.287121461925681e-12 	101324.9999999974
-0.7319819819819822 	300.0000000000022 	8.727311373301203e-13 	101324.9999999974
-0.7294794794794797 	299.9999999999995 	2.213557994440263e-12 	101324.9999999974
-0.7269769769769773 	300.000000000004 	1.092849403475778e-12 	101324.9999999975
-0.7244744744744747 	300.0000000000051 	1.138794802011743e-12 	101324.9999999974
-0.721971971971972 	299.9999999999837 	1.196328451758368e-12 	101324.9999999973
-0.7194694694694695 	299.9999999999941 	1.432153721903963e-12 	101324.9999999972
-0.7169669669669674 	299.9999999999766 	1.460590320915807e-12 	101324.9999999971
-0.7144644644644647 	299.9999999999899 	1.293346887207437e-12 	101324.9999999972
-0.711961961961962 	300.000000000004 	9.699386837673641e-13 	101324.9999999974
-0.7094594594594597 	300.0000000000032 	7.067363187452884e-13 	101324.9999999974
-0.7069569569569573 	300.0000000000074 	7.197579313499012e-13 	101324.9999999974
-0.7044544544544545 	300.0000000000097 	7.992105824748704e-13 	101324.9999999973
-0.7019519519519523 	300.0000000000012 	6.809644376885039e-13 	101324.9999999974
-0.6994494494494495 	299.9999999999748 	5.452225620591849e-13 	101324.9999999976
-0.6969469469469471 	299.9999999999804 	3.084024880497639e-13 	101324.9999999977
-0.6944444444444446 	299.9999999999867 	6.025068788032348e-13 	101324.9999999976
-0.6919419419419421 	300.0000000000088 	8.722730480763357e-13 	101324.9999999975
-0.6894394394394396 	299.9999999999971 	7.194876050253614e-13 	101324.9999999973
-0.6869369369369374 	300.0000000000036 	7.665657420273243e-13 	101324.9999999974
-0.6844344344344344 	300.0000000000078 	4.148866951670241e-13 	101324.9999999972
-0.6819319319319321 	299.9999999999854 	3.520001780482501e-13 	101324.9999999971
-0.6794294294294296 	299.9999999999792 	1.98600354282891e-13 	101324.9999999971
-0.6769269269269272 	299.9999999999696 	1.251638065673104e-13 	101324.9999999972
-0.6744244244244245 	299.9999999999874 	5.441668715221586e-13 	101324.9999999971
-0.6719219219219222 	299.9999999999858 	2.041292929855037e-13 	101324.9999999971
-0.6694194194194195 	299.9999999999998 	9.115100272390097e-13 	101324.9999999969
-0.6669169169169172 	300.0000000000061 	6.584288026230522e-13 	101324.9999999968
-0.6644144144144146 	299.9999999999849 	7.72316252844851e-13 	101324.9999999968
-0.661911911911912 	299.9999999999869 	8.078762264677615e-13 	101324.9999999967
-0.6594094094094097 	299.9999999999908 	1.33955951570715e-12 	101324.9999999968
-0.656906906906907 	299.9999999999769 	8.659810726549908e-13 	101324.9999999969
-0.6544044044044046 	299.9999999999781 	1.563530125525185e-12 	101324.999999997
-0.6519019019019021 	299.9999999999941 	7.682083313535269e-13 	101324.999999997
-0.6493993993993996 	300.0000000000071 	1.715767601014266e-12 	101324.9999999968
-0.6468968968968971 	300.0000000000102 	1.439087723011348e-12 	101324.9999999968
-0.6443943943943946 	299.9999999999976 	1.856093528177394e-12 	101324.9999999969
-0.6418918918918921 	299.9999999999978 	9.548832057448218e-13 	101324.9999999969
-0.6393893893893897 	299.9999999999982 	8.449786876893734e-13 	101324.9999999969
-0.6368868868868871 	299.9999999999897 	6.223311935081655e-13 	101324.9999999969
-0.6343843843843846 	299.9999999999989 	9.027049507950371e-13 	101324.999999997
-0.6318818818818821 	299.9999999999847 	1.193451280708146e-12 	101324.9999999969
-0.6293793793793795 	300 	9.785543316372221e-13 	101324.9999999968
-0.6268768768768773 	300.0000000000053 	7.481558338218105e-13 	101324.9999999967
-0.6243743743743745 	299.9999999999923 	3.720847808717779e-13 	101324.9999999968
-0.6218718718718721 	300.0000000000007 	1.363300119393552e-12 	101324.999999997
-0.6193693693693696 	299.9999999999773 	1.043582493916221e-12 	101324.9999999971
-0.6168668668668671 	299.9999999999928 	2.190352974348212e-12 	101324.9999999973
-0.6143643643643645 	300.0000000000044 	1.712458919302166e-12 	101324.9999999974
-0.6118618618618621 	299.9999999999948 	1.327975829530816e-12 	101324.9999999973
-0.6093593593593596 	299.9999999999935 	3.315626261952656e-13 	101324.9999999973
-0.6068568568568571 	299.9999999999935 	2.612111383445991e-13 	101324.9999999975
-0.6043543543543546 	299.9999999999862 	9.851643596932569e-13 	101324.9999999975
-0.6018518518518521 	299.9999999999885 	1.153580828087391e-12 	101324.9999999973
-0.5993493493493496 	299.9999999999777 	1.322798375084181e-12 	101324.9999999973
-0.5968468468468471 	299.999999999983 	8.623053804781498e-13 	101324.9999999974
-0.5943443443443446 	299.9999999999962 	1.028712710944481e-12 	101324.9999999973
-0.591841841841842 	299.9999999999843 	9.681606068859845e-13 	101324.9999999974
-0.5893393393393397 	299.999999999984 	8.419383413005806e-13 	101324.9999999976
-0.5868368368368371 	299.9999999999966 	1.178444288331534e-12 	101324.9999999977
-0.5843343343343346 	300.0000000000001 	2.069060065181042e-12 	101324.9999999977
-0.5818318318318321 	300.0000000000101 	9.910636668483347e-13 	101324.9999999976
-0.5793293293293297 	299.9999999999939 	1.766984114747091e-12 	101324.9999999974
-0.5768268268268271 	300.0000000000002 	1.028745593459329e-12 	101324.9999999975
-0.5743243243243245 	300.0000000000074 	1.168509192374237e-12 	101324.9999999974
-0.5718218218218221 	300.0000000000074 	8.515714688727951e-13 	101324.9999999972
-0.5693193193193196 	300.0000000000149 	7.515587355558563e-13 	101324.9999999971
-0.5668168168168171 	299.9999999999955 	1.264000110387135e-12 	101324.9999999971
-0.5643143143143147 	299.9999999999805 	7.416722523723099e-13 	101324.9999999971
-0.5618118118118121 	300.0000000000048 	1.131640794042402e-12 	101324.9999999972
-0.5593093093093094 	300.0000000000122 	5.551195524758438e-13 	101324.9999999973
-0.5568068068068072 	300.0000000000061 	8.542259119125058e-13 	101324.9999999974
-0.5543043043043046 	300.000000000008 	6.207370728156446e-13 	101324.9999999976
-0.551801801801802 	299.999999999985 	4.164934525142521e-13 	101324.9999999978
-0.5492992992992995 	299.9999999999993 	7.242242672614826e-13 	101324.9999999978
-0.5467967967967969 	300.0000000000057 	8.918614134696436e-13 	101324.9999999978
-0.5442942942942947 	300.0000000000026 	1.060012365824675e-12 	101324.9999999977
-0.5417917917917919 	299.9999999999853 	7.334307500470182e-13 	101324.9999999975
-0.5392892892892895 	299.9999999999779 	6.094598629217378e-13 	101324.9999999976
-0.536786786786787 	299.9999999999855 	5.011288016456531e-13 	101324.999999998
-0.5342842842842846 	299.9999999999875 	8.187480553420056e-13 	101324.9999999983
-0.531781781781782 	299.9999999999783 	5.343908742113843e-13 	101324.9999999984
-0.5292792792792794 	299.9999999999758 	1.461462928119531e-12 	101324.9999999982
-0.526776776776777 	299.9999999999703 	1.360189635924247e-12 	101324.9999999979
-0.5242742742742745 	299.9999999999916 	1.874188260079325e-12 	101324.9999999977
-0.521771771771772 	300.0000000000043 	2.733971356191858e-12 	101324.9999999976
-0.5192692692692695 	299.9999999999857 	3.013536853197085e-12 	101324.9999999977
-0.516766766766767 	299.9999999999991 	2.156553597588925e-12 	101324.9999999975
-0.5142642642642645 	299.9999999999877 	2.553731531031359e-12 	101324.9999999977
-0.511761761761762 	299.9999999999829 	1.37931821106749e-12 	101324.9999999977
-0.5092592592592596 	299.9999999999909 	1.949159886888056e-12 	101324.9999999977
-0.506756756756757 	299.9999999999825 	7.775246726350149e-13 	101324.9999999979
-0.5042542542542544 	299.9999999999984 	1.252067483722399e-12 	101324.999999998
-0.5017517517517521 	300.0000000000107 	6.303937536486224e-13 	101324.999999998
-0.4992492492492494 	300.0000000000114 	5.148525719075053e-13 	101324.999999998
-0.496746746746747 	299.9999999999976 	5.427213204701056e-13 	101324.999999998
-0.4942442442442445 	299.9999999999791 	1.34000903733739e-13 	101324.9999999977
-0.4917417417417421 	299.99999999998 	2.948997549811515e-13 	101324.9999999978
-0.4892392392392395 	299.9999999999858 	1.894638276310447e-13 	101324.999999998
-0.486736736736737 	299.9999999999848 	5.530943162575206e-13 	101324.9999999982
-0.4842342342342345 	299.9999999999728 	6.769694679823489e-13 	101324.9999999982
-0.481731731731732 	300.000000000013 	7.776743865021812e-13 	101324.9999999982
-0.4792292292292296 	300.0000000000088 	1.161340769727257e-12 	101324.9999999981
-0.4767267267267268 	299.9999999999878 	1.148195213983786e-12 	101324.9999999983
-0.4742242242242246 	300.0000000000007 	2.32703820977985e-12 	101324.9999999983
-0.471721721721722 	299.9999999999867 	5.945392283537003e-13 	101324.9999999982
-0.4692192192192195 	299.9999999999949 	2.528832008941024e-12 	101324.9999999982
-0.4667167167167169 	299.99999999997 	1.841545621543609e-12 	101324.9999999983
-0.4642142142142145 	299.9999999999985 	2.313402398703027e-12 	101324.9999999982
-0.461711711711712 	300.0000000000075 	1.033436812706256e-12 	101324.9999999981
-0.4592092092092094 	300.0000000000037 	1.412138309882388e-12 	101324.9999999982
-0.456706706706707 	300.000000000018 	3.143837725569004e-13 	101324.9999999981
-0.4542042042042045 	299.9999999999815 	4.288253178765083e-14 	101324.9999999982
-0.451701701701702 	299.9999999999847 	7.282334952611365e-14 	101324.999999998
-0.4491991991991995 	299.9999999999874 	4.886869747590169e-13 	101324.9999999978
-0.4466966966966969 	299.9999999999861 	7.345753514718246e-13 	101324.9999999979
-0.4441941941941945 	299.9999999999978 	1.39447374427702e-12 	101324.9999999981
-0.441691691691692 	299.9999999999879 	4.82493368992248e-13 	101324.9999999983
-0.4391891891891895 	299.9999999999962 	1.925219214030325e-12 	101324.9999999982
-0.436686686686687 	299.9999999999908 	9.133959659937878e-13 	101324.9999999983
-0.4341841841841846 	299.9999999999998 	2.554472249232569e-12 	101324.9999999981
-0.431681681681682 	299.999999999984 	6.409092619420349e-13 	101324.9999999979
-0.4291791791791794 	299.9999999999748 	2.329020524023662e-12 	101324.9999999978
-0.426676676676677 	299.9999999999726 	1.793682807096384e-12 	101324.9999999977
-0.4241741741741744 	299.9999999999886 	2.267121189672639e-12 	101324.9999999978
-0.421671671671672 	300.0000000000026 	9.619403508196193e-13 	101324.999999998
-0.4191691691691694 	300.0000000000171 	8.793069715889578e-13 	101324.9999999982
-0.4166666666666669 	300.0000000000201 	5.026046168057974e-13 	101324.9999999981
-0.4141641641641645 	299.9999999999799 	6.571408625952584e-13 	101324.9999999982
-0.411661661661662 	300.000000000002 	1.215474530206213e-12 	101324.9999999981
-0.4091591591591594 	300.0000000000026 	3.106849409226005e-13 	101324.999999998
-0.406656656656657 	299.9999999999821 	6.519301920559315e-13 	101324.9999999977
-0.4041541541541545 	300.0000000000072 	1.028120706837098e-12 	101324.9999999976
-0.401651651651652 	299.9999999999753 	2.275058329363995e-13 	101324.9999999978
-0.3991491491491494 	299.9999999999999 	1.829693175965481e-12 	101324.9999999976
-0.396646646646647 	299.9999999999861 	9.72428933697774e-13 	101324.9999999978
-0.3941441441441444 	299.9999999999935 	2.66996532106674e-12 	101324.9999999979
-0.3916416416416419 	299.9999999999791 	7.237812861295254e-13 	101324.9999999981
-0.3891391391391395 	299.9999999999873 	2.472147525382587e-12 	101324.999999998
-0.3866366366366368 	299.9999999999869 	1.019472393031968e-12 	101324.999999998
-0.3841341341341344 	300 	1.121637184287215e-12 	101324.999999998
-0.381631631631632 	299.9999999999846 	8.152720361569154e-13 	101324.9999999978
-0.3791291291291294 	300.0000000000022 	1.052952486051294e-12 	101324.9999999977
-0.3766266266266269 	300.0000000000074 	1.313630428811181e-12 	101324.9999999978
-0.3741241241241244 	300.0000000000081 	3.036897737645071e-13 	101324.9999999978
-0.371621621621622 	300.0000000000078 	1.639546202316104e-12 	101324.9999999975
-0.3691191191191194 	300.0000000000056 	7.917331968283345e-13 	101324.9999999975
-0.366616616616617 	300.0000000000058 	2.469902838828859e-12 	101324.9999999976
-0.3641141141141143 	299.9999999999919 	8.431869506966544e-13 	101324.9999999974
-0.3616116116116119 	299.9999999999799 	2.038350928661091e-12 	101324.9999999977
-0.3591091091091095 	299.9999999999921 	8.733503724883383e-13 	101324.9999999978
-0.356606606606607 	299.9999999999943 	1.154645499214467e-12 	101324.9999999979
-0.3541041041041044 	299.9999999999984 	1.23625068714601e-12 	101324.9999999976
-0.3516016016016019 	300.0000000000073 	6.770932826373483e-13 	101324.9999999976
-0.3490990990990994 	299.9999999999986 	1.734971420755411e-12 	101324.9999999977
-0.346596596596597 	300.0000000000097 	3.710426173494836e-13 	101324.9999999974
-0.3440940940940944 	300.0000000000117 	1.738642109932382e-12 	101324.9999999975
-0.3415915915915919 	300.0000000000097 	4.289209347878833e-13 	101324.9999999976
-0.3390890890890895 	299.999999999994 	6.717201235933968e-13 	101324.9999999976
-0.3365865865865869 	300.0000000000048 	4.596486304813459e-13 	101324.9999999975
-0.3340840840840844 	299.9999999999955 	1.095084071041008e-13 	101324.9999999975
-0.3315815815815819 	300.0000000000076 	6.513056552162862e-13 	101324.9999999976
-0.3290790790790794 	300.0000000000113 	1.405335901486748e-12 	101324.9999999978
-0.3265765765765769 	299.99999999998 	1.494193707639892e-12 	101324.9999999978
-0.3240740740740744 	300.0000000000019 	1.093908182243752e-12 	101324.9999999978
-0.3215715715715718 	300.0000000000061 	1.099592559566709e-12 	101324.9999999978
-0.3190690690690695 	299.9999999999814 	3.645378388891867e-13 	101324.9999999977
-0.3165665665665668 	299.9999999999959 	5.98526196390816e-13 	101324.9999999978
-0.3140640640640644 	299.9999999999976 	1.526524769096583e-13 	101324.9999999978
-0.311561561561562 	299.999999999977 	1.436404485131214e-12 	101324.9999999977
-0.3090590590590593 	300 	1.038267100088839e-12 	101324.9999999977
-0.3065565565565568 	300.0000000000028 	2.320412861639253e-12 	101324.9999999978
-0.3040540540540545 	299.9999999999982 	1.288038816317643e-12 	101324.9999999978
-0.3015515515515518 	300.0000000000084 	2.076152459400541e-12 	101324.9999999978
-0.2990490490490494 	299.9999999999797 	5.376132182594956e-13 	101324.9999999978
-0.2965465465465469 	300.0000000000002 	1.617279316980176e-12 	101324.9999999977
-0.2940440440440444 	299.9999999999965 	1.644460377567501e-12 	101324.9999999976
-0.2915415415415418 	300.0000000000055 	2.085989744224322e-12 	101324.9999999976
-0.2890390390390395 	300.0000000000064 	2.512521113429744e-12 	101324.9999999977
-0.2865365365365368 	299.9999999999906 	1.265523841804701e-12 	101324.9999999977
-0.2840340340340343 	299.9999999999987 	2.306245909975051e-12 	101324.9999999975
-0.2815315315315318 	299.999999999974 	7.424667684107201e-13 	101324.9999999976
-0.2790290290290295 	299.9999999999892 	1.851665002811104e-12 	101324.9999999973
-0.2765265265265269 	300.000000000003 	1.11343719555706e-12 	101324.9999999973
-0.2740240240240244 	300.0000000000083 	1.473100944016651e-12 	101324.9999999973
-0.2715215215215219 	300.0000000000074 	2.035019182458456e-12 	101324.9999999972
-0.2690190190190194 	299.9999999999795 	1.971865540913511e-12 	101324.9999999973
-0.2665165165165169 	299.9999999999981 	2.294988904380021e-12 	101324.9999999975
-0.2640140140140144 	299.9999999999987 	1.346368117359527e-12 	101324.9999999977
-0.2615115115115119 	299.9999999999994 	2.569219882537042e-12 	101324.9999999975
-0.2590090090090094 	299.999999999974 	1.636642003056365e-12 	101324.9999999977
-0.2565065065065068 	299.9999999999955 	2.563692841715135e-12 	101324.9999999977
-0.2540040040040044 	299.9999999999935 	2.593780183419222e-12 	101324.9999999976
-0.2515015015015019 	300.0000000000086 	2.616540544715479e-12 	101324.9999999976
-0.2489989989989994 	300.0000000000115 	3.464329819715716e-12 	101324.9999999977
-0.2464964964964968 	299.9999999999911 	2.595481885553885e-12 	101324.9999999975
-0.2439939939939944 	299.9999999999932 	4.007660584296232e-12 	101324.9999999977
-0.2414914914914919 	299.9999999999845 	1.39214383618512e-12 	101324.9999999978
-0.2389889889889893 	299.9999999999963 	3.171561518328895e-12 	101324.9999999974
-0.2364864864864869 	300.0000000000067 	2.237216990573787e-12 	101324.9999999972
-0.2339839839839843 	299.9999999999852 	4.621243602595013e-12 	101324.9999999969
-0.2314814814814819 	299.99999999999 	2.726164650069211e-12 	101324.999999997
-0.2289789789789792 	299.999999999971 	4.142792859278951e-12 	101324.9999999971
-0.2264764764764769 	299.999999999978 	2.839206093085988e-12 	101324.9999999973
-0.2239739739739743 	299.9999999999916 	3.471992714418368e-12 	101324.9999999973
-0.2214714714714718 	299.9999999999804 	2.970645532378564e-12 	101324.9999999973
-0.2189689689689693 	299.9999999999874 	2.432934412268927e-12 	101324.9999999974
-0.2164664664664669 	299.9999999999916 	3.983353154696355e-12 	101324.9999999972
-0.2139639639639643 	299.9999999999763 	2.726879921761674e-12 	101324.9999999972
-0.2114614614614618 	299.9999999999896 	3.0670582755756e-12 	101324.9999999971
-0.2089589589589593 	300.0000000000023 	2.721733138011874e-12 	101324.9999999969
-0.2064564564564568 	300.0000000000023 	2.69963998542658e-12 	101324.9999999969
-0.2039539539539543 	299.9999999999738 	3.131121755500608e-12 	101324.9999999967
-0.2014514514514518 	299.9999999999719 	1.919857114822261e-12 	101324.9999999968
-0.1989489489489494 	299.9999999999904 	3.758260467912146e-12 	101324.9999999966
-0.1964464464464468 	300.0000000000032 	1.917311982276122e-12 	101324.9999999966
-0.1939439439439443 	300.0000000000012 	3.919033195360727e-12 	101324.9999999965
-0.1914414414414418 	299.9999999999802 	2.655841649406362e-12 	101324.9999999965
-0.1889389389389393 	299.9999999999968 	2.722091479822884e-12 	101324.9999999967
-0.1864364364364368 	300.0000000000045 	2.678668651231618e-12 	101324.9999999968
-0.1839339339339343 	299.9999999999916 	2.79442836635605e-12 	101324.9999999969
-0.1814314314314318 	299.9999999999951 	2.985441174756091e-12 	101324.9999999968
-0.1789289289289293 	299.9999999999676 	2.819430319356308e-12 	101324.999999997
-0.1764264264264268 	299.9999999999889 	2.914145820087062e-12 	101324.999999997
-0.1739239239239243 	299.9999999999663 	3.450394322444564e-12 	101324.9999999969
-0.1714214214214218 	299.9999999999966 	2.896792877876695e-12 	101324.9999999968
-0.1689189189189193 	299.9999999999807 	3.176892907685705e-12 	101324.9999999967
-0.1664164164164168 	299.9999999999969 	1.393518730941549e-12 	101324.9999999966
-0.1639139139139143 	299.9999999999946 	3.228326473314773e-12 	101324.9999999967
-0.1614114114114118 	300.0000000000041 	6.513560766607653e-13 	101324.9999999967
-0.1589089089089093 	300.0000000000006 	4.935712419869601e-12 	101324.999999997
-0.1564064064064068 	299.9999999999888 	6.412280243829854e-13 	101324.9999999972
-0.1539039039039043 	300.0000000000006 	5.424694154119599e-12 	101324.999999997
-0.1514014014014018 	300.0000000000077 	1.024478863286011e-12 	101324.9999999971
-0.1488988988988993 	300.0000000000022 	5.39793426150305e-12 	101324.9999999971
-0.1463963963963968 	300.0000000000016 	1.530416706964844e-12 	101324.999999997
-0.1438938938938943 	299.9999999999885 	4.311133885621007e-12 	101324.999999997
-0.1413913913913918 	299.9999999999728 	2.172379489320383e-12 	101324.999999997
-0.1388888888888893 	299.9999999999896 	3.52450720031164e-12 	101324.9999999971
-0.1363863863863868 	299.9999999999631 	2.470311724702592e-12 	101324.9999999972
-0.1338838838838843 	299.9999999999824 	2.190294363579336e-12 	101324.999999997
-0.1313813813813818 	299.9999999999977 	1.656770165927594e-12 	101324.999999997
-0.1288788788788793 	299.9999999999856 	2.130686343277688e-12 	101324.999999997
-0.1263763763763768 	299.999999999994 	1.507119546302084e-12 	101324.9999999965
-0.1238738738738743 	299.9999999999835 	1.738675823692459e-12 	101324.9999999965
-0.1213713713713717 	299.9999999999995 	9.081828764360805e-13 	101324.9999999964
-0.1188688688688693 	300.0000000000064 	3.012929320173144e-12 	101324.9999999965
-0.1163663663663668 	299.9999999999649 	1.343940342507253e-12 	101324.9999999966
-0.1138638638638643 	299.9999999999947 	2.711299201510617e-12 	101324.9999999965
-0.1113613613613618 	299.9999999999957 	5.295536900554185e-13 	101324.9999999962
-0.1088588588588592 	299.9999999999936 	2.833454494396276e-12 	101324.9999999963
-0.1063563563563568 	299.9999999999911 	6.845327724953987e-13 	101324.9999999964
-0.1038538538538543 	299.9999999999982 	2.962816895650941e-12 	101324.9999999963
-0.1013513513513517 	300.0000000000009 	2.125415169775024e-12 	101324.999999996
-0.09884884884884926 	299.9999999999879 	3.330197542089739e-12 	101324.9999999957
-0.09634634634634676 	299.9999999999714 	2.722391293387241e-12 	101324.9999999957
-0.09384384384384425 	299.9999999999704 	2.542354495927357e-12 	101324.9999999959
-0.09134134134134177 	300.0000000000045 	1.570514440273798e-12 	101324.9999999962
-0.08883883883883925 	300.0000000000015 	2.376648224372241e-12 	101324.999999996
-0.08633633633633674 	299.9999999999843 	2.728756118454625e-12 	101324.9999999961
-0.08383383383383426 	300.0000000000001 	2.528307307448623e-12 	101324.9999999961
-0.08133133133133173 	299.9999999999874 	2.700046012007129e-12 	101324.9999999961
-0.07882882882882926 	299.9999999999634 	2.243375084684612e-12 	101324.999999996
-0.07632632632632676 	299.9999999999907 	2.153001007345278e-12 	101324.9999999961
-0.07382382382382424 	299.9999999999649 	2.207773946311252e-12 	101324.9999999962
-0.07132132132132173 	299.9999999999998 	2.313372705307509e-12 	101324.9999999961
-0.06881881881881925 	299.9999999999866 	2.304063056201281e-12 	101324.9999999958
-0.06631631631631671 	299.9999999999642 	2.008075889747519e-12 	101324.9999999962
-0.06381381381381425 	299.9999999999852 	2.053136677426206e-12 	101324.9999999963
-0.06131131131131173 	299.9999999999861 	2.71876649200624e-12 	101324.9999999965
-0.05880880880880923 	299.9999999999753 	2.05375440896804e-12 	101324.9999999963
-0.05630630630630672 	299.9999999999862 	2.178433854937287e-12 	101324.999999996
-0.05380380380380424 	300.0000000000076 	2.401036697977362e-12 	101324.9999999959
-0.05130130130130173 	300.0000000000038 	2.56583793468466e-12 	101324.9999999958
-0.04879879879879922 	299.9999999999818 	2.592566496602214e-12 	101324.999999996
-0.04629629629629672 	299.9999999999797 	2.641301948281112e-12 	101324.9999999961
-0.04379379379379422 	299.9999999999679 	2.516242544572427e-12 	101324.999999996
-0.04129129129129173 	299.9999999999937 	1.941831850281615e-12 	101324.9999999963
-0.03878878878878922 	299.9999999999951 	2.315083551813339e-12 	101324.999999996
-0.03628628628628671 	299.9999999999943 	1.503459339143983e-12 	101324.9999999958
-0.03378378378378422 	299.9999999999768 	1.950589878702586e-12 	101324.9999999958
-0.03128128128128172 	299.9999999999869 	1.050423425219207e-12 	101324.9999999955
-0.02877877877877922 	299.9999999999868 	1.087112456599231e-12 	101324.9999999954
-0.0262762762762767 	299.9999999999656 	6.004564303405985e-13 	101324.9999999953
-0.02377377377377422 	300.0000000000046 	1.572044868735269e-13 	101324.9999999955
-0.0212712712712717 	299.9999999999671 	2.674662491827857e-14 	101324.9999999955
-0.01876876876876921 	299.9999999999886 	1.055908736013058e-12 	101324.9999999955
-0.01626626626626671 	300.0000000000003 	8.945707120000839e-13 	101324.9999999954
-0.0137637637637642 	299.9999999999861 	9.305779289709893e-13 	101324.9999999957
-0.0112612612612617 	300.0000000000022 	1.976596696738169e-13 	101324.9999999959
-0.008758758758759198 	299.9999999999977 	8.807659419044105e-15 	101324.9999999959
-0.006256256256256697 	299.9999999999634 	2.173878607616843e-13 	101324.999999996
-0.003753753753754195 	299.9999999999823 	1.154631632623598e-15 	101324.999999996
-0.001251251251251693 	299.9999999999757 	1.514569380966062e-13 	101324.999999996
0.00125125125125081 	299.9999999999831 	1.428244968541557e-13 	101324.9999999961
0.003753753753753312 	299.999999999987 	8.275978771596739e-13 	101324.9999999963
0.006256256256255817 	299.9999999999632 	7.123279526806733e-13 	101324.9999999963
0.008758758758758317 	299.9999999999948 	5.977920804509503e-13 	101324.9999999963
0.01126126126126082 	300.0000000000009 	1.025367664697177e-12 	101324.9999999963
0.01376376376376332 	299.9999999999886 	4.999204164046201e-13 	101324.9999999964
0.01626626626626582 	300.0000000000021 	1.630909740958645e-13 	101324.9999999964
0.01876876876876833 	299.999999999984 	3.536338514732909e-13 	101324.9999999962
0.02127127127127083 	299.9999999999908 	1.522079705722338e-12 	101324.9999999962
0.02377377377377332 	299.999999999997 	1.561502654652559e-12 	101324.9999999961
0.02627627627627583 	299.9999999999694 	1.087119529913022e-12 	101324.999999996
0.02877877877877833 	299.9999999999987 	4.664671438093171e-13 	101324.999999996
0.03128128128128083 	299.9999999999797 	1.719543875737653e-13 	101324.9999999961
0.03378378378378333 	299.9999999999643 	4.177002176387458e-13 	101324.9999999963
0.03628628628628584 	299.9999999999928 	4.570644505208054e-13 	101324.9999999964
0.03878878878878834 	299.9999999999937 	6.650272384314291e-14 	101324.9999999965
0.04129129129129084 	299.9999999999895 	4.197050084652047e-13 	101324.9999999966
0.04379379379379333 	299.9999999999776 	7.234216041428158e-13 	101324.9999999965
0.04629629629629585 	299.9999999999623 	9.972603615933215e-13 	101324.9999999962
0.04879879879879834 	299.9999999999835 	1.478466626975469e-12 	101324.999999996
0.05130130130130085 	300.0000000000003 	1.557239240003246e-12 	101324.999999996
0.05380380380380335 	300.0000000000088 	1.206431802124491e-12 	101324.999999996
0.05630630630630584 	299.9999999999949 	1.502122504079925e-12 	101324.9999999961
0.05880880880880836 	299.9999999999761 	1.504541516322598e-12 	101324.9999999959
0.06131131131131085 	299.9999999999919 	1.800119243563903e-12 	101324.999999996
0.06381381381381336 	299.9999999999843 	1.481590558248077e-12 	101324.9999999959
0.06631631631631586 	299.9999999999608 	1.212079016192931e-12 	101324.999999996
0.06881881881881835 	299.999999999981 	1.750931109453012e-12 	101324.9999999959
0.07132132132132088 	300.0000000000008 	1.516797049958929e-12 	101324.9999999958
0.07382382382382337 	299.9999999999671 	1.622519534741172e-12 	101324.9999999959
0.07632632632632587 	299.9999999999874 	1.995134174934501e-12 	101324.999999996
0.07882882882882837 	299.9999999999765 	1.605121034907691e-12 	101324.9999999959
0.08133133133133086 	299.9999999999978 	1.941491994379647e-12 	101324.9999999959
0.08383383383383337 	299.9999999999987 	1.627541490000602e-12 	101324.9999999961
0.08633633633633589 	299.9999999999684 	2.03839548694911e-12 	101324.9999999966
0.08883883883883838 	300.0000000000045 	2.733867870310448e-12 	101324.9999999966
0.09134134134134086 	299.9999999999973 	2.279925328738562e-12 	101324.9999999966
0.09384384384384339 	299.9999999999671 	3.008612771808357e-12 	101324.9999999964
0.09634634634634588 	299.9999999999878 	3.083066116764078e-12 	101324.9999999962
0.09884884884884838 	299.9999999999895 	3.173067854702577e-12 	101324.9999999962
0.1013513513513509 	300.000000000011 	3.008231612508395e-12 	101324.999999996
0.1038538538538534 	299.9999999999779 	2.882713646822317e-12 	101324.9999999962
0.1063563563563559 	300.0000000000032 	3.139746934253678e-12 	101324.9999999962
0.1088588588588584 	300.0000000000038 	2.429631951752911e-12 	101324.9999999961
0.1113613613613609 	299.9999999999845 	2.439343237690922e-12 	101324.9999999962
0.1138638638638634 	299.999999999987 	2.106631287572705e-12 	101324.9999999963
0.1163663663663659 	299.9999999999793 	2.966053916803551e-12 	101324.9999999963
0.1188688688688684 	299.9999999999873 	3.381073552792812e-12 	101324.9999999964
0.1213713713713709 	299.9999999999952 	3.293375049734013e-12 	101324.9999999966
0.1238738738738734 	299.9999999999711 	3.54475861248045e-12 	101324.9999999968
0.1263763763763759 	299.999999999997 	3.685663300759959e-12 	101324.9999999966
0.1288788788788784 	299.999999999998 	2.84285408839173e-12 	101324.9999999966
0.1313813813813809 	299.9999999999972 	3.228669828585718e-12 	101324.9999999966
0.1338838838838834 	299.9999999999871 	2.80693150657149e-12 	101324.9999999967
0.1363863863863859 	300.0000000000095 	2.482126448482086e-12 	101324.999999997
0.1388888888888884 	300.0000000000105 	2.459092717008678e-12 	101324.999999997
0.1413913913913909 	299.9999999999979 	2.725791551861385e-12 	101324.9999999968
0.1438938938938934 	299.9999999999957 	2.923355455161219e-12 	101324.9999999969
0.1463963963963959 	299.9999999999887 	3.190265482586919e-12 	101324.9999999968
0.1488988988988985 	299.9999999999713 	3.697582649504493e-12 	101324.999999997
0.1514014014014009 	299.9999999999889 	4.207033952636658e-12 	101324.9999999969
0.1539039039039035 	299.9999999999842 	5.175726218360112e-12 	101324.9999999969
0.1564064064064059 	299.9999999999875 	3.755380856809994e-12 	101324.9999999968
0.1589089089089084 	299.9999999999904 	5.545329110438309e-12 	101324.9999999969
0.1614114114114109 	299.9999999999892 	3.608758657697326e-12 	101324.9999999969
0.1639139139139134 	299.9999999999752 	4.314139132365273e-12 	101324.9999999972
0.166416416416416 	299.9999999999982 	3.645757411940036e-12 	101324.9999999972
0.1689189189189185 	300.0000000000102 	2.950771718799663e-12 	101324.999999997
0.1714214214214209 	299.999999999995 	3.151932910667002e-12 	101324.9999999969
0.1739239239239235 	299.9999999999985 	2.696868249376176e-12 	101324.9999999969
0.1764264264264259 	299.9999999999841 	3.581007100917232e-12 	101324.999999997
0.1789289289289284 	300.0000000000039 	1.758802561671354e-12 	101324.999999997
0.181431431431431 	299.9999999999926 	3.622106569891542e-12 	101324.9999999972
0.1839339339339334 	299.9999999999937 	2.460120664540099e-12 	101324.9999999974
0.186436436436436 	299.9999999999812 	3.460645378777065e-12 	101324.9999999972
0.1889389389389385 	299.999999999993 	3.200360434312197e-12 	101324.999999997
0.191441441441441 	299.9999999999916 	3.172881327901588e-12 	101324.999999997
0.1939439439439434 	299.999999999975 	3.820038808540145e-12 	101324.9999999968
0.196446446446446 	299.9999999999869 	2.516932183542343e-12 	101324.9999999967
0.1989489489489485 	299.9999999999906 	3.455475618962685e-12 	101324.9999999969
0.2014514514514509 	299.9999999999935 	1.727897384191956e-12 	101324.9999999973
0.2039539539539535 	299.9999999999953 	2.628935547187877e-12 	101324.9999999973
0.2064564564564559 	299.9999999999854 	1.986185601569153e-12 	101324.9999999974
0.2089589589589585 	299.9999999999932 	2.443623706299622e-12 	101324.9999999974
0.211461461461461 	299.9999999999842 	2.590217913423387e-12 	101324.999999997
0.2139639639639635 	299.999999999999 	3.01417274367593e-12 	101324.9999999975
0.2164664664664659 	300.0000000000036 	3.733554582699672e-12 	101324.9999999975
0.2189689689689684 	300.0000000000021 	2.916722981318756e-12 	101324.9999999974
0.221471471471471 	300.000000000002 	4.715573520923437e-12 	101324.9999999973
0.2239739739739735 	299.9999999999844 	3.305411821265667e-12 	101324.999999997
0.226476476476476 	299.9999999999969 	4.171828699755368e-12 	101324.9999999968
0.2289789789789785 	300.0000000000014 	3.062745011308684e-12 	101324.9999999969
0.231481481481481 	299.999999999995 	2.390113159115504e-12 	101324.999999997
0.2339839839839835 	299.9999999999936 	2.299820528758382e-12 	101324.9999999972
0.236486486486486 	300.0000000000071 	1.745963447841443e-12 	101324.9999999974
0.2389889889889885 	299.9999999999994 	2.817384805640256e-12 	101324.9999999975
0.241491491491491 	299.9999999999749 	1.773682680642084e-12 	101324.9999999974
0.2439939939939935 	299.9999999999973 	3.726078205466837e-12 	101324.9999999974
0.246496496496496 	299.9999999999955 	2.182682547943937e-12 	101324.9999999972
0.2489989989989985 	300.0000000000061 	2.791415046117246e-12 	101324.9999999972
0.251501501501501 	300.0000000000051 	1.837073243534547e-12 	101324.9999999973
0.2540040040040035 	299.999999999996 	1.643650359079741e-12 	101324.9999999974
0.256506506506506 	300.0000000000057 	1.790388648640864e-12 	101324.9999999974
0.2590090090090086 	299.9999999999734 	8.563008618007239e-13 	101324.9999999974
0.261511511511511 	300.0000000000065 	2.868289341441321e-12 	101324.9999999976
0.2640140140140135 	299.9999999999939 	1.555875416143818e-12 	101324.9999999976
0.2665165165165161 	299.9999999999819 	3.053087200394255e-12 	101324.9999999977
0.2690190190190185 	300.0000000000095 	1.844249171219582e-12 	101324.9999999978
0.271521521521521 	300.000000000001 	1.867497108890006e-12 	101324.9999999977
0.2740240240240235 	300.0000000000026 	1.78225144864378e-12 	101324.9999999975
0.276526526526526 	299.9999999999989 	1.057142641706755e-12 	101324.9999999976
0.2790290290290286 	299.9999999999835 	1.699213884223365e-12 	101324.9999999974
0.281531531531531 	299.9999999999734 	8.586491578180197e-13 	101324.9999999975
0.2840340340340335 	299.9999999999936 	2.626683474446151e-12 	101324.9999999977
0.2865365365365361 	299.999999999988 	1.969946768506745e-12 	101324.9999999978
0.2890390390390385 	299.9999999999971 	2.386424338919084e-12 	101324.9999999975
0.291541541541541 	299.9999999999974 	1.256634329938344e-12 	101324.9999999975
0.2940440440440436 	299.9999999999976 	1.231664219527702e-12 	101324.9999999975
0.296546546546546 	299.9999999999945 	1.065745384984671e-12 	101324.9999999974
0.2990490490490486 	299.9999999999761 	5.015492075765047e-13 	101324.9999999976
0.3015515515515511 	300.0000000000092 	2.038420176623641e-12 	101324.9999999977
0.3040540540540535 	299.9999999999941 	1.383873703878703e-12 	101324.9999999978
0.3065565565565562 	299.9999999999976 	2.057906918865637e-12 	101324.9999999979
0.3090590590590585 	299.9999999999956 	1.207175812337481e-12 	101324.9999999978
0.3115615615615611 	299.9999999999771 	1.725826856759272e-12 	101324.999999998
0.3140640640640635 	300.0000000000001 	6.841457560224631e-13 	101324.9999999979
0.316566566566566 	299.9999999999962 	8.563231796634336e-13 	101324.9999999977
0.3190690690690687 	299.9999999999842 	3.003188058626222e-13 	101324.9999999977
0.3215715715715711 	300.000000000002 	5.795359982016165e-13 	101324.9999999974
0.3240740740740735 	299.9999999999964 	8.985692754710031e-13 	101324.9999999973
0.326576576576576 	299.9999999999665 	6.065139467978824e-13 	101324.9999999974
0.3290790790790786 	299.9999999999993 	7.096314043294877e-13 	101324.9999999975
0.3315815815815811 	300.000000000013 	7.163021734483993e-13 	101324.9999999973
0.3340840840840836 	299.9999999999994 	6.064371235313891e-13 	101324.9999999973
0.3365865865865861 	300.0000000000202 	2.532349639530222e-13 	101324.9999999974
0.3390890890890886 	300.0000000000138 	3.778921324167833e-13 	101324.9999999975
0.3415915915915911 	299.9999999999996 	5.094986501923711e-13 	101324.9999999975
0.3440940940940935 	299.9999999999836 	1.045092018258457e-12 	101324.9999999976
0.3465965965965962 	300.0000000000117 	6.204837846532404e-13 	101324.9999999975
0.3490990990990985 	300.0000000000086 	1.581457106013867e-12 	101324.9999999977
0.3516016016016011 	299.9999999999944 	1.512799108768708e-12 	101324.9999999978
0.3541041041041035 	300.0000000000026 	2.032455267136788e-12 	101324.9999999977
0.3566066066066061 	299.9999999999873 	2.014969923459167e-12 	101324.9999999975
0.3591091091091085 	299.999999999975 	1.524833564949514e-12 	101324.9999999973
0.3616116116116112 	299.9999999999814 	2.19628573005468e-12 	101324.9999999975
0.3641141141141137 	299.9999999999775 	1.105901414350296e-12 	101324.9999999975
0.3666166166166161 	299.9999999999745 	2.322615143606058e-12 	101324.9999999976
0.3691191191191185 	300.0000000000089 	1.002795054618286e-12 	101324.9999999975
0.371621621621621 	300.0000000000053 	1.606464652343025e-12 	101324.9999999974
0.3741241241241237 	300.0000000000158 	2.882240652624389e-13 	101324.9999999974
0.3766266266266261 	300.0000000000067 	1.347498186746291e-12 	101324.9999999974
0.3791291291291286 	299.9999999999946 	1.027072135533291e-12 	101324.9999999974
0.3816316316316311 	299.9999999999756 	1.486021301081085e-12 	101324.9999999978
0.3841341341341336 	300.0000000000017 	6.101268440081749e-13 	101324.9999999979
0.3866366366366362 	299.9999999999986 	4.310254772133444e-13 	101324.9999999979
0.3891391391391387 	299.9999999999862 	1.580808949546028e-13 	101324.9999999978
0.391641641641641 	299.9999999999986 	5.371571318696151e-13 	101324.9999999978
0.3941441441441436 	300.0000000000018 	6.926772695435601e-13 	101324.9999999975
0.3966466466466462 	299.9999999999992 	1.06101220128529e-12 	101324.9999999973
0.3991491491491486 	299.9999999999841 	1.313104545799127e-12 	101324.9999999973
0.4016516516516512 	299.9999999999741 	1.633517137783289e-12 	101324.9999999975
0.4041541541541536 	299.9999999999866 	1.230184509509463e-12 	101324.9999999977
0.4066566566566561 	299.9999999999854 	2.889421805112623e-12 	101324.9999999979
0.4091591591591587 	299.9999999999997 	1.104056092526947e-12 	101324.9999999981
0.4116616616616612 	300.0000000000035 	2.234898832315865e-12 	101324.9999999983
0.4141641641641635 	300.0000000000122 	1.091158263774859e-12 	101324.9999999983
0.4166666666666662 	299.9999999999989 	1.634631817290506e-12 	101324.9999999981
0.4191691691691687 	299.9999999999824 	1.571978937701012e-12 	101324.9999999982
0.421671671671671 	300.0000000000053 	1.325527389346653e-12 	101324.999999998
0.4241741741741737 	299.9999999999931 	2.694237603009167e-12 	101324.9999999979
0.4266766766766761 	299.9999999999857 	8.55559437440203e-13 	101324.9999999977
0.4291791791791785 	300.0000000000069 	3.084506906601543e-12 	101324.9999999978
0.4316816816816812 	300.0000000000003 	7.438158764676406e-13 	101324.9999999978
0.4341841841841836 	299.9999999999941 	2.651016801588823e-12 	101324.9999999978
0.4366866866866862 	299.9999999999772 	7.704007039521968e-13 	101324.9999999978
0.4391891891891885 	299.9999999999985 	1.665665667501298e-12 	101324.9999999979
0.4416916916916913 	299.999999999997 	1.43461559235286e-12 	101324.9999999978
0.4441941941941936 	299.9999999999942 	1.872723343571055e-12 	101324.9999999979
0.4466966966966961 	299.9999999999761 	1.998346775905878e-12 	101324.999999998
0.4491991991991987 	299.999999999996 	1.877679074221513e-12 	101324.9999999979
0.4517017017017012 	299.9999999999955 	2.149087197285648e-12 	101324.999999998
0.4542042042042035 	299.9999999999948 	1.508893099766915e-12 	101324.9999999978
0.4567067067067062 	299.999999999996 	2.161234140184181e-12 	101324.9999999977
0.4592092092092087 	299.9999999999764 	1.494222157250018e-12 	101324.9999999975
0.4617117117117112 	300.0000000000043 	1.670931446080826e-12 	101324.9999999977
0.4642142142142137 	299.9999999999881 	1.651639835784414e-12 	101324.9999999976
0.4667167167167162 	299.9999999999949 	1.955340157497139e-12 	101324.9999999975
0.4692192192192187 	299.999999999985 	2.431178444519047e-12 	101324.9999999975
0.4717217217217212 	300.0000000000055 	2.311942634453994e-12 	101324.9999999977
0.4742242242242236 	299.9999999999858 	2.259245506799509e-12 	101324.9999999977
0.4767267267267262 	299.999999999996 	1.739055495937826e-12 	101324.9999999976
0.4792292292292287 	300.0000000000039 	2.033751854881905e-12 	101324.9999999975
0.4817317317317312 	300.000000000008 	1.86574530887524e-12 	101324.9999999974
0.4842342342342336 	299.9999999999935 	2.221176226469611e-12 	101324.9999999973
0.4867367367367362 	299.999999999984 	2.607799364116761e-12 	101324.9999999973
0.4892392392392387 	300.0000000000047 	2.396938429123307e-12 	101324.9999999972
0.4917417417417412 	299.9999999999992 	3.249241304429715e-12 	101324.9999999971
0.4942442442442437 	299.9999999999695 	2.996548382772783e-12 	101324.9999999973
0.4967467467467462 	299.9999999999756 	3.586613458532919e-12 	101324.9999999972
0.4992492492492487 	299.9999999999749 	1.433510932967581e-12 	101324.999999997
0.5017517517517511 	299.9999999999841 	1.63399752266117e-12 	101324.9999999971
0.5042542542542537 	299.9999999999894 	1.051365312244262e-12 	101324.9999999974
0.5067567567567562 	299.9999999999824 	1.580614097726752e-12 	101324.9999999976
0.5092592592592589 	299.9999999999894 	1.600058517157189e-12 	101324.9999999976
0.5117617617617611 	299.9999999999871 	1.719827306876957e-12 	101324.9999999977
0.5142642642642637 	299.9999999999972 	2.523048114641087e-12 	101324.9999999977
0.5167667667667663 	299.9999999999934 	1.854519528687465e-12 	101324.9999999977
0.5192692692692688 	299.9999999999757 	3.05739543164739e-12 	101324.9999999977
0.5217717717717714 	299.9999999999783 	8.443472292710276e-13 	101324.9999999977
0.5242742742742736 	299.9999999999779 	2.499400124173263e-12 	101324.9999999977
0.5267767767767763 	299.9999999999872 	3.73441465203958e-13 	101324.9999999977
0.5292792792792789 	299.9999999999818 	1.020592418304336e-12 	101324.9999999975
0.5317817817817813 	299.9999999999717 	5.487792449960741e-13 	101324.9999999974
0.5342842842842837 	300.0000000000038 	7.389870706327068e-13 	101324.9999999974
0.5367867867867864 	300.0000000000002 	1.243692411931033e-12 	101324.9999999975
0.5392892892892888 	299.9999999999863 	1.667640795073185e-12 	101324.9999999974
0.5417917917917912 	300.0000000000004 	1.596782896307022e-12 	101324.9999999972
0.5442942942942938 	299.9999999999927 	1.735248916643616e-12 	101324.9999999971
0.5467967967967964 	299.9999999999856 	1.584981956392605e-12 	101324.9999999973
0.5492992992992988 	299.9999999999786 	1.435795836341487e-12 	101324.9999999971
0.5518018018018012 	299.999999999979 	7.976100191605732e-13 	101324.9999999969
0.5543043043043039 	300.0000000000047 	7.45542020866711e-13 	101324.9999999969
0.5568068068068063 	299.9999999999952 	7.31753887460499e-13 	101324.9999999967
0.5593093093093087 	299.9999999999714 	8.960341501703311e-13 	101324.9999999968
0.5618118118118114 	299.999999999988 	4.923828026375454e-13 	101324.999999997
0.5643143143143137 	299.9999999999831 	9.09880425884414e-13 	101324.9999999969
0.5668168168168163 	299.999999999996 	3.6616461610521e-13 	101324.999999997
0.5693193193193188 	300.0000000000099 	4.121688197628125e-13 	101324.9999999969
0.5718218218218213 	300.0000000000093 	8.944236804931546e-13 	101324.999999997
0.5743243243243239 	300.0000000000032 	1.13306336482779e-12 	101324.999999997
0.5768268268268262 	299.9999999999998 	1.795969472364943e-12 	101324.9999999969
0.5793293293293288 	299.9999999999852 	7.193804418212113e-13 	101324.9999999968
0.5818318318318314 	299.999999999978 	2.060291412570744e-12 	101324.9999999968
0.5843343343343338 	299.9999999999949 	1.376700225893914e-12 	101324.9999999969
0.5868368368368363 	299.9999999999899 	1.2518908878304e-12 	101324.9999999968
0.5893393393393387 	299.9999999999798 	1.043644107200846e-12 	101324.9999999967
0.5918418418418413 	299.9999999999804 	7.45142659090735e-13 	101324.9999999968
0.5943443443443439 	300.0000000000038 	1.433172228830964e-12 	101324.999999997
0.5968468468468463 	300.0000000000044 	1.092231334178183e-12 	101324.9999999971
0.5993493493493487 	300.0000000000139 	1.105305955267419e-12 	101324.9999999971
0.6018518518518514 	299.9999999999936 	5.661507625733353e-13 	101324.9999999971
0.6043543543543537 	299.9999999999985 	4.432665980347152e-13 	101324.999999997
0.6068568568568564 	299.9999999999934 	3.884761012266368e-13 	101324.9999999969
0.6093593593593587 	299.9999999999755 	5.186938579800691e-13 	101324.9999999969
0.6118618618618614 	299.9999999999753 	4.716816756969401e-13 	101324.9999999969
0.6143643643643638 	300.0000000000016 	7.699282325480393e-13 	101324.9999999969
0.6168668668668662 	299.9999999999961 	1.175950573793154e-12 	101324.9999999968
0.6193693693693688 	299.9999999999863 	5.39451996116041e-13 	101324.999999997
0.6218718718718714 	299.9999999999899 	1.147687399729418e-12 	101324.9999999969
0.6243743743743737 	299.999999999979 	6.77873952370327e-13 	101324.9999999968
0.6268768768768762 	299.9999999999763 	9.980625933724704e-13 	101324.9999999969
0.629379379379379 	299.9999999999829 	4.735528214709463e-13 	101324.9999999968
0.6318818818818812 	299.9999999999876 	8.967095567449774e-13 	101324.9999999968
0.6343843843843838 	300.0000000000033 	9.125483663691309e-13 	101324.9999999968
0.6368868868868864 	299.9999999999936 	1.172795233945795e-12 	101324.9999999968
0.6393893893893888 	299.9999999999769 	1.623885770154502e-12 	101324.9999999967
0.6418918918918912 	299.9999999999992 	1.086949997622498e-12 	101324.999999997
0.6443943943943939 	299.9999999999949 	2.405264121793134e-12 	101324.9999999972
0.6468968968968963 	299.9999999999914 	1.044271981502582e-12 	101324.9999999973
0.6493993993993988 	299.9999999999893 	2.106282495645121e-12 	101324.9999999974
0.6519019019019012 	299.9999999999879 	1.106119137816815e-12 	101324.9999999972
0.6544044044044038 	299.9999999999687 	1.921998036000575e-12 	101324.999999997
0.6569069069069065 	299.9999999999874 	2.480608945137299e-13 	101324.9999999968
0.6594094094094087 	299.9999999999852 	7.883079528969666e-13 	101324.9999999967
0.6619119119119113 	299.9999999999817 	5.371407741051616e-13 	101324.9999999966
0.664414414414414 	299.9999999999957 	4.087875795855518e-13 	101324.9999999965
0.6669169169169162 	300.000000000003 	4.420223194981145e-13 	101324.9999999966
0.6694194194194188 	299.9999999999949 	4.130782980906347e-13 	101324.9999999965
0.6719219219219214 	299.9999999999801 	1.134831440991842e-13 	101324.9999999967
0.674424424424424 	299.9999999999918 	1.582195031931271e-13 	101324.9999999968
0.6769269269269262 	299.9999999999739 	3.115966805454777e-13 	101324.9999999966
0.679429429429429 	300.0000000000007 	4.556257299158619e-13 	101324.9999999965
0.6819319319319311 	299.9999999999914 	7.541453080333596e-13 	101324.9999999965
0.6844344344344341 	299.999999999998 	4.637571667048825e-13 	101324.9999999965
0.686936936936936 	299.9999999999969 	7.412209585484457e-13 	101324.9999999962
0.6894394394394392 	299.9999999999954 	1.467834246188375e-13 	101324.9999999962
0.6919419419419413 	299.9999999999951 	2.725800458997217e-13 	101324.9999999963
0.694444444444444 	299.9999999999843 	3.989329982939059e-13 	101324.9999999964
0.6969469469469463 	299.9999999999766 	4.728915985100454e-13 	101324.9999999965
0.6994494494494489 	299.9999999999734 	6.53831522832173e-13 	101324.9999999966
0.7019519519519515 	299.9999999999933 	1.091032046169258e-12 	101324.9999999966
0.7044544544544538 	299.9999999999841 	7.337640278610486e-13 	101324.9999999967
0.7069569569569564 	299.999999999998 	1.127668035359713e-12 	101324.9999999967
0.7094594594594589 	299.9999999999882 	1.013170461367261e-12 	101324.9999999968
0.7119619619619615 	299.9999999999708 	7.980939885560508e-13 	101324.9999999968
0.7144644644644638 	299.9999999999818 	3.154617964644469e-13 	101324.9999999969
0.7169669669669665 	299.9999999999748 	5.435974657654917e-13 	101324.9999999969
0.7194694694694688 	299.9999999999986 	6.746882264241676e-13 	101324.9999999969
0.7219719719719715 	299.9999999999991 	3.473169796782339e-13 	101324.9999999968
0.7244744744744737 	299.9999999999989 	6.034248665797851e-13 	101324.9999999965
0.7269769769769764 	299.9999999999966 	1.430457238024825e-12 	101324.9999999963
0.7294794794794791 	299.9999999999951 	1.497956027384076e-12 	101324.9999999962
0.7319819819819813 	299.9999999999935 	1.346419043092153e-12 	101324.9999999961
0.7344844844844839 	299.9999999999753 	9.656961659698751e-13 	101324.9999999962
0.7369869869869864 	299.9999999999867 	4.697655776116828e-13 	101324.9999999963
0.739489489489489 	299.9999999999822 	8.672429180818263e-13 	101324.9999999962
0.7419919919919914 	299.999999999979 	1.038114808215397e-12 	101324.9999999961
0.7444944944944939 	299.9999999999911 	9.671164478695711e-13 	101324.9999999964
0.7469969969969963 	299.9999999999907 	1.999109937151221e-12 	101324.9999999968
0.7494994994994989 	299.9999999999816 	1.874714039724874e-12 	101324.9999999969
0.7520020020020015 	299.9999999999897 	2.08264946470525e-12 	101324.999999997
0.7545045045045039 	299.9999999999897 	1.569217200387959e-12 	101324.999999997
0.7570070070070062 	299.9999999999832 	9.183148620836932e-13 	101324.9999999971
0.7595095095095092 	299.9999999999786 	8.644379576235491e-13 	101324.9999999972
0.7620120120120112 	300.0000000000004 	5.262374674659819e-13 	101324.9999999973
0.7645145145145138 	299.9999999999962 	8.97882146934281e-13 	101324.9999999972
0.7670170170170165 	299.9999999999804 	8.739259593256313e-13 	101324.999999997
0.7695195195195191 	299.9999999999765 	1.496807832794826e-12 	101324.9999999968
0.7720220220220213 	299.9999999999829 	1.241388409826812e-12 	101324.9999999966
0.7745245245245239 	299.9999999999828 	1.402039384570609e-12 	101324.9999999964
0.7770270270270263 	299.9999999999903 	1.1366654826805e-12 	101324.9999999963
0.779529529529529 	299.9999999999913 	4.175669506411952e-13 	101324.9999999963
0.7820320320320313 	299.9999999999881 	8.093621616465194e-13 	101324.9999999965
0.784534534534534 	299.9999999999959 	7.595630840635003e-13 	101324.9999999967
0.7870370370370364 	299.9999999999937 	6.9299552284918e-13 	101324.9999999968
0.7895395395395389 	299.9999999999902 	1.374124372927852e-12 	101324.9999999968
0.7920420420420413 	299.9999999999925 	1.02611303127223e-12 	101324.9999999969
0.794544544544544 	299.9999999999983 	1.70082713458781e-12 	101324.9999999968
0.7970470470470463 	300.0000000000025 	1.829659655204308e-12 	101324.9999999967
0.799549549549549 	299.9999999999948 	1.50737825574792e-12 	101324.9999999968
0.8020520520520515 	299.9999999999953 	1.319662492011127e-12 	101324.9999999969
0.8045545545545539 	299.9999999999836 	5.388950518668741e-13 	101324.9999999967
0.8070570570570563 	299.9999999999977 	8.574377583166784e-13 	101324.9999999966
0.8095595595595589 	299.9999999999882 	6.074521244987326e-13 	101324.9999999967
0.8120620620620614 	299.9999999999775 	6.353716842678483e-13 	101324.9999999969
0.8145645645645638 	299.999999999996 	5.791304061437002e-13 	101324.9999999971
0.8170670670670666 	299.9999999999957 	1.367410081241605e-12 	101324.999999997
0.8195695695695689 	299.999999999991 	1.661255810659163e-12 	101324.999999997
0.8220720720720714 	299.9999999999815 	1.397084102274086e-12 	101324.999999997
0.8245745745745739 	300.0000000000007 	9.963830268282953e-13 	101324.9999999972
0.8270770770770765 	299.9999999999924 	4.716827319607008e-13 	101324.9999999972
0.8295795795795788 	299.9999999999857 	1.527767572710543e-13 	101324.9999999971
0.8320820820820815 	300.0000000000061 	2.593757981126605e-13 	101324.9999999972
0.834584584584584 	300.0000000000026 	5.039586905714346e-13 	101324.9999999972
0.8370870870870865 	299.9999999999902 	9.554250896011467e-13 	101324.999999997
0.8395895895895891 	299.9999999999754 	7.801411981777686e-13 	101324.9999999968
0.8420920920920915 	299.9999999999779 	6.22869131388098e-13 	101324.9999999967
0.844594594594594 	299.999999999977 	8.248357574526223e-13 	101324.9999999966
0.8470970970970964 	299.9999999999818 	8.857216504862541e-13 	101324.9999999966
0.8495995995995991 	299.999999999994 	1.062664808861653e-12 	101324.9999999967
0.8521021021021015 	299.9999999999921 	1.137509878508643e-12 	101324.9999999967
0.8546046046046039 	299.9999999999921 	1.294985419653362e-12 	101324.9999999967
0.8571071071071066 	299.9999999999973 	1.99607656890052e-12 	101324.9999999967
0.8596096096096089 	299.9999999999834 	1.299759417843491e-12 	101324.9999999967
0.8621121121121116 	299.9999999999752 	1.74278215091637e-12 	101324.9999999965
0.8646146146146139 	299.9999999999944 	5.781230386062743e-13 	101324.9999999964
0.8671171171171166 	299.9999999999911 	3.460271238007823e-13 	101324.9999999964
0.8696196196196189 	299.9999999999849 	3.691182122743732e-13 	101324.9999999965
0.8721221221221216 	299.9999999999864 	1.199407696977309e-12 	101324.9999999966
0.874624624624624 	299.9999999999975 	1.186038130652146e-12 	101324.9999999968
0.8771271271271264 	300.000000000002 	8.999839823245172e-13 	101324.9999999969
0.879629629629629 	299.9999999999997 	1.597906366997115e-12 	101324.9999999969
0.8821321321321317 	299.9999999999936 	1.209303292928497e-12 	101324.999999997
0.8846346346346339 	299.9999999999773 	1.322846611246798e-12 	101324.999999997
0.8871371371371364 	299.9999999999857 	7.792744752291873e-13 	101324.9999999969
0.8896396396396391 	299.9999999999844 	1.246300104095836e-12 	101324.999999997
0.8921421421421414 	299.9999999999866 	1.081067693435444e-12 	101324.999999997
0.8946446446446441 	299.999999999997 	1.755750609560221e-12 	101324.9999999972
0.8971471471471464 	299.9999999999997 	1.901080937947214e-12 	101324.9999999973
0.8996496496496489 	299.9999999999898 	1.725777260004237e-12 	101324.9999999972
0.9021521521521517 	299.9999999999857 	1.995857963027774e-12 	101324.9999999969
0.9046546546546541 	299.9999999999933 	8.114130537062896e-13 	101324.9999999967
0.9071571571571564 	299.9999999999807 	4.367144272166676e-13 	101324.9999999967
0.9096596596596589 	299.9999999999824 	3.249867328327337e-13 	101324.9999999969
0.9121621621621616 	300.000000000002 	3.923302904292161e-13 	101324.999999997
0.9146646646646639 	299.9999999999933 	4.847575707297436e-13 	101324.9999999972
0.9171671671671666 	299.999999999981 	9.873001208503222e-13 	101324.9999999972
0.9196696696696689 	299.999999999998 	1.381347314671149e-12 	101324.9999999971
0.9221721721721714 	300.0000000000008 	1.6921179862965e-12 	101324.999999997
0.9246746746746741 	299.9999999999816 	1.305923498824025e-12 	101324.9999999971
0.9271771771771765 	299.9999999999802 	1.047608405027482e-12 	101324.9999999971
0.9296796796796791 	299.999999999997 	1.446820743295287e-12 	101324.9999999972
0.9321821821821816 	299.9999999999932 	9.015564544067742e-13 	101324.9999999972
0.9346846846846838 	299.9999999999848 	1.405241133477234e-12 	101324.9999999971
0.9371871871871866 	300.0000000000027 	1.299160147336794e-12 	101324.999999997
0.9396896896896891 	300.0000000000052 	1.051539492029511e-12 	101324.9999999971
0.9421921921921914 	300.0000000000028 	1.503191882141133e-12 	101324.9999999971
0.9446946946946939 	299.9999999999858 	1.231275700706319e-12 	101324.999999997
0.9471971971971965 	299.9999999999742 	1.629796574242039e-12 	101324.9999999968
0.9496996996996991 	299.9999999999832 	4.880774600805231e-13 	101324.9999999967
0.9522022022022016 	299.9999999999867 	7.402913198344175e-13 	101324.9999999965
0.9547047047047038 	299.9999999999891 	1.175647086640891e-12 	101324.9999999963
0.9572072072072064 	299.9999999999866 	3.025124627632085e-12 	101324.9999999955
0.9597097097097093 	299.9999999999862 	8.647412677616265e-12 	101324.9999999933
0.9622122122122114 	299.9999999999797 	2.419562054382837e-11 	101324.9999999876
0.964714714714714 	299.9999999999669 	6.507368379248465e-11 	101324.9999999717
0.9672172172172167 	299.999999999932 	1.742505882989804e-10 	101324.9999999302
0.969719719719719 	299.9999999998483 	4.537496775328526e-10 	101324.9999998227
0.9722222222222214 	299.9999999996129 	1.164321954859009e-09 	101324.9999995498
0.9747247247247239 	299.9999999990322 	2.94115583621734e-09 	101324.9999988666
0.9772272272272267 	299.9999999976142 	7.321718229010019e-09 	101324.9999971791
0.9797297297297292 	299.99999999414 	1.796351460966582e-08 	101324.9999930725
0.9822322322322313 	299.999999985817 	4.342776851122991e-08 	101324.9999832284
0.9847347347347344 	299.9999999661629 	1.034292444870623e-07 	101324.9999599925
0.9872372372372363 	299.99999992049 	2.425790898799369e-07 	101324.9999060082
0.9897397397397389 	299.9999998161219 	5.600748787705587e-07 	101324.9997826098
0.9922422422422417 	299.9999995814925 	1.27245772643289e-06 	101324.9995052206
0.9947447447447441 	299.9999990630755 	2.843549882070865e-06 	101324.9988923137
0.9972472472472468 	299.9999979377528 	6.247397488790304e-06 	101324.9975618739
0.999749749749749 	299.9999955393097 	1.348794728836339e-05 	101324.9947262749
1.002252252252252 	299.9999905232679 	2.860048462400034e-05 	101324.9887959853
1.004754754754754 	299.9999802363697 	5.953021668518691e-05 	101324.976634176
1.007257257257256 	299.9999595643862 	0.0001215556031713693 	101324.9521945412
1.009759759759759 	299.9999188913986 	0.0002433333607464624 	101324.9041086447
1.012262262262261 	299.9998406074272 	0.0004772095328471376 	101324.8115571594
1.014764764764764 	299.9996933571256 	0.0009161392449687464 	101324.6374705439
1.017267267267267 	299.9994229742737 	0.001720249293946378 	101324.3178117452
1.019769769769769 	299.9989389089494 	0.003156421844415672 	101323.7455308721
1.022272272272272 	299.9980951491131 	0.005653618451397916 	101322.7480127484
1.024774774774774 	299.9966655299911 	0.009873942845190954 	101321.057893631
1.027277277277277 	299.9943154090875 	0.01679323773901738 	101318.27959123
1.029779779779779 	299.990575484791 	0.02777387588526865 	101313.858389528
1.032282282282282 	299.9848293155836 	0.04459569575299271 	101307.0657586739
1.034784784784784 	299.9763333562412 	0.06939037921412913 	101297.0231746126
1.037287287287286 	299.9642951173494 	0.1044058170754548 	101282.7947137658
1.039789789789789 	299.9480373647624 	0.1515218602274532 	101263.5813670173
1.042292292292291 	299.927268029229 	0.2114646586737887 	101239.0401396615
1.044794794794794 	299.9024499343 	0.282746553358464 	101209.7206168768
1.047297297297296 	299.8752066527775 	0.3605884491154154 	101177.5433090108
1.049799799799799 	299.8485064632609 	0.4365934471702028 	101146.0149478073
1.052302302302302 	299.8261758456408 	0.5001660366565504 	101119.6521886784
1.054804804804804 	299.8116971430892 	0.5417003714388714 	101102.5622381287
1.057307307307306 	299.8068753194076 	0.5562116590288491 	101096.8700230188
1.059809809809809 	299.8109609992318 	0.5457966142005894 	101101.69174722
1.062312312312312 	299.8205901260428 	0.5198485853492039 	101113.0603635856
1.064814814814814 	299.830679158515 	0.4923972444032461 	101124.971177724
1.067317317317317 	299.8364126894456 	0.4764388994423983 	101131.7400465295
1.069819819819819 	299.8357943330917 	0.4773935993933111 	101131.0105352004
1.072322322322321 	299.8307348868132 	0.490344310735174 	101125.0369335424
1.074824824824824 	299.8256091039732 	0.5037734799643117 	101118.9847722127
1.077327327327327 	299.8241983045538 	0.5077559775485195 	101117.3184790202
1.079829829829829 	299.8269301234715 	0.5010443492210179 	101120.5432809685
1.082332332332332 	299.8307974965422 	0.4912063006646266 	101125.1102567897
1.084834834834834 	299.8322604318296 	0.4872334975895581 	101126.8378175864
1.087337337337337 	299.8305501952214 	0.491187382694511 	101124.8187770012
1.089839839839839 	299.8281574415292 	0.4970274075183436 	101121.9932205892
1.092342342342342 	299.8278836415922 	0.4978462561467063 	101121.6693590604
1.094844844844844 	299.8297342075974 	0.4934813826850304 	101123.8540158532
1.097347347347347 	299.8312376184118 	0.4897660574437124 	101125.6298948007
1.099849849849849 	299.8307585929944 	0.4906665393699948 	101125.064672271
1.102352352352352 	299.8294705494602 	0.4935763936758659 	101123.5433739132
1.104854854854854 	299.8294206503359 	0.4937542360135907 	101123.4838786494
1.107357357357357 	299.8305702429402 	0.491152486815762 	101124.8413252076
1.109859859859859 	299.8311497513132 	0.4897054935928619 	101125.5259801457
1.112362362362362 	299.8305700492426 	0.4908319166219414 	101124.8415442501
1.114864864864865 	299.8301574348752 	0.4917055338437322 	101124.3539307282
1.117367367367367 	299.8307124502668 	0.4905138326808037 	101125.0091037554
1.119869869869869 	299.8312626600575 	0.4892401873396157 	101125.6590000354
1.122372372372372 	299.8310360100668 	0.4895681977534794 	101125.3914705224
1.124874874874874 	299.830798024674 	0.4899982603769024 	101125.1102812605
1.127377377377377 	299.8311767253108 	0.4891970397738513 	101125.5571312961
1.129879879879879 	299.8315019512942 	0.4884358503430327 	101125.9412726364
1.132382382382382 	299.8313475842801 	0.4886108329242924 	101125.759154411
1.134884884884884 	299.831336806127 	0.4885661190197989 	101125.7462549246
1.137387387387387 	299.8316629450964 	0.4878730601760258 	101126.1312495161
1.139889889889889 	299.8317657757796 	0.4875533920984816 	101126.2527275736
1.142392392392392 	299.8316892581266 	0.4875867114043602 	101126.1622118884
1.144894894894894 	299.8318643188607 	0.4871936367495712 	101126.3687683264
1.147397397397397 	299.8320556462072 	0.4867408739454231 	101126.5947707204
1.149899899899899 	299.8320416457029 	0.4866401089472772 	101126.578184797
1.152402402402402 	299.8321355956371 	0.486384437275331 	101126.6890407228
1.154904904904904 	299.8323190047347 	0.4859666124810799 	101126.9055180999
1.157407407407407 	299.8323566260989 	0.4857743549437964 	101126.9498497516
1.159909909909909 	299.8324321847504 	0.4855424320172144 	101127.0390451801
1.162412412412412 	299.8325894077302 	0.4851771673524831 	101127.2246680853
1.164914914914914 	299.8326491985351 	0.4849499694080204 	101127.2952349712
1.167417417417417 	299.8327314638295 	0.484705277971707 	101127.3922976197
1.169919919919919 	299.8328666220278 	0.4843793160733254 	101127.5519193206
1.172422422422422 	299.8329336580619 	0.4841436977576104 	101127.6309819838
1.174924924924925 	299.8330287491373 	0.4838811532916305 	101127.7430589523
1.177427427427427 	299.8331452702473 	0.4835839271807462 	101127.8805541117
1.179929929929929 	299.83321747926 	0.4833436405375162 	101127.9658218183
1.182432432432432 	299.8333226186563 	0.4830695103198673 	101128.0899398575
1.184934934934934 	299.8334220906113 	0.4827965647970309 	101128.2072782136
1.187437437437437 	299.8335044252676 	0.4825479780661034 	101128.3043022715
1.189939939939939 	299.8336110837419 	0.4822732324230022 	101128.4302597552
1.192442442442442 	299.8336992258148 	0.4820159565628448 	101128.534490274
1.194944944944944 	299.8337936863221 	0.4817578352157632 	101128.6458174249
1.197447447447447 	299.8338927814793 	0.4814934537699369 	101128.7625331782
1.199949949949949 	299.833981545501 	0.4812413876591811 	101128.8671169079
1.202452452452452 	299.8340805553271 	0.4809816033776126 	101128.9840258931
1.204954954954955 	299.8341718702409 	0.4807281962542388 	101129.0919358207
1.207457457457457 	299.8342670141988 	0.4804757969290434 	101129.2041397341
1.20995995995996 	299.834361974577 	0.4802237696472618 	101129.316000504
1.212462462462462 	299.8344549715283 	0.4799756112586734 	101129.4255699438
1.214964964964964 	299.8345509213398 	0.4797284328191932 	101129.5385372157
1.217467467467467 	299.8346438270862 	0.4794829417542613 	101129.6480542435
1.219969969969969 	299.8347390506499 	0.4792433425759045 	101129.7605343356
1.222472472472472 	299.8348326610252 	0.4789941563393764 	101129.8708549287
1.224974974974975 	299.8349275780159 	0.4787810501440971 	101129.9826303153
1.227477477477477 	299.8350219172724 	0.4784814213334293 	101130.0936198223
1.229979979979979 	299.835116892438 	0.4784211097595803 	101130.2053890367
1.232482482482482 	299.8352117014919 	0.4775213582881295 	101130.3165546226
1.234984984984984 	299.8353100514341 	0.478891442819329 	101130.4332281176
1.237487487487487 	299.8354011818121 	0.4745775084654434 	101130.5372929301
1.239989989989989 	299.8354908171092 	0.4791330451006923 	101130.6479650125
1.242492492492492 	299.8356045296107 	0.4754490671408801 	101130.7711357592
1.244994994994994 	299.8353704892086 	0.472095943228862 	101130.8418234087
1.247497497497497 	299.5422408762812 	0.4801781245108858 	101130.9711099263
1.249999999999999 	304.4140079371127 	0.4758881707041404 	101131.0865319344
