-1.25 	300 	0.07255759160145063 	101354.3892626146
-1.247497497497497 	300.0286038837434 	0.08138579626048763 	101359.9656583564
-1.244994994994995 	300.0333357780268 	0.09649163366247759 	101364.4086383628
-1.242492492492492 	300.0366412703949 	0.1065877211157663 	101368.3207650746
-1.23998998998999 	300.0392823014831 	0.1134192266645589 	101371.4464584428
-1.237487487487487 	300.0411426841081 	0.118942984116803 	101373.6464769601
-1.234984984984985 	300.042219163853 	0.1220904542735279 	101374.9196299334
-1.232482482482482 	300.0426069049266 	0.1231526041351904 	101375.3781997185
-1.22997997997998 	300.0422259854545 	0.122009078035372 	101374.9277301031
-1.227477477477477 	300.0410097412545 	0.118532140641263 	101373.4895112024
-1.224974974974975 	300.0390085543125 	0.1127625112141747 	101371.1230513018
-1.222472472472472 	300.0362776575739 	0.1048568239667561 	101367.8936717226
-1.21996996996997 	300.0328580505633 	0.09494973457713041 	101363.8499541087
-1.217467467467467 	300.0288313884398 	0.08332811765905172 	101359.0884943655
-1.214964964964965 	300.024318150634 	0.0702771759204265 	101353.7518378903
-1.212462462462462 	300.0193918881868 	0.0560197101908475 	101347.9270166253
-1.20995995995996 	300.0141183235971 	0.04078778808584311 	101341.6918102168
-1.207457457457457 	300.0086046096862 	0.02482350621526709 	101335.172948904
-1.204954954954955 	300.0029330808187 	0.008445831010569695 	101328.4677938465
-1.202452452452452 	299.9971836897457 	0.008630688610623218 	101321.6708970454
-1.19994994994995 	299.9914744870603 	0.02467542119547031 	101314.9218475565
-1.197447447447447 	299.98592229339 	0.04073441901183066 	101308.3586799581
-1.194944944944945 	299.9806098681873 	0.0561163947919034 	101302.0792196628
-1.192442442442442 	299.9756096931861 	0.07055098664213542 	101296.1691196543
-1.18993993993994 	299.9710561864853 	0.08368500856440206 	101290.7871309857
-1.187437437437437 	299.9670776029745 	0.09522127988210874 	101286.0848481717
-1.184934934934935 	299.9637303097843 	0.104888574284456 	101282.128778228
-1.182432432432432 	299.9610541231348 	0.1125868684845377 	101278.9659297088
-1.17992992992993 	299.9590911521337 	0.1182493012304671 	101276.6460201776
-1.177427427427427 	299.957850267804 	0.1218184661534185 	101275.1794287064
-1.174924924924925 	299.957373644672 	0.1231964752675412 	101274.6161288566
-1.172422422422422 	299.957715807955 	0.122216509777573 	101275.020451136
-1.16991991991992 	299.958871451489 	0.1188678545785265 	101276.3860852971
-1.167417417417417 	299.9608081542862 	0.1132454990321597 	101278.6748157653
-1.164914914914915 	299.9634916664972 	0.1055416056805099 	101281.8461588393
-1.162412412412412 	299.96683127528 	0.09593513160816525 	101285.793019494
-1.15990990990991 	299.970745603462 	0.08457373261073395 	101290.4192479677
-1.157407407407407 	299.9751746966598 	0.07172293319855737 	101295.6540510762
-1.154904904904904 	299.9800522704783 	0.05756694532741169 	101301.4191798828
-1.152402402402403 	299.9853072494629 	0.04238150604838357 	101307.6306329886
-1.1498998998999 	299.9908374573773 	0.02650187312235908 	101314.1677408617
-1.147397397397397 	299.9964791909387 	0.01015983865961314 	101320.8370007997
-1.144894894894895 	300.0021429413923 	0.008667280314081597 	101327.5326006
-1.142392392392392 	300.0078020233151 	0.02263944865096292 	101334.2230270077
-1.13988988988989 	300.0133699465296 	0.03872044517088627 	101340.8059746646
-1.137387387387387 	300.0187268699065 	0.05417286491694978 	101347.1397757696
-1.134884884884885 	300.0237394525366 	0.06864348199160471 	101353.0667105438
-1.132382382382382 	300.0282926059575 	0.08181258385699747 	101358.4506317761
-1.12987987987988 	300.0323082860524 	0.09342536954707052 	101363.1992087192
-1.127377377377377 	300.0357334643427 	0.1033509749864091 	101367.249627885
-1.124874874874875 	300.0385238438159 	0.1114224153366448 	101370.5494793911
-1.122372372372372 	300.0406282602 	0.1174856823352319 	101373.0381950408
-1.11986986986987 	300.0419885934684 	0.1214029918572348 	101374.6470020881
-1.117367367367367 	300.0425600075056 	0.1230258898281163 	101375.3228226078
-1.114864864864865 	300.0423172790774 	0.1223118973220094 	101375.0357840621
-1.112362362362362 	300.0412651087673 	0.1192729903415612 	101373.7915858854
-1.10985985985986 	300.039444519803 	0.1140027219036481 	101371.6386877606
-1.107357357357357 	300.0369031096143 	0.1066490019521573 	101368.6333712761
-1.104854854854855 	300.033681920056 	0.09733794356467537 	101364.8242512735
-1.102352352352353 	300.0298373174875 	0.0862395822897408 	101360.2780339269
-1.09984984984985 	300.0254393736337 	0.07353055836107338 	101355.0776704988
-1.097347347347347 	300.0205751269728 	0.05946685083188545 	101349.3261202798
-1.094844844844845 	300.0153539231801 	0.04436183254116344 	101343.1527644901
-1.092342342342342 	300.0098751986552 	0.02850346118363075 	101336.6752013224
-1.08983983983984 	300.0042310763354 	0.01220336165847673 	101330.0023750539
-1.087337337337337 	299.9985151041059 	0.008731081151773436 	101323.2449280268
-1.084834834834835 	299.9927946418096 	0.02090847559966827 	101316.4824793338
-1.082332332332332 	299.9871686453691 	0.03715686726966928 	101309.8320143671
-1.07982982982983 	299.9817704349622 	0.05274637429031197 	101303.4510970019
-1.077327327327327 	299.9767145744162 	0.0673268863004253 	101297.4750940311
-1.074824824824825 	299.9721095731445 	0.08063423551594497 	101292.0322135427
-1.072322322322323 	299.9680347606576 	0.09245944879232734 	101287.2161582793
-1.06981981981982 	299.9645363467724 	0.1025690802888769 	101283.0814624325
-1.067317317317317 	299.9616727780338 	0.1108096256210219 	101279.6971540477
-1.064814814814815 	299.9595133900598 	0.1170321393950031 	101277.1450925245
-1.062312312312312 	299.958109907641 	0.1210804496001033 	101275.4863384193
-1.05980980980981 	299.9575087075964 	0.1228479822835268 	101274.7758049903
-1.057307307307307 	299.9577164175138 	0.1222646829200819 	101275.0212489148
-1.054804804804805 	299.9587012347561 	0.1193662728877834 	101276.1850116471
-1.052302302302302 	299.9604476827107 	0.1142870357794646 	101278.2488779945
-1.0497997997998 	299.9629311135941 	0.1071585937330934 	101281.1837647198
-1.047297297297297 	299.966085945502 	0.09805987992035364 	101284.9122159553
-1.044794794794795 	299.9698604260887 	0.08711436649309386 	101289.3731296469
-1.042292292292292 	299.9741828119372 	0.07458188289848708 	101294.4817749395
-1.03978978978979 	299.9789588828955 	0.06073380833749248 	101300.1268614919
-1.037287287287287 	299.9841205543985 	0.04587216847868103 	101306.2279837818
-1.034784784784785 	299.9895685533388 	0.0302151629776693 	101312.6678347134
-1.032282282282283 	299.9951625120308 	0.01397293803918144 	101319.2805402585
-1.02977977977978 	300.0008150160331 	0.008387446709571292 	101325.9627787011
-1.027277277277277 	300.0064788459488 	0.01882148806139804 	101332.6587157534
-1.024774774774775 	300.0120560611521 	0.03492325065959726 	101339.252593111
-1.022272272272272 	300.0174150907253 	0.05041228881010364 	101345.5888009924
-1.01976976976977 	300.0224518857966 	0.06495957138293619 	101351.5442871682
-1.017267267267267 	300.0270919640543 	0.07835459724411738 	101357.0309422979
-1.014764764764765 	300.0312564004114 	0.0903531424537258 	101361.9553508782
-1.012262262262262 	300.0348617392718 	0.1007852062957307 	101366.2187956299
-1.00975975975976 	300.0378359055968 	0.1094078190731125 	101369.7359660389
-1.007257257257257 	300.0401099258642 	0.1159860825719551 	101372.4252371163
-1.004754754754755 	300.0416338973433 	0.1203962159655928 	101374.2275627943
-1.002252252252252 	300.0423789457377 	0.1225145965653167 	101375.1087199248
-0.9997497497497498 	300.0423265586479 	0.1223597696008523 	101375.0467858141
-0.9972472472472473 	300.0414860177785 	0.1199467934553094 	101374.0528449832
-0.9947447447447449 	300.0398872634373 	0.1152787116354288 	101372.1622895405
-0.9922422422422421 	300.037545472302 	0.1084752927265686 	101369.3930332113
-0.9897397397397399 	300.0344936322714 	0.09964368685523661 	101365.784139063
-0.9872372372372376 	300.0307912370362 	0.08895024166924824 	101361.4060711623
-0.9847347347347346 	300.0265118970813 	0.07662658163856891 	101356.3459022526
-0.9822322322322323 	300.0217514907027 	0.06287700444323793 	101350.7170991904
-0.9797297297297296 	300.0166087509387 	0.04798104170975818 	101344.636452691
-0.9772272272272275 	300.011157316539 	0.03222698266866117 	101338.1910726459
-0.9747247247247248 	300.0055074090353 	0.01591011810290224 	101331.5113611564
-0.9722222222222224 	299.9997808977207 	0.008052056783042879 	101324.7413706655
-0.9697197197197196 	299.9940634805984 	0.01725264781984144 	101317.9824645852
-0.9672172172172175 	299.9884524649704 	0.03349102956022668 	101311.3496345618
-0.9647147147147147 	299.9830414707569 	0.04911914882198645 	101304.9535188277
-0.9622122122122124 	299.9779157019041 	0.06389289003468936 	101298.8948535412
-0.9597097097097099 	299.9731895503602 	0.07753861971474847 	101293.3087224012
-0.9572072072072073 	299.9689622732341 	0.08980798741678028 	101288.3124391902
-0.9547047047047047 	299.9653036529495 	0.1003550164824883 	101283.988373422
-0.9522022022022023 	299.9622963397523 	0.1089939323934609 	101280.4341334982
-0.9496996996996998 	299.9599997828503 	0.1156226458796866 	101277.7199909604
-0.9471971971971973 	299.9584535188011 	0.1200848031994066 	101275.892488006
-0.9446946946946947 	299.9576954800389 	0.1223401215827037 	101274.9965881836
-0.9421921921921923 	299.957726414726 	0.1222711825422871 	101275.0331356943
-0.93968968968969 	299.9585257789036 	0.1198804261102871 	101275.977712444
-0.9371871871871872 	299.9601035611128 	0.1153218951732246 	101277.8422624
-0.9346846846846848 	299.9624241811953 	0.1086481121889919 	101280.584731907
-0.9321821821821823 	299.9654233646486 	0.09999682297463913 	101284.129202879
-0.9296796796796799 	299.9690445155841 	0.08949325264940441 	101288.4088875379
-0.9271771771771771 	299.9732235524758 	0.07734267630764827 	101293.3480414579
-0.9246746746746748 	299.9778850612146 	0.06383040341579863 	101298.8576807079
-0.9221721721721724 	299.9829789390257 	0.04917975798022307 	101304.8786227478
-0.9196696696696698 	299.9883748868374 	0.03366549904394128 	101311.2568672571
-0.9171671671671672 	299.9939363827638 	0.01754494394734693 	101317.8311500269
-0.9146646646646649 	299.9995547441287 	0.007234534959074172 	101324.4729289089
-0.9121621621621623 	300.005169474214 	0.01498427672894212 	101331.1107599655
-0.9096596596596597 	300.0107119123803 	0.03102734368282947 	101337.6634580827
-0.9071571571571573 	300.01608429511 	0.04655342680810048 	101344.0153585396
-0.9046546546546547 	300.0211868934819 	0.06128135477132001 	101350.048598227
-0.9021521521521524 	300.0259258337332 	0.07498978333540897 	101355.6520717471
-0.8996496496496498 	300.0302079549373 	0.08733790736016195 	101360.7155980997
-0.8971471471471473 	300.0339485559409 	0.09817051786638552 	101365.1389692246
-0.894644644644645 	300.0370754746299 	0.1072052918407408 	101368.836731047
-0.892142142142142 	300.039523356439 	0.1142554361663445 	101371.731605179
-0.8896396396396397 	300.0412361390347 	0.119212239240234 	101373.7571966672
-0.8871371371371374 	300.0421761126818 	0.1219028061337739 	101374.8688789009
-0.8846346346346349 	300.0423228108373 	0.1223397007960939 	101375.0423991802
-0.8821321321321324 	300.0416795599987 	0.120481079452215 	101374.281734614
-0.8796296296296297 	300.0402662628795 	0.116368690298952 	101372.6105086001
-0.8771271271271271 	300.0381070977969 	0.1101298799028725 	101370.0572161441
-0.8746246246246248 	300.0352358951301 	0.1018240117719129 	101366.6619160344
-0.8721221221221224 	300.0317054998876 	0.09162954072246902 	101362.4872220659
-0.8696196196196196 	300.0275771025298 	0.07970085634348685 	101357.6054853824
-0.8671171171171175 	300.0229297760479 	0.06624908536346708 	101352.1103508628
-0.8646146146146148 	300.0178565231195 	0.05158934036985918 	101346.1118089474
-0.8621121121121121 	300.0124573110317 	0.03597540144321526 	101339.7281070752
-0.8596096096096097 	300.0068462954137 	0.01976776290704396 	101333.0943041298
-0.857107107107107 	300.0011436000222 	0.006444149541145215 	101326.3523811945
-0.8546046046046049 	299.9954240960338 	0.0133215052356476 	101319.5909425059
-0.8521021021021022 	299.9897704625407 	0.02963670813018977 	101312.9076660211
-0.8495995995995997 	299.9842844160764 	0.0454816898957588 	101306.4227726735
-0.8470970970970974 	299.9790768493417 	0.06052275015376723 	101300.2673600205
-0.8445945945945946 	299.974257328838 	0.07445122935786938 	101294.5708023365
-0.8420920920920922 	299.9699181757518 	0.08702847581081655 	101289.4422614671
-0.8395895895895897 	299.9661360779012 	0.09791496588295315 	101284.9722260931
-0.8370870870870872 	299.9629920343009 	0.1069914505175208 	101281.2563906119
-0.8345845845845846 	299.9605460576622 	0.1140642879109913 	101278.3656449465
-0.8320820820820823 	299.9588443073875 	0.1189836558647999 	101276.3543720623
-0.8295795795795798 	299.9579138995995 	0.1217051445689363 	101275.2547616285
-0.8270770770770772 	299.9577638046187 	0.1221150039853421 	101275.0773606526
-0.8245745745745746 	299.9583898450248 	0.1202715890786544 	101275.8171345791
-0.8220720720720721 	299.9597900809289 	0.1162267717592475 	101277.4718590973
-0.8195695695695699 	299.9619303643083 	0.110054665537271 	101280.0011746894
-0.817067067067067 	299.9647692245509 	0.1018597231132117 	101283.3561657394
-0.8145645645645651 	299.9682528731389 	0.09175572230340481 	101287.4733007732
-0.8120620620620621 	299.9723166265777 	0.07998353447281305 	101292.2761794029
-0.8095595595595597 	299.976878277459 	0.06678824586673732 	101297.6677531929
-0.8070570570570572 	299.9818566410241 	0.05245587977877435 	101303.5520841869
-0.8045545545545546 	299.9871303169641 	0.03723403802727164 	101309.7857516026
-0.8020520520520523 	299.992600171031 	0.02137771330433619 	101316.2516163137
-0.7995495495495494 	299.9981688914635 	0.005243582321394667 	101322.834647619
-0.7970470470470474 	300.0037684595556 	0.01099603217617361 	101329.4544736016
-0.7945445445445446 	300.0093296772847 	0.02701881504818858 	101336.0292774129
-0.7920420420420423 	300.0147435548644 	0.04265843060011633 	101342.430179619
-0.7895395395395397 	300.0199038848586 	0.05758468550313596 	101348.5316051039
-0.7870370370370371 	300.0247240084683 	0.0715195452655283 	101354.2310142346
-0.7845345345345348 	300.0291188857134 	0.08420140165518654 	101359.4278213067
-0.7820320320320323 	300.0329998455845 	0.09541510648317184 	101364.0171185073
-0.7795295295295296 	300.0362805000968 	0.1048748679891344 	101367.8966627846
-0.7770270270270272 	300.0388834730093 	0.1124052499029224 	101370.9749106772
-0.7745245245245247 	300.0407627119255 	0.1178551558529628 	101373.197349451
-0.7720220220220222 	300.0418911470041 	0.1210930278843012 	101374.5319073779
-0.7695195195195199 	300.0422454784745 	0.1221111985018698 	101374.9509816904
-0.767017017017017 	300.0418165985394 	0.1208675583327592 	101374.4438144272
-0.7645145145145147 	300.0406114687269 	0.1173807011169424 	101373.0187533487
-0.7620120120120122 	300.0386460264527 	0.1116944165002004 	101370.6945602291
-0.7595095095095097 	300.0359523629915 	0.1038871419999697 	101367.5092049897
-0.7570070070070072 	300.0325730805837 	0.0941015185111508 	101363.5131599874
-0.7545045045045048 	300.0285539361541 	0.08248978098329553 	101358.7606054565
-0.7520020020020022 	300.0239755216688 	0.06927967647903774 	101353.3468974214
-0.7494994994994997 	300.0189486786842 	0.05475115396048926 	101347.4031728473
-0.7469969969969972 	300.0135945614636 	0.03927619992826101 	101341.0727444855
-0.7444944944944945 	300.0080423684642 	0.02323600541835776 	101334.508400946
-0.7419919919919924 	300.0024039200074 	0.006910361971110373 	101327.8423942471
-0.7394894894894897 	299.9967327529048 	0.01072575467151819 	101321.1380087136
-0.7369869869869872 	299.9910731549996 	0.02587735046184642 	101314.4476076022
-0.7344844844844846 	299.9855164246068 	0.041925976425508 	101307.8791185786
-0.7319819819819822 	299.9801976113332 	0.05727974518248406 	101301.5921258102
-0.7294794794794797 	299.9752636709471 	0.0715286519368693 	101295.7603060991
-0.7269769769769773 	299.9708322970103 	0.08433865918578735 	101290.5227027628
-0.7244744744744747 	299.9669740569807 	0.09549963755476872 	101285.9626439852
-0.721971971971972 	299.9637276490785 	0.1048895806381833 	101282.125826733
-0.7194694694694695 	299.9611265651681 	0.1124039531336448 	101279.0517415104
-0.7169669669669674 	299.9592184259734 	0.1179032651741805 	101276.7965885445
-0.7144644644644647 	299.9580670004356 	0.1212105573361363 	101275.4357347531
-0.711961961961962 	299.9577311218836 	0.1221684098674206 	101275.0387739974
-0.7094594594594597 	299.9582319642406 	0.1207234345166003 	101275.6306151526
-0.7069569569569573 	299.9595344486211 	0.1169731166557979 	101277.169798149
-0.7044544544544545 	299.9615598992098 	0.1111323913740253 	101279.5634116796
-0.7019519519519523 	299.9642199526049 	0.103443622805158 	101282.7070804223
-0.6994494494494495 	299.9674507369695 	0.09408697193503447 	101286.5253368944
-0.6969469469469471 	299.9712268392226 	0.08314128440644165 	101290.9882191857
-0.6944444444444446 	299.9755458679926 	0.07062545863886192 	101296.0929550389
-0.6919419419419421 	299.9803946676779 	0.05659382202240275 	101301.8240587461
-0.6894394394394396 	299.9857077253569 	0.0412456352852033 	101308.1041952489
-0.6869369369369374 	299.9913458731452 	0.02498094498201334 	101314.7689090363
-0.6844344344344344 	299.9971106051397 	0.008357471201903723 	101321.5836026627
-0.6819319319319321 	300.0027907784942 	0.01010684894064246 	101328.2986855996
-0.6794294294294296 	300.0082230629734 	0.02374458851994679 	101334.7210105589
-0.6769269269269272 	300.0133368071178 	0.03856573229175288 	101340.7670177694
-0.6744244244244245 	300.0181536627385 	0.05254466223696257 	101346.4622424458
-0.6719219219219222 	300.0227410276441 	0.06585144462732367 	101351.886329577
-0.6694194194194195 	300.0271457743926 	0.07860173926485438 	101357.0946995181
-0.6669169169169172 	300.0313410140885 	0.09070963029960283 	101362.0555137425
-0.6644144144144146 	300.035205560064 	0.101828630893683 	101366.6254647614
-0.661911911911912 	300.0385385599405 	0.1113904423683934 	101370.5669999993
-0.6594094094094097 	300.0410997728264 	0.1187171615699927 	101373.5959385411
-0.656906906906907 	300.0426618082751 	0.1231685376067959 	101375.4433210396
-0.6544044044044046 	300.0430609900387 	0.1242851734555088 	101375.9154374456
-0.6519019019019021 	300.0422349178065 	0.1218954730636595 	101374.9385763419
-0.6493993993993996 	300.0402406702984 	0.1161659397142055 	101372.5803771711
-0.6468968968968971 	300.0372500281988 	0.1075855931220183 	101369.0438355822
-0.6443943943943946 	300.0335216299862 	0.09688899318626873 	101364.6349037237
-0.6418918918918921 	300.0293590293614 	0.08493734315337086 	101359.7126446153
-0.6393893893893897 	300.0250631737829 	0.07258540534815397 	101354.6329659923
-0.6368868868868871 	300.0208905644124 	0.06056616799434662 	101349.6991760437
-0.6343843843843846 	300.0170288963596 	0.04942271610228074 	101345.1331884331
-0.6318818818818821 	300.0135943448412 	0.03949568493260671 	101341.0723302706
-0.6293793793793795 	300.0106413368833 	0.030947830934417 	101337.5809114829
-0.6268768768768773 	300.0081764265339 	0.02380301146754197 	101334.6666406263
-0.6243743743743745 	300.0061726610055 	0.01798717495262155 	101332.2975454346
-0.6218718718718721 	300.0045822581444 	0.01336550665367957 	101330.4172246822
-0.6193693693693696 	300.0033473107254 	0.009772856702405856 	101328.9572884401
-0.6168668668668671 	300.0024078229899 	0.007036559610291209 	101327.8466139294
-0.6143643643643645 	300.0017065816903 	0.004991875947288012 	101327.0175785587
-0.6118618618618621 	300.0011924421369 	0.00349115599601025 	101326.4097441209
-0.6093593593593596 	300.0008218100552 	0.002408204297795545 	101325.9715703651
-0.6068568568568571 	300.0005588916933 	0.001639209586546545 	101325.6607398199
-0.6043543543543546 	300.0003752220582 	0.001101477026536812 	101325.4435998219
-0.6018518518518521 	300.0002487839265 	0.0007309456931751186 	101325.2941206747
-0.5993493493493496 	300.0001629618498 	0.0004792037668173573 	101325.1926591127
-0.5968468468468471 	300.000105493359 	0.0003104750369795269 	101325.1247179827
-0.5943443443443446 	300.0000675112305 	0.0001988569425144797 	101325.0798142024
-0.591841841841842 	300.0000427233632 	0.0001259476378470911 	101325.0505091769
-0.5893393393393397 	300.0000267431984 	7.890315527030635e-05 	101325.0316168884
-0.5868368368368371 	300.0000165628074 	4.890650117365998e-05 	101325.0195812044
-0.5843343343343346 	300.0000101515511 	2.999944404843139e-05 	101325.0120015517
-0.5818318318318321 	300.0000061590018 	1.821522532961724e-05 	101325.0072813762
-0.5793293293293297 	300.0000036996064 	1.095029696094957e-05 	101325.0043738356
-0.5768268268268271 	300.0000022007421 	6.51893994308891e-06 	101325.0026018021
-0.5743243243243245 	300.000001296692 	3.843916233962949e-06 	101325.0015329722
-0.5718218218218221 	300.0000007568852 	2.245420428972057e-06 	101325.0008947953
-0.5693193193193196 	300.0000004377907 	1.299651051200558e-06 	101325.0005175112
-0.5668168168168171 	300.0000002508846 	7.454791366067714e-07 	101325.0002966169
-0.5643143143143147 	300.0000001424821 	4.238328415499479e-07 	101325.0001685085
-0.5618118118118121 	300.0000000802917 	2.388781393208056e-07 	101325.0000948994
-0.5593093093093094 	300.0000000448641 	1.33487877905475e-07 	101325.0000529884
-0.5568068068068072 	300.0000000248405 	7.397181010367258e-08 	101325.0000293379
-0.5543043043043046 	300.0000000136474 	4.065308963464487e-08 	101325.0000161082
-0.551801801801802 	300.0000000073709 	2.216272126055196e-08 	101325.0000087713
-0.5492992992992995 	300.0000000040092 	1.198535993275003e-08 	101325.0000047366
-0.5467967967967969 	300.0000000021696 	6.433044993027563e-09 	101325.000002536
-0.5442942942942947 	300.0000000011553 	3.425666999644726e-09 	101325.0000013459
-0.5417917917917919 	300.0000000005635 	1.812787999902437e-09 	101325.0000007071
-0.5392892892892895 	300.0000000002393 	9.499308492382402e-10 	101325.0000003669
-0.536786786786787 	300.0000000001176 	4.976683111352095e-10 	101325.000000187
-0.5342842842842846 	300.0000000000409 	2.560309359206938e-10 	101325.0000000925
-0.531781781781782 	299.9999999999782 	1.349334196697216e-10 	101325.0000000433
-0.5292792792792794 	299.9999999999495 	6.672374438418933e-11 	101325.0000000177
-0.526776776776777 	299.9999999999135 	3.823313277986883e-11 	101325.0000000045
-0.5242742742742745 	299.9999999999803 	1.552264133029932e-11 	101324.9999999978
-0.521771771771772 	300.0000000000202 	1.380871890185251e-11 	101324.9999999946
-0.5192692692692695 	299.9999999999599 	3.429230957818313e-12 	101324.9999999933
-0.516766766766767 	300.000000000008 	8.291110662215515e-12 	101324.9999999926
-0.5142642642642645 	299.9999999999683 	2.989589824274667e-12 	101324.9999999924
-0.511761761761762 	299.9999999999512 	7.184385479782554e-12 	101324.9999999922
-0.5092592592592596 	299.999999999972 	2.63042479293248e-12 	101324.999999992
-0.506756756756757 	299.9999999999363 	5.510641645377149e-12 	101324.9999999921
-0.5042542542542544 	299.9999999999944 	1.835380584612569e-12 	101324.999999992
-0.5017517517517521 	300.0000000000293 	4.980430880246833e-12 	101324.9999999919
-0.4992492492492494 	300.0000000000323 	1.89071598709951e-12 	101324.9999999919
-0.496746746746747 	299.9999999999841 	4.919294821420008e-12 	101324.999999992
-0.4942442442442445 	299.99999999994 	2.673134651491193e-12 	101324.999999992
-0.4917417417417421 	299.9999999999388 	4.874576461640639e-12 	101324.9999999921
-0.4892392392392395 	299.9999999999567 	2.789037465858287e-12 	101324.999999992
-0.486736736736737 	299.9999999999594 	5.286355178558813e-12 	101324.9999999919
-0.4842342342342345 	299.9999999999201 	2.277646496136369e-12 	101324.9999999918
-0.481731731731732 	300.0000000000344 	5.07605997769689e-12 	101324.9999999916
-0.4792292292292296 	300.0000000000197 	1.860715364017993e-12 	101324.9999999916
-0.4767267267267268 	299.9999999999507 	6.557978794239026e-12 	101324.9999999917
-0.4742242242242246 	299.9999999999926 	2.096666755539232e-12 	101324.9999999916
-0.471721721721722 	299.9999999999538 	5.939955605507219e-12 	101324.9999999918
-0.4692192192192195 	299.9999999999727 	2.408347108159439e-12 	101324.9999999919
-0.4667167167167169 	299.9999999999063 	5.707333257425459e-12 	101324.9999999917
-0.4642142142142145 	299.9999999999924 	3.255892390328653e-12 	101324.9999999917
-0.461711711711712 	300.0000000000144 	5.780398965906757e-12 	101324.9999999917
-0.4592092092092094 	300.0000000000101 	3.918962636319525e-12 	101324.9999999917
-0.456706706706707 	300.0000000000464 	5.986448295137417e-12 	101324.9999999915
-0.4542042042042045 	299.999999999939 	4.21386608139536e-12 	101324.9999999912
-0.451701701701702 	299.9999999999524 	5.602785619574321e-12 	101324.999999991
-0.4491991991991995 	299.9999999999604 	3.238023714580149e-12 	101324.9999999909
-0.4466966966966969 	299.9999999999587 	4.854133971288026e-12 	101324.999999991
-0.4441941941941945 	299.9999999999918 	2.020839961609028e-12 	101324.9999999908
-0.441691691691692 	299.9999999999559 	4.310083773587681e-12 	101324.999999991
-0.4391891891891895 	299.9999999999871 	1.234132033030935e-12 	101324.9999999913
-0.436686686686687 	299.9999999999663 	5.375996068860342e-12 	101324.9999999913
-0.4341841841841846 	299.9999999999945 	2.058637864309963e-12 	101324.9999999913
-0.431681681681682 	299.9999999999457 	4.504541464251837e-12 	101324.9999999911
-0.4291791791791794 	299.9999999999263 	1.447231052048223e-12 	101324.9999999908
-0.426676676676677 	299.999999999912 	3.506367242116433e-12 	101324.9999999906
-0.4241741741741744 	299.9999999999672 	9.317331199981765e-13 	101324.9999999909
-0.421671671671672 	300.000000000002 	3.182477996588691e-12 	101324.999999991
-0.4191691691691694 	300.000000000048 	1.944110167743216e-12 	101324.9999999911
-0.4166666666666669 	300.0000000000556 	3.669252202734077e-12 	101324.9999999914
-0.4141641641641645 	299.9999999999358 	2.158353556354164e-12 	101324.9999999913
-0.411661661661662 	300.0000000000027 	3.384753335130079e-12 	101324.9999999915
-0.4091591591591594 	300.0000000000031 	2.927614284283245e-12 	101324.9999999914
-0.406656656656657 	299.9999999999404 	4.101827663553578e-12 	101324.9999999915
-0.4041541541541545 	300.0000000000111 	1.825672731110499e-12 	101324.9999999916
-0.401651651651652 	299.9999999999245 	4.026039248730221e-12 	101324.9999999917
-0.3991491491491494 	300.0000000000019 	1.164744313990057e-12 	101324.9999999915
-0.396646646646647 	299.9999999999562 	4.208785627522441e-12 	101324.9999999916
-0.3941441441441444 	299.9999999999817 	2.449437281721959e-12 	101324.9999999916
-0.3916416416416419 	299.9999999999377 	3.333573506875083e-12 	101324.9999999916
-0.3891391391391395 	299.9999999999567 	2.085311662244621e-12 	101324.9999999916
-0.3866366366366368 	299.9999999999585 	1.728053079425743e-12 	101324.9999999914
-0.3841341341341344 	299.9999999999972 	1.049420824644467e-12 	101324.9999999913
-0.381631631631632 	299.9999999999487 	1.136416501056722e-12 	101324.9999999912
-0.3791291291291294 	300.0000000000015 	4.393373223209301e-13 	101324.9999999914
-0.3766266266266269 	300.0000000000215 	7.763689583328201e-13 	101324.9999999916
-0.3741241241241244 	300.0000000000239 	2.058466757513416e-12 	101324.9999999918
-0.371621621621622 	300.0000000000201 	3.533354882441028e-13 	101324.9999999919
-0.3691191191191194 	300.0000000000038 	3.041253002172744e-12 	101324.9999999921
-0.366616616616617 	300.0000000000083 	1.023312993607129e-12 	101324.9999999921
-0.3641141141141143 	299.9999999999664 	3.639888652495104e-12 	101324.9999999919
-0.3616116116116119 	299.9999999999507 	1.299199408309324e-12 	101324.9999999915
-0.3591091091091095 	299.999999999986 	2.278063734577118e-12 	101324.9999999912
-0.356606606606607 	299.9999999999776 	1.366157045321855e-12 	101324.9999999913
-0.3541041041041044 	299.9999999999899 	9.769319552036414e-13 	101324.9999999912
-0.3516016016016019 	300.0000000000106 	2.027185603742068e-12 	101324.9999999912
-0.3490990990990994 	299.9999999999939 	5.542426137861534e-13 	101324.9999999911
-0.346596596596597 	300.0000000000391 	2.867233021994438e-12 	101324.9999999911
-0.3440940940940944 	300.0000000000468 	6.157806471026902e-13 	101324.9999999912
-0.3415915915915919 	300.000000000018 	3.165453395594126e-12 	101324.9999999911
-0.3390890890890895 	299.9999999999794 	1.947173400326658e-12 	101324.9999999912
-0.3365865865865869 	300.0000000000147 	3.590500012260337e-12 	101324.9999999911
-0.3340840840840844 	300.0000000000015 	2.846591078005943e-12 	101324.9999999913
-0.3315815815815819 	300.0000000000213 	3.835887866303149e-12 	101324.9999999914
-0.3290790790790794 	300.0000000000201 	3.796503749822047e-12 	101324.9999999915
-0.3265765765765769 	299.9999999999289 	5.311962736043908e-12 	101324.9999999916
-0.3240740740740744 	299.9999999999935 	3.665763134809786e-12 	101324.9999999916
-0.3215715715715718 	300.0000000000044 	5.023819356704542e-12 	101324.9999999918
-0.3190690690690695 	299.9999999999349 	2.62595817868907e-12 	101324.9999999916
-0.3165665665665668 	299.9999999999904 	3.803442002164044e-12 	101324.9999999918
-0.3140640640640644 	300.0000000000022 	9.66223144500012e-13 	101324.9999999916
-0.311561561561562 	299.9999999999281 	4.278061053336181e-12 	101324.9999999915
-0.3090590590590593 	299.9999999999918 	1.198994979969143e-12 	101324.9999999915
-0.3065565565565568 	300.0000000000038 	6.008507825581536e-12 	101324.9999999914
-0.3040540540540545 	300.0000000000039 	1.528679613518292e-12 	101324.9999999915
-0.3015515515515518 	300.0000000000352 	5.411146313895211e-12 	101324.9999999914
-0.2990490490490494 	299.9999999999521 	2.097023009563388e-12 	101324.9999999917
-0.2965465465465469 	299.9999999999871 	5.019013216264574e-12 	101324.9999999916
-0.2940440440440444 	300.0000000000009 	4.191894701119396e-12 	101324.9999999919
-0.2915415415415418 	300.000000000006 	5.182653003787012e-12 	101324.9999999921
-0.2890390390390395 	300.0000000000049 	5.249665997293459e-12 	101324.9999999923
-0.2865365365365368 	299.9999999999791 	3.352816776900931e-12 	101324.9999999919
-0.2840340340340343 	299.9999999999991 	4.926727706585271e-12 	101324.9999999918
-0.2815315315315318 	299.9999999999292 	2.196690227568406e-12 	101324.9999999917
-0.2790290290290295 	299.9999999999592 	3.675999610872984e-12 	101324.9999999915
-0.2765265265265269 	300.000000000005 	2.626696358399901e-12 	101324.9999999916
-0.2740240240240244 	300.0000000000246 	3.657627522357128e-12 	101324.9999999916
-0.2715215215215219 	300.0000000000172 	3.965548199144375e-12 	101324.999999992
-0.2690190190190194 	299.9999999999471 	3.753450936500606e-12 	101324.9999999919
-0.2665165165165169 	299.9999999999977 	3.867026039061419e-12 	101324.9999999919
-0.2640140140140144 	299.9999999999694 	2.387732500410274e-12 	101324.999999992
-0.2615115115115119 	300.0000000000024 	4.583595917819176e-12 	101324.9999999919
-0.2590090090090094 	299.9999999999359 	2.795001579902473e-12 	101324.9999999921
-0.2565065065065068 	299.9999999999946 	4.054403553715134e-12 	101324.9999999922
-0.2540040040040044 	299.999999999997 	4.190539919849467e-12 	101324.9999999921
-0.2515015015015019 	300.0000000000388 	3.134965184306173e-12 	101324.9999999919
-0.2489989989989994 	300.0000000000434 	4.982976175212366e-12 	101324.9999999917
-0.2464964964964968 	299.9999999999908 	1.990835509818771e-12 	101324.9999999917
-0.2439939939939944 	299.9999999999958 	5.867164575418089e-12 	101324.9999999917
-0.2414914914914919 	299.9999999999688 	2.229352034280265e-12 	101324.9999999915
-0.2389889889889893 	300.0000000000022 	6.358349305889364e-12 	101324.9999999915
-0.2364864864864869 	300.0000000000229 	2.600882442657393e-12 	101324.9999999915
-0.2339839839839843 	299.9999999999322 	6.985138992103854e-12 	101324.9999999915
-0.2314814814814819 	299.9999999999824 	2.762322299932125e-12 	101324.9999999915
-0.2289789789789792 	299.9999999999221 	5.602220621040128e-12 	101324.9999999914
-0.2264764764764769 	299.9999999999479 	2.646004330681648e-12 	101324.9999999913
-0.2239739739739743 	299.9999999999576 	3.918910718746838e-12 	101324.9999999913
-0.2214714714714718 	299.9999999999422 	3.508452747214047e-12 	101324.9999999914
-0.2189689689689693 	299.9999999999681 	3.273038546859185e-12 	101324.9999999916
-0.2164664664664669 	299.9999999999849 	4.744861052627581e-12 	101324.9999999917
-0.2139639639639643 	299.9999999999362 	3.000619462351491e-12 	101324.9999999919
-0.2114614614614618 	299.9999999999766 	3.719293536562138e-12 	101324.9999999921
-0.2089589589589593 	299.9999999999901 	3.21930328795925e-12 	101324.9999999923
-0.2064564564564568 	299.9999999999895 	3.00542529460336e-12 	101324.9999999925
-0.2039539539539543 	299.9999999999146 	3.7577965669307e-12 	101324.9999999924
-0.2014514514514518 	299.9999999999489 	7.396212623261703e-13 	101324.9999999923
-0.1989489489489494 	299.99999999997 	3.091584813774084e-12 	101324.9999999923
-0.1964464464464468 	299.9999999999922 	9.985198033246955e-13 	101324.9999999922
-0.1939439439439443 	299.999999999992 	3.342922038979622e-12 	101324.999999992
-0.1914414414414418 	299.9999999999254 	8.07045904327975e-13 	101324.9999999919
-0.1889389389389393 	300.0000000000078 	2.751860267922255e-12 	101324.9999999919
-0.1864364364364368 	300.000000000036 	2.316984545720202e-12 	101324.9999999917
-0.1839339339339343 	299.999999999974 	4.092173728294271e-12 	101324.9999999917
-0.1814314314314318 	299.9999999999952 	3.108435825397205e-12 	101324.9999999918
-0.1789289289289293 	299.9999999999051 	4.316205353112481e-12 	101324.9999999917
-0.1764264264264268 	299.9999999999841 	2.616807133199162e-12 	101324.9999999921
-0.1739239239239243 	299.9999999999062 	5.322239366740075e-12 	101324.999999992
-0.1714214214214218 	299.999999999991 	1.931379991542703e-12 	101324.9999999919
-0.1689189189189193 	299.999999999954 	6.457060027696454e-12 	101324.9999999918
-0.1664164164164168 	300.000000000003 	6.779885398130831e-13 	101324.9999999916
-0.1639139139139143 	299.9999999999833 	6.972072483913408e-12 	101324.9999999917
-0.1614114114114118 	300.0000000000231 	2.148239909449599e-12 	101324.9999999915
-0.1589089089089093 	299.9999999999949 	8.82087781773608e-12 	101324.9999999914
-0.1564064064064068 	299.9999999999846 	3.4762056253942e-12 	101324.9999999914
-0.1539039039039043 	299.9999999999919 	8.742176327252278e-12 	101324.9999999916
-0.1514014014014018 	300.0000000000263 	2.979311070461539e-12 	101324.9999999916
-0.1488988988988993 	299.9999999999833 	7.952881127120192e-12 	101324.9999999916
-0.1463963963963968 	299.9999999999985 	1.666980177436253e-12 	101324.9999999916
-0.1438938938938943 	299.9999999999508 	6.733961881165248e-12 	101324.9999999916
-0.1413913913913918 	299.9999999999278 	7.045336165953382e-13 	101324.9999999917
-0.1388888888888893 	299.9999999999793 	4.897784396585147e-12 	101324.9999999917
-0.1363863863863868 	299.999999999897 	1.358179002896932e-12 	101324.9999999915
-0.1338838838838843 	299.9999999999164 	4.058114375529584e-12 	101324.9999999914
-0.1313813813813818 	299.9999999999943 	1.617820234460633e-12 	101324.9999999914
-0.1288788788788793 	299.9999999999605 	3.99315052241087e-12 	101324.9999999913
-0.1263763763763768 	299.9999999999713 	1.562223906072048e-12 	101324.9999999912
-0.1238738738738743 	299.9999999999338 	4.103111889313078e-12 	101324.9999999913
-0.1213713713713717 	299.9999999999803 	6.199396067575821e-13 	101324.9999999911
-0.1188688688688693 	300.0000000000062 	4.459146361535589e-12 	101324.9999999912
-0.1163663663663668 	299.9999999999122 	9.134715910154619e-13 	101324.9999999913
-0.1138638638638643 	299.9999999999873 	3.502812530118671e-12 	101324.9999999914
-0.1113613613613618 	299.9999999999837 	2.732400814300495e-12 	101324.9999999915
-0.1088588588588592 	299.9999999999785 	3.840025830952129e-12 	101324.9999999916
-0.1063563563563568 	299.9999999999545 	1.728273572176917e-12 	101324.9999999915
-0.1038538538538543 	299.9999999999733 	3.487572256383814e-12 	101324.9999999914
-0.1013513513513517 	300.0000000000147 	6.012602833054558e-13 	101324.9999999914
-0.09884884884884926 	299.999999999947 	3.332203576728633e-12 	101324.9999999912
-0.09634634634634676 	299.9999999999026 	5.689336595762234e-13 	101324.9999999914
-0.09384384384384425 	299.9999999999317 	2.507213687323445e-12 	101324.9999999912
-0.09134134134134177 	300.0000000000217 	1.336839408868441e-12 	101324.9999999913
-0.08883883883883925 	300.000000000005 	3.237422835166256e-12 	101324.9999999912
-0.08633633633633674 	299.9999999999542 	2.914135518356403e-12 	101324.9999999913
-0.08383383383383426 	300.0000000000067 	4.076847659261298e-12 	101324.9999999911
-0.08133133133133173 	299.9999999999688 	5.04248133335051e-12 	101324.9999999912
-0.07882882882882926 	299.9999999998877 	5.061366262225093e-12 	101324.9999999911
-0.07632632632632676 	299.9999999999611 	4.683792070046238e-12 	101324.9999999912
-0.07382382382382424 	299.9999999999043 	4.21070001334316e-12 	101324.9999999913
-0.07132132132132173 	300.0000000000106 	3.737225471918625e-12 	101324.9999999914
-0.06881881881881925 	299.9999999999611 	3.370218193130792e-12 	101324.9999999912
-0.06631631631631671 	299.9999999998984 	2.417542119845571e-12 	101324.9999999912
-0.06381381381381425 	299.9999999999552 	2.331478665984053e-12 	101324.9999999911
-0.06131131131131173 	299.9999999999574 	2.554981343031474e-12 	101324.9999999911
-0.05880880880880923 	299.9999999999227 	2.272158522767125e-12 	101324.9999999912
-0.05630630630630672 	299.9999999999685 	2.066810279291854e-12 	101324.9999999913
-0.05380380380380424 	300.000000000015 	3.224905973602292e-12 	101324.9999999916
-0.05130130130130173 	300.0000000000134 	3.73209155112844e-12 	101324.9999999918
-0.04879879879879922 	299.9999999999447 	3.470679736355759e-12 	101324.9999999921
-0.04629629629629672 	299.9999999999347 	2.297661504409438e-12 	101324.9999999921
-0.04379379379379422 	299.999999999922 	2.349353947997453e-12 	101324.9999999921
-0.04129129129129173 	299.9999999999769 	1.514237078323846e-12 	101324.9999999918
-0.03878878878878922 	299.9999999999843 	1.446085920912123e-12 	101324.9999999918
-0.03628628628628671 	299.9999999999839 	1.129489792481855e-12 	101324.9999999916
-0.03378378378378422 	299.9999999999328 	1.406097782358083e-12 	101324.9999999918
-0.03128128128128172 	299.9999999999687 	7.859533322145431e-13 	101324.9999999916
-0.02877877877877922 	299.999999999969 	1.221400737236968e-12 	101324.9999999918
-0.0262762762762767 	299.9999999999062 	9.529750442580234e-13 	101324.9999999915
-0.02377377377377422 	300.0000000000187 	9.094016321880038e-13 	101324.9999999916
-0.0212712712712717 	299.9999999999082 	9.001133049806627e-13 	101324.9999999917
-0.01876876876876921 	299.9999999999712 	1.244640490351909e-13 	101324.9999999916
-0.01626626626626671 	300.000000000012 	4.705839219873817e-13 	101324.9999999917
-0.0137637637637642 	299.9999999999674 	2.354340188334672e-13 	101324.9999999916
-0.0112612612612617 	300.0000000000133 	7.722509748457067e-13 	101324.9999999916
-0.008758758758759198 	299.9999999999969 	5.442949505998626e-13 	101324.9999999916
-0.006256256256256697 	299.9999999998934 	5.97137986413185e-13 	101324.9999999918
-0.003753753753754195 	299.9999999999553 	7.948969438749954e-14 	101324.9999999919
-0.001251251251251693 	299.9999999999304 	2.24815478458613e-13 	101324.999999992
0.00125125125125081 	299.999999999957 	8.023910607923971e-13 	101324.9999999917
0.003753753753753312 	299.999999999965 	5.588785444881504e-13 	101324.9999999916
0.006256256256255817 	299.9999999998929 	1.22395538254035e-12 	101324.9999999917
0.008758758758758317 	299.9999999999886 	6.634912760513195e-13 	101324.9999999918
0.01126126126126082 	300.0000000000089 	3.903793603581943e-13 	101324.9999999921
0.01376376376376332 	299.9999999999692 	3.374953239225116e-13 	101324.9999999922
0.01626626626626582 	300.0000000000097 	3.633600408056052e-13 	101324.9999999924
0.01876876876876833 	299.9999999999582 	8.425941476445648e-14 	101324.9999999925
0.02127127127127083 	299.9999999999702 	4.828881040687827e-13 	101324.9999999926
0.02377377377377332 	299.9999999999948 	6.985427475865294e-13 	101324.9999999922
0.02627627627627583 	299.9999999999115 	1.74430124549006e-12 	101324.999999992
0.02877877877877833 	300.000000000009 	2.567988124579744e-12 	101324.9999999918
0.03128128128128083 	299.9999999999495 	2.352229398564979e-12 	101324.9999999917
0.03378378378378333 	299.9999999999089 	2.35596480040848e-12 	101324.9999999916
0.03628628628628584 	299.9999999999733 	1.288699337262982e-12 	101324.9999999917
0.03878878878878834 	299.9999999999799 	8.9048128502495e-13 	101324.9999999917
0.04129129129129084 	299.9999999999762 	1.010365481608394e-12 	101324.9999999918
0.04379379379379333 	299.9999999999437 	1.311292845494103e-12 	101324.9999999918
0.04629629629629585 	299.999999999897 	1.392873678271135e-12 	101324.9999999919
0.04879879879879834 	299.999999999955 	1.745727124707545e-12 	101324.9999999919
0.05130130130130085 	300.0000000000133 	2.200970321187871e-12 	101324.9999999913
0.05380380380380335 	300.0000000000138 	2.697205545004877e-12 	101324.9999999914
0.05630630630630584 	299.9999999999914 	2.96291634472018e-12 	101324.9999999915
0.05880880880880836 	299.999999999927 	2.586246843761139e-12 	101324.9999999912
0.06131131131131085 	299.9999999999732 	2.719119075500311e-12 	101324.9999999908
0.06381381381381336 	299.9999999999695 	2.72335125976529e-12 	101324.9999999908
0.06631631631631586 	299.9999999998965 	2.295290721547071e-12 	101324.999999991
0.06881881881881835 	299.9999999999503 	2.396341915939659e-12 	101324.9999999912
0.07132132132132088 	299.9999999999882 	1.91686345886537e-12 	101324.9999999911
0.07382382382382337 	299.99999999991 	1.86719340329255e-12 	101324.9999999911
0.07632632632632587 	299.9999999999727 	1.996502416865587e-12 	101324.9999999911
0.07882882882882837 	299.9999999999425 	2.291586535151192e-12 	101324.9999999913
0.08133133133133086 	299.9999999999841 	3.039190287874556e-12 	101324.9999999914
0.08383383383383337 	299.9999999999829 	2.651686684086881e-12 	101324.9999999914
0.08633633633633589 	299.9999999999093 	2.722549815981782e-12 	101324.9999999913
0.08883883883883838 	300.0000000000101 	3.001517905916619e-12 	101324.9999999912
0.09134134134134086 	299.9999999999923 	2.702297231490708e-12 	101324.9999999913
0.09384384384384339 	299.9999999999035 	3.7251431605289e-12 	101324.9999999914
0.09634634634634588 	299.9999999999683 	3.595558804320414e-12 	101324.9999999915
0.09884884884884838 	299.9999999999739 	3.590734553384909e-12 	101324.9999999915
0.1013513513513509 	300.0000000000172 	3.456082909694244e-12 	101324.9999999916
0.1038538538538534 	299.9999999999498 	3.170938384873949e-12 	101324.9999999914
0.1063563563563559 	300.0000000000173 	3.138666678879591e-12 	101324.9999999911
0.1088588588588584 	300.0000000000247 	2.617036297992858e-12 	101324.999999991
0.1113613613613609 	299.9999999999208 	2.504912347609626e-12 	101324.9999999912
0.1138638638638634 	299.9999999999503 	2.65517478404172e-12 	101324.9999999913
0.1163663663663659 	299.9999999999462 	3.035941011146661e-12 	101324.9999999913
0.1188688688688684 	299.9999999999714 	2.734114338388912e-12 	101324.9999999913
0.1213713713713709 	299.9999999999919 	2.31186496670001e-12 	101324.9999999913
0.1238738738738734 	299.9999999999294 	2.814226930796991e-12 	101324.9999999914
0.1263763763763759 	299.9999999999845 	2.314221986983907e-12 	101324.9999999915
0.1288788788788784 	299.9999999999892 	1.652102197188909e-12 	101324.9999999914
0.1313813813813809 	299.9999999999882 	1.691136284324774e-12 	101324.9999999914
0.1338838838838834 	299.9999999999758 	2.175250863164389e-12 	101324.9999999914
0.1363863863863859 	300.0000000000253 	2.187704551225931e-12 	101324.9999999911
0.1388888888888884 	300.0000000000431 	2.254335630396157e-12 	101324.9999999911
0.1413913913913909 	300.0000000000006 	1.389074995837451e-12 	101324.999999991
0.1438938938938934 	299.9999999999931 	1.796916548304993e-12 	101324.9999999912
0.1463963963963959 	299.9999999999621 	1.066216458754892e-12 	101324.9999999913
0.1488988988988985 	299.9999999999142 	2.482327083789055e-12 	101324.999999991
0.1514014014014009 	299.9999999999716 	7.532501556204551e-13 	101324.999999991
0.1539039039039035 	299.999999999963 	2.651886984827128e-12 	101324.9999999913
0.1564064064064059 	299.9999999999392 	3.203226767019123e-13 	101324.9999999913
0.1589089089089084 	299.9999999999808 	3.301898020149652e-12 	101324.9999999914
0.1614114114114109 	299.9999999999765 	8.601780301426295e-13 	101324.9999999914
0.1639139139139134 	299.9999999999152 	2.891058162256831e-12 	101324.9999999914
0.166416416416416 	300.0000000000048 	2.660606325696717e-12 	101324.9999999913
0.1689189189189185 	300.0000000000265 	2.543877558052809e-12 	101324.9999999915
0.1714214214214209 	299.9999999999943 	3.458881642649358e-12 	101324.9999999914
0.1739239239239235 	299.9999999999857 	2.511567734525502e-12 	101324.9999999913
0.1764264264264259 	299.9999999999673 	4.914048053362545e-12 	101324.9999999913
0.1789289289289284 	300.0000000000066 	2.188238357811386e-12 	101324.9999999915
0.181431431431431 	299.9999999999664 	4.561703631205218e-12 	101324.9999999916
0.1839339339339334 	299.9999999999721 	2.02226731975935e-12 	101324.9999999919
0.186436436436436 	299.9999999999279 	3.456946375848568e-12 	101324.9999999919
0.1889389389389385 	299.9999999999844 	3.328068509564718e-12 	101324.999999992
0.191441441441441 	299.9999999999798 	2.754083887946493e-12 	101324.9999999921
0.1939439439439434 	299.9999999999233 	3.716597870198166e-12 	101324.999999992
0.196446446446446 	299.9999999999503 	1.565343677711268e-12 	101324.9999999921
0.1989489489489485 	299.9999999999648 	4.003144515139755e-12 	101324.9999999918
0.2014514514514509 	299.9999999999838 	1.654081342907007e-12 	101324.9999999917
0.2039539539539535 	299.999999999995 	3.045303703256746e-12 	101324.9999999919
0.2064564564564559 	299.9999999999622 	2.541733327471683e-12 	101324.9999999921
0.2089589589589585 	299.9999999999844 	3.244894984926185e-12 	101324.9999999921
0.211461461461461 	299.9999999999325 	3.447025927559845e-12 	101324.9999999919
0.2139639639639635 	299.9999999999806 	2.918879807132375e-12 	101324.999999992
0.2164664664664659 	299.9999999999965 	4.580818625375596e-12 	101324.9999999919
0.2189689689689684 	299.9999999999962 	2.775871108560442e-12 	101324.9999999919
0.221471471471471 	299.9999999999922 	5.277419531345303e-12 	101324.9999999918
0.2239739739739735 	299.9999999999602 	2.721375384845573e-12 	101324.9999999914
0.226476476476476 	299.99999999998 	3.790759074003963e-12 	101324.9999999912
0.2289789789789785 	299.9999999999937 	2.740988788482108e-12 	101324.9999999912
0.231481481481481 	299.9999999999884 	2.753962957063629e-12 	101324.9999999912
0.2339839839839835 	299.9999999999867 	3.124305929061394e-12 	101324.9999999911
0.236486486486486 	300.0000000000205 	2.175795276317842e-12 	101324.9999999911
0.2389889889889885 	300.0000000000059 	4.157389128096731e-12 	101324.9999999909
0.241491491491491 	299.9999999999273 	1.995554351694445e-12 	101324.9999999908
0.2439939939939935 	299.9999999999787 	4.862353904669727e-12 	101324.9999999911
0.246496496496496 	299.9999999999911 	2.178144904602598e-12 	101324.9999999914
0.2489989989989985 	300.0000000000329 	3.412786358732544e-12 	101324.9999999914
0.251501501501501 	300.0000000000273 	1.69955242796052e-12 	101324.9999999917
0.2540040040040035 	299.9999999999887 	1.794501345909237e-12 	101324.9999999919
0.256506506506506 	300.0000000000242 	2.220421254464148e-12 	101324.9999999918
0.2590090090090086 	299.9999999999126 	5.429188698994176e-13 	101324.9999999919
0.261511511511511 	299.9999999999985 	2.780414077536468e-12 	101324.9999999918
0.2640140140140135 	299.9999999999918 	8.650148061320039e-13 	101324.9999999916
0.2665165165165161 	299.9999999999343 	2.529697574359709e-12 	101324.9999999915
0.2690190190190185 	300.000000000003 	1.455612507240708e-12 	101324.9999999914
0.271521521521521 	300.0000000000073 	1.213093897088726e-12 	101324.9999999912
0.2740240240240235 	300.0000000000148 	1.276682549284513e-12 	101324.999999991
0.276526526526526 	300.0000000000071 	4.29477560972723e-13 	101324.9999999912
0.2790290290290286 	299.9999999999434 	1.718225751978666e-12 	101324.9999999911
0.281531531531531 	299.99999999993 	5.026258095545214e-13 	101324.9999999909
0.2840340340340335 	299.9999999999778 	2.126447482202745e-12 	101324.9999999909
0.2865365365365361 	299.9999999999587 	6.879060071663304e-13 	101324.9999999908
0.2890390390390385 	299.999999999998 	1.185802982045665e-12 	101324.9999999909
0.291541541541541 	299.9999999999967 	3.442926678851195e-13 	101324.9999999908
0.2940440440440436 	299.9999999999883 	5.76315708055909e-13 	101324.9999999909
0.296546546546546 	299.9999999999921 	1.810879547146617e-12 	101324.9999999911
0.2990490490490486 	299.99999999994 	8.70376970220965e-13 	101324.9999999914
0.3015515515515511 	300.000000000034 	4.405441169492075e-12 	101324.9999999913
0.3040540540540535 	299.999999999999 	1.790578188583357e-12 	101324.9999999914
0.3065565565565562 	299.999999999996 	5.055190370596581e-12 	101324.9999999916
0.3090590590590585 	299.9999999999905 	1.534292138137212e-12 	101324.9999999914
0.3115615615615611 	299.999999999942 	4.155446103816329e-12 	101324.9999999914
0.3140640640640635 	300.0000000000067 	8.862091144677442e-13 	101324.9999999913
0.316566566566566 	299.9999999999948 	3.468855882882357e-12 	101324.9999999914
0.3190690690690687 	299.9999999999576 	1.686676901269105e-12 	101324.9999999914
0.3215715715715711 	300.0000000000161 	4.017167640005771e-12 	101324.9999999913
0.3240740740740735 	300.0000000000015 	1.950581576746619e-12 	101324.9999999915
0.326576576576576 	299.9999999999148 	2.987757930399409e-12 	101324.9999999914
0.3290790790790786 	300.0000000000062 	1.558220976419445e-12 	101324.9999999914
0.3315815815815811 	300.0000000000232 	2.21210496284902e-12 	101324.9999999912
0.3340840840840836 	299.999999999989 	8.994454552032848e-13 	101324.9999999911
0.3365865865865861 	300.0000000000475 	1.428385561742848e-12 	101324.9999999911
0.3390890890890886 	300.0000000000452 	6.241329442312131e-13 	101324.999999991
0.3415915915915911 	300.0000000000006 	1.402111590006695e-12 	101324.999999991
0.3440940940940935 	299.9999999999516 	6.804825191649223e-13 	101324.9999999912
0.3465965965965962 	300.0000000000297 	2.606886284641938e-12 	101324.9999999909
0.3490990990990985 	300.0000000000231 	1.264306828453461e-12 	101324.9999999907
0.3516016016016011 	299.999999999987 	2.031331287906457e-12 	101324.9999999909
0.3541041041041035 	300.0000000000031 	1.400567635162673e-12 	101324.9999999908
0.3566066066066061 	299.9999999999562 	5.637146186223698e-13 	101324.999999991
0.3591091091091085 	299.9999999999245 	1.531871751514651e-12 	101324.9999999911
0.3616116116116112 	299.9999999999446 	1.119746485942437e-12 	101324.9999999911
0.3641141141141137 	299.9999999999396 	2.733202435977344e-12 	101324.9999999912
0.3666166166166161 	299.9999999999325 	1.832175422221993e-12 	101324.9999999912
0.3691191191191185 	300.0000000000379 	4.095135170515374e-12 	101324.999999991
0.371621621621621 	300.00000000001 	1.49111059179053e-12 	101324.9999999908
0.3741241241241237 	300.0000000000429 	3.265553419214082e-12 	101324.9999999908
0.3766266266266261 	300.0000000000252 	5.825850474837588e-13 	101324.9999999906
0.3791291291291286 	299.999999999982 	2.05102083680688e-12 	101324.9999999903
0.3816316316316311 	299.9999999999242 	1.088832653761778e-12 	101324.9999999901
0.3841341341341336 	300.0000000000093 	1.55202278798681e-12 	101324.9999999901
0.3866366366366362 	299.9999999999964 	7.729582446738279e-13 	101324.99999999
0.3891391391391387 	299.999999999958 	1.369009202797655e-12 	101324.9999999901
0.391641641641641 	299.9999999999928 	2.11445421654535e-13 	101324.9999999904
0.3941441441441436 	300.0000000000068 	1.035283905222573e-12 	101324.9999999905
0.3966466466466462 	299.9999999999981 	2.539202112050044e-13 	101324.9999999906
0.3991491491491486 	299.9999999999483 	1.323632848621229e-12 	101324.9999999906
0.4016516516516512 	299.999999999922 	5.480945172067207e-13 	101324.9999999907
0.4041541541541536 	299.9999999999544 	1.612359618601424e-12 	101324.9999999909
0.4066566566566561 	299.9999999999516 	9.816738483536121e-13 	101324.9999999909
0.4091591591591587 	299.999999999997 	1.399875588813139e-12 	101324.999999991
0.4116616616616612 	300.0000000000059 	2.113897614697783e-13 	101324.9999999911
0.4141641641641635 	300.0000000000382 	8.44956040622195e-13 	101324.9999999913
0.4166666666666662 	299.9999999999941 	8.92936413744318e-13 	101324.9999999915
0.4191691691691687 	299.999999999944 	5.574298983132262e-13 	101324.9999999913
0.421671671671671 	300.000000000007 	2.288733403915545e-12 	101324.9999999909
0.4241741741741737 	299.9999999999777 	2.022118329065052e-12 	101324.9999999907
0.4266766766766761 	299.9999999999544 	2.808764192646241e-12 	101324.9999999904
0.4291791791791785 	300.0000000000184 	2.897381285420838e-12 	101324.9999999906
0.4316816816816812 	300.0000000000079 	3.192775269708042e-12 	101324.9999999904
0.4341841841841836 	299.9999999999824 	2.599349646638401e-12 	101324.9999999904
0.4366866866866862 	299.9999999999238 	2.057668496602095e-12 	101324.9999999906
0.4391891891891885 	299.9999999999881 	2.05979438433701e-12 	101324.9999999907
0.4416916916916913 	299.9999999999815 	9.101174289970978e-13 	101324.9999999908
0.4441941941941936 	299.9999999999878 	2.457513959743128e-12 	101324.999999991
0.4466966966966961 	299.9999999999237 	1.5628634027327e-12 	101324.9999999911
0.4491991991991987 	299.9999999999852 	2.019257455614517e-12 	101324.9999999911
0.4517017017017012 	299.9999999999825 	1.795013978335759e-12 	101324.9999999911
0.4542042042042035 	299.9999999999833 	1.656361134292319e-12 	101324.9999999911
0.4567067067067062 	299.9999999999971 	1.813120264127769e-12 	101324.9999999912
0.4592092092092087 	299.999999999935 	1.30957850017926e-12 	101324.9999999912
0.4617117117117112 	300.0000000000155 	1.199753264875534e-12 	101324.9999999913
0.4642142142142137 	299.9999999999679 	1.121328581952318e-12 	101324.9999999912
0.4667167167167162 	299.9999999999926 	1.06921740506081e-12 	101324.9999999913
0.4692192192192187 	299.9999999999617 	1.086068712971403e-12 	101324.9999999914
0.4717217217217212 	300.0000000000115 	1.045635944976135e-12 	101324.9999999911
0.4742242242242236 	299.999999999959 	1.329538380768794e-12 	101324.9999999911
0.4767267267267262 	299.9999999999806 	9.122493795319553e-13 	101324.9999999911
0.4792292292292287 	300.0000000000132 	7.879976602122964e-13 	101324.9999999909
0.4817317317317312 	300.0000000000255 	1.068949844316779e-12 	101324.9999999909
0.4842342342342336 	299.9999999999845 	1.038631063678212e-12 	101324.9999999908
0.4867367367367362 	299.9999999999543 	1.480972736334224e-12 	101324.9999999906
0.4892392392392387 	300.0000000000245 	6.459612164732937e-13 	101324.9999999904
0.4917417417417412 	300.0000000000032 	1.937675527693862e-12 	101324.9999999903
0.4942442442442437 	299.999999999912 	9.770861067810813e-13 	101324.99999999
0.4967467467467462 	299.9999999999307 	2.273567603376032e-12 	101324.9999999898
0.4992492492492487 	299.9999999999265 	6.830950763486143e-13 	101324.9999999896
0.5017517517517511 	299.9999999999559 	2.087161762580993e-12 	101324.9999999894
0.5042542542542537 	299.9999999999654 	2.301727334684512e-12 	101324.9999999894
0.5067567567567562 	299.9999999999523 	4.164987869644978e-12 	101324.9999999889
0.5092592592592589 	299.9999999999724 	7.769535284550203e-12 	101324.9999999878
0.5117617617617611 	299.9999999999556 	1.423630638172954e-11 	101324.9999999851
0.5142642642642637 	299.9999999999761 	3.000182262535809e-11 	101324.9999999797
0.5167667667667663 	299.9999999999535 	5.742057579836996e-11 	101324.9999999681
0.5192692692692688 	299.9999999998887 	1.191318827803651e-10 	101324.9999999451
0.5217717717717714 	299.9999999998673 	2.314988268840768e-10 	101324.9999998992
0.5242742742742736 	299.9999999997922 	4.644671711982341e-10 	101324.9999998089
0.5267767767767763 	299.9999999996631 	9.085198194663969e-10 	101324.9999996325
0.5292792792792789 	299.9999999993556 	1.778880274031439e-09 	101324.9999992902
0.5317817817817813 	299.999999998769 	3.444197570263109e-09 	101324.9999986318
0.5342842842842837 	299.9999999978073 	6.627734998515752e-09 	101324.9999973751
0.5367867867867864 	299.9999999957804 	1.26485146905352e-08 	101324.9999949948
0.5392892892892888 	299.9999999919548 	2.395525734000793e-08 	101324.9999905222
0.5417917917917912 	299.9999999849456 	4.501016287597063e-08 	101324.9999821859
0.5442942942942938 	299.9999999718883 	8.390818517088767e-08 	101324.9999667745
0.5467967967967964 	299.9999999479595 	1.551670347082417e-07 	101324.9999385197
0.5492992992992988 	299.999999904506 	2.846149688231515e-07 	101324.9998871549
0.5518018018018012 	299.9999998261954 	5.177425946024862e-07 	101324.999794579
0.5543043043043039 	299.9999996863778 	9.339215836119581e-07 	101324.9996291866
0.5568068068068063 	299.9999994386421 	1.670252685846153e-06 	101324.9993363361
0.5593093093093087 	299.999999003951 	2.961170091781721e-06 	101324.9988225154
0.5618118118118114 	299.9999982485241 	5.203355091955054e-06 	101324.997929355
0.5643143143143137 	299.9999969477278 	9.060857922488591e-06 	101324.99639151
0.5668168168168163 	299.9999947297659 	1.563303569914817e-05 	101324.9937692955
0.5693193193193188 	299.9999909853152 	2.671924577301947e-05 	101324.9893424051
0.5718218218218213 	299.9999847279119 	4.522995342390731e-05 	101324.9819446499
0.5743243243243239 	299.9999743799285 	7.581561062227412e-05 	101324.9697108659
0.5768268268268262 	299.9999574499093 	0.0001258131511190119 	101324.9496955402
0.5793293293293288 	299.9999300547078 	0.0002066460333966254 	101324.9173079656
0.5818318318318314 	299.9998862250978 	0.0003358569813341181 	101324.8654910468
0.5843343343343338 	299.9998169158665 	0.0005400001330424886 	101324.7835512319
0.5868368368368363 	299.9997086263064 	0.0008586655687412386 	101324.6555278362
0.5893393393393387 	299.9995415250316 	0.001349942230486129 	101324.4579757937
0.5918418418418413 	299.9992869698928 	0.002097627670157242 	101324.1570340042
0.5943443443443439 	299.9989043336181 	0.003220436730791987 	101323.7046729084
0.5968468468468463 	299.998337095352 	0.004883310645160443 	101323.0340747195
0.5993493493493487 	299.9975082581171 	0.007310636048657809 	101322.0542167204
0.6018518518518514 	299.9963153148352 	0.01080070125144673 	101320.6439230528
0.6043543543543537 	299.994625234347 	0.01574000183543058 	101318.6459413254
0.6068568568568564 	299.9922702686231 	0.02261504396458966 	101315.8619943392
0.6093593593593587 	299.9890457954684 	0.03201811256835971 	101312.0502426024
0.6118618618618614 	299.9847118600105 	0.04464218357335486 	101306.9271267407
0.6143643643643638 	299.9790004937772 	0.0612589898821858 	101300.1760487016
0.6168668668668662 	299.9716311455226 	0.08267355618296265 	101291.4656502132
0.6193693693693688 	299.962336481409 	0.109648792708536 	101280.4803570059
0.6218718718718714 	299.9508999716541 	0.142795517388192 	101266.9651364798
0.6243743743743737 	299.9372064074324 	0.1824271081877472 	101250.7848534779
0.6268768768768762 	299.9213044069003 	0.2283846106977137 	101231.9960656892
0.629379379379379 	299.9034690295392 	0.2798462572212538 	101210.9254869146
0.6318818818818812 	299.8842667669304 	0.3351503716683447 	101188.2445830205
0.6343843843843838 	299.8645986531031 	0.391697559077226 	101165.0173580194
0.6368868868868864 	299.8456719865764 	0.4460448048851211 	101142.6695175195
0.6393893893893888 	299.8288702155177 	0.4942682469887367 	101122.8338186472
0.6418918918918912 	299.8155433202978 	0.5325460833778006 	101107.1026534323
0.6443943943943939 	299.8067678826773 	0.5578340643512657 	101096.7452508231
0.6468968968968963 	299.8031240322094 	0.5684999323974448 	101092.4443932233
0.6493993993993988 	299.8045290689699 	0.5647935141512297 	101094.101606501
0.6519019019019012 	299.8101656854384 	0.5490399047397196 	101100.7559603519
0.6544044044044038 	299.8185497295098 	0.5254842248896281 	101110.6533817249
0.6569069069069065 	299.8277003493763 	0.4997529303440172 	101121.4552094972
0.6594094094094087 	299.8354812878272 	0.47783916665665 	101130.6407868046
0.6619119119119113 	299.840132761023 	0.4646340874622528 	101136.1320877424
0.664414414414414 	299.840815141527 	0.4624857903702411 	101136.938082937
0.6669169169169162 	299.8378665405431 	0.4704867657443584 	101133.4571862259
0.6694194194194188 	299.8326699262127 	0.4847989235018827 	101127.3206796162
0.6719219219219214 	299.8272199023376 	0.4998608801313342 	101120.8867425758
0.674424424424424 	299.8234956643881 	0.5102157299480761 	101116.4906421443
0.6769269269269262 	299.8227212999213 	0.5124922067193236 	101115.5760643197
0.679429429429429 	299.8248909494746 	0.5066676725839205 	101118.1369747605
0.6819319319319311 	299.8288268913613 	0.4959471782736128 	101122.7847015608
0.6844344344344341 	299.8327077502499 	0.4853281486035485 	101127.3660479186
0.686936936936936 	299.8348484224315 	0.4793957362741214 	101129.8932722344
0.6894394394394392 	299.834491297141 	0.4802209067389897 	101129.4721615457
0.6919419419419413 	299.8321493692734 	0.4864512309782302 	101126.7068615921
0.694444444444444 	299.8292840000868 	0.4941457053062276 	101123.3237039036
0.6969469469469463 	299.827520018979 	0.4989277750171104 	101121.2412785944
0.6994494494494489 	299.8277583041462 	0.4983679947274632 	101121.5222262618
0.7019519519519515 	299.8296911716534 	0.4932514551344526 	101123.8042888357
0.7044544544544538 	299.8320556282297 	0.4869356389826782 	101126.5960742945
0.7069569569569564 	299.8334321675751 	0.4832023275715138 	101128.2212762895
0.7094594594594589 	299.8331299373181 	0.4838987482570861 	101127.8647017354
0.7119619619619615 	299.8315999101083 	0.4878653465556303 	101126.0580050855
0.7144644644644638 	299.8300654020863 	0.4918877788989359 	101124.2462901595
0.7169669669669665 	299.8296493576044 	0.4930113693589904 	101123.7549405596
0.7194694694694688 	299.8305870169577 	0.4905933146827485 	101124.8616540791
0.7219719719719715 	299.8321121903519 	0.4866053137853297 	101126.6628279628
0.7244744744744737 	299.8330949514689 	0.4839905708251573 	101127.8230475137
0.7269769769769764 	299.832918157244 	0.4843643307776044 	101127.6144161188
0.7294794794794791 	299.8319314837893 	0.48685111890816 	101126.4494985343
0.7319819819819813 	299.8311018286315 	0.4889708617570726 	101125.4698316053
0.7344844844844839 	299.8311762179512 	0.488794786595127 	101125.5573419233
0.7369869869869864 	299.8320659220461 	0.4865207941585633 	101126.6079086961
0.739489489489489 	299.8329884247693 	0.4841303964428352 	101127.6971823429
0.7419919919919914 	299.8332084269914 	0.483501274446148 	101127.9569846819
0.7444944944944939 	299.8326968145471 	0.4847301305831545 	101127.3530932594
0.7469969969969963 	299.832103525223 	0.4861949303449392 	101126.6522840008
0.7494994994994989 	299.8320888714345 	0.4862268656849794 	101126.6348929853
0.7520020020020015 	299.8326883761835 	0.4847138903868642 	101127.3428521678
0.7545045045045039 	299.8333306486631 	0.4830683855211376 	101128.1010973231
0.7570070070070062 	299.83346111019 	0.4826779651219883 	101128.2551363465
0.7595095095095092 	299.8331064155571 	0.4834970315576255 	101127.836634649
0.7620120120120112 	299.8327967521008 	0.484229966004065 	101127.4707736839
0.7645145145145138 	299.8329563324951 	0.4838215182028722 	101127.6588667907
0.7670170170170165 	299.833454933205 	0.4825690174903998 	101128.2477877734
0.7695195195195191 	299.8338042672711 	0.4816606507453576 	101128.6603436388
0.7720220220220213 	299.8337372886123 	0.4817596015521484 	101128.5812443244
0.7745245245245239 	299.8334920333576 	0.4823056714436029 	101128.2915828652
0.7770270270270263 	299.8334861657848 	0.482290183294223 	101128.2845780203
0.779529529529529 	299.8338063292839 	0.4814883777648949 	101128.6625912309
0.7820320320320313 	299.8341380036824 	0.480642636563617 	101129.0541614265
0.784534534534534 	299.8341896074151 	0.4804559988969263 	101129.1151909246
0.7870370370370364 	299.8340511705376 	0.4807300556042844 	101128.9518034136
0.7895395395395389 	299.8340412026163 	0.4807147101765938 	101128.9397634388
0.7920420420420413 	299.8342745970945 	0.4801253319513934 	101129.2153377492
0.794544544544544 	299.8345365190917 	0.4794560602275389 	101129.5248373331
0.7970470470470463 	299.8346016040859 	0.4792408029166921 	101129.6014413448
0.799549549549549 	299.8345350780939 	0.479338808611888 	101129.5228481387
0.8020520520520515 	299.834572565966 	0.4792056964362644 	101129.5673174233
0.8045545545545539 	299.8347765651282 	0.4786876312414595 	101129.8079631091
0.8070570570570563 	299.8349686901038 	0.4781865175612783 	101130.0347860854
0.8095595595595589 	299.835010821262 	0.4780251130664293 	101130.0846835165
0.8120620620620614 	299.8349980616422 	0.4779967334520695 	101130.0695117994
0.8145645645645638 	299.8350923573743 	0.4777316445333835 	101130.1807559674
0.8170670670670666 	299.8352761457718 	0.4772597348408665 	101130.3978609803
0.8195695695695689 	299.8354009194709 	0.4769139005496001 	101130.5451059243
0.8220720720720714 	299.8354272281404 	0.4767897014008847 	101130.5761485904
0.8245745745745739 	299.8354718194598 	0.4766315272907614 	101130.6288014705
0.8270770770770765 	299.8356068264293 	0.4762739417176977 	101130.7881414542
0.8295795795795788 	299.835752183002 	0.4758876241941372 	101130.9598261324
0.8320820820820815 	299.8358226911325 	0.4756635044725417 	101131.0430801956
0.834584584584584 	299.8358654266866 	0.4755045831803982 	101131.0934856269
0.8370870870870865 	299.8359658630051 	0.4752232689935766 	101131.2120427067
0.8395895895895891 	299.8361019869368 	0.4748614049013814 	101131.3728118559
0.8420920920920915 	299.8361955314362 	0.4745882117286564 	101131.4832032053
0.844594594594594 	299.8362512347204 	0.4743983944921656 	101131.5489413517
0.8470970970970964 	299.8363376522612 	0.4741463617210486 	101131.6509285494
0.8495995995995991 	299.8364600090576 	0.4738162810960992 	101131.795459205
0.8521021021021015 	299.8365599783407 	0.4735304750726747 	101131.9135814378
0.8546046046046039 	299.8366275596273 	0.4733146162552896 	101131.9931075877
0.8571071071071066 	299.8367115645407 	0.473066620271289 	101132.0923404504
0.8596096096096089 	299.8368238349426 	0.4727586192920128 	101132.2251299222
0.8621121121121116 	299.8369230210208 	0.4724761953963855 	101132.3420098945
0.8646146146146139 	299.8369978328092 	0.472244553240967 	101132.4302194968
0.8671171171171166 	299.837083912199 	0.4719912154487932 	101132.5321050968
0.8696196196196189 	299.8371903635355 	0.4716964648474695 	101132.6576627579
0.8721221221221216 	299.8372858671336 	0.4714222815799178 	101132.7703146703
0.874624624624624 	299.8373648938338 	0.4711815157319508 	101132.8637904728
0.8771271271271264 	299.8374547214085 	0.4709209528264002 	101132.9697615241
0.879629629629629 	299.8375569800731 	0.470635028004056 	101133.0903695265
0.8821321321321317 	299.837648360039 	0.4703691519287137 	101133.1984109705
0.8846346346346339 	299.8377309530365 	0.4701217726854868 	101133.2958729941
0.8871371371371364 	299.8378238890507 	0.4698549795175599 	101133.4055567711
0.8896396396396391 	299.8379222161498 	0.4695767592164262 	101133.5217007036
0.8921421421421414 	299.838010766725 	0.4693173487945479 	101133.6261047658
0.8946446446446441 	299.8380966685541 	0.4690635570229919 	101133.7276061292
0.8971471471471464 	299.8381914199055 	0.4687931527241983 	101133.839524453
0.8996496496496489 	299.8382859359863 	0.4685227780209749 	101133.9509748223
0.9021521521521517 	299.8383728733687 	0.4682665007600122 	101134.0536903667
0.9046546546546541 	299.83846228774 	0.4680063698021752 	101134.1593024374
0.9071571571571564 	299.8385571350775 	0.4677361909239115 	101134.2711527449
0.9096596596596589 	299.8386478251599 	0.4674729448534647 	101134.3783041215
0.9121621621621616 	299.8387354494778 	0.4672158310529878 	101134.4817670316
0.9146646646646639 	299.8388275756461 	0.4669510279249786 	101134.5903967801
0.9171671671671666 	299.8389202510635 	0.4666846494603689 	101134.6999191429
0.9196696696696689 	299.8390088598876 	0.4664256993481111 	101134.8046098747
0.9221721721721714 	299.8390987929811 	0.466165219510673 	101134.9104938897
0.9246746746746741 	299.8391911538748 	0.4658996633781218 	101135.0197053512
0.9271771771771765 	299.8392812161359 	0.4656381255331071 	101135.1261874194
0.9296796796796791 	299.8393702317709 	0.4653792638557379 	101135.2310576252
0.9321821821821816 	299.8394615360958 	0.4651161661172432 	101135.3388577541
0.9346846846846838 	299.8395524218685 	0.4648534662407936 	101135.4463085075
0.9371871871871866 	299.8396414819597 	0.4645944715919847 	101135.5513465784
0.9396896896896891 	299.839731743228 	0.4643335124921266 	101135.6578617667
0.9421921921921914 	299.8398227655967 	0.4640710280762239 	101135.7653674107
0.9446946946946939 	299.8399121664517 	0.4638114550821785 	101135.8708872432
0.9471971971971965 	299.8400016895849 	0.4635517717470194 	101135.9766364279
0.9496996996996991 	299.84009239831 	0.4632902228029749 	101136.0837310352
0.9522022022022016 	299.8401821727417 	0.4630304161239631 	101136.1895939519
0.9547047047047038 	299.8402713397052 	0.4627713967969669 	101136.294987931
0.9572072072072064 	299.8403616045744 	0.4625107970807262 	101136.4015589679
0.9597097097097093 	299.8404514701596 	0.4622510089675856 	101136.5075315443
0.9622122122122114 	299.840540573343 	0.4619923501232442 	101136.6127889259
0.964714714714714 	299.8406303807438 	0.4617326851829726 	101136.7188963316
0.9672172172172167 	299.8407202083588 	0.4614733361187126 	101136.8247877942
0.969719719719719 	299.8408092548029 	0.4612150386913862 	101136.9299695879
0.9722222222222214 	299.8408987409491 	0.4609560811143419 	101137.0357210038
0.9747247247247239 	299.8409884416147 	0.4606972056060843 	101137.1414388538
0.9772272272272267 	299.8410774409169 	0.4604392234337926 	101137.2465400149
0.9797297297297292 	299.8411666320092 	0.4601808160709793 	101137.3520082114
0.9822322322322313 	299.841256089013 	0.4599224670044214 	101137.4574975423
0.9847347347347344 	299.8413450927853 	0.4596649417135342 	101137.5624865446
0.9872372372372363 	299.8414340941412 	0.459407134810275 	101137.6677277511
0.9897397397397389 	299.8415233217528 	0.4591492577546725 	101137.7729881256
0.9922422422422417 	299.8416121998936 	0.4588920762084178 	101137.8778513118
0.9947447447447441 	299.8417011044603 	0.4586348753378384 	101137.9828934916
0.9972472472472468 	299.8417901176221 	0.458377668727822 	101138.0879156166
0.999749749749749 	299.8418787803356 	0.4581208792212469 	101138.1926251957
1.002252252252252 	299.8419674859949 	0.4578640656369276 	101138.2974741449
1.004754754754754 	299.8420564106756 	0.457607399949815 	101138.4022657753
1.007257257257256 	299.8421449940434 	0.4573511000888286 	101138.5068249674
1.009759759759759 	299.8422334517984 	0.4570948274952068 	101138.6114905455
1.012262262262261 	299.8423221609092 	0.4568387505349877 	101138.7160543488
1.014764764764764 	299.8424107029126 	0.4565828752104153 	101138.8204535728
1.017267267267267 	299.8424990325266 	0.4563270378011451 	101138.9249333416
1.019769769769769 	299.842587452079 	0.456071472423246 	101139.0292875865
1.022272272272272 	299.842675866004 	0.455816122058298 	101139.1335374219
1.024774774774774 	299.8427640437802 	0.4555608944430696 	101139.2378221442
1.027277277277277 	299.8428522601825 	0.4553058785031769 	101139.3419586692
1.029779779779779 	299.8429405477093 	0.4550509161687776 	101139.4460373743
1.032282282282282 	299.843028648122 	0.4547960473875189 	101139.5501138972
1.034784784784784 	299.8431166597349 	0.4545415537082185 	101139.6540611268
1.037287287287286 	299.8432047511756 	0.4542872721551613 	101139.7579905866
1.039789789789789 	299.8432927256223 	0.4540330030183161 	101139.8618722923
1.042292292292291 	299.8433805621306 	0.453778908668062 	101139.9656403948
1.044794794794794 	299.8434685255669 	0.4535251131580298 	101140.0693917621
1.047297297297296 	299.8435563659348 	0.4532715277829383 	101140.1730611868
1.049799799799799 	299.843643993888 	0.4530179757467713 	101140.2766533354
1.052302302302302 	299.8437318308637 	0.4527645353393026 	101140.3802167354
1.054804804804804 	299.8438195429691 	0.4525113515720672 	101140.483687045
1.057307307307306 	299.8439069401673 	0.4522583613284865 	101140.5871135639
1.059809809809809 	299.843994592715 	0.4520055225025004 	101140.6904921468
1.062312312312312 	299.8440822062278 	0.4517529019763654 	101140.7937862313
1.064814814814814 	299.8441695587165 	0.4515004980332514 	101140.8970375858
1.067317317317317 	299.8442569368274 	0.4512482176493318 	101141.0002103208
1.069819819819819 	299.8443443418412 	0.4509960688617134 	101141.1033169778
1.072322322322321 	299.8444316105097 	0.4507441476952727 	101141.2063786306
1.074824824824824 	299.8445187866689 	0.4504923885787455 	101141.3093681007
1.077327327327327 	299.844606065605 	0.4502407773826793 	101141.4123122137
1.079829829829829 	299.8446932597363 	0.4499895248238371 	101141.5151946064
1.082332332332332 	299.8447802302016 	0.4497385599661003 	101141.6180114635
1.084834834834834 	299.8448673839051 	0.4494876402945953 	101141.7207755878
1.087337337337337 	299.8449544671578 	0.4492367172751783 	101141.8234630118
1.089839839839839 	299.845041228987 	0.4489860324216334 	101141.9260889087
1.092342342342342 	299.8451281263993 	0.4487357744337978 	101142.0286520477
1.094844844844844 	299.8452150268106 	0.4484856489176695 	101142.13115749
1.097347347347347 	299.8453017641067 	0.4482355624868694 	101142.2336169496
1.099849849849849 	299.8453883774374 	0.4479857633627383 	101142.3360146892
1.102352352352352 	299.8454752015642 	0.4477362506038348 	101142.4383561184
1.104854854854854 	299.8455619502201 	0.4474869319178939 	101142.5406299414
1.107357357357357 	299.8456483656825 	0.4472377353537611 	101142.6428344112
1.109859859859859 	299.8457349016873 	0.4469887167383895 	101142.7449790273
1.112362362362362 	299.8458214867026 	0.4467400063354449 	101142.847065655
1.114864864864865 	299.8459079016534 	0.4464914524103238 	101142.9491057002
1.117367367367367 	299.8459942181638 	0.4462430434077145 	101143.0510882997
1.119869869869869 	299.8460806086624 	0.4459950173645942 	101143.1530064198
1.122372372372372 	299.8461669218294 	0.4457472716360198 	101143.254855719
1.124874874874874 	299.8462530322056 	0.4454995958342007 	101143.356638226
1.127377377377377 	299.8463392887209 	0.4452519934190601 	101143.4583678179
1.129879879879879 	299.8464255142118 	0.4450045866361969 	101143.5600473034
1.132382382382382 	299.84651152622 	0.444757606167527 	101143.6616768925
1.134884884884884 	299.8465974829663 	0.4445109952445463 	101143.7632452449
1.137387387387387 	299.8466834818187 	0.444264430968244 	101143.8647476702
1.139889889889889 	299.8467694827491 	0.4440180224400413 	101143.9661861232
1.142392392392392 	299.8468554019151 	0.4437719534616549 	101144.0675652965
1.144894894894894 	299.8469412521339 	0.4435261719876432 	101144.168892149
1.147397397397397 	299.8470270481297 	0.4432806252834501 	101144.2701649551
1.149899899899899 	299.8471127905188 	0.4430351736253501 	101144.3713820619
1.152402402402402 	299.8471984414454 	0.442790031115318 	101144.4725387315
1.154904904904904 	299.8472841520148 	0.4425454081274834 	101144.5736367424
1.157407407407407 	299.8473698132061 	0.4423010294768558 	101144.674679563
1.159909909909909 	299.8474553189999 	0.4420567178677866 	101144.7756695961
1.162412412412412 	299.8475408238276 	0.4418125759854669 	101144.8766058447
1.164914914914914 	299.8476262806595 	0.4415687382212043 	101144.9774837023
1.167417417417417 	299.8477116994756 	0.4413252954721144 	101145.0783026781
1.169919919919919 	299.8477970200593 	0.4410822957510196 	101145.1790642238
1.172422422422422 	299.847882360279 	0.4408395312001776 	101145.2797717597
1.174924924924925 	299.8479677529562 	0.4405969169277948 	101145.3804259135
1.177427427427427 	299.8480530539356 	0.4403546569879159 	101145.4810282889
1.179929929929929 	299.8481382047881 	0.4401126479002893 	101145.5815794424
1.182432432432432 	299.8482233177086 	0.4398710002357089 	101145.682079579
1.184934934934934 	299.8483084662125 	0.4396298892660194 	101145.7825282876
1.187437437437437 	299.84839365661 	0.4393889451029848 	101145.8829250896
1.189939939939939 	299.8484786439923 	0.4391481610663508 	101145.9832698516
1.192442442442442 	299.8485634254021 	0.438907792844763 	101146.0835620255
1.194944944944944 	299.8486484409916 	0.4386677528574706 	101146.1838010882
1.197447447447447 	299.8487335190093 	0.4384281017949323 	101146.2839880633
1.199949949949949 	299.8488185336403 	0.4381889869035321 	101146.3841281682
1.202452452452452 	299.8489033260543 	0.4379500820624681 	101146.4842267361
1.204954954954955 	299.84898797192 	0.4377114508062784 	101146.5842856141
1.207457457457457 	299.8490727492064 	0.4374733468603222 	101146.6843015657
1.20995995995996 	299.8491576149032 	0.4372356797151759 	101146.7842702861
1.212462462462462 	299.8492424212552 	0.4369977276519418 	101146.8841888997
1.214964964964964 	299.8493272700022 	0.4367613697925343 	101146.9840596214
1.217467467467467 	299.8494119910511 	0.4365227755602977 	101147.0838859062
1.219969969969969 	299.8494964607871 	0.4362903296128789 	101147.1836775862
1.222472472472472 	299.8495810740389 	0.4360421951044567 	101147.2834277213
1.224974974974975 	299.8496657764534 	0.4358373791604661 	101147.3831700554
1.227477477477477 	299.849750461882 	0.4354995056111097 	101147.4828037059
1.229979979979979 	299.8498354332814 	0.4355462832223093 	101147.5827481512
1.232482482482482 	299.8499195995558 	0.4342248796924905 	101147.6814646115
1.234984984984984 	299.8500043213674 	0.4356009983637904 	101147.7819405766
1.237487487487487 	299.8500909903768 	0.4333839294129865 	101147.8810036588
1.239989989989989 	299.8501693852957 	0.434740918709795 	101147.9781043512
1.242492492492492 	299.8502625448339 	0.4351449880083933 	101148.0818695469
1.244994994994994 	299.8484044955956 	0.4318078077051578 	101148.176636691
1.247497497497497 	299.2209491292022 	0.4343241067901861 	101148.2773940747
1.249999999999999 	302.0345547015116 	0.4334197124659235 	101148.3781718028
