-1.25 	349.9013364214183 	0.003198356826629482 	101325.033929198
-1.247497497497497 	300.0487024707035 	0.003162920560918308 	101325.0359054994
-1.244994994994995 	300.0026862338271 	0.002922779312850845 	101325.0341054175
-1.242492492492492 	300.0000916260226 	0.002691525833623142 	101325.0369587956
-1.23998998998999 	300.0000299338389 	0.002466009025678669 	101325.0343892537
-1.237487487487487 	300.000031777857 	0.002250910818711466 	101325.0376017399
-1.234984984984985 	300.0000290261191 	0.00204256109123743 	101325.0342804805
-1.232482482482482 	300.000031636273 	0.001848964706404732 	101325.0374320692
-1.22997997997998 	300.0000286194509 	0.001661283577188093 	101325.0338104631
-1.227477477477477 	300.0000315812208 	0.001490229391321492 	101325.0373573362
-1.224974974974975 	300.0000284803078 	0.001319205989847489 	101325.0336571285
-1.222472472472472 	300.0000312137506 	0.001162238699806388 	101325.036918222
-1.21996996996997 	300.0000283950205 	0.001004467524176858 	101325.0335549052
-1.217467467467467 	300.000031878881 	0.000863172070540041 	101325.037697893
-1.214964964964965 	300.0000285862388 	0.0007159473218961559 	101325.0337893852
-1.212462462462462 	300.0000321348988 	0.0005881873795119627 	101325.0379920973
-1.20995995995996 	300.000028936934 	0.0004576479840063686 	101325.0342081216
-1.207457457457457 	300.0000325391158 	0.0003482468682309969 	101325.0384671983
-1.204954954954955 	300.0000294535767 	0.000235919127996153 	101325.0348287887
-1.202452452452452 	300.0000331667565 	0.0001467244004550935 	101325.0392044663
-1.19994994994995 	300.0000299461909 	0.0001279348815114956 	101325.0354095849
-1.197447447447447 	300.0000334958628 	5.676223099609028e-05 	101325.0395849194
-1.194944944944945 	300.000030327968 	0.0001205955232710835 	101325.0358628978
-1.192442442442442 	300.0000335954762 	0.0001149807754372777 	101325.0397014449
-1.18993993993994 	300.0000305863553 	0.0001459697261716223 	101325.0361798675
-1.187437437437437 	300.0000316655468 	0.0001324029202484547 	101325.0374228695
-1.184934934934935 	300.0000308772669 	0.0001205061476290667 	101325.0365237445
-1.182432432432432 	300.0000317030581 	9.994384997421672e-05 	101325.037461267
-1.17992992992993 	300.0000313843877 	7.993115205195279e-05 	101325.0371188189
-1.177427427427427 	300.0000320982758 	0.0001060553137728721 	101325.0379270793
-1.174924924924925 	300.0000320414028 	7.744216854961786e-05 	101325.0378956697
-1.172422422422422 	300.0000325483497 	0.0001113609595084374 	101325.0384587391
-1.16991991991992 	300.0000325049509 	7.513814176432665e-05 	101325.0384445604
-1.167417417417417 	300.000032727527 	0.00011531412422982 	101325.0386756388
-1.164914914914915 	300.0000326158899 	0.0001154721267029448 	101325.0385763361
-1.162412412412412 	300.0000325816046 	0.0001552496632567249 	101325.0385021233
-1.15990990990991 	300.0000324748012 	0.000167189629714022 	101325.0384088494
-1.157407407407407 	300.0000323362025 	0.0002034748749979179 	101325.0382126605
-1.154904904904904 	300.0000324135575 	0.0002096639063583324 	101325.0383354685
-1.152402402402403 	300.0000323449985 	0.0002415822941197891 	101325.0382249151
-1.1498998998999 	300.0000326457416 	0.0002400712452468178 	101325.0386096926
-1.147397397397397 	300.0000326823243 	0.0002656199350875959 	101325.0386248878
-1.144894894894895 	300.0000330084124 	0.000251253265371275 	101325.0390351264
-1.142392392392392 	300.0000331232758 	0.0002635252369906213 	101325.0391440709
-1.13988988988989 	300.0000332837958 	0.0002396135883560081 	101325.0393584082
-1.137387387387387 	300.0000333037454 	0.0002491291906865064 	101325.0393585975
-1.134884884884885 	300.0000333262043 	0.0002232067604414433 	101325.0394072891
-1.132382382382382 	300.0000332664539 	0.0002324678710736376 	101325.0393165078
-1.12987987987988 	300.0000332396319 	0.0002056039179129203 	101325.0393105696
-1.127377377377377 	300.0000332245388 	0.0002157237333372777 	101325.0392688073
-1.124874874874875 	300.0000332827678 	0.0001881004353358285 	101325.0393575823
-1.122372372372372 	300.0000333956748 	0.0001998459097645259 	101325.0394725712
-1.11986986986987 	300.0000335719488 	0.0001715236343517978 	101325.0396985762
-1.117367367367367 	300.0000337709131 	0.0001850907492283831 	101325.039914635
-1.114864864864865 	300.0000339497841 	0.0001564003328015023 	101325.0401434818
-1.112362362362362 	300.000034064456 	0.0001713595905243117 	101325.0402629951
-1.10985985985986 	300.0000340853741 	0.0001427915493757456 	101325.0403039966
-1.107357357357357 	300.0000340015908 	0.0001585389998097053 	101325.0401894094
-1.104854854854855 	300.0000338424323 	0.0001302489615822451 	101325.0400148738
-1.102352352352353 	300.0000336388226 	0.0001466239186773936 	101325.0397600968
-1.09984984984985 	300.000033467464 	0.0001181360814766372 	101325.0395700692
-1.097347347347347 	300.0000333626864 	0.0001355843381769402 	101325.0394336401
-1.094844844844845 	300.000033390268 	0.0001060733186218286 	101325.0394784429
-1.092342342342342 	300.0000335377267 	0.0001252066729532025 	101325.0396433715
-1.08983983983984 	300.0000338180116 	9.413011283166097e-05 	101325.0399863031
-1.087337337337337 	300.0000341570808 	0.0001151073659727382 	101325.0403779696
-1.084834834834835 	300.0000345161341 	8.986590953762824e-05 	101325.0408104423
-1.082332332332332 	300.0000347896338 	0.0001104292678154298 	101325.04112497
-1.07982982982983 	300.0000349446989 	9.199007905471578e-05 	101325.0413141814
-1.077327327327327 	300.0000349124998 	0.000109795125592023 	101325.0412687502
-1.074824824824825 	300.0000347303954 	9.230391947459686e-05 	101325.0410593924
-1.072322322322323 	300.0000344096078 	0.0001074061027001802 	101325.0406747984
-1.06981981981982 	300.0000340588655 	9.134635605479897e-05 	101325.0402652377
-1.067317317317317 	300.0000337309469 	0.0001045598658678881 	101325.0398733467
-1.064814814814815 	300.0000335350987 	9.081699454042613e-05 	101325.0396462376
-1.062312312312312 	300.0000334895337 	0.0001029885410188168 	101325.0395891112
-1.05980980980981 	300.0000336323901 	9.202232078813848e-05 	101325.0397617492
-1.057307307307307 	300.0000339053915 	0.0001032980175974179 	101325.040082463
-1.054804804804805 	300.0000342653149 	9.468164080724599e-05 	101325.0405104051
-1.052302302302302 	300.0000346047954 	0.0001044203975921234 	101325.040909017
-1.0497997997998 	300.0000348606022 	9.716250740537621e-05 	101325.0412127498
-1.047297297297297 	300.000034956834 	0.0001046009979392132 	101325.0413247918
-1.044794794794795 	300.0000348954449 	9.801631750050538e-05 	101325.0412533173
-1.042292292292292 	300.0000346871171 	0.0001030982315797251 	101325.041006001
-1.03978978978979 	300.0000344087674 	9.735692590182097e-05 	101325.0406777723
-1.037287287287287 	300.0000341237562 	0.0001008456613265603 	101325.0403399479
-1.034784784784785 	300.0000339160162 	9.661637932720586e-05 	101325.0400946485
-1.032282282282283 	300.0000338207726 	9.939913923735704e-05 	101325.0399821097
-1.02977977977978 	300.0000338602594 	9.702348516727522e-05 	101325.0400294326
-1.027277277277277 	300.0000340027142 	9.939220168684892e-05 	101325.0401981106
-1.024774774774775 	300.0000342041928 	9.845205049014429e-05 	101325.0404363021
-1.022272272272272 	300.0000343994418 	0.0001000788778289826 	101325.0406669482
-1.01976976976977 	300.0000345409999 	9.976253115871308e-05 	101325.040834655
-1.017267267267267 	300.0000345995612 	0.000100336671853875 	101325.0409046267
-1.014764764764765 	300.0000345802092 	0.0001001389897974136 	101325.0408817844
-1.012262262262262 	300.0000345098017 	9.99083764582074e-05 	101325.04079778
-1.00975975975976 	300.0000344270582 	9.984270085847433e-05 	101325.0406987114
-1.007257257257257 	300.0000343664472 	9.94506798814524e-05 	101325.040626079
-1.004754754754755 	300.0000343430856 	9.958459354132842e-05 	101325.0405983387
-1.002252252252252 	300.0000343489269 	9.947235868397042e-05 	101325.040606309
-0.9997497497497498 	300.0000343544096 	9.95107319845927e-05 	101325.0406137774
-0.9972472472472473 	300.0000343204266 	9.939591955995636e-05 	101325.0405737206
-0.9947447447447449 	300.0000342134512 	9.90802057883669e-05 	101325.0404466738
-0.9922422422422421 	300.0000340203022 	9.852352625767762e-05 	101325.0402174322
-0.9897397397397399 	300.0000337546916 	9.777016155179081e-05 	101325.0399035978
-0.9872372372372376 	300.0000334584009 	9.693656137438365e-05 	101325.0395546239
-0.9847347347347346 	300.0000331913622 	9.618919685937246e-05 	101325.0392405193
-0.9822322322322323 	300.0000330158257 	9.5698422976937e-05 	101325.0390332265
-0.9797297297297296 	300.0000329771934 	9.558820043048222e-05 	101325.0389862013
-0.9772272272272275 	300.0000330886325 	9.589684887207869e-05 	101325.0391159246
-0.9747247247247248 	300.0000333224677 	9.654768229738458e-05 	101325.0393909717
-0.9722222222222224 	300.0000336141113 	9.736251251637616e-05 	101325.0397361984
-0.9697197197197196 	300.0000338806036 	9.81083387194086e-05 	101325.0400525767
-0.9672172172172175 	300.0000340414134 	9.855719635220926e-05 	101325.0402443499
-0.9647147147147147 	300.000034041053 	9.855225877123858e-05 	101325.0402448991
-0.9622122122122124 	300.0000338637232 	9.804956791996555e-05 	101325.0400353028
-0.9597097097097099 	300.0000335386868 	9.713062237742858e-05 	101325.0396503588
-0.9572072072072073 	300.0000331330023 	9.59854427393293e-05 	101325.0391698412
-0.9547047047047047 	300.0000327346169 	9.485969408349045e-05 	101325.0386975286
-0.9522022022022023 	300.0000324278815 	9.399199864047262e-05 	101325.0383343703
-0.9496996996996998 	300.0000322747028 	9.355566127211944e-05 	101325.0381528418
-0.9471971971971973 	300.0000322970439 	9.361057145670206e-05 	101325.038178572
-0.9446946946946947 	300.0000324715147 	9.409353022387428e-05 	101325.0383846689
-0.9421921921921923 	300.0000327395629 	9.48409753564359e-05 	101325.0387011294
-0.93968968968969 	300.0000330233995 	9.563487055375925e-05 	101325.0390362966
-0.9371871871871872 	300.0000332485711 	9.626855619269545e-05 	101325.039302673
-0.9346846846846848 	300.0000333629748 	9.659497531593244e-05 	101325.039438662
-0.9321821821821823 	300.0000333472987 	9.655576841284674e-05 	101325.0394208515
-0.9296796796796799 	300.0000332148209 	9.618750116638945e-05 	101325.0392647419
-0.9271771771771771 	300.0000330028029 	9.559290130699868e-05 	101325.039014833
-0.9246746746746748 	300.000032759876 	9.49056279492864e-05 	101325.0387279524
-0.9221721721721724 	300.0000325296226 	9.424881091091075e-05 	101325.0384556317
-0.9196696696696698 	300.0000323397346 	9.370163818378462e-05 	101325.0382311918
-0.9171671671671672 	300.0000321988798 	9.328976780080957e-05 	101325.0380646179
-0.9146646646646649 	300.0000320984742 	9.299014988705602e-05 	101325.0379452216
-0.9121621621621623 	300.0000320183549 	9.274906150212481e-05 	101325.0378500588
-0.9096596596596597 	300.0000319377971 	9.251149305965195e-05 	101325.0377550204
-0.9071571571571573 	300.0000318449133 	9.224250642940739e-05 	101325.0376450745
-0.9046546546546547 	300.0000317395271 	9.194169399838139e-05 	101325.0375204532
-0.9021521521521524 	300.0000316343618 	9.164692267927673e-05 	101325.0373967652
-0.8996496496496498 	300.0000315513576 	9.141534814625647e-05 	101325.0372990507
-0.8971471471471473 	300.0000315114362 	9.130412170638848e-05 	101325.0372519391
-0.894644644644645 	300.0000315259747 	9.134594025040656e-05 	101325.0372693299
-0.892142142142142 	300.0000315917109 	9.152888757853826e-05 	101325.0373471119
-0.8896396396396397 	300.0000316885981 	9.179717768473283e-05 	101325.0374615324
-0.8871371371371374 	300.0000317835332 	9.205923279392324e-05 	101325.0375739665
-0.8846346346346349 	300.0000318400578 	9.221019420165791e-05 	101325.0376405654
-0.8821321321321324 	300.0000318261743 	9.216242309032302e-05 	101325.0376237317
-0.8796296296296297 	300.0000317233674 	9.186462067737378e-05 	101325.0375021222
-0.8771271271271271 	300.0000315322801 	9.13182799026793e-05 	101325.0372764273
-0.8746246246246248 	300.0000312724967 	9.057847628043147e-05 	101325.0369693837
-0.8721221221221224 	300.0000309768175 	8.973693839325227e-05 	101325.0366201604
-0.8696196196196196 	300.0000306845429 	8.890454324003718e-05 	101325.0362749815
-0.8671171171171175 	300.0000304323387 	8.818441036117193e-05 	101325.0359769402
-0.8646146146146148 	300.0000302465353 	8.765192354050287e-05 	101325.0357577421
-0.8621121121121121 	300.0000301410141 	8.734610050415924e-05 	101325.0356329735
-0.8596096096096097 	300.0000301146836 	8.726412458259899e-05 	101325.0356013997
-0.857107107107107 	300.0000301541614 	8.737018917265898e-05 	101325.0356478223
-0.8546046046046049 	300.000030239558 	8.760801733893802e-05 	101325.0357482156
-0.8521021021021022 	300.0000303476185 	8.791193003596512e-05 	101325.0358754819
-0.8495995995995997 	300.0000304565025 	8.822132150512091e-05 	101325.0360043555
-0.8470970970970974 	300.0000305491203 	8.848733103703683e-05 	101325.0361145647
-0.8445945945945946 	300.0000306145277 	8.867476112302276e-05 	101325.0361921229
-0.8420920920920922 	300.0000306463309 	8.876491943420291e-05 	101325.0362291904
-0.8395895895895897 	300.0000306413142 	8.87505729084841e-05 	101325.0362230823
-0.8370870870870872 	300.0000306005671 	8.863322136076642e-05 	101325.0361748947
-0.8345845845845846 	300.0000305270538 	8.842213500299945e-05 	101325.0360880627
-0.8320820820820823 	300.0000304242345 	8.812688671666387e-05 	101325.0359670521
-0.8295795795795798 	300.0000302963486 	8.775874163089803e-05 	101325.0358163738
-0.8270770770770772 	300.0000301473182 	8.732834547980652e-05 	101325.0356401279
-0.8245745745745746 	300.0000299798676 	8.684434191792642e-05 	101325.035442196
-0.8220720720720721 	300.0000297980611 	8.631898630671898e-05 	101325.0352269833
-0.8195695695695699 	300.0000296066299 	8.57660308056886e-05 	101325.0350003092
-0.817067067067067 	300.0000294114941 	8.520389732987133e-05 	101325.0347698613
-0.8145645645645651 	300.000029220793 	8.465520900439288e-05 	101325.034544714
-0.8120620620620621 	300.0000290426543 	8.414028308262371e-05 	101325.0343338067
-0.8095595595595597 	300.0000288820785 	8.367543476824854e-05 	101325.0341438224
-0.8070570570570572 	300.0000287409515 	8.326681387823529e-05 	101325.0339773088
-0.8045545545545546 	300.0000286179505 	8.290822287941403e-05 	101325.0338319143
-0.8020520520520523 	300.0000285080882 	8.258543502649666e-05 	101325.0337011996
-0.7995495495495494 	300.0000284036179 	8.227833684727031e-05 	101325.0335767909
-0.7970470470470474 	300.000028297393 	8.196852193011683e-05 	101325.0334510509
-0.7945445445445446 	300.0000281857126 	8.164565216702295e-05 	101325.0333192419
-0.7920420420420423 	300.000028067675 	8.130644694200285e-05 	101325.0331804918
-0.7895395395395397 	300.0000279456409 	8.095768146271028e-05 	101325.0330374692
-0.7870370370370371 	300.0000278243839 	8.061117221680934e-05 	101325.0328952079
-0.7845345345345348 	300.0000277096631 	8.028084245089092e-05 	101325.0327597203
-0.7820320320320323 	300.0000276066403 	7.998131368941652e-05 	101325.03263684
-0.7795295295295296 	300.0000275184545 	7.972378896456762e-05 	101325.0325313631
-0.7770270270270272 	300.0000274475949 	7.951528424657222e-05 	101325.0324463378
-0.7745245245245247 	300.0000273939361 	7.935800836074001e-05 	101325.0323824073
-0.7720220220220222 	300.0000273555862 	7.924577755405455e-05 	101325.0323373411
-0.7695195195195199 	300.0000273281126 	7.91667415008666e-05 	101325.0323060167
-0.767017017017017 	300.0000273061071 	7.91030308085305e-05 	101325.0322810253
-0.7645145145145147 	300.0000272827351 	7.903383111660516e-05 	101325.0322538107
-0.7620120120120122 	300.000027250471 	7.893932844279305e-05 	101325.0322160194
-0.7595095095095097 	300.0000272030294 	7.880260020049443e-05 	101325.0321607199
-0.7570070070070072 	300.0000271368918 	7.861209090595579e-05 	101325.0320832802
-0.7545045045045048 	300.0000270505285 	7.836396087748327e-05 	101325.0319818495
-0.7520020020020022 	300.0000269443493 	7.806005229784922e-05 	101325.0318574926
-0.7494994994994997 	300.0000268227327 	7.771024709324499e-05 	101325.0317140214
-0.7469969969969972 	300.000026691077 	7.732905525186296e-05 	101325.0315575428
-0.7444944944944945 	300.000026555238 	7.693494148340371e-05 	101325.0313957214
-0.7419919919919924 	300.0000264221405 	7.654818735020001e-05 	101325.0312368339
-0.7394894894894897 	300.0000262975039 	7.618751767544257e-05 	101325.0310887581
-0.7369869869869872 	300.0000261874523 	7.586877882599874e-05 	101325.0309580587
-0.7344844844844846 	300.0000260952988 	7.560319066606181e-05 	101325.0308492918
-0.7319819819819822 	300.0000260234302 	7.539551105398486e-05 	101325.0307645973
-0.7294794794794797 	300.0000259711523 	7.524497926612158e-05 	101325.0307035478
-0.7269769769769773 	300.0000259364708 	7.514447753000198e-05 	101325.0306631956
-0.7244744744744747 	300.0000259148772 	7.508097239552562e-05 	101325.0306383114
-0.721971971971972 	300.0000259006869 	7.503809643315851e-05 	101325.0306218555
-0.7194694694694695 	300.0000258878073 	7.499558740967824e-05 	101325.0306056557
-0.7169669669669674 	300.0000258682757 	7.493287078661974e-05 	101325.0305811475
-0.7144644644644647 	300.0000258355017 	7.483023798927529e-05 	101325.0305401016
-0.711961961961962 	300.0000257824419 	7.466985400444491e-05 	101325.0304753407
-0.7094594594594597 	300.0000257036271 	7.443905930025542e-05 	101325.0303814405
-0.7069569569569573 	300.0000255967392 	7.413021032502249e-05 	101325.0302553418
-0.7044544544544545 	300.0000254619247 	7.374273968441951e-05 	101325.0300968335
-0.7019519519519523 	300.0000253018633 	7.328442725826334e-05 	101325.0299089093
-0.6994494494494495 	300.0000251222167 	7.277027264714525e-05 	101325.029697948
-0.6969469469469471 	300.000024931943 	7.222406005538809e-05 	101325.029473573
-0.6944444444444446 	300.0000247408873 	7.167537127797303e-05 	101325.0292480296
-0.6919419419419421 	300.0000245607474 	7.115703646123846e-05 	101325.0290349941
-0.6894394394394396 	300.0000244018071 	7.070185245106476e-05 	101325.0288478704
-0.6869369369369374 	300.0000242744759 	7.033586337235631e-05 	101325.028697744
-0.6844344344344344 	300.0000241840947 	7.007554298151208e-05 	101325.0285913448
-0.6819319319319321 	300.0000241312447 	6.992264248462399e-05 	101325.0285295136
-0.6794294294294296 	300.0000241119174 	6.986322005123807e-05 	101325.0285066325
-0.6769269269269272 	300.0000241160008 	6.987020972752837e-05 	101325.0285112468
-0.6744244244244245 	300.0000241308576 	6.990541378320021e-05 	101325.0285277917
-0.6719219219219222 	300.0000241407445 	6.992793437296523e-05 	101325.0285390359
-0.6694194194194195 	300.0000241325865 	6.98982812773311e-05 	101325.0285286763
-0.6669169169169172 	300.0000240945909 	6.978470527303819e-05 	101325.0284835818
-0.6644144144144146 	300.0000240194976 	6.956773310851722e-05 	101325.0283954182
-0.661911911911912 	300.0000239058677 	6.924044312340522e-05 	101325.0282615734
-0.6594094094094097 	300.00002375667 	6.881176978554054e-05 	101325.0280854441
-0.656906906906907 	300.0000235795449 	6.830330394360634e-05 	101325.0278761237
-0.6544044044044046 	300.0000233863947 	6.774838446037531e-05 	101325.0276474729
-0.6519019019019021 	300.000023191576 	6.718837515990204e-05 	101325.0274165306
-0.6493993993993996 	300.0000230100492 	6.666595893178057e-05 	101325.0272013287
-0.6468968968968971 	300.0000228553614 	6.622144108694201e-05 	101325.0270183602
-0.6443943943943946 	300.0000227382963 	6.588415262812145e-05 	101325.0268800608
-0.6418918918918921 	300.0000226647542 	6.566968090393465e-05 	101325.0267927658
-0.6393893893893897 	300.0000226337856 	6.557589861988268e-05 	101325.026755559
-0.6368868868868871 	300.0000226381355 	6.55826704993953e-05 	101325.0267602002
-0.6343843843843846 	300.0000226652228 	6.565492985974135e-05 	101325.0267920191
-0.6318818818818821 	300.0000226980244 	6.574525535701754e-05 	101325.0268315519
-0.6293793793793795 	300.000022718821 	6.580072944117406e-05 	101325.026856813
-0.6268768768768773 	300.0000227090102 	6.576938070347157e-05 	101325.0268462072
-0.6243743743743745 	300.0000226540105 	6.560874545111494e-05 	101325.0267820417
-0.6218718718718721 	300.0000225461503 	6.529497760697979e-05 	101325.0266541222
-0.6193693693693696 	300.0000223840784 	6.48282047896391e-05 	101325.0264624533
-0.6168668668668671 	300.0000221778915 	6.423533946188804e-05 	101325.0262180676
-0.6143643643643645 	300.0000219441482 	6.35658941293419e-05 	101325.0259415569
-0.6118618618618621 	300.0000217051873 	6.288385690087118e-05 	101325.02565966
-0.6093593593593596 	300.0000214858817 	6.225800098080391e-05 	101325.0254008419
-0.6068568568568571 	300.000021307902 	6.174958722623649e-05 	101325.0251908279
-0.6043543543543546 	300.0000211878094 	6.140411020995912e-05 	101325.0250485433
-0.6018518518518521 	300.0000211328963 	6.12418488159244e-05 	101325.0249826807
-0.5993493493493496 	300.0000211392636 	6.125277223361472e-05 	101325.0249893085
-0.5968468468468471 	300.0000211921558 	6.139581175366208e-05 	101325.0250513104
-0.5943443443443446 	300.0000212675578 	6.160296267404708e-05 	101325.0251404053
-0.591841841841842 	300.0000213357652 	6.179142789442073e-05 	101325.0252218662
-0.5893393393393397 	300.0000213681522 	6.187831267192915e-05 	101325.0252609853
-0.5868368368368371 	300.0000213416062 	6.17972328770206e-05 	101325.025229886
-0.5843343343343346 	300.0000212430203 	6.151229104513393e-05 	101325.0251134279
-0.5818318318318321 	300.0000210734462 	6.102723688656735e-05 	101325.0249130372
-0.5793293293293297 	300.0000208483777 	6.038681069984544e-05 	101325.0246474249
-0.5768268268268271 	300.0000205963956 	5.966972503155473e-05 	101325.0243495721
-0.5743243243243245 	300.0000203518676 	5.897325508073076e-05 	101325.0240602255
-0.5718218218218221 	300.0000201484216 	5.83924985256523e-05 	101325.0238194113
-0.5693193193193196 	300.0000200126606 	5.800118349182741e-05 	101325.0236579032
-0.5668168168168171 	300.0000199559462 	5.783350187951866e-05 	101325.0235902677
-0.5643143143143147 	300.0000199740355 	5.787599626535201e-05 	101325.0236109221
-0.5618118118118121 	300.0000200456606 	5.806769738851164e-05 	101325.0236943126
-0.5593093093093094 	300.0000201352262 	5.831114462432898e-05 	101325.0237996836
-0.5568068068068072 	300.0000202026631 	5.849387636946252e-05 	101325.0238797115
-0.5543043043043046 	300.0000202114617 	5.851228433765679e-05 	101325.0238909431
-0.551801801801802 	300.0000201364096 	5.82960343827027e-05 	101325.0238038007
-0.5492992992992995 	300.0000199717999 	5.782611457400127e-05 	101325.0236100134
-0.5467967967967969 	300.0000197305311 	5.714025329649571e-05 	101325.0233254994
-0.5442942942942947 	300.0000194442234 	5.632766212808913e-05 	101325.022987586
-0.5417917917917919 	300.00001915532 	5.55087058451025e-05 	101325.0226468041
-0.5392892892892895 	300.0000189084855 	5.48067757039691e-05 	101325.0223552478
-0.536786786786787 	300.0000187386152 	5.432106860890541e-05 	101325.0221543462
-0.5342842842842846 	300.0000186624858 	5.409900155540491e-05 	101325.0220645377
-0.531781781781782 	300.0000186750622 	5.41257750695885e-05 	101325.0220794982
-0.5292792792792794 	300.0000187496622 	5.432601733249914e-05 	101325.0221672848
-0.526776776776777 	300.0000188447358 	5.458337222763434e-05 	101325.0222789915
-0.5242742742742745 	300.0000189165094 	5.477574788080746e-05 	101325.0223625616
-0.521771771771772 	300.0000189300876 	5.480535702104276e-05 	101325.0223770869
-0.5192692692692695 	300.0000188684485 	5.46263407987416e-05 	101325.022303329
-0.516766766766767 	300.000018737674 	5.425334120697644e-05 	101325.0221474702
-0.5142642642642645 	300.0000185598203 	5.374864308389939e-05 	101325.0219368738
-0.511761761761762 	300.0000183677095 	5.320244527891691e-05 	101325.0217093959
-0.5092592592592596 	300.0000181909367 	5.269690248206251e-05 	101325.0215003547
-0.506756756756757 	300.0000180478757 	5.228579414413277e-05 	101325.021332115
-0.5042542542542544 	300.0000179436425 	5.198275679638138e-05 	101325.0212096427
-0.5017517517517521 	300.0000178694077 	5.176440025155929e-05 	101325.0211229511
-0.4992492492492494 	300.0000178105847 	5.159291581849331e-05 	101325.0210548148
-0.496746746746747 	300.0000177545448 	5.143203226615415e-05 	101325.0209899868
-0.4942442442442445 	300.000017695717 	5.126528360445628e-05 	101325.0209216372
-0.4917417417417421 	300.0000176363756 	5.109815443381777e-05 	101325.020852233
-0.4892392392392395 	300.0000175825757 	5.094399842375074e-05 	101325.0207888856
-0.486736736736737 	300.0000175376754 	5.081323462472347e-05 	101325.0207359337
-0.4842342342342345 	300.0000174978618 	5.069349821008978e-05 	101325.020688939
-0.481731731731732 	300.0000174518741 	5.055151895525301e-05 	101325.0206336356
-0.4792292292292296 	300.0000173821672 	5.034444677151879e-05 	101325.0205509118
-0.4767267267267268 	300.0000172763202 	5.003673305349158e-05 	101325.020425861
-0.4742242242242246 	300.0000171338452 	4.96277808575907e-05 	101325.0202568123
-0.471721721721722 	300.0000169672491 	4.915469930254129e-05 	101325.0200598264
-0.4692192192192195 	300.0000168033555 	4.869028959967166e-05 	101325.0198658094
-0.4667167167167169 	300.0000166720843 	4.832001367296466e-05 	101325.0197107874
-0.4642142142142145 	300.0000165983323 	4.810682290663699e-05 	101325.019622922
-0.461711711711712 	300.000016588337 	4.80733466914764e-05 	101325.0196110292
-0.4592092092092094 	300.0000166291121 	4.817935110969872e-05 	101325.0196591761
-0.456706706706707 	300.0000166893841 	4.833819836690692e-05 	101325.0197301139
-0.4542042042042045 	300.0000167283638 	4.843995584946042e-05 	101325.0197767723
-0.451701701701702 	300.0000167121174 	4.838441301244587e-05 	101325.0197573781
-0.4491991991991995 	300.0000166204817 	4.812053614770299e-05 	101325.0196489967
-0.4466966966966969 	300.0000164566027 	4.765395906976111e-05 	101325.0194551044
-0.4441941941941945 	300.0000162450673 	4.705387888786326e-05 	101325.0192045206
-0.441691691691692 	300.0000160229296 	4.642563749732529e-05 	101325.018942006
-0.4391891891891895 	300.0000158305645 	4.587796576086286e-05 	101325.0187142936
-0.436686686686687 	300.0000156972526 	4.549802727939424e-05 	101325.0185569121
-0.4341841841841846 	300.0000156368769 	4.532072328654114e-05 	101325.0184855893
-0.431681681681682 	300.0000156436458 	4.533414348650357e-05 	101325.0184940557
-0.4291791791791794 	300.0000156976349 	4.54810747616527e-05 	101325.0185581452
-0.426676676676677 	300.0000157702386 	4.568058104739279e-05 	101325.0186441111
-0.4241741741741744 	300.0000158329862 	4.585376605440092e-05 	101325.0187179241
-0.421671671671672 	300.0000158627037 	4.593305574513053e-05 	101325.0187525469
-0.4191691691691694 	300.0000158456353 	4.588129925096545e-05 	101325.0187319302
-0.4166666666666669 	300.0000157783064 	4.568768572029981e-05 	101325.0186519985
-0.4141641641641645 	300.000015665719 	4.536713596326793e-05 	101325.0185195014
-0.411661661661662 	300.0000155224184 	4.495817573099785e-05 	101325.0183496942
-0.4091591591591594 	300.0000153646703 	4.450857732654605e-05 	101325.0181634369
-0.406656656656657 	300.0000152124442 	4.407575661419889e-05 	101325.0179838934
-0.4041541541541545 	300.0000150850238 	4.371124082324906e-05 	101325.0178328755
-0.401651651651652 	300.0000149947589 	4.345364465255799e-05 	101325.0177269523
-0.3991491491491494 	300.0000149498941 	4.332275898525738e-05 	101325.017673775
-0.396646646646647 	300.0000149459887 	4.330713070964374e-05 	101325.0176696297
-0.3941441441441444 	300.0000149710702 	4.337281190090429e-05 	101325.0176994111
-0.3916416416416419 	300.0000150046417 	4.346338934509108e-05 	101325.017739724
-0.3891391391391395 	300.0000150256125 	4.351732029374247e-05 	101325.0177646729
-0.3866366366366368 	300.0000150154851 	4.348522464851684e-05 	101325.0177527413
-0.3841341341341344 	300.0000149649871 	4.333868220780496e-05 	101325.0176928262
-0.381631631631632 	300.0000148758149 	4.308650304028387e-05 	101325.0175876054
-0.3791291291291294 	300.0000147625279 	4.276420771862661e-05 	101325.0174530145
-0.3766266266266269 	300.0000146451752 	4.243120160641075e-05 	101325.0173137928
-0.3741241241241244 	300.0000145464635 	4.215080767929117e-05 	101325.0171965113
-0.371621621621622 	300.0000144839973 	4.197135957937354e-05 	101325.0171223204
-0.3691191191191194 	300.0000144667394 	4.191967892838212e-05 	101325.0171013922
-0.366616616616617 	300.0000144915451 	4.198553194728143e-05 	101325.0171304581
-0.3641141141141143 	300.00001454515 	4.213433586872281e-05 	101325.0171940652
-0.3616116116116119 	300.0000146087646 	4.23112050027436e-05 	101325.0172691233
-0.3591091091091095 	300.0000146614616 	4.245700620397614e-05 	101325.017331281
-0.356606606606607 	300.0000146863206 	4.252785936774856e-05 	101325.0173611364
-0.3541041041041044 	300.0000146756345 	4.24972503130694e-05 	101325.0173487153
-0.3516016016016019 	300.0000146301425 	4.236981304636478e-05 	101325.0172952604
-0.3490990990990994 	300.0000145594191 	4.21713885850567e-05 	101325.0172120245
-0.346596596596597 	300.000014478614 	4.194250289358655e-05 	101325.0171165394
-0.3440940940940944 	300.0000144031684 	4.172995212698018e-05 	101325.0170276132
-0.3415915915915919 	300.0000143462008 	4.156792721220888e-05 	101325.0169606298
-0.3390890890890895 	300.0000143154042 	4.148001246517483e-05 	101325.0169243979
-0.3365865865865869 	300.0000143121176 	4.146822539771325e-05 	101325.0169201265
-0.3340840840840844 	300.0000143310027 	4.151980712146233e-05 	101325.0169424461
-0.3315815815815819 	300.0000143644922 	4.16137232347224e-05 	101325.0169818234
-0.3290790790790794 	300.0000144029584 	4.172153421807417e-05 	101325.0170273539
-0.3265765765765769 	300.0000144377461 	4.182163330658723e-05 	101325.0170690186
-0.3240740740740744 	300.0000144633316 	4.189259129126686e-05 	101325.0170989101
-0.3215715715715718 	300.0000144740769 	4.192204570806744e-05 	101325.0171115164
-0.3190690690690695 	300.0000144669236 	4.190232253832489e-05 	101325.017103512
-0.3165665665665668 	300.0000144419175 	4.182837073280618e-05 	101325.0170735674
-0.3140640640640644 	300.0000143988445 	4.170509787462645e-05 	101325.0170224842
-0.311561561561562 	300.0000143403446 	4.153811001251024e-05 	101325.0169536622
-0.3090590590590593 	300.0000142731046 	4.134534366704308e-05 	101325.0168736207
-0.3065565565565568 	300.0000142044178 	4.115030687032605e-05 	101325.0167921709
-0.3040540540540545 	300.0000141450728 	4.098173950768754e-05 	101325.0167218815
-0.3015515515515518 	300.000014107036 	4.087599463371447e-05 	101325.0166766984
-0.2990490490490494 	300.0000141007739 	4.086149339912135e-05 	101325.0166698188
-0.2965465465465469 	300.0000141359274 	4.096429120176178e-05 	101325.0167111544
-0.2940440440440444 	300.0000142152697 	4.11933298781856e-05 	101325.0168049438
-0.2915415415415418 	300.0000143363505 	4.154028027827978e-05 	101325.0169481165
-0.2890390390390395 	300.0000144900089 	4.198116000901677e-05 	101325.0171299394
-0.2865365365365368 	300.0000146617504 	4.247189381153508e-05 	101325.0173331527
-0.2840340340340343 	300.0000148336262 	4.296348901968168e-05 	101325.0175364195
-0.2815315315315318 	300.0000149863675 	4.340100856395392e-05 	101325.0177174872
-0.2790290290290295 	300.0000151037727 	4.373629380436948e-05 	101325.0178563377
-0.2765265265265269 	300.0000151729957 	4.393415464116385e-05 	101325.0179378997
-0.2740240240240244 	300.0000151867944 	4.397305862148785e-05 	101325.0179540239
-0.2715215215215219 	300.000015144961 	4.38549710541883e-05 	101325.0179045913
-0.2690190190190194 	300.0000150542245 	4.359754009389461e-05 	101325.0177976806
-0.2665165165165169 	300.0000149287314 	4.32391638641773e-05 	101325.0176487867
-0.2640140140140144 	300.0000147851852 	4.283128797672218e-05 	101325.0174791188
-0.2615115115115119 	300.000014645023 	4.243127940947194e-05 	101325.0173130887
-0.2590090090090094 	300.000014528195 	4.210085780456898e-05 	101325.017175337
-0.2565065065065068 	300.0000144544265 	4.189049926847406e-05 	101325.0170876844
-0.2540040040040044 	300.0000144362619 	4.184045358079381e-05 	101325.0170662355
-0.2515015015015019 	300.0000144809825 	4.196988112190357e-05 	101325.0171190166
-0.2489989989989994 	300.0000145870605 	4.227390021576446e-05 	101325.0172445777
-0.2464964964964968 	300.0000147452118 	4.272829077184458e-05 	101325.0174319865
-0.2439939939939944 	300.0000149400647 	4.328536037867134e-05 	101325.0176623741
-0.2414914914914919 	300.0000151508945 	4.388931221798305e-05 	101325.0179118948
-0.2389889889889893 	300.0000153571785 	4.447986724791627e-05 	101325.0181555646
-0.2364864864864869 	300.0000155398958 	4.500245856689903e-05 	101325.0183711784
-0.2339839839839843 	300.0000156845822 	4.542064130508663e-05 	101325.0185426497
-0.2314814814814819 	300.0000157862451 	4.571389539901039e-05 	101325.0186623929
-0.2289789789789792 	300.0000158451934 	4.588883522974177e-05 	101325.0187323756
-0.2264764764764769 	300.0000158717821 	4.597114839357781e-05 	101325.0187635722
-0.2239739739739743 	300.0000158805563 	4.600233038858386e-05 	101325.0187737494
-0.2214714714714718 	300.0000158889005 	4.603411336989333e-05 	101325.0187838652
-0.2189689689689693 	300.0000159142787 	4.611175155585692e-05 	101325.0188137732
-0.2164664664664669 	300.0000159687731 	4.627180710465414e-05 	101325.0188781681
-0.2139639639639643 	300.0000160574962 	4.652920247529972e-05 	101325.0189835614
-0.2114614614614618 	300.0000161788424 	4.687625330167851e-05 	101325.0191269177
-0.2089589589589593 	300.000016322146 	4.728579382472462e-05 	101325.0192962481
-0.2064564564564568 	300.0000164715193 	4.771198536492657e-05 	101325.0194730358
-0.2039539539539543 	300.000016608967 	4.81055542752568e-05 	101325.0196359945
-0.2014514514514518 	300.0000167187014 	4.841850859813522e-05 	101325.0197654165
-0.1989489489489494 	300.0000167882437 	4.861787407511838e-05 	101325.0198473935
-0.1964464464464468 	300.0000168136856 	4.869299248397282e-05 	101325.0198771117
-0.1939439439439443 	300.0000167995711 	4.865620317730847e-05 	101325.0198603379
-0.1914414414414418 	300.0000167588604 	4.854619898881206e-05 	101325.0198125334
-0.1889389389389393 	300.0000167112068 	4.841378817111144e-05 	101325.019755672
-0.1864364364364368 	300.0000166757964 	4.831700074926582e-05 	101325.0197136255
-0.1839339339339343 	300.0000166701864 	4.830669483626943e-05 	101325.0197074364
-0.1814314314314318 	300.0000167075005 	4.841580180071093e-05 	101325.0197514951
-0.1789289289289293 	300.0000167912926 	4.865971663081413e-05 	101325.0198512192
-0.1764264264264268 	300.0000169195321 	4.902639755095796e-05 	101325.0200024936
-0.1739239239239243 	300.0000170801569 	4.948747408395033e-05 	101325.0201928253
-0.1714214214214218 	300.0000172591408 	4.99990496862295e-05 	101325.0204039386
-0.1689189189189193 	300.0000174377426 	5.051069608861273e-05 	101325.0206153381
-0.1664164164164168 	300.0000176011798 	5.097956063297184e-05 	101325.0208082055
-0.1639139139139143 	300.0000177371435 	5.137071799675997e-05 	101325.0209689018
-0.1614114114114118 	300.0000178409505 	5.167158487221624e-05 	101325.0210914438
-0.1589089089089093 	300.0000179142787 	5.188771700508637e-05 	101325.0211783165
-0.1564064064064068 	300.0000179658268 	5.204085885347952e-05 	101325.021239303
-0.1539039039039043 	300.0000180075942 	5.216711231045695e-05 	101325.021288589
-0.1514014014014018 	300.0000180521209 	5.229871758087973e-05 	101325.0213409762
-0.1488988988988993 	300.0000181089359 	5.246625975967554e-05 	101325.0214083108
-0.1463963963963968 	300.0000181840772 	5.268412808100174e-05 	101325.0214970352
-0.1438938938938943 	300.0000182769963 	5.295218724500633e-05 	101325.0216072799
-0.1413913913913918 	300.0000183836911 	5.325946573787988e-05 	101325.0217335429
-0.1388888888888893 	300.0000184964667 	5.358181963505151e-05 	101325.021866654
-0.1363863863863868 	300.0000186058531 	5.389771813403188e-05 	101325.0219964939
-0.1338838838838843 	300.0000187059237 	5.418646790514234e-05 	101325.0221148199
-0.1313813813813818 	300.0000187933306 	5.443817385259924e-05 	101325.0222175537
-0.1288788788788793 	300.0000188679298 	5.465762115701802e-05 	101325.0223060198
-0.1263763763763768 	300.0000189364081 	5.485813343398056e-05 	101325.0223868061
-0.1238738738738743 	300.0000190068104 	5.506670316096084e-05 	101325.0224702439
-0.1213713713713717 	300.0000190895733 	5.530852251800389e-05 	101325.022567824
-0.1188688688688693 	300.0000191924736 	5.560705813956831e-05 	101325.022689099
-0.1163663663663668 	300.0000193184218 	5.597350782464587e-05 	101325.0228386989
-0.1138638638638643 	300.0000194672245 	5.639992017828951e-05 	101325.0230141665
-0.1113613613613618 	300.0000196289428 	5.686432021752444e-05 	101325.0232053725
-0.1088588588588592 	300.0000197900865 	5.73255100772244e-05 	101325.0233960421
-0.1063563563563568 	300.0000199348148 	5.774032911482171e-05 	101325.0235673662
-0.1038538538538543 	300.0000200495036 	5.80702715658194e-05 	101325.0237029631
-0.1013513513513517 	300.0000201267334 	5.82930154161832e-05 	101325.0237939221
-0.09884884884884926 	300.0000201672792 	5.841685644335145e-05 	101325.0238424387
-0.09634634634634676 	300.0000201843014 	5.847314005666088e-05 	101325.023862715
-0.09384384384384425 	300.000020197837 	5.852073846542186e-05 	101325.0238785435
-0.09134134134134177 	300.0000202318612 	5.862555520612581e-05 	101325.0239179613
-0.08883883883883925 	300.0000203065621 	5.884668095686442e-05 	101325.0240062911
-0.08633633633633674 	300.0000204354889 	5.922268646004104e-05 	101325.0241591356
-0.08383383383383426 	300.0000206201903 	5.975161233944479e-05 	101325.0243770713
-0.08133133133133173 	300.0000208454557 	6.039653928430544e-05 	101325.0246437193
-0.07882882882882926 	300.0000210856969 	6.10822894643796e-05 	101325.0249282023
-0.07632632632632676 	300.0000213088367 	6.17165676800363e-05 	101325.0251916804
-0.07382382382382424 	300.0000214815536 	6.221042423235697e-05 	101325.0253962121
-0.07132132132132173 	300.0000215815961 	6.249569256984161e-05 	101325.0255138644
-0.06881881881881925 	300.0000215984753 	6.25507442954362e-05 	101325.0255341399
-0.06631631631631671 	300.0000215422242 	6.239958344966617e-05 	101325.0254678712
-0.06381381381381425 	300.0000214396813 	6.211891295722436e-05 	101325.0253462995
-0.06131131131131173 	300.0000213287157 	6.181741408548909e-05 	101325.0252151215
-0.05880880880880923 	300.0000212521757 	6.161438546512181e-05 	101325.0251248263
-0.05630630630630672 	300.0000212481138 	6.161817021321637e-05 	101325.0251198396
-0.05380380380380424 	300.0000213404367 	6.189330044966031e-05 	101325.0252285297
-0.05130130130130173 	300.0000215327019 	6.245480805588732e-05 	101325.025456009
-0.04879879879879922 	300.0000218076697 	6.325187785711299e-05 	101325.0257816345
-0.04629629629629672 	300.0000221297111 	6.418289503404818e-05 	101325.0261624046
-0.04379379379379422 	300.0000224509966 	6.511618268281449e-05 	101325.0265420395
-0.04129129129129173 	300.0000227229806 	6.591393452142597e-05 	101325.0268634966
-0.03878878878878922 	300.0000229077527 	6.647331354902097e-05 	101325.0270816628
-0.03628628628628671 	300.0000229855068 	6.673804337556246e-05 	101325.0271737167
-0.03378378378378422 	300.0000229606702 	6.672358930831569e-05 	101325.0271446817
-0.03128128128128172 	300.0000228607681 	6.650693243417878e-05 	101325.0270263037
-0.02877877877877922 	300.0000227278811 	6.620771544193292e-05 	101325.0268689958
-0.0262762762762767 	300.0000226089294 	6.596479964086029e-05 	101325.026728861
-0.02377377377377422 	300.0000225459146 	6.589086235389449e-05 	101325.0266537816
-0.0212712712712717 	300.0000225609053 	6.605996859703777e-05 	101325.0266721631
-0.01876876876876921 	300.0000226580643 	6.64796089380086e-05 	101325.0267866713
-0.01626626626626671 	300.0000228172368 	6.709984194423181e-05 	101325.0269746073
-0.0137637637637642 	300.0000230034569 	6.782922342639706e-05 	101325.0271950595
-0.0112612612612617 	300.0000231777825 	6.855681861217669e-05 	101325.0274008527
-0.008758758758759198 	300.0000233051383 	6.919460306062309e-05 	101325.0275516337
-0.006256256256256697 	300.0000233662714 	6.968785678071461e-05 	101325.0276242486
-0.003753753753754195 	300.0000233611383 	7.004042198674089e-05 	101325.0276177631
-0.001251251251251693 	300.0000233053839 	7.030022655820168e-05 	101325.02755166
0.00125125125125081 	300.0000232259661 	7.054359012840226e-05 	101325.0274576649
0.003753753753753312 	300.000023150079 	7.08515864802917e-05 	101325.0273680563
0.006256256256255817 	300.0000230959702 	7.127348808214338e-05 	101325.0273045326
0.008758758758758317 	300.0000230682199 	7.182516995529456e-05 	101325.0272714561
0.01126126126126082 	300.000023054689 	7.247231559051392e-05 	101325.027255403
0.01376376376376332 	300.0000230337887 	7.315735104962377e-05 	101325.027231103
0.01626626626626582 	300.0000229837373 	7.381575028217528e-05 	101325.0271716826
0.01876876876876833 	300.0000228887208 	7.440166602056462e-05 	101325.0270595832
0.02127127127127083 	300.000022748939 	7.491318673513455e-05 	101325.026894361
0.02377377377377332 	300.0000225802928 	7.538292879406037e-05 	101325.0266944199
0.02627627627627583 	300.0000224084164 	7.588255674766321e-05 	101325.0264916704
0.02877877877877833 	300.0000222644049 	7.648033428418159e-05 	101325.0263207311
0.03128128128128083 	300.0000221672398 	7.72250628777335e-05 	101325.0262062214
0.03378378378378333 	300.0000221214766 	7.81156492705673e-05 	101325.0261523863
0.03628628628628584 	300.0000221104237 	7.909030957040599e-05 	101325.0261389997
0.03878878878878834 	300.000022099621 	8.004793604838155e-05 	101325.0261260557
0.04129129129129084 	300.0000220489369 	8.086299147956959e-05 	101325.0260664331
0.04379379379379333 	300.0000219270925 	8.144323256191497e-05 	101325.0259225393
0.04629629629629585 	300.0000217230565 	8.174877436252292e-05 	101325.0256816756
0.04879879879879834 	300.0000214546341 	8.182377077470847e-05 	101325.0253642131
0.05130130130130085 	300.0000211643478 	8.178428218042775e-05 	101325.025020605
0.05380380380380335 	300.0000209079349 	8.178298468727643e-05 	101325.0247172341
0.05630630630630584 	300.0000207372785 	8.196975765864368e-05 	101325.024515783
0.05880880880880836 	300.000020684212 	8.243113798749015e-05 	101325.0244531289
0.06131131131131085 	300.000020747835 	8.317384006269963e-05 	101325.0245280937
0.06381381381381336 	300.0000208934748 	8.410786544771478e-05 	101325.0247002953
0.06631631631631586 	300.0000210641996 	8.508596875993859e-05 	101325.0249025759
0.06881881881881835 	300.0000211995115 	8.594569856301919e-05 	101325.0250624118
0.07132132132132088 	300.0000212518113 	8.656266430769262e-05 	101325.0251240411
0.07382382382382337 	300.0000212005808 	8.688955653973651e-05 	101325.0250640589
0.07632632632632587 	300.0000210584865 	8.695944797536171e-05 	101325.0248956434
0.07882882882882837 	300.0000208596683 	8.687647213174917e-05 	101325.0246605932
0.08133133133133086 	300.0000206503183 	8.676640118344534e-05 	101325.0244127146
0.08383383383383337 	300.0000204701349 	8.674470035340061e-05 	101325.0241994148
0.08633633633633589 	300.0000203421213 	8.687451842077804e-05 	101325.0240485885
0.08883883883883838 	300.0000202714128 	8.716541695090663e-05 	101325.0239644587
0.09134134134134086 	300.0000202440828 	8.757912575424532e-05 	101325.0239324647
0.09384384384384339 	300.0000202414545 	8.805471353611484e-05 	101325.0239299068
0.09634634634634588 	300.0000202477023 	8.854052599536257e-05 	101325.0239369964
0.09884884884884838 	300.0000202532237 	8.900038980339145e-05 	101325.0239434939
0.1013513513513509 	300.0000202580418 	8.942980996318143e-05 	101325.0239487733
0.1038538538538534 	300.0000202641199 	8.982841575490488e-05 	101325.0239563407
0.1063563563563559 	300.000020272791 	9.019715282494374e-05 	101325.0239662404
0.1088588588588584 	300.0000202759248 	9.051588135149947e-05 	101325.0239697059
0.1113613613613609 	300.0000202579339 	9.074723849977213e-05 	101325.0239490582
0.1138638638638634 	300.0000202024793 	9.085067905503919e-05 	101325.0238833984
0.1163663663663659 	300.000020096369 	9.079613600494387e-05 	101325.0237579739
0.1188688688688684 	300.0000199400912 	9.059616847253438e-05 	101325.0235731372
0.1213713713713709 	300.0000197504347 	9.02997496174486e-05 	101325.023348831
0.1238738738738734 	300.000019557988 	9.000172160558774e-05 	101325.023121949
0.1263763763763759 	300.0000194013722 	8.980436884785273e-05 	101325.0229365601
0.1288788788788784 	300.0000193114736 	8.979616310999238e-05 	101325.0228304302
0.1313813813813809 	300.0000193044497 	9.001701263040848e-05 	101325.0228221089
0.1338838838838834 	300.0000193730462 	9.043898176826113e-05 	101325.0229030311
0.1363863863863859 	300.00001948768 	9.097648708447031e-05 	101325.023038078
0.1388888888888884 	300.0000196037591 	9.149790425035575e-05 	101325.0231748582
0.1413913913913909 	300.0000196747351 	9.187480837467488e-05 	101325.0232587211
0.1438938938938934 	300.0000196660505 	9.200502290352951e-05 	101325.0232484997
0.1463963963963959 	300.0000195640727 	9.185328832043319e-05 	101325.0231282311
0.1488988988988985 	300.0000193804336 	9.145039283547388e-05 	101325.0229114877
0.1514014014014009 	300.0000191482453 	9.08900729291933e-05 	101325.0226370571
0.1539039039039035 	300.0000189114638 	9.030093467625637e-05 	101325.0223575452
0.1564064064064059 	300.000018714236 	8.980860074126907e-05 	101325.0221248985
0.1589089089089084 	300.0000185896374 	8.951340120360034e-05 	101325.0219775638
0.1614114114114109 	300.0000185515322 	8.945799093482564e-05 	101325.0219325375
0.1639139139139134 	300.0000185947694 	8.963488313207484e-05 	101325.0219837325
0.166416416416416 	300.0000186991299 	8.998176443544418e-05 	101325.0221062048
0.1689189189189185 	300.0000188333913 	9.041199669938271e-05 	101325.0222642371
0.1714214214214209 	300.0000189657469 	9.082987474921888e-05 	101325.022420459
0.1739239239239235 	300.0000190698752 	9.115379603192722e-05 	101325.0225434193
0.1764264264264259 	300.0000191280728 	9.133116064445409e-05 	101325.0226121299
0.1789289289289284 	300.0000191328075 	9.133503128647222e-05 	101325.0226174843
0.181431431431431 	300.0000190847205 	9.117193794793881e-05 	101325.0225611215
0.1839339339339334 	300.0000189927212 	9.086239814498508e-05 	101325.0224526567
0.186436436436436 	300.0000188685629 	9.044576678142998e-05 	101325.0223064545
0.1889389389389385 	300.0000187267922 	8.996329440561861e-05 	101325.022138923
0.191441441441441 	300.000018580906 	8.946074918947246e-05 	101325.0219667513
0.1939439439439434 	300.0000184444185 	8.89821900715977e-05 	101325.0218058864
0.196446446446446 	300.0000183301485 	8.856400949739767e-05 	101325.0216707268
0.1989489489489485 	300.0000182476607 	8.823646849772141e-05 	101325.0215729088
0.2014514514514509 	300.0000182026952 	8.801168827841584e-05 	101325.0215194656
0.2039539539539535 	300.0000181956933 	8.78881357811017e-05 	101325.0215108307
0.2064564564564559 	300.0000182201086 	8.784075843051744e-05 	101325.0215395557
0.2089589589589585 	300.0000182637967 	8.783153874580522e-05 	101325.0215906286
0.211461461461461 	300.0000183086205 	8.780871772220317e-05 	101325.0216437476
0.2139639639639635 	300.0000183373131 	8.772044641004004e-05 	101325.0216772244
0.2164664664664659 	300.0000183335763 	8.752593052589157e-05 	101325.0216726212
0.2189689689689684 	300.0000182880792 	8.720100346547768e-05 	101325.0216189679
0.221471471471471 	300.0000182003384 	8.675031772309396e-05 	101325.0215155348
0.2239739739739735 	300.0000180788912 	8.620017174122089e-05 	101325.0213724007
0.226476476476476 	300.0000179402198 	8.559988113733855e-05 	101325.0212085884
0.2289789789789785 	300.0000178044387 	8.500592263905114e-05 	101325.0210481623
0.231481481481481 	300.0000176917715 	8.447472046253339e-05 	101325.0209152822
0.2339839839839835 	300.0000176192238 	8.404984298955511e-05 	101325.0208294796
0.236486486486486 	300.0000175963757 	8.37537135597985e-05 	101325.0208021273
0.2389889889889885 	300.0000176237395 	8.358750785351958e-05 	101325.0208346308
0.241491491491491 	300.0000176944179 	8.352847196625028e-05 	101325.020918474
0.2439939939939935 	300.0000177950029 	8.353849104663705e-05 	101325.0210369324
0.246496496496496 	300.0000179060695 	8.356676982159873e-05 	101325.0211680242
0.2489989989989985 	300.0000180078822 	8.356159651573409e-05 	101325.0212880427
0.251501501501501 	300.0000180814363 	8.347259420130893e-05 	101325.0213749555
0.2540040040040035 	300.0000181119701 	8.325960884422254e-05 	101325.0214112031
0.256506506506506 	300.0000180905683 	8.289669760154997e-05 	101325.021385756
0.2590090090090086 	300.0000180135584 	8.23737258933377e-05 	101325.0212953889
0.261511511511511 	300.0000178868916 	8.170139182483005e-05 	101325.0211451516
0.2640140140140135 	300.0000177198618 	8.090563583713399e-05 	101325.0209479151
0.2665165165165161 	300.0000175293276 	8.003193378547615e-05 	101325.0207229298
0.2690190190190185 	300.0000173356078 	7.913447488284388e-05 	101325.020493467
0.271521521521521 	300.0000171584165 	7.82733063263904e-05 	101325.0202838859
0.2740240240240235 	300.0000170169504 	7.750688325373325e-05 	101325.0201166113
0.276526526526526 	300.0000169261426 	7.6880388626151e-05 	101325.0200094152
0.2790290290290286 	300.0000168952577 	7.64245089113136e-05 	101325.0199732766
0.281531531531531 	300.0000169272456 	7.614621486696321e-05 	101325.0200111505
0.2840340340340335 	300.0000170177137 	7.60328618680313e-05 	101325.0201178455
0.2865365365365361 	300.0000171557518 	7.60524468217443e-05 	101325.0202810419
0.2890390390390385 	300.0000173269205 	7.615909018728074e-05 	101325.0204831906
0.291541541541541 	300.0000175136091 	7.630221287983151e-05 	101325.0207039101
0.2940440440440436 	300.0000176984294 	7.643003904471941e-05 	101325.0209224899
0.296546546546546 	300.0000178655628 	7.649944974585045e-05 	101325.0211202104
0.2990490490490486 	300.0000180022975 	7.64769995500597e-05 	101325.0212822519
0.3015515515515511 	300.0000181014559 	7.634253161915622e-05 	101325.02139901
0.3040540540540535 	300.0000181584978 	7.608927683953857e-05 	101325.0214665826
0.3065565565565562 	300.0000181751936 	7.57196133903621e-05 	101325.0214863371
0.3090590590590585 	300.0000181560794 	7.524639201319897e-05 	101325.0214637223
0.3115615615615611 	300.0000181076294 	7.468525373385135e-05 	101325.0214067
0.3140640640640635 	300.0000180382722 	7.405524493525404e-05 	101325.0213241713
0.316566566566566 	300.0000179540826 	7.33755503834733e-05 	101325.0212246858
0.3190690690690687 	300.0000178614936 	7.266360816251327e-05 	101325.0211156152
0.3215715715715711 	300.0000177664795 	7.193658280476476e-05 	101325.0210028737
0.3240740740740735 	300.0000176718041 	7.120864666285471e-05 	101325.0208911166
0.326576576576576 	300.0000175809291 	7.049240591802427e-05 	101325.0207841729
0.3290790790790786 	300.0000174979277 	6.979753572696222e-05 	101325.0206854355
0.3315815815815811 	300.0000174240608 	6.913110464092865e-05 	101325.0205980358
0.3340840840840836 	300.0000173619054 	6.849807760238103e-05 	101325.0205247851
0.3365865865865861 	300.0000173140253 	6.790100570178744e-05 	101325.0204679534
0.3390890890890886 	300.0000172810505 	6.734145838420762e-05 	101325.0204289651
0.3415915915915911 	300.0000172631192 	6.681944092620178e-05 	101325.0204081182
0.3440940940940935 	300.000017259841 	6.633423635179505e-05 	101325.0204044618
0.3465965965965962 	300.0000172700273 	6.588362732279547e-05 	101325.020415915
0.3490990990990985 	300.0000172900607 	6.546336862502071e-05 	101325.0204395645
0.3516016016016011 	300.000017317472 	6.506713406753011e-05 	101325.0204720051
0.3541041041041035 	300.0000173492821 	6.468628851700481e-05 	101325.0205096611
0.3566066066066061 	300.0000173822497 	6.431117127390622e-05 	101325.0205491013
0.3591091091091085 	300.0000174144491 	6.393232024186824e-05 	101325.0205872989
0.3616116116116112 	300.0000174437021 	6.354200967466536e-05 	101325.0206218344
0.3641141141141137 	300.0000174682365 	6.313558922429426e-05 	101325.0206510553
0.3666166166166161 	300.0000174877803 	6.271208118654041e-05 	101325.0206741608
0.3691191191191185 	300.0000175027884 	6.227291171780804e-05 	101325.0206911706
0.371621621621621 	300.0000175125034 	6.182163368155229e-05 	101325.0207027319
0.3741241241241237 	300.0000175186572 	6.136103400515714e-05 	101325.0207097463
0.3766266266266261 	300.0000175212391 	6.089260947028733e-05 	101325.0207129126
0.3791291291291286 	300.0000175205703 	6.041549025494877e-05 	101325.0207123049
0.3816316316316311 	300.000017515868 	5.992658316670706e-05 	101325.0207071026
0.3841341341341336 	300.0000175064726 	5.942141683070664e-05 	101325.0206955987
0.3866366366366362 	300.0000174893636 	5.889541566329535e-05 	101325.0206755625
0.3891391391391387 	300.0000174632924 	5.834555173329161e-05 	101325.0206449165
0.391641641641641 	300.0000174276565 	5.777079663330623e-05 	101325.0206025564
0.3941441441441436 	300.0000173824538 	5.717338399353034e-05 	101325.0205490791
0.3966466466466462 	300.0000173300889 	5.655970730916578e-05 	101325.0204871913
0.3991491491491486 	300.0000172744179 	5.593951952642914e-05 	101325.020421666
0.4016516516516512 	300.0000172211843 	5.532642780269305e-05 	101325.0203588202
0.4041541541541536 	300.0000171763953 	5.473632118704164e-05 	101325.0203056003
0.4066566566566561 	300.0000171449942 	5.418489786173186e-05 	101325.0202684548
0.4091591591591587 	300.0000171314159 	5.368547352109011e-05 	101325.0202521536
0.4116616616616612 	300.0000171370167 	5.324441712102033e-05 	101325.0202587266
0.4141641641641635 	300.0000171607441 	5.285921277629031e-05 	101325.0202866805
0.4166666666666662 	300.0000171976804 	5.251701283394151e-05 	101325.0203306553
0.4191691691691687 	300.0000172405125 	5.219477731070054e-05 	101325.0203817228
0.421671671671671 	300.000017280318 	5.186418837764417e-05 	101325.0204284586
0.4241741741741737 	300.0000173057363 	5.149462960345555e-05 	101325.0204587489
0.4266766766766761 	300.0000173084761 	5.106155918294284e-05 	101325.0204620738
0.4291791791791785 	300.0000172833354 	5.055084432800785e-05 	101325.0204318255
0.4316816816816812 	300.0000172285314 	4.996050811340242e-05 	101325.0203670693
0.4341841841841836 	300.0000171491715 	4.93058949140433e-05 	101325.0202732334
0.4366866866866862 	300.0000170542975 	4.861252206668315e-05 	101325.0201614362
0.4391891891891885 	300.000016957487 	4.791584469686347e-05 	101325.0200465534
0.4416916916916913 	300.0000168711592 	4.725444885218865e-05 	101325.0199445315
0.4441941941941936 	300.0000168076635 	4.666187479017995e-05 	101325.0198696291
0.4466966966966961 	300.0000167754513 	4.61658108983149e-05 	101325.0198320881
0.4491991991991987 	300.0000167794163 	4.577767254641633e-05 	101325.019836472
0.4517017017017012 	300.0000168166769 	4.549345074482532e-05 	101325.0198806861
0.4542042042042035 	300.0000168802494 	4.529099865654898e-05 	101325.0199556568
0.4567067067067062 	300.0000169565922 	4.512981374033256e-05 	101325.0200457894
0.4592092092092087 	300.0000170279605 	4.496077822744699e-05 	101325.0201305241
0.4617117117117112 	300.0000170765903 	4.472804691847122e-05 	101325.0201872788
0.4642142142142137 	300.0000170835361 	4.43852771711543e-05 	101325.0201957243
0.4667167167167162 	300.0000170391517 	4.390389155916772e-05 	101325.0201428524
0.4692192192192187 	300.0000169413731 	4.328177854552813e-05 	101325.0200275317
0.4717217217217212 	300.0000168023062 	4.25521120005334e-05 	101325.0198628234
0.4742242242242236 	300.0000166425978 	4.177342921389126e-05 	101325.0196745659
0.4767267267267262 	300.0000164915033 	4.102388811279638e-05 	101325.0194959412
0.4792292292292287 	300.000016376254 	4.03800212829464e-05 	101325.0193594178
0.4817317317317312 	300.000016316182 	3.989606197909965e-05 	101325.0192883785
0.4842342342342336 	300.000016317815 	3.959218396946818e-05 	101325.0192906075
0.4867367367367362 	300.0000163726363 	3.944177102556645e-05 	101325.0193555896
0.4892392392392387 	300.0000164585577 	3.938213766616746e-05 	101325.0194567986
0.4917417417417412 	300.0000165447186 	3.932840232296914e-05 	101325.0195586756
0.4942442442442437 	300.0000166012107 	3.919623411541114e-05 	101325.0196261831
0.4967467467467462 	300.0000166076571 	3.892672653213319e-05 	101325.0196338682
0.4992492492492487 	300.0000165552499 	3.849653132998316e-05 	101325.019572068
0.5017517517517511 	300.0000164509569 	3.792596372632017e-05 	101325.0194486603
0.5042542542542537 	300.0000163133491 	3.726751989413917e-05 	101325.0192858698
0.5067567567567562 	300.0000161670785 	3.659152817198706e-05 	101325.0191132518
0.5092592592592589 	300.000016036825 	3.596745551027157e-05 	101325.0189593567
0.5117617617617611 	300.0000159399222 	3.544472101179989e-05 	101325.0188448242
0.5142642642642637 	300.0000158838673 	3.504701963276246e-05 	101325.0187784774
0.5167667667667663 	300.0000158654489 	3.476579681824405e-05 	101325.0187567698
0.5192692692692688 	300.0000158730793 	3.45695881330874e-05 	101325.0187661682
0.5217717717717714 	300.0000158913846 	3.441278440407007e-05 	101325.0187874478
0.5242742742742736 	300.0000159025984 	3.42457709221628e-05 	101325.0188005418
0.5267767767767763 	300.0000158927404 	3.402881994185255e-05 	101325.0187887144
0.5292792792792789 	300.0000158527217 	3.373410827257193e-05 	101325.0187413451
0.5317817817817813 	300.0000157798355 	3.335371459210182e-05 	101325.0186552279
0.5342842842842837 	300.0000156782551 	3.289752223201751e-05 	101325.0185345598
0.5367867867867864 	300.0000155558995 	3.238946457072588e-05 	101325.0183898609
0.5392892892892888 	300.000015425644 	3.186649673409141e-05 	101325.0182360267
0.5417917917917912 	300.0000153021632 	3.136638738205989e-05 	101325.0180896732
0.5442942942942938 	300.0000151976043 	3.092626032471282e-05 	101325.0179660452
0.5467967967967964 	300.000015121387 	3.057200858413017e-05 	101325.017875852
0.5492992992992988 	300.0000150764557 	3.031198786149745e-05 	101325.017822598
0.5518018018018012 	300.0000150584412 	3.013659368262992e-05 	101325.0178011614
0.5543043043043039 	300.0000150563247 	3.00130793546462e-05 	101325.0177982469
0.5568068068068063 	300.0000150534215 	2.989802897759272e-05 	101325.0177949695
0.5593093093093087 	300.0000150328341 	2.974358105333796e-05 	101325.017771175
0.5618118118118114 	300.0000149815506 	2.951079800479084e-05 	101325.0177104964
0.5643143143143137 	300.0000148920321 	2.918306119733921e-05 	101325.0176049163
0.5668168168168163 	300.000014767401 	2.876563963349191e-05 	101325.0174574199
0.5693193193193188 	300.0000146188242 	2.829107148351305e-05 	101325.0172815881
0.5718218218218213 	300.000014463501 	2.780561768225619e-05 	101325.0170979645
0.5743243243243239 	300.0000143200367 	2.735903026277293e-05 	101325.016928363
0.5768268268268262 	300.0000142029695 	2.699288772027928e-05 	101325.0167901238
0.5793293293293288 	300.0000141195972 	2.672574867741314e-05 	101325.0166918853
0.5818318318318314 	300.0000140687313 	2.655509697026347e-05 	101325.0166317687
0.5843343343343338 	300.0000140406992 	2.645342489259332e-05 	101325.0165983171
0.5868368368368363 	300.0000140198901 	2.638014671545329e-05 	101325.0165738655
0.5893393393393387 	300.0000139903516 	2.629248902450236e-05 	101325.0165393287
0.5918418418418413 	300.0000139392652 	2.615255426623158e-05 	101325.0164789176
0.5943443443443439 	300.000013858825 	2.594116610415589e-05 	101325.016383557
0.5968468468468463 	300.0000137479321 	2.565520434072823e-05 	101325.0162524032
0.5993493493493487 	300.0000136126217 	2.531061598375461e-05 	101325.0160923087
0.6018518518518514 	300.0000134628954 	2.493659184124451e-05 	101325.015915568
0.6043543543543537 	300.0000133116422 	2.456408951170144e-05 	101325.0157365977
0.6068568568568564 	300.0000131693816 	2.422450780873228e-05 	101325.0155684866
0.6093593593593587 	300.0000130437544 	2.393697685471166e-05 	101325.015420306
0.6118618618618614 	300.0000129383985 	2.370966661717166e-05 	101325.0152956746
0.6143643643643638 	300.0000128517344 	2.353925107801375e-05 	101325.0151927228
0.6168668668668662 	300.0000127775792 	2.341010151743339e-05 	101325.0151052678
0.6193693693693688 	300.0000127092974 	2.330473850789197e-05 	101325.0150247224
0.6218718718718714 	300.0000126393942 	2.320206666854513e-05 	101325.0149421551
0.6243743743743737 	300.0000125611489 	2.308546435166221e-05 	101325.0148499906
0.6268768768768762 	300.0000124706435 	2.294462846950555e-05 	101325.0147430612
0.629379379379379 	300.0000123658525 	2.277218984792162e-05 	101325.0146190011
0.6318818818818812 	300.0000122468431 	2.257031436062416e-05 	101325.014478178
0.6343843843843838 	300.0000121160883 	2.234370397933205e-05 	101325.014323386
0.6368868868868864 	300.0000119773245 	2.210259159522653e-05 	101325.014159438
0.6393893893893888 	300.0000118359706 	2.186193263097667e-05 	101325.0139926418
0.6418918918918912 	300.0000116987666 	2.163505280594884e-05 	101325.0138300038
0.6443943943943939 	300.0000115701538 	2.143839813230522e-05 	101325.0136780398
0.6468968968968963 	300.0000114545912 	2.128133217773933e-05 	101325.013541275
0.6493993993993988 	300.0000113526642 	2.1166437657404e-05 	101325.0134207592
0.6519019019019012 	300.0000112618038 	2.108837225256049e-05 	101325.0133132041
0.6544044044044038 	300.0000111751724 	2.102881434283991e-05 	101325.0132112591
0.6569069069069065 	300.0000110855329 	2.096805185466597e-05 	101325.0131051263
0.6594094094094087 	300.0000109841552 	2.088391857044368e-05 	101325.0129851717
0.6619119119119113 	300.000010865367 	2.076108185026549e-05 	101325.0128448139
0.664414414414414 	300.0000107284399 	2.059835085447953e-05 	101325.012682843
0.6669169169169162 	300.0000105772891 	2.040403589554259e-05 	101325.0125042791
0.6694194194194188 	300.0000104205296 	2.02020633135993e-05 	101325.0123192565
0.6719219219219214 	300.0000102685904 	2.00186381401963e-05 	101325.012140068
0.674424424424424 	300.0000101310467 	1.987691259195993e-05 	101325.0119773362
0.6769269269269262 	300.0000100116882 	1.979102517327957e-05 	101325.0118365582
0.679429429429429 	300.0000099101678 	1.975517282389728e-05 	101325.0117161314
0.6819319319319311 	300.0000098182825 	1.975266180047384e-05 	101325.0116076244
0.6844344344344341 	300.0000097258821 	1.975424207346492e-05 	101325.0114983449
0.686936936936936 	300.0000096218356 	1.973082052730182e-05 	101325.0113753866
0.6894394394394392 	300.0000094986827 	1.966423748451806e-05 	101325.0112297902
0.6919419419419413 	300.0000093545934 	1.954791449817886e-05 	101325.0110595492
0.694444444444444 	300.0000091943136 	1.939741125057946e-05 	101325.0108705195
0.6969469469469463 	300.0000090288725 	1.923899683117342e-05 	101325.0106748756
0.6994494494494489 	300.0000088705555 	1.910546377476467e-05 	101325.010487537
0.7019519519519515 	300.0000087306126 	1.902722686260096e-05 	101325.0103217027
0.7044544544544538 	300.0000086147811 	1.901778233767686e-05 	101325.010184807
0.7069569569569564 	300.0000085231799 	1.907635336620421e-05 	101325.0100760439
0.7094594594594589 	300.0000084471537 	1.91805563205253e-05 	101325.0099862583
0.7119619619619615 	300.0000083742652 	1.929493796158228e-05 	101325.009900276
0.7144644644644638 	300.0000082904754 	1.938156249169324e-05 	101325.0098009343
0.7169669669669665 	300.0000081825396 	1.940477269041939e-05 	101325.0096735195
0.7194694694694688 	300.0000080441586 	1.934736562286787e-05 	101325.0095095124
0.7219719719719715 	300.0000078742758 	1.920963622978521e-05 	101325.009308813
0.7244744744744737 	300.0000076806356 	1.901102675583014e-05 	101325.009079858
0.7269769769769764 	300.0000074757166 	1.878866291280826e-05 	101325.0088376507
0.7294794794794791 	300.0000072748495 	1.858256502049211e-05 	101325.008600258
0.7319819819819813 	300.0000070925395 	1.843386283668963e-05 	101325.0083848149
0.7344844844844839 	300.0000069393333 	1.837213152962049e-05 	101325.0082040195
0.7369869869869864 	300.0000068208186 	1.840867084632264e-05 	101325.0080636752
0.739489489489489 	300.0000067346566 	1.853987478627121e-05 	101325.0079616912
0.7419919919919914 	300.0000066728745 	1.874182114644345e-05 	101325.0078886919
0.7444944944944939 	300.0000066235366 	1.898052414550051e-05 	101325.0078300661
0.7469969969969963 	300.000006571868 	1.921683574746489e-05 	101325.007768968
0.7494994994994989 	300.0000065044242 	1.941187934038154e-05 	101325.0076895414
0.7520020020020015 	300.0000064116455 	1.953889720874128e-05 	101325.0075797434
0.7545045045045039 	300.0000062877899 	1.958248064538123e-05 	101325.0074334281
0.7570070070070062 	300.0000061336668 	1.954474820069582e-05 	101325.0072514271
0.7595095095095092 	300.0000059560377 	1.94444794356916e-05 	101325.007041468
0.7620120120120112 	300.0000057664057 	1.931111025130709e-05 	101325.0068169328
0.7645145145145138 	300.0000055783436 	1.918551133192564e-05 	101325.0065946815
0.7670170170170165 	300.0000054068845 	1.910850100306497e-05 	101325.0063922644
0.7695195195195191 	300.0000052653984 	1.911571240681587e-05 	101325.0062248999
0.7720220220220213 	300.0000051620229 	1.923248557402528e-05 	101325.0061025276
0.7745245245245239 	300.0000050984389 	1.946252426516258e-05 	101325.0060274001
0.7770270270270263 	300.0000050694041 	1.979181628328915e-05 	101325.0059928379
0.779529529529529 	300.0000050618142 	2.018414895828591e-05 	101325.0059836953
0.7820320320320313 	300.0000050575548 	2.05880102520454e-05 	101325.0059787735
0.784534534534534 	300.0000050374611 	2.094981876111137e-05 	101325.0059548441
0.7870370370370364 	300.0000049836229 	2.121854778304078e-05 	101325.0058913429
0.7895395395395389 	300.0000048849649 	2.136463143670623e-05 	101325.0057748357
0.7920420420420413 	300.0000047389847 	2.138225691298835e-05 	101325.0056023337
0.794544544544544 	300.0000045529548 	2.129053212773291e-05 	101325.0053824883
0.7970470470470463 	300.0000043430186 	2.113570810583202e-05 	101325.0051341262
0.799549549549549 	300.000004129918 	2.097426236301846e-05 	101325.0048822151
0.8020520520520515 	300.0000039353785 	2.086608075415117e-05 	101325.0046522935
0.8045545545545539 	300.0000037767006 	2.086068956519184e-05 	101325.0044649414
0.8070570570570563 	300.0000036639784 	2.098355240837392e-05 	101325.0043314911
0.8095595595595589 	300.0000035965439 	2.123763853224956e-05 	101325.0042519161
0.8120620620620614 	300.0000035656797 	2.159766421683561e-05 	101325.0042154868
0.8145645645645638 	300.0000035561987 	2.201995190146286e-05 	101325.0042039585
0.8170670670670666 	300.0000035497478 	2.245615653660548e-05 	101325.0041963419
0.8195695695695689 	300.0000035305114 	2.285943553725637e-05 	101325.0041737866
0.8220720720720714 	300.0000034875289 	2.320111787870635e-05 	101325.0041232942
0.8245745745745739 	300.0000034169205 	2.34684578229794e-05 	101325.0040395807
0.8270770770770765 	300.0000033198206 	2.36638439580319e-05 	101325.0039248157
0.8295795795795788 	300.0000032027361 	2.380440857539847e-05 	101325.0037864573
0.8320820820820815 	300.0000030741217 	2.390824793979713e-05 	101325.0036340556
0.834584584584584 	300.0000029406453 	2.399681471406028e-05 	101325.0034763276
0.8370870870870865 	300.0000028077976 	2.408575094312513e-05 	101325.0033195255
0.8395895895895891 	300.0000026790143 	2.41827189276548e-05 	101325.0031673817
0.8420920920920915 	300.0000025563189 	2.429604266807759e-05 	101325.0030221652
0.844594594594594 	300.0000024412179 	2.443025749819168e-05 	101325.0028861071
0.8470970970970964 	300.0000023367701 	2.459617356690423e-05 	101325.0027625581
0.8495995995995991 	300.0000022471837 	2.480880070157695e-05 	101325.0026563477
0.8521021021021015 	300.0000021765874 	2.507992178250349e-05 	101325.0025729606
0.8546046046046039 	300.0000021287744 	2.542188462403947e-05 	101325.0025165277
0.8571071071071066 	300.0000021041519 	2.583369046631202e-05 	101325.002487287
0.8596096096096089 	300.000002097568 	2.630043994948091e-05 	101325.0024797196
0.8621121121121116 	300.0000020997187 	2.679513923715863e-05 	101325.0024824429
0.8646146146146139 	300.0000020980012 	2.727635921787457e-05 	101325.002480103
0.8671171171171166 	300.0000020780157 	2.770553204955877e-05 	101325.0024566768
0.8696196196196189 	300.0000020293474 	2.805078535716816e-05 	101325.0023993355
0.8721221221221216 	300.0000019473345 	2.829680598868968e-05 	101325.0023020862
0.874624624624624 	300.0000018342449 	2.845461146677975e-05 	101325.0021682494
0.8771271271271264 	300.0000017009947 	2.855361775338163e-05 	101325.0020106943
0.879629629629629 	300.0000015645319 	2.864435716466651e-05 	101325.0018492921
0.8821321321321317 	300.0000014433306 	2.878176048752755e-05 	101325.0017061924
0.8846346346346339 	300.0000013534854 	2.901097792136836e-05 	101325.0016003708
0.8871371371371364 	300.0000013048645 	2.936045186244873e-05 	101325.0015427984
0.8896396396396391 	300.0000012968695 	2.982707296940391e-05 	101325.0015333392
0.8921421421421414 	300.0000013197663 	3.038316517624133e-05 	101325.0015603952
0.8946446446446441 	300.0000013566295 	3.098141762964924e-05 	101325.0016038421
0.8971471471471464 	300.0000013877778 	3.156363383870269e-05 	101325.0016405215
0.8996496496496489 	300.0000013960789 	3.208215681575797e-05 	101325.0016504125
0.9021521521521517 	300.0000013716302 	3.250763499904985e-05 	101325.0016215649
0.9046546546546541 	300.0000013134849 	3.283825573954362e-05 	101325.0015526976
0.9071571571571564 	300.0000012288445 	3.309583338371366e-05 	101325.0014529039
0.9096596596596589 	300.0000011320043 	3.331664284101591e-05 	101325.0013384577
0.9121621621621616 	300.0000010385776 	3.354730142002782e-05 	101325.0012276839
0.9146646646646639 	300.0000009605786 	3.382328519196426e-05 	101325.0011356419
0.9171671671671666 	300.0000009051389 	3.41617122270212e-05 	101325.0010703294
0.9196696696696689 	300.0000008724093 	3.456434326509477e-05 	101325.0010313416
0.9221721721721714 	300.0000008553621 	3.501514342371367e-05 	101325.0010112027
0.9246746746746741 	300.0000008446574 	3.548558883386828e-05 	101325.0009988981
0.9271771771771765 	300.0000008323818 	3.595098538575064e-05 	101325.0009842996
0.9296796796796791 	300.0000008134045 	3.639872839252279e-05 	101325.0009617061
0.9321821821821816 	300.0000007875777 	3.682863116825851e-05 	101325.0009313235
0.9346846846846838 	300.0000007596499 	3.725073176321006e-05 	101325.0008984607
0.9371871871871866 	300.0000007365161 	3.768544756208665e-05 	101325.0008708397
0.9396896896896891 	300.0000007230558 	3.814890248873105e-05 	101325.0008549843
0.9421921921921914 	300.000000721326 	3.864467846062687e-05 	101325.0008530238
0.9446946946946939 	300.0000007280337 	3.916496535925574e-05 	101325.0008611349
0.9471971971971965 	300.0000007355351 	3.968827357539339e-05 	101325.0008702078
0.9496996996996991 	300.00000073428 	4.018819461466968e-05 	101325.0008685169
0.9522022022022016 	300.0000007150907 	4.063848516865694e-05 	101325.0008456429
0.9547047047047038 	300.0000006736296 	4.102752787040743e-05 	101325.0007965371
0.9572072072072064 	300.0000006125529 	4.13638990526998e-05 	101325.0007243702
0.9597097097097093 	300.0000005420345 	4.167177202579818e-05 	101325.0006409553
0.9622122122122114 	300.0000004772073 	4.199731018087562e-05 	101325.0005642958
0.964714714714714 	300.0000004344844 	4.238771737132768e-05 	101325.0005138304
0.9672172172172167 	300.0000004266972 	4.287675136582405e-05 	101325.0005046467
0.969719719719719 	300.0000004586952 	4.347834089782473e-05 	101325.0005423368
0.9722222222222214 	300.0000005245465 	4.417571499669852e-05 	101325.0006202044
0.9747247247247239 	300.0000006088848 	4.49252730220091e-05 	101325.0007199452
0.9772272272272267 	300.0000006901346 	4.565921338145419e-05 	101325.0008158448
0.9797297297297292 	300.000000745477 	4.631878658893251e-05 	101325.0008813999
0.9822322322322313 	300.0000007583232 	4.685947249966034e-05 	101325.0008965833
0.9847347347347344 	300.0000007221671 	4.72614208610311e-05 	101325.0008538404
0.9872372372372363 	300.0000006434611 	4.75470079908661e-05 	101325.0007610344
0.9897397397397389 	300.0000005412729 	4.776952181008849e-05 	101325.0006401216
0.9922422422422417 	300.0000004409782 	4.800427449403404e-05 	101325.0005216049
0.9947447447447441 	300.0000003690024 	4.832561837336825e-05 	101325.0004363756
0.9972472472472468 	300.000000344477 	4.878483130046381e-05 	101325.0004073538
0.999749749749749 	300.0000003747168 	4.939941962359143e-05 	101325.0004431445
1.002252252252252 	300.0000004528722 	5.015324591927692e-05 	101325.0005355045
1.004754754754754 	300.0000005594734 	5.099014534944735e-05 	101325.0006614617
1.007257257257256 	300.000000667666 	5.182999006550038e-05 	101325.0007895599
1.009759759759759 	300.0000007512443 	5.260038830451036e-05 	101325.0008884646
1.012262262262261 	300.0000007909155 	5.32469276429745e-05 	101325.0009353848
1.014764764764764 	300.000000779445 	5.374684292537481e-05 	101325.0009220017
1.017267267267267 	300.0000007237109 	5.412129870971477e-05 	101325.0008562038
1.019769769769769 	300.0000006417 	5.441941899615177e-05 	101325.0007590346
1.022272272272272 	300.0000005561247 	5.470725904554012e-05 	101325.0006577534
1.024774774774774 	300.0000004882391 	5.50472525552572e-05 	101325.0005774257
1.027277277277277 	300.0000004514439 	5.547622339023977e-05 	101325.0005339508
1.029779779779779 	300.0000004488398 	5.600375517361864e-05 	101325.0005307214
1.032282282282282 	300.0000004734317 	5.661036190606791e-05 	101325.0005598009
1.034784784784784 	300.0000005131836 	5.726133432261449e-05 	101325.0006068776
1.037287287287286 	300.0000005561213 	5.792239350633597e-05 	101325.0006578055
1.039789789789789 	300.0000005951807 	5.857103183160209e-05 	101325.0007039521
1.042292292292291 	300.0000006293989 	5.920266508230377e-05 	101325.0007442453
1.044794794794794 	300.0000006625261 	5.982522245413345e-05 	101325.0007832961
1.047297297297296 	300.0000006992661 	6.045042767612243e-05 	101325.0008266651
1.049799799799799 	300.0000007404266 	6.108045238259395e-05 	101325.0008756469
1.052302302302302 	300.0000007813049 	6.17002387717984e-05 	101325.0009242058
1.054804804804804 	300.0000008112957 	6.228058738526116e-05 	101325.0009598044
1.057307307307306 	300.0000008182938 	6.278798640467033e-05 	101325.0009681174
1.059809809809809 	300.0000007945287 	6.320072159796179e-05 	101325.0009397972
1.062312312312312 	300.0000007408759 	6.352215033329272e-05 	101325.000876389
1.064814814814814 	300.000000670012 	6.378605483014721e-05 	101325.0007926279
1.067317317317317 	300.0000006031446 	6.405153561592143e-05 	101325.000713696
1.069819819819819 	300.0000005645796 	6.438583788766702e-05 	101325.0006680971
1.072322322322321 	300.000000573783 	6.484340820219933e-05 	101325.000678603
1.074824824824824 	300.0000006380587 	6.544886184513663e-05 	101325.0007544189
1.077327327327327 	300.0000007506617 	6.618467667220072e-05 	101325.0008873792
1.079829829829829 	300.0000008914059 	6.69974947136705e-05 	101325.0010536949
1.082332332332332 	300.0000010324497 	6.781418128634157e-05 	101325.0012207119
1.084834834834834 	300.0000011468748 	6.856102551591327e-05 	101325.0013561848
1.087337337337337 	300.0000012149688 	6.918545448972588e-05 	101325.0014368919
1.089839839839839 	300.0000012294244 	6.966838392497761e-05 	101325.0014540713
1.092342342342342 	300.0000011960416 	7.002663234395242e-05 	101325.0014144203
1.094844844844844 	300.0000011304146 	7.030502922673033e-05 	101325.0013368425
1.097347347347347 	300.0000010538183 	7.056257560211306e-05 	101325.0012464298
1.099849849849849 	300.0000009873206 	7.085673255544239e-05 	101325.0011678534
1.102352352352352 	300.0000009471239 	7.123108305335534e-05 	101325.001120129
1.104854854854854 	300.0000009418545 	7.170847337142702e-05 	101325.0011137413
1.107357357357357 	300.0000009725181 	7.228985059579509e-05 	101325.0011500841
1.109859859859859 	300.0000010338165 	7.295682180231725e-05 	101325.0012226006
1.112362362362362 	300.0000011155257 	7.367692278783099e-05 	101325.001318823
1.114864864864865 	300.0000012034235 	7.440925130810686e-05 	101325.0014227224
1.117367367367367 	300.000001283084 	7.511090962044375e-05 	101325.0015171693
1.119869869869869 	300.0000013415886 	7.574343307104845e-05 	101325.0015865218
1.122372372372372 	300.0000013695343 	7.627964650050063e-05 	101325.0016193368
1.124874874874874 	300.0000013624078 	7.670924800947492e-05 	101325.0016109217
1.127377377377377 	300.0000013236284 	7.7043355847175e-05 	101325.0015650613
1.129879879879879 	300.0000012638374 	7.731336802633065e-05 	101325.0014941033
1.132382382382382 	300.0000011986353 	7.756696925078106e-05 	101325.0014169017
1.134884884884884 	300.0000011459167 	7.785638033410927e-05 	101325.0013547579
1.137387387387387 	300.0000011217977 	7.822366114608088e-05 	101325.0013262379
1.139889889889889 	300.0000011350516 	7.869728307735729e-05 	101325.0013422274
1.142392392392392 	300.0000011860744 	7.927806741634812e-05 	101325.00140261
1.144894894894894 	300.0000012651273 	7.993497802575303e-05 	101325.0014956662
1.147397397397397 	300.0000013538033 	8.06144389697514e-05 	101325.001600594
1.149899899899899 	300.0000014313042 	8.125835061833242e-05 	101325.0016925526
1.152402402402402 	300.0000014788743 	8.181043534064605e-05 	101325.0017488516
1.154904904904904 	300.0000014839546 	8.223180454362738e-05 	101325.0017546771
1.157407407407407 	300.0000014435207 	8.251639708553818e-05 	101325.0017069101
1.159909909909909 	300.0000013656636 	8.268516564185753e-05 	101325.0016150738
1.162412412412412 	300.0000012675978 	8.278598758162706e-05 	101325.0014991845
1.164914914914914 	300.0000011712543 	8.288276028017887e-05 	101325.0013850802
1.167417417417417 	300.0000010980337 	8.303720298438047e-05 	101325.00129845
1.169919919919919 	300.0000010649539 	8.329805756937719e-05 	101325.0012590016
1.172422422422422 	300.0000010795294 	8.369111769165033e-05 	101325.0012759919
1.174924924924925 	300.0000011385727 	8.420950777288696e-05 	101325.0013460597
1.177427427427427 	300.0000012296337 	8.48181243799665e-05 	101325.0014538698
1.179929929929929 	300.0000013327633 	8.54609301939472e-05 	101325.0015754889
1.182432432432432 	300.0000014244649 	8.607321277680501e-05 	101325.0016837485
1.184934934934934 	300.0000014839164 	8.659645462894818e-05 	101325.001754349
1.187437437437437 	300.0000014980968 	8.699106545432311e-05 	101325.0017713805
1.189939939939939 	300.0000014639273 	8.724685756024075e-05 	101325.0017310779
1.192442442442442 	300.0000013891681 	8.738464092467918e-05 	101325.0016428757
1.194944944944944 	300.0000012914614 	8.745142392163529e-05 	101325.0015273501
1.197447447447447 	300.0000011936896 	8.750912592391154e-05 	101325.001411407
1.199949949949949 	300.0000011181156 	8.762010769890378e-05 	101325.0013218677
1.202452452452452 	300.0000010816706 	8.783313205612872e-05 	101325.0012790415
1.204954954954955 	300.0000010924892 	8.816921457685849e-05 	101325.0012918305
1.207457457457457 	300.0000011466133 	8.861715967889325e-05 	101325.001355598
1.20995995995996 	300.0000012293523 	8.913974692190591e-05 	101325.0014534081
1.212462462462462 	300.0000013198547 	8.9680314409453e-05 	101325.0015603721
1.214964964964964 	300.0000013955855 	9.017606323594353e-05 	101325.0016499615
1.217467467467467 	300.0000014383768 	9.057794335266975e-05 	101325.0017006029
1.219969969969969 	300.0000014384444 	9.085763917571121e-05 	101325.001700888
1.222472472472472 	300.0000013973709 	9.10158161000592e-05 	101325.0016521113
1.224974974974975 	300.0000013259735 	9.108299408944586e-05 	101325.0015675192
1.227477477477477 	300.0000012419689 	9.110715042360481e-05 	101325.0014685108
1.229979979979979 	300.0000011660985 	9.114223400442955e-05 	101325.0013788473
1.232482482482482 	300.0000011149323 	9.123368962474603e-05 	101325.0013184663
1.234984984984984 	300.0000010981227 	9.140762650961251e-05 	101325.0012985138
1.237487487487487 	300.0000011154983 	9.166196582407793e-05 	101325.0013188096
1.239989989989989 	300.0000011574356 	9.198085216238179e-05 	101325.0013682983
1.242492492492492 	300.0000012082702 	9.230986606306958e-05 	101325.0014282534
1.244994994994994 	300.0000012320878 	9.258269867183703e-05 	101325.0014773338
1.247497497497497 	299.9999970262593 	9.28200474447712e-05 	101325.0014972007
1.249999999999999 	299.9989115063556 	9.289616866897596e-05 	101325.0014672783
