-1.25 	349.1143625364403 	0.003147911233722444 	101325.0232477848
-1.247497497497497 	300.0499081701798 	0.003073881240113745 	101325.0277863491
-1.244994994994995 	300.0019870298198 	0.002807226620632885 	101325.0237356963
-1.242492492492492 	300.000054366235 	0.002554347647862868 	101325.0285308022
-1.23998998998999 	300.0000205630017 	0.00231071431554137 	101325.0239526336
-1.237487487487487 	300.0000241860135 	0.002080716411484449 	101325.0286325092
-1.234984984984985 	300.0000202665202 	0.001860857490101673 	101325.0239262145
-1.232482482482482 	300.0000239407043 	0.001657277983583208 	101325.0283294388
-1.22997997997998 	300.0000200808875 	0.001463281929806567 	101325.0237170135
-1.227477477477477 	300.0000235175023 	0.001287359194066437 	101325.0278221649
-1.224974974974975 	300.0000198876002 	0.001119873189096895 	101325.0234962754
-1.222472472472472 	300.0000231570942 	0.0009716562269415003 	101325.0273928276
-1.21996996996997 	300.0000202943877 	0.0008287915430070313 	101325.0239844261
-1.217467467467467 	300.0000235384962 	0.0007031118150477842 	101325.0278364818
-1.214964964964965 	300.0000205932373 	0.0005757237404400212 	101325.0243407095
-1.212462462462462 	300.0000241878297 	0.0004633561098619174 	101325.0285959466
-1.20995995995996 	300.0000213376616 	0.0003490511018175045 	101325.0252233874
-1.207457457457457 	300.0000248439318 	0.0002513353740001185 	101325.0293707734
-1.204954954954955 	300.0000218121103 	0.0001525620961560766 	101325.0257940706
-1.202452452452452 	300.0000253320402 	7.226961387856896e-05 	101325.0299435489
-1.19994994994995 	300.0000221525302 	0.0001031716828597548 	101325.0261950407
-1.197447447447447 	300.0000255521885 	6.925973587735022e-05 	101325.0301954306
-1.194944944944945 	300.0000221885109 	0.0001297905147867139 	101325.0262386557
-1.192442442442442 	300.0000251469339 	0.0001664658698946386 	101325.0297149239
-1.18993993993994 	300.0000221069769 	0.0002023984894569461 	101325.0261537082
-1.187437437437437 	300.0000237046941 	0.0002012411862576879 	101325.0280130344
-1.184934934934935 	300.0000223477272 	0.0001913427703067418 	101325.0264390889
-1.182432432432432 	300.00002318267 	0.0001620351628181085 	101325.0273897352
-1.17992992992993 	300.0000226673629 	0.0001441221557509015 	101325.0268127426
-1.177427427427427 	300.000023624046 	0.0001074967495132078 	101325.0279095568
-1.174924924924925 	300.0000236183796 	8.778103835783161e-05 	101325.0279374617
-1.172422422422422 	300.0000244803915 	8.200884288440469e-05 	101325.0289211344
-1.16991991991992 	300.000024518277 	5.816192562450128e-05 	101325.0290024754
-1.167417417417417 	300.0000250326723 	8.712692294070786e-05 	101325.0295785832
-1.164914914914915 	300.0000248150719 	5.560940610779895e-05 	101325.0293540884
-1.162412412412412 	300.0000249185229 	8.9987301938737e-05 	101325.0294422947
-1.15990990990991 	300.0000244913886 	8.550604940561911e-05 	101325.02897116
-1.157407407407407 	300.0000243561942 	0.000120722218813302 	101325.0287780145
-1.154904904904904 	300.0000240502408 	0.000135082281145707 	101325.0284490044
-1.152402402402403 	300.0000239549523 	0.0001679768686281221 	101325.0283050024
-1.1498998998999 	300.0000240351284 	0.0001774718196989589 	101325.0284307332
-1.147397397397397 	300.0000241243917 	0.0002076690480539633 	101325.0285064281
-1.144894894894895 	300.0000245316525 	0.0002110208638591916 	101325.0290145165
-1.142392392392392 	300.0000246960008 	0.0002370285506761447 	101325.0291805963
-1.13988988988989 	300.0000251184316 	0.0002333427202090241 	101325.0297056479
-1.137387387387387 	300.000025132685 	0.0002503427685665572 	101325.0296990739
-1.134884884884885 	300.0000252554678 	0.0002341616597549641 	101325.0298662492
-1.132382382382382 	300.0000251257812 	0.0002416892965551608 	101325.0296932038
-1.12987987987988 	300.0000250356824 	0.0002211514304732364 	101325.0296118225
-1.127377377377377 	300.0000248287043 	0.000226883298920522 	101325.0293435719
-1.124874874874875 	300.0000247637531 	0.0002046614624435836 	101325.029285569
-1.122372372372372 	300.0000246915997 	0.0002104940917186703 	101325.0291827015
-1.11986986986987 	300.0000247978104 	0.0001868199003565815 	101325.0293246648
-1.117367367367367 	300.0000248995832 	0.0001936002623132561 	101325.0294272803
-1.114864864864865 	300.0000250911083 	0.0001689564632346804 	101325.0296700689
-1.112362362362362 	300.0000251958764 	0.0001766688244377155 	101325.0297794566
-1.10985985985986 	300.0000252949771 	0.0001518214358005463 	101325.0299114528
-1.107357357357357 	300.0000252723116 	0.0001602194254773855 	101325.0298705801
-1.104854854854855 	300.0000252489074 	0.0001355604914317073 	101325.0298550744
-1.102352352352353 	300.000025173811 	0.0001448397692994427 	101325.0297535104
-1.09984984984985 	300.000025177673 	0.0001200961300182602 	101325.0297691463
-1.097347347347347 	300.0000252169341 	0.0001308187967295638 	101325.0298043174
-1.094844844844845 	300.0000253625938 	0.0001055674533849422 	101325.0299873109
-1.092342342342342 	300.0000255302704 	0.0001179784888677144 	101325.0301773672
-1.08983983983984 	300.0000257242532 	9.231655176481662e-05 	101325.0304170313
-1.087337337337337 	300.0000258399228 	0.0001059622911839363 	101325.0305458317
-1.084834834834835 	300.0000258786309 	8.049916660855535e-05 	101325.0305985534
-1.082332332332332 	300.0000257758764 	9.466232228223987e-05 	101325.0304694597
-1.07982982982983 	300.0000255993716 	6.980277408404164e-05 	101325.0302657555
-1.077327327327327 	300.0000253536498 	8.432144059170542e-05 	101325.0299688595
-1.074824824824825 	300.0000251567803 	6.545476060689466e-05 	101325.0297410221
-1.072322322322323 	300.0000250289496 	7.951817213953965e-05 	101325.0295853958
-1.06981981981982 	300.0000250578731 	6.609900221779979e-05 	101325.029623827
-1.067317317317317 	300.0000252049563 	7.916011555938248e-05 	101325.0297941837
-1.064814814814815 	300.0000254733066 	6.8178815438739e-05 	101325.0301149796
-1.062312312312312 	300.0000257562056 	7.983942693906962e-05 	101325.0304469149
-1.05980980980981 	300.0000260049472 	7.053382852091526e-05 	101325.0307441293
-1.057307307307307 	300.0000261129416 	7.996132949061046e-05 	101325.030870469
-1.054804804804805 	300.0000260768988 	7.155278302148438e-05 	101325.0308298407
-1.052302302302302 	300.0000258738931 	7.84357774650006e-05 	101325.0305878095
-1.0497997997998 	300.0000255880415 	7.09687271309595e-05 	101325.0302507753
-1.047297297297297 	300.0000252692632 	7.595281542168465e-05 	101325.0298727446
-1.044794794794795 	300.0000250248992 	7.014261879260726e-05 	101325.0295844171
-1.042292292292292 	300.0000248864213 	7.416683870559133e-05 	101325.0294198737
-1.03978978978979 	300.000024894236 	7.046271061637469e-05 	101325.0294294218
-1.037287287287287 	300.0000250080344 	7.386654343019565e-05 	101325.0295632259
-1.034784784784785 	300.0000251886863 	7.187373375389313e-05 	101325.0297768166
-1.032282282282283 	300.0000253587742 	7.429748652801634e-05 	101325.029978203
-1.02977977977978 	300.0000254736241 	7.315601714305826e-05 	101325.0301144924
-1.027277277277277 	300.0000254974652 	7.424817947614443e-05 	101325.030143022
-1.024774774774775 	300.0000254398574 	7.34387818206697e-05 	101325.0300748925
-1.022272272272272 	300.0000253265637 	7.346177972252771e-05 	101325.0299409565
-1.01976976976977 	300.0000251988629 	7.301475462175128e-05 	101325.0297903723
-1.017267267267267 	300.0000250887163 	7.261270968565284e-05 	101325.0296609172
-1.014764764764765 	300.0000250105361 	7.25860068571519e-05 	101325.029568603
-1.012262262262262 	300.0000249593849 	7.218805109932817e-05 	101325.0295074423
-1.00975975975976 	300.000024915351 	7.226281951911477e-05 	101325.0294542028
-1.007257257257257 	300.0000248614471 	7.198474321579764e-05 	101325.0293895314
-1.004754754754755 	300.0000247920701 	7.182052410269068e-05 	101325.0293074528
-1.002252252252252 	300.0000247216197 	7.162669076329138e-05 	101325.0292251691
-0.9997497497497498 	300.0000246801612 	7.151993104426391e-05 	101325.0291770754
-0.9972472472472473 	300.0000246989222 	7.158022561004061e-05 	101325.029199241
-0.9947447447447449 	300.0000247925899 	7.184431318535491e-05 	101325.029309185
-0.9922422422422421 	300.0000249459031 	7.226858320206527e-05 	101325.029489441
-0.9897397397397399 	300.0000251117348 	7.272631499092434e-05 	101325.0296856161
-0.9872372372372376 	300.0000252267444 	7.30406504322279e-05 	101325.0298229081
-0.9847347347347346 	300.0000252333971 	7.30516920653786e-05 	101325.0298323859
-0.9822322322322323 	300.000025100955 	7.267186574309274e-05 	101325.029676179
-0.9797297297297296 	300.0000248371623 	7.19211469280205e-05 	101325.0293631453
-0.9772272272272275 	300.0000244881239 	7.09324627424372e-05 	101325.0289486618
-0.9747247247247248 	300.0000241250013 	6.990550936740541e-05 	101325.0285180941
-0.9722222222222224 	300.0000238224046 	6.90502759193012e-05 	101325.0281607126
-0.9697197197197196 	300.0000236374667 	6.852640302428003e-05 	101325.0279433453
-0.9672172172172175 	300.0000235922 	6.839220307833158e-05 	101325.027891367
-0.9647147147147147 	300.0000236688876 	6.859781102169541e-05 	101325.0279828987
-0.9622122122122124 	300.000023817509 	6.900512212452244e-05 	101325.0281585634
-0.9597097097097099 	300.0000239740489 	6.943509333776771e-05 	101325.0283428933
-0.9572072072072073 	300.0000240809906 	6.972970932211299e-05 	101325.0284683774
-0.9547047047047047 	300.0000241032219 	6.97889619087331e-05 	101325.0284934507
-0.9522022022022023 	300.0000240330555 	6.959046573999013e-05 	101325.0284099482
-0.9496996996996998 	300.0000238891477 	6.918557569086299e-05 	101325.0282394392
-0.9471971971971973 	300.0000237049773 	6.866416219814666e-05 	101325.0280212083
-0.9446946946946947 	300.0000235156287 	6.81248827977613e-05 	101325.0277972219
-0.9421921921921923 	300.0000233487826 	6.764629136954117e-05 	101325.0275996582
-0.93968968968969 	300.0000232178115 	6.726566070725338e-05 	101325.0274445502
-0.9371871871871872 	300.0000231227431 	6.698748973356516e-05 	101325.027332348
-0.9346846846846848 	300.0000230557962 	6.679182746547746e-05 	101325.0272538388
-0.9321821821821823 	300.0000230080337 	6.665190941202725e-05 	101325.0271980144
-0.9296796796796799 	300.0000229737574 	6.655385205174768e-05 	101325.0271579814
-0.9271771771771771 	300.0000229516338 	6.649190555268894e-05 	101325.0271324151
-0.9246746746746748 	300.0000229430795 	6.646695351099661e-05 	101325.0271225338
-0.9221721721721724 	300.000022946731 	6.647508358582297e-05 	101325.0271267295
-0.9196696696696698 	300.000022954578 	6.649220890077808e-05 	101325.0271359592
-0.9171671671671672 	300.0000229518019 	6.647641460887248e-05 	101325.027132552
-0.9146646646646649 	300.000022919178 	6.637394165239413e-05 	101325.027093431
-0.9121621621621623 	300.000022837653 	6.613215066551896e-05 	101325.0269967203
-0.9096596596596597 	300.0000226958706 	6.57221229363682e-05 	101325.0268292818
-0.9071571571571573 	300.0000224954616 	6.51473654530078e-05 	101325.0265923718
-0.9046546546546547 	300.0000222508901 	6.444817655740822e-05 	101325.0263033662
-0.9021521521521524 	300.0000219878081 	6.369986178867237e-05 	101325.0259929361
-0.8996496496496498 	300.0000217385363 	6.299033599752103e-05 	101325.0256986299
-0.8971471471471473 	300.000021534032 	6.240672424013081e-05 	101325.0254569703
-0.894644644644645 	300.0000213979301 	6.20180583277613e-05 	101325.025296209
-0.892142142142142 	300.0000213429497 	6.185827397780965e-05 	101325.0252312355
-0.8896396396396397 	300.0000213686854 	6.19278097212429e-05 	101325.0252615407
-0.8871371371371374 	300.0000214623914 	6.219186853468384e-05 	101325.0253724128
-0.8846346346346349 	300.0000216032979 	6.258924082815964e-05 	101325.0255387518
-0.8821321321321324 	300.0000217656417 	6.304967974240299e-05 	101325.0257303125
-0.8796296296296297 	300.0000219235651 	6.349921249289369e-05 	101325.0259169512
-0.8771271271271271 	300.0000220551182 	6.387443976641283e-05 	101325.0260726718
-0.8746246246246248 	300.0000221440538 	6.412933053034395e-05 	101325.0261779535
-0.8721221221221224 	300.0000221797687 	6.423170588983732e-05 	101325.0262204783
-0.8696196196196196 	300.000022157704 	6.41685311544594e-05 	101325.0261946833
-0.8671171171171175 	300.0000220781256 	6.39399356183177e-05 	101325.0261007169
-0.8646146146146148 	300.000021944726 	6.35562805894138e-05 	101325.0259433792
-0.8621121121121121 	300.000021765395 	6.304068614968905e-05 	101325.0257314311
-0.8596096096096097 	300.0000215506292 	6.242246256144761e-05 	101325.0254772387
-0.857107107107107 	300.0000213132477 	6.173911837832044e-05 	101325.0251963641
-0.8546046046046049 	300.0000210685629 	6.103496564183492e-05 	101325.0249065809
-0.8521021021021022 	300.0000208315961 	6.035242472647827e-05 	101325.0246260256
-0.8495995995995997 	300.0000206155307 	5.973024398677799e-05 	101325.0243706889
-0.8470970970970974 	300.0000204299698 	5.919602433620697e-05 	101325.0241518554
-0.8445945945945946 	300.000020279657 	5.876009975139405e-05 	101325.0239743141
-0.8420920920920922 	300.0000201630714 	5.841925154151626e-05 	101325.0238360608
-0.8395895895895897 	300.0000200732818 	5.815573768808737e-05 	101325.0237296998
-0.8370870870870872 	300.0000200017549 	5.794476222564535e-05 	101325.0236450949
-0.8345845845845846 	300.0000199400774 	5.776453545641351e-05 	101325.0235723319
-0.8320820820820823 	300.0000198817773 	5.759574770291034e-05 	101325.0235039908
-0.8295795795795798 	300.0000198239268 	5.742911879865577e-05 	101325.0234361447
-0.8270770770770772 	300.0000197662725 	5.726317827139957e-05 	101325.0233680597
-0.8245745745745746 	300.0000197095381 	5.709906915024438e-05 	101325.0233010041
-0.8220720720720721 	300.0000196554547 	5.694240212391527e-05 	101325.023236756
-0.8195695695695699 	300.0000196046777 	5.679449273966367e-05 	101325.023176324
-0.817067067067067 	300.0000195563492 	5.665359865861545e-05 	101325.0231192001
-0.8145645645645651 	300.0000195089406 	5.65159986952316e-05 	101325.0230632483
-0.8120620620620621 	300.0000194599974 	5.637231177768824e-05 	101325.0230051352
-0.8095595595595597 	300.0000194058766 	5.621417643926553e-05 	101325.0229410913
-0.8070570570570572 	300.000019343569 	5.603379225267603e-05 	101325.0228677617
-0.8045545545545546 	300.0000192717031 	5.58248443117562e-05 	101325.0227829012
-0.8020520520520523 	300.0000191899828 	5.558680082192576e-05 	101325.0226857251
-0.7995495495495494 	300.0000190984871 	5.532040617602948e-05 	101325.0225768569
-0.7970470470470474 	300.0000189980821 	5.502920274325834e-05 	101325.0224579551
-0.7945445445445446 	300.0000188907385 	5.471984980796247e-05 	101325.0223312271
-0.7920420420420423 	300.0000187782938 	5.439676066347561e-05 	101325.0221990386
-0.7895395395395397 	300.0000186628208 	5.406604236834469e-05 	101325.0220636685
-0.7870370370370371 	300.0000185465385 	5.373238644353321e-05 	101325.0219271108
-0.7845345345345348 	300.000018431306 	5.339873078140245e-05 	101325.0217908912
-0.7820320320320323 	300.0000183181202 	5.306843878218433e-05 	101325.0216559802
-0.7795295295295296 	300.0000182066016 	5.274218073413467e-05 	101325.0215228417
-0.7770270270270272 	300.0000180965928 	5.242006161002004e-05 	101325.0213915832
-0.7745245245245247 	300.0000179875062 	5.210319767374728e-05 	101325.0212622004
-0.7720220220220222 	300.0000178794888 	5.179133982494832e-05 	101325.0211349194
-0.7695195195195199 	300.0000177732347 	5.148705665743436e-05 	101325.0210105271
-0.767017017017017 	300.0000176707608 	5.119380721664883e-05 	101325.0208904921
-0.7645145145145147 	300.000017574111 	5.091574763177687e-05 	101325.0207767583
-0.7620120120120122 	300.0000174845886 	5.06579277463484e-05 	101325.0206712631
-0.7595095095095097 	300.0000174028888 	5.042307303830513e-05 	101325.0205753265
-0.7570070070070072 	300.0000173293348 	5.021120093701069e-05 	101325.020489091
-0.7545045045045048 	300.0000172627903 	5.001956614687512e-05 	101325.0204111674
-0.7520020020020022 	300.0000172005034 	4.984009965232381e-05 	101325.0203385717
-0.7494994994994997 	300.0000171397591 	4.966297018605773e-05 	101325.0202669616
-0.7469969969969972 	300.00001707638 	4.947539888502981e-05 	101325.0201911299
-0.7444944944944945 	300.0000170052513 	4.926425445405138e-05 	101325.0201056745
-0.7419919919919924 	300.0000169220929 	4.901851515611445e-05 	101325.020005783
-0.7394894894894897 	300.0000168232147 	4.872970016020716e-05 	101325.0198880649
-0.7369869869869872 	300.0000167079807 	4.83953252717228e-05 	101325.0197513879
-0.7344844844844846 	300.0000165776093 	4.802045670463308e-05 	101325.0195976181
-0.7319819819819822 	300.0000164370842 	4.761735498391322e-05 	101325.0194320245
-0.7294794794794797 	300.0000162933575 	4.720676421926886e-05 	101325.0192630266
-0.7269769769769773 	300.0000161557037 	4.681348724572869e-05 	101325.0191010917
-0.7244744744744747 	300.0000160331905 	4.646248181208836e-05 	101325.0189568981
-0.721971971971972 	300.0000159334434 	4.617540186943088e-05 	101325.018839148
-0.7194694694694695 	300.0000158610977 	4.596273400097756e-05 	101325.0187525461
-0.7169669669669674 	300.0000158150536 	4.58230373987104e-05 	101325.0186964523
-0.7144644644644647 	300.0000157901344 	4.574162360658381e-05 	101325.0186645952
-0.711961961961962 	300.0000157761106 	4.569153707124997e-05 	101325.0186459602
-0.7094594594594597 	300.0000157604278 	4.564000283734394e-05 	101325.0186266213
-0.7069569569569573 	300.0000157308993 	4.555155681969536e-05 	101325.018591994
-0.7044544544544545 	300.0000156768334 	4.539459617931927e-05 	101325.018529067
-0.7019519519519523 	300.0000155905821 	4.514731708013872e-05 	101325.0184284935
-0.6994494494494495 	300.0000154693071 	4.480026765218571e-05 	101325.0182865326
-0.6969469469469471 	300.0000153164874 	4.436236559431996e-05 	101325.0181065494
-0.6944444444444446 	300.0000151409278 	4.385977666285346e-05 	101325.017899406
-0.6919419419419421 	300.0000149570735 	4.333307076981539e-05 	101325.0176821248
-0.6894394394394396 	300.0000147812212 	4.283118752783247e-05 	101325.0174748648
-0.6869369369369374 	300.0000146304807 	4.239988900296618e-05 	101325.0172970354
-0.6844344344344344 	300.0000145172451 	4.207526040880059e-05 	101325.0171635232
-0.6819319319319321 	300.0000144476643 	4.187455045293208e-05 	101325.0170817054
-0.6794294294294296 	300.0000144206302 	4.179244162065484e-05 	101325.017049633
-0.6769269269269272 	300.0000144260349 	4.180168225169629e-05 	101325.0170557114
-0.6744244244244245 	300.0000144475463 	4.185412237057567e-05 	101325.0170802191
-0.6719219219219222 	300.0000144636376 	4.189207470332464e-05 	101325.0170987297
-0.6694194194194195 	300.0000144540742 	4.185690867319684e-05 	101325.0170868332
-0.6669169169169172 	300.0000144019209 	4.170214152326663e-05 	101325.0170251211
-0.6644144144144146 	300.0000142984127 	4.140419885408832e-05 	101325.016903366
-0.661911911911912 	300.0000141453461 	4.096569906262505e-05 	101325.0167229621
-0.6594094094094097 	300.0000139540267 	4.041908241299231e-05 	101325.0164970797
-0.656906906906907 	300.0000137436689 	3.981831085160766e-05 	101325.0162484439
-0.6544044044044046 	300.0000135380992 	3.923048651527437e-05 	101325.0160051039
-0.6519019019019021 	300.0000133608673 	3.872301201395279e-05 	101325.0157950265
-0.6493993993993996 	300.0000132305337 	3.834804736155699e-05 	101325.0156404689
-0.6468968968968971 	300.0000131565924 	3.81334736994386e-05 	101325.0155529786
-0.6443943943943946 	300.0000131371806 	3.807222468789682e-05 	101325.0155300473
-0.6418918918918921 	300.0000131582306 	3.812333827461353e-05 	101325.0155545157
-0.6393893893893897 	300.0000131951319 	3.821794504774675e-05 	101325.015597451
-0.6368868868868871 	300.0000132183441 	3.827331856158732e-05 	101325.0156242635
-0.6343843843843846 	300.0000132003039 	3.821326891484713e-05 	101325.0156026515
-0.6318818818818821 	300.0000131219706 	3.798571763405847e-05 	101325.0155106708
-0.6293793793793795 	300.0000129795694 	3.757909111758243e-05 	101325.0153430812
-0.6268768768768773 	300.0000127848922 	3.702713563242488e-05 	101325.0151139443
-0.6243743743743745 	300.0000125643582 	3.640251978734687e-05 	101325.0148540151
-0.6218718718718721 	300.0000123522743 	3.579963307004846e-05 	101325.0146030358
-0.6193693693693696 	300.0000121799251 	3.530828960971001e-05 	101325.014399153
-0.6168668668668671 	300.0000120697968 	3.499019714056014e-05 	101325.0142684206
-0.6143643643643645 	300.0000120264574 	3.485978518456559e-05 	101325.0142170852
-0.6118618618618621 	300.0000120362317 	3.487900511141475e-05 	101325.0142292035
-0.6093593593593596 	300.0000120712775 	3.496906453126246e-05 	101325.0142711016
-0.6068568568568571 	300.0000120968619 	3.503254055780878e-05 	101325.0143016721
-0.6043543543543546 	300.0000120828096 	3.49843722447971e-05 	101325.0142847362
-0.6018518518518521 	300.0000120113016 	3.477469732935384e-05 	101325.0141993294
-0.5993493493493496 	300.000011881401 	3.440175083122423e-05 	101325.0140449444
-0.5968468468468471 	300.0000117085706 	3.390934097309176e-05 	101325.0138401958
-0.5943443443443446 	300.0000115184937 	3.33686677070593e-05 	101325.0136155519
-0.591841841841842 	300.0000113381385 	3.285570030055172e-05 	101325.0134031013
-0.5893393393393397 	300.0000111888676 	3.242889294766855e-05 	101325.0132273888
-0.5868368368368371 	300.0000110809776 	3.211671520117378e-05 	101325.0131001341
-0.5843343343343346 	300.0000110128664 	3.191613689986496e-05 	101325.0130196857
-0.5818318318318321 	300.0000109745825 	3.180040724130475e-05 	101325.0129744087
-0.5793293293293297 	300.0000109519509 	3.17305891779502e-05 	101325.0129479505
-0.5768268268268271 	300.0000109316911 	3.166776831382235e-05 	101325.0129240147
-0.5743243243243245 	300.0000109023238 	3.157918672358426e-05 	101325.0128890968
-0.5718218218218221 	300.0000108552307 	3.143957230800476e-05 	101325.0128331142
-0.5693193193193196 	300.0000107848845 	3.123222563794844e-05 	101325.0127490402
-0.5668168168168171 	300.0000106871975 	3.094709246710162e-05 	101325.0126328374
-0.5643143143143147 	300.0000105623288 	3.05845207983309e-05 	101325.0124843746
-0.5618118118118121 	300.0000104149798 	3.015826927888056e-05 	101325.0123090138
-0.5593093093093094 	300.000010254371 	2.969704339289487e-05 	101325.0121186714
-0.5568068068068072 	300.0000100953312 	2.924344001725227e-05 	101325.0119309789
-0.5543043043043046 	300.0000099550185 	2.884465294546607e-05 	101325.0117659448
-0.551801801801802 	300.0000098478264 	2.854082211628488e-05 	101325.0116407333
-0.5492992992992995 	300.0000097821786 	2.835259756993948e-05 	101325.0115641075
-0.5467967967967969 	300.0000097548398 	2.827065431827282e-05 	101325.0115326095
-0.5442942942942947 	300.0000097523933 	2.825748775644106e-05 	101325.0115302992
-0.5417917917917919 	300.0000097539199 	2.825529050419854e-05 	101325.0115326888
-0.5392892892892895 	300.00000973768 	2.820174996966707e-05 	101325.0115136554
-0.536786786786787 	300.0000096863912 	2.805013683749067e-05 	101325.0114529169
-0.5342842842842846 	300.0000095923367 	2.777891026118284e-05 	101325.011341794
-0.531781781781782 	300.0000094601715 	2.740103915080551e-05 	101325.0111855412
-0.5292792792792794 	300.0000093048296 	2.695760343567462e-05 	101325.0110014875
-0.526776776776777 	300.0000091464162 	2.650387680875958e-05 	101325.01081355
-0.5242742742742745 	300.0000090048708 	2.609638048441874e-05 	101325.010645046
-0.521771771771772 	300.0000088936463 	2.577251026966899e-05 	101325.0105122252
-0.5192692692692695 	300.0000088166603 	2.554527563593645e-05 	101325.0104203267
-0.516766766766767 	300.0000087693099 	2.540143191509183e-05 	101325.010363205
-0.5142642642642645 	300.0000087386064 	2.53056091723946e-05 	101325.0103264382
-0.511761761761762 	300.0000087102943 	2.521848133460339e-05 	101325.0102925812
-0.5092592592592596 	300.0000086713213 	2.51025113490583e-05 	101325.0102464623
-0.506756756756757 	300.0000086134668 	2.49358025671429e-05 	101325.0101788155
-0.5042542542542544 	300.0000085356463 	2.471403451919424e-05 	101325.0100875917
-0.5017517517517521 	300.0000084411823 	2.444492489349873e-05 	101325.0099770088
-0.4992492492492494 	300.0000083368419 	2.414884143384611e-05 	101325.0098550061
-0.496746746746747 	300.0000082300939 	2.384483890509973e-05 	101325.0097301734
-0.4942442442442445 	300.0000081269371 	2.354960365180428e-05 	101325.0096093697
-0.4917417417417421 	300.0000080310567 	2.327481945566493e-05 	101325.0094967909
-0.4892392392392395 	300.0000079441538 	2.302348252505105e-05 	101325.0093944091
-0.486736736736737 	300.0000078666573 	2.279981440420952e-05 	101325.0093029892
-0.4842342342342345 	300.0000077987139 	2.260286728239989e-05 	101325.0092227521
-0.481731731731732 	300.0000077404908 	2.243155608836396e-05 	101325.0091532274
-0.4792292292292296 	300.0000076893963 	2.228244136529563e-05 	101325.0090925296
-0.4767267267267268 	300.0000076422671 	2.214342747371417e-05 	101325.0090367618
-0.4742242242242246 	300.0000075949222 	2.200363497369821e-05 	101325.0089802611
-0.471721721721722 	300.000007541376 	2.184664625455809e-05 	101325.0089168535
-0.4692192192192195 	300.0000074780401 	2.166158347872202e-05 	101325.0088417001
-0.4667167167167169 	300.0000074029247 	2.144560039222852e-05 	101325.0087529377
-0.4642142142142145 	300.0000073183716 	2.119995663099398e-05 	101325.008652398
-0.461711711711712 	300.0000072278244 	2.094010698337259e-05 	101325.0085451765
-0.4592092092092094 	300.0000071375329 	2.067984657792155e-05 	101325.0084382701
-0.456706706706707 	300.0000070536129 	2.043718617445972e-05 	101325.0083387463
-0.4542042042042045 	300.0000069798598 	2.022540506213568e-05 	101325.0082518835
-0.451701701701702 	300.0000069189019 	2.004641294788775e-05 	101325.0081796385
-0.4491991991991995 	300.0000068683204 	1.989829265139952e-05 	101325.0081197691
-0.4466966966966969 	300.0000068228717 	1.976287916279092e-05 	101325.0080659425
-0.4441941941941945 	300.0000067750302 	1.962055678809492e-05 	101325.0080090332
-0.441691691691692 	300.0000067161721 	1.944903419196195e-05 	101325.0079395519
-0.4391891891891895 	300.0000066412609 	1.923082182117789e-05 	101325.0078508553
-0.436686686686687 	300.0000065492873 	1.896840117708354e-05 	101325.0077423555
-0.4341841841841846 	300.0000064468912 	1.867601981041527e-05 	101325.0076214086
-0.431681681681682 	300.000006346059 	1.839087116473438e-05 	101325.00750261
-0.4291791791791794 	300.000006262627 	1.815527794855422e-05 	101325.0074041917
-0.426676676676677 	300.0000062103197 	1.800589723778825e-05 	101325.0073424758
-0.4241741741741744 	300.0000061966543 	1.796529221843343e-05 	101325.0073260098
-0.421671671671672 	300.0000062184573 	1.802169254063358e-05 	101325.0073513776
-0.4191691691691694 	300.0000062620907 	1.813944297379414e-05 	101325.0074025762
-0.4166666666666669 	300.000006306512 	1.825934725869441e-05 	101325.0074547886
-0.4141641641641645 	300.0000063286499 	1.831715385755896e-05 	101325.0074813425
-0.411661661661662 	300.0000063120242 	1.826616338615482e-05 	101325.0074613906
-0.4091591591591594 	300.0000062482385 	1.808284615173195e-05 	101325.0073861429
-0.406656656656657 	300.0000061428432 	1.778456883404628e-05 	101325.0072618694
-0.4041541541541545 	300.0000060133609 	1.741787692643312e-05 	101325.0071085552
-0.401651651651652 	300.0000058824704 	1.704852267439199e-05 	101325.0069544106
-0.3991491491491494 	300.0000057757814 	1.674703747335267e-05 	101325.0068282079
-0.396646646646647 	300.000005711018 	1.656290796134488e-05 	101325.006752033
-0.3941441441441444 	300.0000056973556 	1.652301960042747e-05 	101325.0067360203
-0.3916416416416419 	300.0000057309038 	1.661668416401447e-05 	101325.0067761702
-0.3891391391391395 	300.0000057981473 	1.680406917889099e-05 	101325.0068558048
-0.3866366366366368 	300.0000058779549 	1.702826564259839e-05 	101325.0069502545
-0.3841341341341344 	300.0000059481362 	1.722354791074455e-05 	101325.0070331099
-0.381631631631632 	300.0000059892655 	1.733900070637183e-05 	101325.0070818813
-0.3791291291291294 	300.0000059897071 	1.733689585180619e-05 	101325.0070819411
-0.3766266266266269 	300.0000059448451 	1.720699217585896e-05 	101325.0070285284
-0.3741241241241244 	300.0000058592582 	1.696222129166918e-05 	101325.0069268596
-0.371621621621622 	300.0000057442948 	1.663309590896291e-05 	101325.0067905873
-0.3691191191191194 	300.0000056165877 	1.626938286821218e-05 	101325.0066391074
-0.366616616616617 	300.0000054942774 	1.592006683566982e-05 	101325.0064941627
-0.3641141141141143 	300.0000053947196 	1.563718617320441e-05 	101325.0063764657
-0.3616116116116119 	300.0000053325983 	1.546091146011817e-05 	101325.0063028381
-0.3591091091091095 	300.0000053166195 	1.541469012496743e-05 	101325.0062838254
-0.356606606606607 	300.0000053485297 	1.550714682517513e-05 	101325.0063219083
-0.3541041041041044 	300.0000054232366 	1.571889250194452e-05 	101325.0064105009
-0.3516016016016019 	300.0000055276108 	1.601564449353935e-05 	101325.006534279
-0.3490990990990994 	300.0000056430878 	1.634405149863181e-05 	101325.0066712579
-0.346596596596597 	300.0000057488212 	1.664297300233333e-05 	101325.0067964747
-0.3440940940940944 	300.0000058245447 	1.685830373771824e-05 	101325.0068863013
-0.3415915915915919 	300.0000058550617 	1.69436767161809e-05 	101325.0069227127
-0.3390890890890895 	300.0000058332351 	1.688194431549245e-05 	101325.0068970747
-0.3365865865865869 	300.000005762066 	1.667983783402627e-05 	101325.006812661
-0.3340840840840844 	300.0000056540289 	1.637372698802446e-05 	101325.0066848479
-0.3315815815815819 	300.0000055304192 	1.602462904605676e-05 	101325.0065384392
-0.3290790790790794 	300.0000054155 	1.569906154568219e-05 	101325.0064024738
-0.3265765765765769 	300.0000053321602 	1.546536104143303e-05 	101325.0063042202
-0.3240740740740744 	300.0000052982257 	1.536857402048398e-05 	101325.0062637416
-0.3215715715715718 	300.0000053202438 	1.543055899494852e-05 	101325.006289641
-0.3190690690690695 	300.0000053938713 	1.564006995008626e-05 	101325.0063770163
-0.3165665665665668 	300.0000055053407 	1.595381896784645e-05 	101325.0065085839
-0.3140640640640644 	300.0000056328005 	1.631593340424585e-05 	101325.0066592482
-0.311561561561562 	300.0000057538522 	1.666036253062466e-05 	101325.0068027445
-0.3090590590590593 	300.000005851537 	1.693942821403026e-05 	101325.0069179624
-0.3065565565565568 	300.0000059153194 	1.712469652029648e-05 	101325.0069932695
-0.3040540540540545 	300.0000059447997 	1.721213257352177e-05 	101325.0070280588
-0.3015515515515518 	300.0000059476498 	1.722550062574223e-05 	101325.0070312143
-0.2990490490490494 	300.0000059354052 	1.719417432454751e-05 	101325.007017018
-0.2965465465465469 	300.0000059213116 	1.715599834742368e-05 	101325.007000079
-0.2940440440440444 	300.000005913887 	1.713574879031404e-05 	101325.0069911498
-0.2915415415415418 	300.0000059172884 	1.714433876138904e-05 	101325.0069950912
-0.2890390390390395 	300.0000059309415 	1.71834427873296e-05 	101325.0070112738
-0.2865365365365368 	300.0000059517375 	1.724193228064089e-05 	101325.0070360086
-0.2840340340340343 	300.0000059769984 	1.731572929712274e-05 	101325.0070659776
-0.2815315315315318 	300.0000060063248 	1.740336309094631e-05 	101325.0071011184
-0.2790290290290295 	300.0000060437999 	1.75141762027473e-05 	101325.0071455721
-0.2765265265265269 	300.0000060951808 	1.766552889478193e-05 	101325.0072062452
-0.2740240240240244 	300.000006165748 	1.786989001047896e-05 	101325.0072896116
-0.2715215215215219 	300.000006257452 	1.813499546092676e-05 	101325.0073980515
-0.2690190190190194 	300.0000063664463 	1.844732413213459e-05 	101325.0075271153
-0.2665165165165169 	300.0000064833732 	1.877972596874071e-05 	101325.0076649153
-0.2640140140140144 	300.0000065928033 	1.909166004487867e-05 	101325.0077942206
-0.2615115115115119 	300.0000066797693 	1.933774150142499e-05 	101325.0078967082
-0.2590090090090094 	300.0000067316352 	1.948742206684064e-05 	101325.0079582034
-0.2565065065065068 	300.000006744851 	1.952582427962694e-05 	101325.0079734658
-0.2540040040040044 	300.0000067241979 	1.947121765598688e-05 	101325.0079490548
-0.2515015015015019 	300.000006685328 	1.936679408740606e-05 	101325.00790305
-0.2489989989989994 	300.0000066497415 	1.927164247114713e-05 	101325.0078611408
-0.2464964964964968 	300.0000066401173 	1.925194472103401e-05 	101325.0078501386
-0.2439939939939944 	300.0000066745451 	1.935415086115093e-05 	101325.0078909303
-0.2414914914914919 	300.0000067603638 	1.960201000392339e-05 	101325.0079926378
-0.2389889889889893 	300.0000068932906 	1.99817288063051e-05 	101325.0081496756
-0.2364864864864869 	300.0000070568736 	2.044590753760871e-05 	101325.0083427988
-0.2339839839839843 	300.0000072270315 	2.093140190194403e-05 	101325.0085442231
-0.2314814814814819 	300.0000073804274 	2.13671474449647e-05 	101325.0087251819
-0.2289789789789792 	300.0000074972187 	2.170298508567123e-05 	101325.0088634203
-0.2264764764764769 	300.0000075696407 	2.191415702354195e-05 	101325.008948815
-0.2239739739739743 	300.0000076010108 	2.200931526578811e-05 	101325.0089857302
-0.2214714714714718 	300.0000076056494 	2.203133638892619e-05 	101325.0089913452
-0.2189689689689693 	300.0000076047865 	2.203564563356966e-05 	101325.0089902535
-0.2164664664664669 	300.0000076189932 	2.208235238621172e-05 	101325.0090070386
-0.2139639639639643 	300.0000076629318 	2.22125953010633e-05 	101325.0090593638
-0.2114614614614618 	300.000007742602 	2.244070920792673e-05 	101325.0091535129
-0.2089589589589593 	300.0000078526448 	2.27551522143653e-05 	101325.0092835967
-0.2064564564564568 	300.0000079802008 	2.311865408970982e-05 	101325.0094345523
-0.2039539539539543 	300.0000081095569 	2.348953464395192e-05 	101325.0095878268
-0.2014514514514518 	300.0000082280191 	2.382959214853442e-05 	101325.0097276723
-0.1989489489489494 	300.0000083282247 	2.41199198003717e-05 	101325.0098459903
-0.1964464464464468 	300.0000084116168 	2.436470787401466e-05 	101325.0099443146
-0.1939439439439443 	300.0000084860642 	2.458391902846452e-05 	101325.010032251
-0.1914414414414418 	300.0000085626048 	2.481027636342306e-05 	101325.0101229565
-0.1889389389389393 	300.0000086514145 	2.506761818368029e-05 	101325.0102275474
-0.1864364364364368 	300.0000087555686 	2.536779507728434e-05 	101325.0103505264
-0.1839339339339343 	300.0000088713302 	2.570103257857651e-05 	101325.010487678
-0.1814314314314318 	300.0000089893941 	2.603734538026759e-05 	101325.0106272068
-0.1789289289289293 	300.0000090961775 	2.634430248499675e-05 	101325.0107538988
-0.1764264264264268 	300.0000091818189 	2.658945240226389e-05 	101325.0108548917
-0.1739239239239243 	300.0000092409185 	2.676342260599447e-05 	101325.010925098
-0.1714214214214218 	300.0000092794461 	2.687995690221727e-05 	101325.0109703282
-0.1689189189189193 	300.0000093101255 	2.69755477974408e-05 	101325.0110068036
-0.1664164164164168 	300.0000093527677 	2.710609754643488e-05 	101325.0110569856
-0.1639139139139143 	300.0000094254806 	2.732048656479722e-05 	101325.0111429521
-0.1614114114114118 	300.0000095408059 	2.765464337554865e-05 	101325.0112791237
-0.1589089089089093 	300.0000096992223 	2.810998905037341e-05 	101325.011466512
-0.1564064064064068 	300.0000098888604 	2.865038803157159e-05 	101325.0116906926
-0.1539039039039043 	300.0000100868493 	2.921475754457624e-05 	101325.0119246927
-0.1514014014014018 	300.0000102657461 	2.972248066047245e-05 	101325.012135997
-0.1488988988988993 	300.0000104004594 	3.010772813138118e-05 	101325.0122953846
-0.1463963963963968 	300.0000104766775 	3.032877060299305e-05 	101325.0123854336
-0.1438938938938943 	300.0000104942313 	3.038585817935768e-05 	101325.0124064717
-0.1413913913913918 	300.0000104699674 	3.032736106553442e-05 	101325.0123778824
-0.1388888888888893 	300.0000104328001 	3.023055985631433e-05 	101325.012333761
-0.1363863863863868 	300.0000104158665 	3.019367411710424e-05 	101325.0123140838
-0.1338838838838843 	300.0000104499974 	3.029960398678639e-05 	101325.012354417
-0.1313813813813818 	300.00001055371 	3.059907309274154e-05 	101325.0124765777
-0.1288788788788793 	300.0000107274517 	3.109727009796655e-05 	101325.0126821487
-0.1263763763763768 	300.0000109549522 	3.174358585031785e-05 	101325.0129510046
-0.1238738738738743 	300.0000112044469 	3.245376187755685e-05 	101325.013246145
-0.1213713713713717 	300.0000114392935 	3.312125871076828e-05 	101325.0135236566
-0.1188688688688693 	300.0000116260545 	3.36541443904828e-05 	101325.013744273
-0.1163663663663668 	300.0000117433113 	3.399486054970159e-05 	101325.0138834267
-0.1138638638638643 	300.0000117894684 	3.413295385400751e-05 	101325.0139376798
-0.1113613613613618 	300.0000117791977 	3.411511485293803e-05 	101325.013925557
-0.1088588588588592 	300.0000117422975 	3.402028621710575e-05 	101325.0138819959
-0.1063563563563568 	300.0000117134076 	3.394753888070923e-05 	101325.0138479463
-0.1038538538538543 	300.0000117227501 	3.398135005225357e-05 	101325.0138589124
-0.1013513513513517 	300.0000117882242 	3.416996210363816e-05 	101325.0139360096
-0.09884884884884926 	300.0000119109816 	3.452236435705542e-05 	101325.014081477
-0.09634634634634676 	300.0000120786078 	3.499888376642611e-05 	101325.0142797425
-0.09384384384384425 	300.0000122682964 	3.553952584948262e-05 	101325.0145038499
-0.09134134134134177 	300.0000124557949 	3.607553268190996e-05 	101325.0147250114
-0.08883883883883925 	300.0000126219345 	3.655363544260266e-05 	101325.0149214987
-0.08633633633633674 	300.0000127589123 	3.695302555691904e-05 	101325.0150837993
-0.08383383383383426 	300.0000128700081 	3.727668434536276e-05 	101325.0152149258
-0.08133133133133173 	300.0000129639799 	3.755413822416376e-05 	101325.0153262921
-0.07882882882882926 	300.0000130522209 	3.781341681690274e-05 	101325.015430986
-0.07632632632632676 	300.0000131423129 	3.807335657844e-05 	101325.0155372694
-0.07382382382382424 	300.0000132332426 	3.833532999487665e-05 	101325.0156449853
-0.07132132132132173 	300.000013319345 	3.857920768500476e-05 	101325.0157462862
-0.06881881881881925 	300.00001339025 	3.878351012776608e-05 	101325.0158302663
-0.06631631631631671 	300.0000134402086 	3.892842283735272e-05 	101325.015889461
-0.06381381381381425 	300.0000134709573 	3.902120202926445e-05 	101325.0159255208
-0.06131131131131173 	300.0000134931082 	3.909311741146474e-05 	101325.0159517029
-0.05880880880880923 	300.0000135259751 	3.919592733062903e-05 	101325.0159906954
-0.05630630630630672 	300.0000135914499 	3.93918533656751e-05 	101325.0160679549
-0.05380380380380424 	300.0000137055111 	3.9721276332696e-05 	101325.016202507
-0.05130130130130173 	300.0000138710956 	4.019677957808621e-05 	101325.0163983498
-0.04879879879879922 	300.000014075079 	4.077854940338935e-05 	101325.0166398802
-0.04629629629629672 	300.0000142898512 	4.138775638120299e-05 	101325.0168938568
-0.04379379379379422 	300.0000144795753 	4.192626345570773e-05 	101325.0171180614
-0.04129129129129173 	300.000014611424 	4.229997306749412e-05 	101325.0172739053
-0.03878878878878922 	300.0000146668535 	4.24621665123223e-05 	101325.0173393054
-0.03628628628628671 	300.0000146484597 	4.241734821526506e-05 	101325.0173176366
-0.03378378378378422 	300.0000145814987 	4.223855642372152e-05 	101325.0172387003
-0.03128128128128172 	300.0000145068685 	4.203798759590051e-05 	101325.0171502322
-0.02877877877877922 	300.0000144668352 	4.193207098266861e-05 	101325.0171027376
-0.0262762762762767 	300.0000144926572 	4.201261534232752e-05 	101325.0171335383
-0.02377377377377422 	300.0000145957642 	4.230386750228669e-05 	101325.0172549795
-0.0212712712712717 	300.0000147610167 	4.277237223657269e-05 	101325.0174507829
-0.01876876876876921 	300.000014957092 	4.332534510669168e-05 	101325.0176823663
-0.01626626626626671 	300.0000151437181 	4.38530062802394e-05 	101325.0179028527
-0.0137637637637642 	300.0000152871668 	4.426394256924211e-05 	101325.0180727048
-0.0112612612612617 	300.000015370467 	4.450420221952058e-05 	101325.0181710437
-0.008758758758759198 	300.0000153944113 	4.458100892501714e-05 	101325.0181995206
-0.006256256256256697 	300.000015376195 	4.453666851722812e-05 	101325.0181782764
-0.003753753753754195 	300.0000153411178 	4.444315622268076e-05 	101325.0181365116
-0.001251251251251693 	300.0000153120652 	4.436516518841974e-05 	101325.0181020519
0.00125125125125081 	300.0000153056163 	4.434807806825578e-05 	101325.0180942412
0.003753753753753312 	300.0000153291589 	4.441793390904549e-05 	101325.0181220916
0.006256256256255817 	300.0000153835766 	4.457407362965805e-05 	101325.0181866928
0.008758758758758317 	300.0000154670673 	4.481528983354627e-05 	101325.018285158
0.01126126126126082 	300.0000155753927 	4.512661842252919e-05 	101325.0184131884
0.01376376376376332 	300.0000157034811 	4.549546505436065e-05 	101325.0185649245
0.01626626626626582 	300.0000158438739 	4.589769833398702e-05 	101325.018730754
0.01876876876876833 	300.000015982925 	4.629354315487268e-05 	101325.018895326
0.02127127127127083 	300.0000161036764 	4.66378073080293e-05 	101325.0190381058
0.02377377377377332 	300.0000161879968 	4.687438600643534e-05 	101325.0191374465
0.02627627627627583 	300.0000162215034 	4.697235030876484e-05 	101325.0191774247
0.02877877877877833 	300.0000162028384 	4.692077715934037e-05 	101325.0191549086
0.03128128128128083 	300.0000161422313 	4.675458313077847e-05 	101325.0190835158
0.03378378378378333 	300.0000160647489 	4.654297155381294e-05 	101325.0189920748
0.03628628628628584 	300.0000160018054 	4.63695830650993e-05 	101325.0189173699
0.03878878878878834 	300.0000159818391 	4.631943563854289e-05 	101325.0188935821
0.04129129129129084 	300.0000160227139 	4.643696434397661e-05 	101325.018941987
0.04379379379379333 	300.0000161260069 	4.673162462670343e-05 	101325.0190641939
0.04629629629629585 	300.0000162755681 	4.71547472631008e-05 	101325.0192412728
0.04879879879879834 	300.0000164430086 	4.762732917388088e-05 	101325.0194391791
0.05130130130130085 	300.000016594938 	4.805728017894319e-05 	101325.0196185837
0.05380380380380335 	300.0000167023089 	4.836076241605227e-05 	101325.0197454482
0.05630630630630584 	300.0000167477077 	4.849302545159842e-05 	101325.019799332
0.05880880880880836 	300.00001672932 	4.844337822443326e-05 	101325.0197776928
0.06131131131131085 	300.0000166598701 	4.825083811303476e-05 	101325.0196953477
0.06381381381381336 	300.0000165619884 	4.797654293886374e-05 	101325.0195795791
0.06631631631631586 	300.0000164628773 	4.769925121093469e-05 	101325.0194626867
0.06881881881881835 	300.0000163882667 	4.74895256106263e-05 	101325.0193743174
0.07132132132132088 	300.0000163554741 	4.739649618486163e-05 	101325.0193353888
0.07382382382382337 	300.000016371195 	4.744235484521376e-05 	101325.0193543608
0.07632632632632587 	300.000016432206 	4.761220641774685e-05 	101325.0194261544
0.07882882882882837 	300.0000165232622 	4.786871183985437e-05 	101325.0195337773
0.08133133133133086 	300.0000166237828 	4.81499646623824e-05 	101325.0196523703
0.08383383383383337 	300.000016710606 	4.839462655750899e-05 	101325.01975487
0.08633633633633589 	300.0000167636786 	4.85443454082561e-05 	101325.019818018
0.08883883883883838 	300.0000167721189 	4.85676001116081e-05 	101325.0198276834
0.09134134134134086 	300.0000167336997 	4.846126408749496e-05 	101325.0197825274
0.09384384384384339 	300.0000166591931 	4.825300566250026e-05 	101325.0196948499
0.09634634634634588 	300.0000165689607 	4.800097160155277e-05 	101325.0195879481
0.09884884884884838 	300.0000164863903 	4.776822397247884e-05 	101325.0194902884
0.1013513513513509 	300.0000164339921 	4.762200326954129e-05 	101325.0194280327
0.1038538538538534 	300.0000164253023 	4.759763513639016e-05 	101325.019417992
0.1063563563563559 	300.0000164634906 	4.770400738161702e-05 	101325.0194628357
0.1088588588588584 	300.0000165373371 	4.791006799242469e-05 	101325.0195499983
0.1113613613613609 	300.0000166256358 	4.81571434480658e-05 	101325.0196548159
0.1138638638638634 	300.0000167038118 	4.837589743973279e-05 	101325.0197471538
0.1163663663663659 	300.0000167480298 	4.849723716792241e-05 	101325.019799443
0.1188688688688684 	300.0000167432762 	4.848337468684717e-05 	101325.0197938215
0.1213713713713709 	300.0000166864689 	4.832063841971942e-05 	101325.0197266107
0.1238738738738734 	300.0000165865681 	4.804014174798458e-05 	101325.0196089678
0.1263763763763759 	300.0000164636905 	4.769211573421283e-05 	101325.0194635508
0.1288788788788784 	300.0000163406979 	4.734404440038917e-05 	101325.019318267
0.1313813813813809 	300.0000162398491 	4.705825644437816e-05 	101325.0191990158
0.1338838838838834 	300.0000161760606 	4.687429452587726e-05 	101325.0191234759
0.1363863863863859 	300.0000161542296 	4.68090664600151e-05 	101325.0190973029
0.1388888888888884 	300.0000161682156 	4.684230528210189e-05 	101325.0191134726
0.1413913913913909 	300.0000162032036 	4.693735889207542e-05 	101325.0191547644
0.1438938938938934 	300.0000162402679 	4.703687945859586e-05 	101325.0191985858
0.1463963963963959 	300.0000162605132 	4.70912534172402e-05 	101325.0192227243
0.1488988988988985 	300.0000162499032 	4.705863408622612e-05 	101325.0192105028
0.1514014014014009 	300.0000162022785 	4.69215590791884e-05 	101325.0191543338
0.1539039039039035 	300.0000161196676 	4.668786307457851e-05 	101325.0190570491
0.1564064064064059 	300.0000160124786 	4.638330571234582e-05 	101325.0189307712
0.1589089089089084 	300.0000158965479 	4.605470927343571e-05 	101325.0187937392
0.1614114114114109 	300.0000157884538 	4.574591913471791e-05 	101325.0186659559
0.1639139139139134 	300.0000157029341 	4.55025427055988e-05 	101325.0185648352
0.166416416416416 	300.0000156502254 	4.534843876411667e-05 	101325.0185017653
0.1689189189189185 	300.0000156324299 	4.529412969642442e-05 	101325.0184801147
0.1714214214214209 	300.0000156452516 	4.532707349427864e-05 	101325.0184949563
0.1739239239239235 	300.0000156788184 	4.541851762758995e-05 	101325.0185344509
0.1764264264264259 	300.0000157195585 	4.55322068753422e-05 	101325.0185825267
0.1789289289289284 	300.0000157531457 	4.562365871817593e-05 	101325.0186221264
0.181431431431431 	300.0000157664264 	4.56605527560812e-05 	101325.0186382701
0.1839339339339334 	300.0000157510398 	4.561416156214784e-05 	101325.01862044
0.186436436436436 	300.000015702855 	4.54769231695454e-05 	101325.0185640225
0.1889389389389385 	300.0000156237194 	4.525032070924291e-05 	101325.0184706481
0.191441441441441 	300.0000155192708 	4.495177857691132e-05 	101325.018347433
0.1939439439439434 	300.0000153987859 	4.460845143777536e-05 	101325.018205353
0.196446446446446 	300.0000152735279 	4.424872352086927e-05 	101325.0180571377
0.1989489489489485 	300.0000151536867 	4.390452573951658e-05 	101325.0179151326
0.2014514514514509 	300.0000150476916 	4.359810300703776e-05 	101325.0177894858
0.2039539539539535 	300.0000149611865 	4.33477741104243e-05 	101325.0176868561
0.2064564564564559 	300.0000148960942 	4.315728333544956e-05 	101325.0176097264
0.2089589589589585 	300.0000148513014 	4.30251034396746e-05 	101325.0175563453
0.211461461461461 	300.000014821501 	4.293660925497309e-05 	101325.0175212254
0.2139639639639635 	300.0000148004121 	4.287150617260196e-05 	101325.017496036
0.2164664664664659 	300.0000147790647 	4.280706995084468e-05 	101325.0174707388
0.2189689689689684 	300.0000147485806 	4.271568556500837e-05 	101325.0174348375
0.221471471471471 	300.0000147008093 	4.257603342505988e-05 	101325.0173786155
0.2239739739739735 	300.000014629167 	4.236730526988878e-05 	101325.0172942752
0.226476476476476 	300.000014529854 	4.207968128839639e-05 	101325.017176963
0.2289789789789785 	300.0000144017994 	4.170970047800038e-05 	101325.0170256796
0.231481481481481 	300.0000142478477 	4.126686637141509e-05 	101325.0168439048
0.2339839839839835 	300.0000140750711 	4.07705950532262e-05 	101325.0166396033
0.236486486486486 	300.0000138931966 	4.024718614041969e-05 	101325.0164243949
0.2389889889889885 	300.0000137134658 	3.973103010889824e-05 	101325.0162120125
0.241491491491491 	300.0000135478462 	3.925532248319944e-05 	101325.0160164449
0.2439939939939935 	300.0000134074259 	3.885084958606983e-05 	101325.0158501005
0.246496496496496 	300.0000132993343 	3.853824369570872e-05 	101325.0157221524
0.2489989989989985 	300.0000132277967 	3.83307356898513e-05 	101325.0156373187
0.251501501501501 	300.00001319238 	3.82268351208486e-05 	101325.0155954001
0.2540040040040035 	300.0000131891122 	3.821512486106821e-05 	101325.0155916283
0.256506506506506 	300.0000132112077 	3.827595175084938e-05 	101325.0156176272
0.2590090090090086 	300.0000132489056 	3.838231495922288e-05 	101325.0156626392
0.261511511511511 	300.0000132933381 	3.850692626613886e-05 	101325.0157148069
0.2640140140140135 	300.000013333588 	3.861976444590022e-05 	101325.0157625086
0.2665165165165161 	300.0000133614624 	3.86992008119512e-05 	101325.0157956637
0.2690190190190185 	300.0000133710752 	3.872515038378653e-05 	101325.015806694
0.271521521521521 	300.0000133578476 	3.868564510369397e-05 	101325.0157909853
0.2740240240240235 	300.0000133205982 	3.857849430683324e-05 	101325.0157469605
0.276526526526526 	300.0000132602985 	3.840495643584368e-05 	101325.0156758269
0.2790290290290286 	300.0000131798328 	3.817471433150549e-05 	101325.015581037
0.281531531531531 	300.0000130837006 	3.789794250758362e-05 	101325.015467524
0.2840340340340335 	300.0000129766245 	3.758900836155758e-05 	101325.0153408227
0.2865365365365361 	300.0000128628445 	3.726129813034714e-05 	101325.0152063491
0.2890390390390385 	300.0000127467859 	3.692591569467772e-05 	101325.0150689914
0.291541541541541 	300.0000126316531 	3.659373040156916e-05 	101325.0149328428
0.2940440440440436 	300.0000125201007 	3.627086064928963e-05 	101325.0148009685
0.296546546546546 	300.0000124137987 	3.596318251792708e-05 	101325.0146753263
0.2990490490490486 	300.0000123132713 	3.567231023141993e-05 	101325.0145567332
0.3015515515515511 	300.0000122188322 	3.539718359292373e-05 	101325.0144447408
0.3040540540540535 	300.0000121280951 	3.513400138632352e-05 	101325.0143375578
0.3065565565565562 	300.0000120389573 	3.487429267896448e-05 	101325.014232208
0.3090590590590585 	300.0000119483935 	3.461147392432555e-05 	101325.0141251646
0.3115615615615611 	300.0000118537297 	3.4337628875517e-05 	101325.0140134707
0.3140640640640635 	300.00001175438 	3.404941163361627e-05 	101325.0138957132
0.316566566566566 	300.0000116499231 	3.374799041754636e-05 	101325.0137723063
0.3190690690690687 	300.0000115421727 	3.343725409818636e-05 	101325.0136452321
0.3215715715715711 	300.0000114343584 	3.312521911450228e-05 	101325.013517494
0.3240740740740735 	300.0000113284344 	3.281921216017343e-05 	101325.0133923576
0.326576576576576 	300.000011226852 	3.252588663168873e-05 	101325.0132725635
0.3290790790790786 	300.0000111316655 	3.22484839099668e-05 	101325.0131595371
0.3315815815815811 	300.0000110414058 	3.198579499006637e-05 	101325.0130527158
0.3340840840840836 	300.0000109539249 	3.173181759240109e-05 	101325.0129494404
0.3365865865865861 	300.0000108661065 	3.147573007274959e-05 	101325.0128454298
0.3390890890890886 	300.0000107732766 	3.120588072874236e-05 	101325.0127357243
0.3415915915915911 	300.0000106719489 	3.091253379724963e-05 	101325.0126162141
0.3440940940940935 	300.0000105610401 	3.059235658704374e-05 	101325.012485313
0.3465965965965962 	300.0000104426153 	3.025017600292674e-05 	101325.0123449534
0.3490990990990985 	300.0000103204584 	2.989849967423321e-05 	101325.0122005352
0.3516016016016011 	300.0000102013585 	2.955577317021899e-05 	101325.0120597849
0.3541041041041035 	300.0000100923188 	2.924162048673261e-05 	101325.0119308682
0.3566066066066061 	300.0000099987324 	2.897241284165827e-05 	101325.0118204896
0.3591091091091085 	300.0000099239909 	2.875625255332408e-05 	101325.0117322271
0.3616116116116112 	300.0000098672252 	2.858987218967546e-05 	101325.011665053
0.3641141141141137 	300.0000098228867 	2.845831987327977e-05 	101325.0116127403
0.3666166166166161 	300.0000097823326 	2.833710968114648e-05 	101325.0115648149
0.3691191191191185 	300.0000097354324 	2.819668430880585e-05 	101325.0115088727
0.371621621621621 	300.0000096717898 	2.801067506100695e-05 	101325.0114337225
0.3741241241241237 	300.0000095862339 	2.776208570362781e-05 	101325.0113324181
0.3766266266266261 	300.0000094776188 	2.744904728269683e-05 	101325.0112041008
0.3791291291291286 	300.0000093507775 	2.708524620446764e-05 	101325.0110543059
0.3816316316316311 	300.000009214499 	2.66951400470417e-05 	101325.0108934685
0.3841341341341336 	300.0000090796949 	2.63070682097562e-05 	101325.0107338069
0.3866366366366362 	300.0000089546273 	2.594674320369594e-05 	101325.0105860557
0.3891391391391387 	300.0000088456697 	2.563213502686324e-05 	101325.0104573335
0.391641641641641 	300.0000087552569 	2.53696355267281e-05 	101325.0103502738
0.3941441441441436 	300.0000086816618 	2.515509582881767e-05 	101325.0102632219
0.3966466466466462 	300.0000086206272 	2.497639542051329e-05 	101325.0101910796
0.3991491491491486 	300.0000085656473 	2.481503268035385e-05 	101325.0101262731
0.4016516516516512 	300.0000085096282 	2.465064943566767e-05 	101325.0100601271
0.4041541541541536 	300.0000084459657 	2.446404958871738e-05 	101325.0099846779
0.4066566566566561 	300.0000083694765 	2.424105278728809e-05 	101325.0098942234
0.4091591591591587 	300.0000082785569 	2.397743662674931e-05 	101325.0097865627
0.4116616616616612 	300.0000081747882 	2.3678419757324e-05 	101325.0096638938
0.4141641641641635 	300.0000080635351 	2.335867615292133e-05 	101325.0095323575
0.4166666666666662 	300.0000079514563 	2.303746731541321e-05 	101325.0094001097
0.4191691691691687 	300.0000078451012 	2.273159089784165e-05 	101325.0092746954
0.421671671671671 	300.0000077485707 	2.245168422174816e-05 	101325.0091603387
0.4241741741741737 	300.000007660817 	2.219673743698665e-05 	101325.0090567167
0.4266766766766761 	300.0000075789614 	2.195830517867731e-05 	101325.0089599349
0.4291791791791785 	300.0000074985722 	2.172320702515123e-05 	101325.0088644539
0.4316816816816812 	300.0000074147214 	2.147813185988462e-05 	101325.0087652718
0.4341841841841836 	300.0000073256113 	2.12194599172626e-05 	101325.0086598953
0.4366866866866862 	300.0000072315353 	2.094793481173502e-05 	101325.008548931
0.4391891891891885 	300.0000071356353 	2.067092543781969e-05 	101325.0084352948
0.4416916916916913 	300.0000070402501 	2.039666663734093e-05 	101325.008322633
0.4441941941941936 	300.0000069476354 	2.012842567905042e-05 	101325.0082133349
0.4466966966966961 	300.0000068577808 	1.986945210816305e-05 	101325.0081075797
0.4491991991991987 	300.0000067702792 	1.961553618224398e-05 	101325.0080040125
0.4517017017017012 	300.0000066827915 	1.93621316016422e-05 	101325.0079007378
0.4542042042042035 	300.0000065944397 	1.910584689229632e-05 	101325.0077961657
0.4567067067067062 	300.0000065046354 	1.884438182768753e-05 	101325.0076898892
0.4592092092092087 	300.0000064139422 	1.858255162227234e-05 	101325.0075828395
0.4617117117117112 	300.0000063247752 	1.832305541783745e-05 	101325.0074768141
0.4642142142142137 	300.0000062377207 	1.807143626001308e-05 	101325.0073739542
0.4667167167167162 	300.0000061548666 	1.78307853273783e-05 	101325.0072756507
0.4692192192192187 	300.0000060752442 	1.759983557205254e-05 	101325.007181665
0.4717217217217212 	300.0000059983327 	1.737729549354307e-05 	101325.0070905069
0.4742242242242236 	300.0000059212172 	1.715399584293061e-05 	101325.0069996942
0.4767267267267262 	300.0000058417397 	1.692267189453848e-05 	101325.0069058544
0.4792292292292287 	300.0000057569886 	1.667568490093962e-05 	101325.0068055317
0.4817317317317312 	300.0000056641894 	1.640548161134338e-05 	101325.0066959118
0.4842342342342336 	300.0000055621837 	1.611167790120349e-05 	101325.0065756184
0.4867367367367362 	300.0000054523455 	1.579492232274355e-05 	101325.0064459745
0.4892392392392387 	300.000005338229 	1.546496559972978e-05 	101325.0063108703
0.4917417417417412 	300.0000052240671 	1.513675772646212e-05 	101325.0061759793
0.4942442442442437 	300.0000051156154 	1.482612166209052e-05 	101325.0060482525
0.4967467467467462 	300.0000050192817 	1.454959345980518e-05 	101325.0059343702
0.4992492492492487 	300.0000049382359 	1.431543381429117e-05 	101325.0058386026
0.5017517517517511 	300.0000048731594 	1.412516728005076e-05 	101325.0057615203
0.5042542542542537 	300.0000048202621 	1.396833566976053e-05 	101325.0056988938
0.5067567567567562 	300.000004772068 	1.382543220119971e-05 	101325.0056420806
0.5092592592592589 	300.0000047198769 	1.367142282605738e-05 	101325.0055804449
0.5117617617617611 	300.0000046546221 	1.347906003201218e-05 	101325.0055033564
0.5142642642642637 	300.0000045691929 	1.323060961778678e-05 	101325.0054023421
0.5167667667667663 	300.0000044605214 	1.291682092286279e-05 	101325.0052739833
0.5192692692692688 	300.0000043309678 	1.254499983598953e-05 	101325.0051211214
0.5217717717717714 	300.0000041883999 	1.213652514212368e-05 	101325.0049523371
0.5242742742742736 	300.0000040432311 	1.171969043263902e-05 	101325.0047805915
0.5267767767767763 	300.0000039071627 	1.132861467966899e-05 	101325.0046195354
0.5292792792792789 	300.000003789466 	1.098938891495911e-05 	101325.0044803001
0.5317817817817813 	300.0000036958687 	1.071828272434842e-05 	101325.0043696231
0.5342842842842837 	300.0000036270829 	1.05153944552023e-05 	101325.0042877982
0.5367867867867864 	300.0000035763935 	1.036379511638287e-05 	101325.0042277974
0.5392892892892888 	300.0000035340906 	1.023752024364231e-05 	101325.0041778569
0.5417917917917912 	300.0000034889719 	1.010220805503518e-05 	101325.0041242231
0.5442942942942938 	300.0000034303921 	9.930906129045732e-06 	101325.0040549333
0.5467967967967964 	300.0000033527967 	9.70606867182195e-06 	101325.0039631404
0.5492992992992988 	300.0000032555304 	9.424425162666337e-06 	101325.0038480592
0.5518018018018012 	300.0000031425021 	9.100841305941617e-06 	101325.0037143622
0.5543043043043039 	300.0000030221958 	8.755306666953841e-06 	101325.0035718528
0.5568068068068063 	300.0000029036119 	8.414962029731913e-06 	101325.0034317952
0.5593093093093087 	300.0000027948035 	8.102379626156927e-06 	101325.0033035617
0.5618118118118114 	300.0000027012796 	7.830633825499787e-06 	101325.003192956
0.5643143143143137 	300.0000026233799 	7.604840537792036e-06 	101325.0031010328
0.5668168168168163 	300.0000025585348 	7.415490757048386e-06 	101325.0030242469
0.5693193193193188 	300.0000025017162 	7.248679624992272e-06 	101325.0029569713
0.5718218218218213 	300.0000024465288 	7.085338520743768e-06 	101325.0028917348
0.5743243243243239 	300.0000023863273 	6.908440236736378e-06 	101325.0028205785
0.5768268268268262 	300.000002316175 	6.705644045511188e-06 	101325.0027377302
0.5793293293293288 	300.0000022332677 	6.466149301843849e-06 	101325.0026399735
0.5818318318318314 	300.0000021374678 	6.19056814883425e-06 	101325.0025267763
0.5843343343343338 	300.0000020312897 	5.88303241099166e-06 	101325.00240105
0.5868368368368363 	300.0000019181905 	5.556188575462599e-06 	101325.002267492
0.5893393393393387 	300.0000018031907 	5.227549423020004e-06 	101325.0021318314
0.5918418418418413 	300.0000016926009 	4.909067317636155e-06 	101325.00200113
0.5943443443443439 	300.0000015908439 	4.614319028202343e-06 	101325.001880643
0.5968468468468463 	300.0000014995673 	4.348939923651695e-06 	101325.0017727241
0.5993493493493487 	300.0000014189596 	4.113264159490103e-06 	101325.0016773159
0.6018518518518514 	300.0000013461929 	3.902421527708101e-06 	101325.0015914376
0.6043543543543537 	300.000001277365 	3.702257484146989e-06 	101325.0015099245
0.6068568568568564 	300.0000012081136 	3.500162660727652e-06 	101325.001428042
0.6093593593593587 	300.0000011338501 	3.283130066279195e-06 	101325.0013404414
0.6118618618618614 	300.0000010519132 	3.045615877235203e-06 	101325.0012435459
0.6143643643643638 	300.0000009622914 	2.787151823898779e-06 	101325.0011372676
0.6168668668668662 	300.0000008660953 	2.509329580765539e-06 	101325.0010236978
0.6193693693693688 	300.0000007664012 	2.222709839251087e-06 	101325.0009060353
0.6218718718718714 	300.0000006675465 	1.935769212943564e-06 	101325.0007892348
0.6243743743743737 	300.0000005721116 	1.660184728709235e-06 	101325.0006766198
0.6268768768768762 	300.0000004829544 	1.405683581332106e-06 	101325.0005713502
0.629379379379379 	300.0000004023573 	1.172041690270187e-06 	101325.0004760138
0.6318818818818812 	300.0000003299887 	9.609505353052512e-07 	101325.000390373
0.6343843843843838 	300.0000002635328 	7.668098739375029e-07 	101325.0003116142
0.6368868868868864 	300.0000002002299 	5.813643276719367e-07 	101325.0002368125
0.6393893893893888 	300.0000001359854 	3.968121077033558e-07 	101325.0001610128
0.6418918918918912 	300.0000000684087 	1.991122728100016e-07 	101325.0000807355
0.6443943943943939 	299.9999999944609 	8.229985113838859e-08 	101324.999993314
0.6468968968968963 	299.999999908542 	2.725349183038369e-07 	101324.9998915913
0.6493993993993988 	299.9999998059948 	5.695168513613931e-07 	101324.9997703448
0.6519019019019012 	299.9999996892065 	9.04953707083939e-07 	101324.9996322059
0.6544044044044038 	299.9999995658738 	1.257812313658533e-06 	101324.9994867494
0.6569069069069065 	299.9999994472148 	1.59841313253401e-06 	101324.9993463946
0.6594094094094087 	299.9999993424003 	1.899331664775727e-06 	101324.9992225032
0.6619119119119113 	299.9999992581052 	2.142040214082889e-06 	101324.9991229567
0.664414414414414 	299.999999196447 	2.321677901552706e-06 	101324.999050043
0.6669169169169162 	299.9999991534058 	2.449444371397948e-06 	101324.9989993096
0.6694194194194188 	299.9999991203839 	2.548748251762147e-06 	101324.9989605197
0.6719219219219214 	299.9999990863849 	2.65033876982899e-06 	101324.9989206629
0.674424424424424 	299.9999990416683 	2.782433118330349e-06 	101324.9988677121
0.6769269269269262 	299.9999989785788 	2.965408730996395e-06 	101324.9987933867
0.679429429429429 	299.9999988955175 	3.20615016679197e-06 	101324.998694889
0.6819319319319311 	299.9999987947703 	3.495144324983182e-06 	101324.9985758434
0.6844344344344341 	299.9999986845959 	3.811261178804519e-06 	101324.9984455478
0.686936936936936 	299.9999985753566 	4.123526194055977e-06 	101324.9983163934
0.6894394394394392 	299.9999984774266 	4.404002942449301e-06 	101324.9982005786
0.6919419419419413 	299.9999983982971 	4.632268585909737e-06 	101324.9981070933
0.694444444444444 	299.9999983410154 	4.798040458962984e-06 	101324.9980396377
0.6969469469469463 	299.9999983040502 	4.908316261446093e-06 	101324.9979958861
0.6994494494494489 	299.9999982805074 	4.979920544030641e-06 	101324.9979679342
0.7019519519519515 	299.9999982606698 	5.041318037983328e-06 	101324.9979441972
0.7044544544544538 	299.9999982337023 	5.122956278352232e-06 	101324.9979123713
0.7069569569569564 	299.9999981914186 	5.248243708302636e-06 	101324.9978620855
0.7094594594594589 	299.9999981280062 	5.432837315187779e-06 	101324.9977871996
0.7119619619619615 	299.999998043745 	5.674198513226806e-06 	101324.9976877351
0.7144644644644638 	299.9999979445114 	5.958134683571402e-06 	101324.9975702175
0.7169669669669665 	299.9999978395797 	6.25773944634779e-06 	101324.9974463121
0.7194694694694688 	299.9999977415379 	6.538306813786969e-06 	101324.9973301093
0.7219719719719715 	299.9999976605745 	6.770982200059315e-06 	101324.9972344298
0.7244744744744737 	299.9999976040414 	6.933650226590396e-06 	101324.9971675275
0.7269769769769764 	299.9999975730528 	7.0245737707621e-06 	101324.9971309042
0.7294794794794791 	299.9999975624667 	7.059461478204233e-06 	101324.9971184227
0.7319819819819813 	299.9999975619533 	7.065450248805139e-06 	101324.9971178667
0.7344844844844839 	299.9999975588181 	7.079252261453016e-06 	101324.9971143792
0.7369869869869864 	299.9999975420138 	7.13058398759359e-06 	101324.9970943537
0.739489489489489 	299.9999975035295 	7.242200143469615e-06 	101324.9970488136
0.7419919919919914 	299.999997441572 	7.420633886155387e-06 	101324.9969756236
0.7444944944944939 	299.9999973607398 	7.651854926472667e-06 	101324.9968798739
0.7469969969969963 	299.9999972699435 	7.911376272630019e-06 	101324.996772574
0.7494994994994989 	299.9999971810237 	8.163745291800437e-06 	101324.996667638
0.7520020020020015 	299.9999971055483 	8.378816240308515e-06 	101324.9965783036
0.7545045045045039 	299.999997051238 	8.535405849724147e-06 	101324.9965141371
0.7570070070070062 	299.9999970215162 	8.621605937274451e-06 	101324.9964791091
0.7595095095095092 	299.9999970145218 	8.644448989314477e-06 	101324.9964708555
0.7620120120120112 	299.9999970237023 	8.62177469242147e-06 	101324.9964814494
0.7645145145145138 	299.9999970387624 	8.581486290805079e-06 	101324.996499328
0.7670170170170165 	299.999997049386 	8.554209226058641e-06 	101324.9965120791
0.7695195195195191 	299.999997046909 	8.563209367860318e-06 	101324.996509128
0.7720220220220213 	299.9999970255002 	8.625881274007565e-06 	101324.9964837394
0.7745245245245239 	299.9999969836261 	8.74594612411608e-06 	101324.9964342648
0.7770270270270263 	299.9999969248574 	8.913989663200773e-06 	101324.9963646157
0.779529529529529 	299.9999968563302 	9.110253836153207e-06 	101324.9962835114
0.7820320320320313 	299.9999967878879 	9.303937535494782e-06 	101324.9962026542
0.784534534534534 	299.9999967301369 	9.467704238102046e-06 	101324.9961342307
0.7870370370370364 	299.9999966911424 	9.579088989027931e-06 	101324.9960881785
0.7895395395395389 	299.9999966756876 	9.623859840782226e-06 	101324.9960699702
0.7920420420420413 	299.9999966836201 	9.603545907176696e-06 	101324.9960793803
0.794544544544544 	299.9999967099486 	9.529589581705976e-06 	101324.996110579
0.7970470470470463 	299.9999967463553 	9.427141826655498e-06 	101324.9961535267
0.799549549549549 	299.9999967825191 	9.325914204254822e-06 	101324.9961963589
0.8020520520520515 	299.9999968090785 	9.251166945128649e-06 	101324.9962278515
0.8045545545545539 	299.9999968188504 	9.223814339116205e-06 	101324.9962396042
0.8070570570570563 	299.9999968088231 	9.252696657562163e-06 	101324.9962276348
0.8095595595595589 	299.9999967795986 	9.335101670771653e-06 	101324.9961931877
0.8120620620620614 	299.9999967366512 	9.456712123036923e-06 	101324.9961424646
0.8145645645645638 	299.9999966883116 	9.593967874530362e-06 	101324.9960850735
0.8170670670670666 	299.9999966431013 	9.722117234830806e-06 	101324.9960316106
0.8195695695695689 	299.9999966088255 	9.81936855227782e-06 	101324.9959911812
0.8220720720720714 	299.999996590622 	9.870771061557465e-06 	101324.9959698326
0.8245745745745739 	299.9999965911094 	9.869762277404008e-06 	101324.9959702011
0.8270770770770765 	299.9999966094579 	9.816901756734338e-06 	101324.9959919149
0.8295795795795788 	299.9999966434654 	9.719510004576602e-06 	101324.9960321596
0.8320820820820815 	299.999996689317 	9.589538905761859e-06 	101324.9960861254
0.834584584584584 	299.9999967412851 	9.441348153502479e-06 	101324.9961476141
0.8370870870870865 	299.9999967941021 	9.289828367069485e-06 	101324.9962102322
0.8395895895895891 	299.9999968436292 	9.146761862672445e-06 	101324.9962688916
0.8420920920920915 	299.9999968874861 	9.020070181302259e-06 	101324.9963206207
0.844594594594594 	299.9999969246325 	8.912561550495588e-06 	101324.9963645415
0.8470970970970964 	299.9999969555405 	8.822861658008771e-06 	101324.996401025
0.8495995995995991 	299.9999969807907 	8.749449460853469e-06 	101324.9964306572
0.8521021021021015 	299.9999970003549 	8.692058211598062e-06 	101324.9964538135
0.8546046046046039 	299.999997014568 	8.650957912955195e-06 	101324.9964706571
0.8571071071071066 	299.999997023777 	8.624705747425551e-06 	101324.9964814432
0.8596096096096089 	299.9999970288192 	8.608983519745934e-06 	101324.996487572
0.8621121121121116 	299.9999970324044 	8.596990739250736e-06 	101324.9964919614
0.8646146146146139 	299.9999970378635 	8.580566345533847e-06 	101324.9964981894
0.8671171171171166 	299.9999970474754 	8.551939611288266e-06 	101324.9965096802
0.8696196196196189 	299.999997063624 	8.504842308760631e-06 	101324.996528897
0.8721221221221216 	299.9999970875792 	8.435265012786477e-06 	101324.9965569819
0.874624624624624 	299.9999971195257 	8.341968477340408e-06 	101324.9965946145
0.8771271271271264 	299.9999971595715 	8.226350300820444e-06 	101324.9966419385
0.879629629629629 	299.9999972066823 	8.091025524488557e-06 	101324.9966975985
0.8821321321321317 	299.9999972587384 	7.940917220048862e-06 	101324.9967592434
0.8846346346346339 	299.9999973133109 	7.78311650205219e-06 	101324.9968240393
0.8871371371371364 	299.9999973686652 	7.622830250971827e-06 	101324.9968894061
0.8896396396396391 	299.9999974237958 	7.462977339168494e-06 	101324.9969545937
0.8921421421421414 	299.9999974794445 	7.301961970986665e-06 	101324.9970203751
0.8946446446446441 	299.9999975366355 	7.135350853179319e-06 	101324.9970878893
0.8971471471471464 	299.9999975962852 	6.962420040558739e-06 	101324.9971583091
0.8996496496496489 	299.9999976581611 	6.783876121791615e-06 	101324.9972315066
0.9021521521521517 	299.9999977208976 	6.602505740456779e-06 	101324.9973057009
0.9046546546546541 	299.9999977835881 	6.421038736461175e-06 	101324.9973797092
0.9071571571571564 	299.9999978459122 	6.238871049852161e-06 	101324.9974535783
0.9096596596596589 	299.9999979091971 	6.054819281405437e-06 	101324.9975284252
0.9121621621621616 	299.9999979750925 	5.864808862925862e-06 	101324.9976060799
0.9146646646646639 	299.999998043551 	5.667493069668321e-06 	101324.9976871269
0.9171671671671666 	299.9999981134592 	5.465072221584395e-06 	101324.9977698868
0.9196696696696689 	299.9999981836162 	5.261430229877402e-06 	101324.9978525865
0.9221721721721714 	299.99999825265 	5.061983066806423e-06 	101324.9979341951
0.9246746746746741 	299.9999983205921 	4.864841508019229e-06 	101324.9980147345
0.9271771771771765 	299.9999983890191 	4.666516321955164e-06 	101324.9980955754
0.9296796796796791 	299.9999984589988 	4.463886618613522e-06 	101324.9981781832
0.9321821821821816 	299.999998530596 	4.254515439579714e-06 	101324.9982629581
0.9346846846846838 	299.9999986040988 	4.041349532291162e-06 	101324.9983499733
0.9371871871871866 	299.9999986792438 	3.825430928949631e-06 	101324.9984386278
0.9396896896896891 	299.9999987547197 	3.606833535336392e-06 	101324.9985279023
0.9421921921921914 	299.9999988314088 	3.383629720164874e-06 	101324.998618599
0.9446946946946939 	299.9999989109539 	3.152230707614894e-06 	101324.9987127785
0.9471971971971965 	299.9999989943269 	2.910893486590151e-06 	101324.998811474
0.9496996996996991 	299.9999990811826 	2.660960382274478e-06 	101324.9989139438
0.9522022022022016 	299.9999991687366 	2.409874392912969e-06 	101324.9990172953
0.9547047047047038 	299.9999992537159 	2.163102535558623e-06 	101324.9991176921
0.9572072072072064 	299.9999993356519 	1.923689559490959e-06 	101324.9992145475
0.9597097097097093 	299.9999994163953 	1.689549715331951e-06 	101324.9993099275
0.9622122122122114 	299.999999498145 	1.45098850301827e-06 	101324.9994065512
0.964714714714714 	299.9999995838705 	1.202152298736901e-06 	101324.99950794
0.9672172172172167 	299.9999996754206 	9.384922622932497e-07 	101324.9996162126
0.969719719719719 	299.9999997710539 	6.625332670868307e-07 	101324.9997291903
0.9722222222222214 	299.9999998677381 	3.838900184164422e-07 	101324.999843534
0.9747247247247239 	299.9999999625576 	1.514721152951414e-07 	101324.9999556817
0.9772272272272267 	300.0000000533975 	1.530802566907839e-07 	101325.0000629674
0.9797297297297292 	300.0000001412366 	4.090821059599524e-07 	101325.0001668916
0.9822322322322313 	300.000000230603 	6.696091009058554e-07 	101325.0002725399
0.9847347347347344 	300.0000003257044 	9.452115837836061e-07 	101325.0003849702
0.9872372372372363 	300.000000426531 	1.23607824024119e-06 	101325.0005043096
0.9897397397397389 	300.0000005292146 	1.531174582707297e-06 	101325.00062561
0.9922422422422417 	300.0000006277922 	1.81555543090693e-06 	101325.0007421777
0.9947447447447441 	300.0000007192811 	2.080924417518642e-06 	101325.0008502188
0.9972472472472468 	300.000000805216 	2.332153728084006e-06 	101325.0009518121
0.999749749749749 	300.0000008917534 	2.585538744649165e-06 	101325.001054154
1.002252252252252 	300.0000009858015 	2.859271855594302e-06 	101325.0011653265
1.004754754754754 	300.0000010906846 	3.162124876958618e-06 	101325.0012892796
1.007257257257256 	300.0000012037594 	3.487264035318244e-06 	101325.001423061
1.009759759759759 	300.0000013179653 	3.815363089605356e-06 	101325.0015581621
1.012262262262261 	300.0000014254716 	4.125433596599438e-06 	101325.0016853215
1.014764764764764 	300.0000015221952 	4.406715794328809e-06 	101325.001799803
1.017267267267267 	300.0000016103558 	4.664803797251704e-06 	101325.0019040742
1.019769769769769 	300.0000016969353 	4.917999425874827e-06 	101325.0020062502
1.022272272272272 	300.0000017891118 	5.186315780537604e-06 	101325.0021151711
1.024774774774774 	300.0000018906708 	5.47972362622466e-06 	101325.0022352187
1.027277277277277 	300.0000019995662 	5.792820461387409e-06 	101325.0023639578
1.029779779779779 	300.0000021096222 	6.10887988506568e-06 	101325.0024939339
1.032282282282282 	300.000002214135 	6.410627771602185e-06 	101325.0026174782
1.034784784784784 	300.0000023105524 	6.691161132547958e-06 	101325.002731515
1.037287287287286 	300.0000024017823 	6.95825640111849e-06 	101325.0028394928
1.039789789789789 	300.0000024946435 	7.229554860020754e-06 	101325.0029492508
1.042292292292291 	300.000002595273 	7.521419929576958e-06 	101325.0030680859
1.044794794794794 	300.0000027052354 	7.83818977790594e-06 	101325.0031979993
1.047297297297296 	300.0000028202849 	8.168270400810862e-06 	101325.0033339498
1.049799799799799 	300.0000029320331 	8.489653741821141e-06 	101325.0034662745
1.052302302302302 	300.0000030331493 	8.782046120228249e-06 	101325.0035859974
1.054804804804804 	300.000003121121 	9.038795844790026e-06 	101325.0036901056
1.057307307307306 	300.0000032004065 	9.272173149549747e-06 	101325.003783873
1.059809809809809 	300.0000032807457 	9.508292009940758e-06 	101325.0038786945
1.062312312312312 	300.000003371858 	9.774200371759535e-06 	101325.0039864074
1.064814814814814 	300.0000034789966 	1.008358071838314e-05 	101325.0041130688
1.067317317317317 	300.0000035992687 	1.042864152776298e-05 	101325.0042553696
1.069819819819819 	300.0000037230221 	1.078257262427351e-05 	101325.0044016818
1.072322322322321 	300.0000038380703 	1.111181406244526e-05 	101325.0045374121
1.074824824824824 	300.0000039350908 	1.139215181708175e-05 	101325.0046519872
1.077327327327327 	300.000004013089 	1.162076812277236e-05 	101325.0047441261
1.079829829829829 	300.000004079681 	1.181845295784413e-05 	101325.0048228189
1.082332332332332 	300.0000041476302 	1.20202874568914e-05 	101325.0049033018
1.084834834834834 	300.0000042292792 	1.225936818343842e-05 	101325.0049999428
1.087337337337337 	300.0000043302981 	1.255120950620276e-05 	101325.0051195026
1.089839839839839 	300.0000044472757 	1.288622261067449e-05 	101325.005257844
1.092342342342342 	300.0000045690886 	1.323381206747944e-05 	101325.0054016884
1.094844844844844 	300.0000046815773 	1.355620800670218e-05 	101325.0055346632
1.097347347347347 	300.0000047746013 	1.382574936010398e-05 	101325.0056447461
1.099849849849849 	300.000004846507 	1.403759663401307e-05 	101325.0057297848
1.102352352352352 	300.0000049048881 	1.42123948952884e-05 	101325.0057986579
1.104854854854854 	300.0000049630952 	1.438723493873518e-05 	101325.0058673973
1.107357357357357 	300.0000050346031 	1.459927282583995e-05 	101325.0059520264
1.109859859859859 	300.0000051271013 	1.486902896270463e-05 	101325.0060613946
1.112362362362362 	300.0000052386795 	1.51909057221103e-05 	101325.0061930413
1.114864864864865 	300.0000053578217 	1.553480413140662e-05 	101325.0063338901
1.117367367367367 	300.0000054690417 	1.585846361808567e-05 	101325.0064655704
1.119869869869869 	300.000005558957 	1.612510857449313e-05 	101325.0065720107
1.122372372372372 	300.0000056218077 	1.631915609606318e-05 	101325.0066461772
1.124874874874874 	300.0000056616668 	1.64537549107815e-05 	101325.0066933231
1.127377377377377 	300.0000056920778 	1.656668140983884e-05 	101325.0067292544
1.129879879879879 	300.0000057302591 	1.670616446164197e-05 	101325.0067741676
1.132382382382382 	300.0000057899605 	1.691228101804218e-05 	101325.0068446516
1.134884884884884 	300.0000058764087 	1.720128809678864e-05 	101325.0069469614
1.137387387387387 	300.0000059838881 	1.755870507672909e-05 	101325.0070739986
1.139889889889889 	300.0000060964605 	1.794406490208677e-05 	101325.0072072911
1.142392392392392 	300.0000061945602 	1.830566046833504e-05 	101325.0073233092
1.144894894894894 	300.0000062610272 	1.859969506263429e-05 	101325.0074016306
1.147397397397397 	300.0000062867167 	1.880724241892666e-05 	101325.0074320928
1.149899899899899 	300.0000062750922 	1.894304432990621e-05 	101325.0074185966
1.152402402402402 	300.0000062407261 	1.905292274448672e-05 	101325.0073780135
1.154904904904904 	300.0000062038798 	1.920015219593225e-05 	101325.0073343218
1.157407407407407 	300.0000061834877 	1.944583033481747e-05 	101325.0073102169
1.159909909909909 	300.0000061909302 	1.982983450001358e-05 	101325.0073191156
1.162412412412412 	300.000006225393 	2.035832241928248e-05 	101325.0073598665
1.164914914914914 	300.0000062728931 	2.100168055760288e-05 	101325.0074159002
1.167417417417417 	300.0000063096529 	2.170379980605398e-05 	101325.0074593145
1.169919919919919 	300.0000063091902 	2.239974998935615e-05 	101325.0074585608
1.172422422422422 	300.0000062489239 	2.303591817795337e-05 	101325.0073871905
1.174924924924925 	300.0000061168328 	2.358706777043809e-05 	101325.0072312479
1.177427427427427 	300.0000059156596 	2.40656094734485e-05 	101325.0069935541
1.179929929929929 	300.0000056619157 	2.45198925881354e-05 	101325.0066933679
1.182432432432432 	300.0000053809709 	2.502115972056101e-05 	101325.0063611158
1.184934934934934 	300.0000051009707 	2.564360805044538e-05 	101325.0060302718
1.187437437437437 	300.0000048460511 	2.644378845933884e-05 	101325.0057290592
1.189939939939939 	300.000004630067 	2.744406209251695e-05 	101325.0054737574
1.192442442442442 	300.0000044535387 	2.862406902792976e-05 	101325.0052651649
1.194944944944944 	300.0000043047044 	2.992229443825525e-05 	101325.0050891885
1.197447447447447 	300.0000041630158 	3.12476566867971e-05 	101325.0049214498
1.199949949949949 	300.0000040051339 	3.249814702509575e-05 	101325.0047347155
1.202452452452452 	300.0000038120978 	3.358156705016392e-05 	101325.004506735
1.204954954954955 	300.0000035751309 	3.443368425183151e-05 	101325.004226643
1.207457457457457 	300.0000032981258 	3.503059581345141e-05 	101325.0038990642
1.20995995995996 	300.0000029981819 	3.539228555564261e-05 	101325.0035444855
1.212462462462462 	300.0000027028818 	3.557607169347941e-05 	101325.0031953497
1.214964964964964 	300.0000024439425 	3.566275165150085e-05 	101325.0028892491
1.217467467467467 	300.0000022510408 	3.573928300794355e-05 	101325.0026612326
1.219969969969969 	300.000002145587 	3.588158186798312e-05 	101325.0025366261
1.222472472472472 	300.0000021364854 	3.614055002414522e-05 	101325.0025256443
1.224974974974975 	300.0000022167354 	3.65338246964108e-05 	101325.0026203897
1.227477477477477 	300.0000023640835 	3.704464714094875e-05 	101325.0027947901
1.229979979979979 	300.0000025448726 	3.762809534753146e-05 	101325.0030085721
1.232482482482482 	300.0000027188997 	3.822228076195882e-05 	101325.0032144068
1.234984984984984 	300.0000028469086 	3.876094266457399e-05 	101325.003365732
1.237487487487487 	300.0000028960816 	3.918511412432647e-05 	101325.0034237662
1.239989989989989 	300.0000028451456 	3.945297168585099e-05 	101325.0033635392
1.242492492492492 	300.0000026883839 	3.95433083526603e-05 	101325.003178085
1.244994994994994 	300.0000024357678 	3.94850326300681e-05 	101325.0028796477
1.247497497497497 	300.0000019570166 	3.920949412530859e-05 	101325.0024974452
1.249999999999999 	299.9997710278005 	3.899089392921745e-05 	101325.0020692767
