-1.25 	300 	0 	101349.0876837051
-1.247497497497497 	300.0163051317322 	3.048918098713539 	101352.5966723998
-1.244994994994995 	300.0172514488259 	2.916151300506702 	101350.8314686556
-1.242492492492492 	300.0201903816999 	2.776370990652905 	101353.1429555201
-1.23998998998999 	300.0192446297521 	2.639016933790144 	101352.1594214061
-1.237487487487487 	300.0215301899955 	2.496081298501287 	101353.9091378793
-1.234984984984985 	300.0212586506545 	2.358498821000082 	101353.6715345779
-1.232482482482482 	300.0227906389393 	2.213204502397122 	101354.6570790021
-1.22997997997998 	300.022966281321 	2.074503179083662 	101354.9096812389
-1.227477477477477 	300.0239113285019 	1.931308844001393 	101355.3268092802
-1.224974974974975 	300.0248497250689 	1.797255784175967 	101356.4693844826
-1.222472472472472 	300.0249162192375 	1.657801732385922 	101355.9611224519
-1.21996996996997 	300.0255692619276 	1.529710997427015 	101356.7641251785
-1.217467467467467 	300.0258481181026 	1.395127304319426 	101356.6107536758
-1.214964964964965 	300.0270703127358 	1.274022839927343 	101358.0894708623
-1.212462462462462 	300.0267749494823 	1.144665230390434 	101357.3479362442
-1.20995995995996 	300.0283190257377 	1.03165015335517 	101359.2119860955
-1.207457457457457 	300.0276264564004 	0.9109646670323422 	101358.0852820644
-1.204954954954955 	300.0291736621074 	0.8086602099324816 	101359.9588715057
-1.202452452452452 	300.0283297901982 	0.6981148666271442 	101358.7275569543
-1.19994994994995 	300.0300150868918 	0.6080112784655848 	101360.7671793685
-1.197447447447447 	300.028973153194 	0.5084779249827978 	101359.3652570458
-1.194944944944945 	300.0308479636877 	0.431745310576015 	101361.6271980098
-1.192442442442442 	300.0296848531631 	0.3445765624437125 	101360.1357214399
-1.18993993993994 	300.0316218096066 	0.2828493882789678 	101362.4650433667
-1.187437437437437 	300.0304920020836 	0.2095304641340233 	101361.0566668831
-1.184934934934935 	300.0322850678268 	0.1640351033713298 	101363.2060168012
-1.182432432432432 	300.0312788770805 	0.1081254446809874 	101361.9772381433
-1.17992992992993 	300.032768547102 	0.07949959250849541 	101363.7561285846
-1.177427427427427 	300.0320216070181 	0.1049093796912102 	101362.8569966546
-1.174924924924925 	300.0330723637595 	0.08679341216073805 	101364.1062158154
-1.172422422422422 	300.0327955262927 	0.099496200193533 	101363.7754318222
-1.16991991991992 	300.0331900766746 	0.09552362732180397 	101364.2427317984
-1.167417417417417 	300.033421254706 	0.09680683622685296 	101364.5158247416
-1.164914914914915 	300.0336542450129 	0.09748134219058838 	101364.791341075
-1.162412412412412 	300.0338885127966 	0.09816064113667039 	101365.0683682039
-1.15990990990991 	300.0341269145252 	0.09885230191714295 	101365.3502843041
-1.157407407407407 	300.0343719190776 	0.09956216864397607 	101365.64000882
-1.154904904904904 	300.0346235501052 	0.1002898524976273 	101365.937570134
-1.152402402402403 	300.0348781463364 	0.1010249257028222 	101366.2386392861
-1.1498998998999 	300.0351288494645 	0.1017483208566365 	101366.5351059301
-1.147397397397397 	300.0353677473368 	0.102438123794123 	101366.8176135833
-1.144894894894895 	300.0355885715767 	0.1030768969514973 	101367.0787494184
-1.142392392392392 	300.0357886395233 	0.1036570394721069 	101367.3153404235
-1.13988988988989 	300.0359693265821 	0.1041822087951999 	101367.5290127246
-1.137387387387387 	300.0361351939083 	0.1046650128916064 	101367.7251597514
-1.134884884884885 	300.036292348032 	0.1051224635270809 	101367.9110026272
-1.132382382382382 	300.036446592504 	0.105570779493987 	101368.0934046281
-1.12987987987988 	300.0366018149263 	0.1060208659460029 	101368.2769630937
-1.127377377377377 	300.0367590304568 	0.1064756839239072 	101368.4628787911
-1.124874874874875 	300.0369164487879 	0.106930477805555 	101368.6490349764
-1.122372372372372 	300.0370706378013 	0.1073759801486638 	101368.831372751
-1.11986986986987 	300.0372183333034 	0.107803326545293 	101369.0060319762
-1.117367367367367 	300.0373580195121 	0.1082083257846525 	101369.1712199872
-1.114864864864865 	300.0374904649793 	0.1085929330398275 	101369.3278453139
-1.112362362362362 	300.0376180027404 	0.1089633512061466 	101369.4786670326
-1.10985985985986 	300.037743044971 	0.1093260237498287 	101369.6265376284
-1.107357357357357 	300.0378666179915 	0.1096836106298439 	101369.7726709092
-1.104854854854855 	300.0379875066557 	0.1100325697925939 	101369.9156303318
-1.102352352352353 	300.0381021888886 	0.1103629395533386 	101370.0512507209
-1.09984984984985 	300.0382055047176 	0.1106602565446475 	101370.1734301105
-1.097347347347347 	300.0382919906714 	0.1109093703791734 	101370.2757076384
-1.094844844844845 	300.0383577185999 	0.1110995944517589 	101370.3534375134
-1.092342342342342 	300.0384021519474 	0.1112297720997247 	101370.4059848925
-1.08983983983984 	300.0384291853186 	0.1113109941178176 	101370.4379549405
-1.087337337337337 	300.0384466006674 	0.1113649790781321 	101370.4585500993
-1.084834834834835 	300.0384638378546 	0.111417910669171 	101370.4789339214
-1.082332332332332 	300.038488873857 	0.1114919002351061 	101370.5085397669
-1.07982982982983 	300.0385255457294 	0.1115976549666599 	101370.551905795
-1.077327327327327 	300.0385724420846 	0.1117313795202774 	101370.6073636281
-1.074824824824825 	300.0386236812113 	0.1118768323205407 	101370.6679577393
-1.072322322322323 	300.0386710553649 	0.1120111710097096 	101370.7239820294
-1.06981981981982 	300.0387065571142 	0.1121119266544828 	101370.7659669537
-1.067317317317317 	300.0387243623553 	0.1121625712966812 	101370.7870244537
-1.064814814814815 	300.0387217801336 	0.1121552669958643 	101370.783971333
-1.062312312312312 	300.0386991530335 	0.1120907179127359 	101370.7572153977
-1.05980980980981 	300.0386590660995 	0.1119760173693959 	101370.7098123091
-1.057307307307307 	300.0386052800682 	0.1118216966736693 	101370.6462076374
-1.054804804804805 	300.0385417508819 	0.1116389689357961 	101370.5710805173
-1.052302302302302 	300.0384719459034 	0.11143775025257 	101370.4885315851
-1.0497997997998 	300.0383984843448 	0.1112255919763306 	101370.4016583114
-1.047297297297297 	300.038323035308 	0.1110073605695729 	101370.3124346384
-1.044794794794795 	300.0382463995286 	0.1107854402278547 	101370.2218076446
-1.042292292292292 	300.0381686813131 	0.1105601880258938 	101370.1299006914
-1.03978978978979 	300.0380894406939 	0.1103303676469924 	101370.0361935329
-1.037287287287287 	300.038007800031 	0.1100934635154279 	101369.9396482843
-1.034784784784785 	300.0379225203165 	0.1098459126691929 	101369.8387998156
-1.032282282282283 	300.0378320816919 	0.1095833746134099 	101369.7318508399
-1.02977977977978 	300.0377348551698 	0.109301226035052 	101369.6168749744
-1.027277277277277 	300.0376293562596 	0.1089952407556319 	101369.4921167286
-1.024774774774775 	300.03751444727 	0.1086621577499718 	101369.3562306569
-1.022272272272272 	300.0373894352944 	0.1082999793583853 	101369.2083973411
-1.01976976976977 	300.0372541003294 	0.1079080708976539 	101369.048356617
-1.017267267267267 	300.0371087103271 	0.1074872433857912 	101368.876425347
-1.014764764764765 	300.0369541123837 	0.1070399896146327 	101368.6936052527
-1.012262262262262 	300.0367918156352 	0.1065706015568869 	101368.5016809658
-1.00975975975976 	300.036623762724 	0.1060844672209102 	101368.3029498042
-1.007257257257257 	300.036451688033 	0.1055863243666242 	101368.0994628306
-1.004754754754755 	300.0362763562734 	0.1050782311937948 	101367.8921245205
-1.002252252252252 	300.036097162644 	0.1045585891288751 	101367.6802198272
-0.9997497497497498 	300.0359125657775 	0.1040234217388554 	101367.4619259658
-0.9972472472472473 	300.0357213818392 	0.1034698007322182 	101367.2358429307
-0.9947447447447449 	300.0355240846778 	0.1028991488395313 	101367.0025309905
-0.9922422422422421 	300.0353229139796 	0.1023173952267067 	101366.7646385685
-0.9897397397397399 	300.035120380654 	0.1017309399398898 	101366.5251350794
-0.9872372372372376 	300.0349169553947 	0.1011405466456898 	101366.2845774643
-0.9847347347347346 	300.0347095154163 	0.1005374101623888 	101366.0392731936
-0.9822322322322323 	300.0344920279515 	0.09990519092570103 	101365.7820884095
-0.9797297297297296 	300.0342585750417 	0.09922810196378291 	101365.5060247771
-0.9772272272272275 	300.0340069402046 	0.09850039971980692 	101365.2084608987
-0.9747247247247248 	300.0337403999051 	0.09773115202215088 	101364.893270993
-0.9722222222222224 	300.033466588088 	0.09694118250716602 	101364.5694823497
-0.9697197197197196 	300.0331940433601 	0.09615374489489513 	101364.2471921885
-0.9672172172172175 	300.0329282595364 	0.09538389640182553 	101363.9328974322
-0.9647147147147147 	300.0326694029272 	0.09463235185177975 	101363.6267951714
-0.9622122122122124 	300.0324129120909 	0.09388695862380851 	101363.3234916682
-0.9597097097097099 	300.0321523034364 	0.09313009346390037 	101363.0153199708
-0.9572072072072073 	300.0318822797914 	0.09234709930357457 	101362.6960159833
-0.9547047047047047 	300.0316006078769 	0.09153156519930555 	101362.3629385502
-0.9522022022022023 	300.0313082932319 	0.09068593264207064 	101362.0172767317
-0.9496996996996998 	300.0310083176391 	0.08981810527940473 	101361.6625563948
-0.9471971971971973 	300.0307036789175 	0.08893617177283816 	101361.3023226215
-0.9446946946946947 	300.0303957989161 	0.0880440953038637 	101360.9382570358
-0.9421921921921923 	300.0300840900657 	0.08714043445992618 	101360.569664883
-0.93968968968969 	300.0297666320137 	0.08622004767700805 	101360.1942755065
-0.9371871871871872 	300.029441297914 	0.08527712619072282 	101359.8095740315
-0.9346846846846848 	300.0291067136017 	0.08430787486405412 	101359.4139355031
-0.9321821821821823 	300.0287627651519 	0.08331195278792282 	101359.0072250928
-0.9296796796796799 	300.0284105660921 	0.08229237875911083 	101358.5907595692
-0.9271771771771771 	300.0280518969627 	0.08125398825879261 	101358.166644494
-0.9246746746746748 	300.0276883474797 	0.08020114349501965 	101357.7367597492
-0.9221721721721724 	300.027320681787 	0.07913609177547372 	101357.3020089776
-0.9196696696696698 	300.0269489291171 	0.0780591970929313 	101356.8624268981
-0.9171671671671672 	300.0265730975991 	0.076970687636503 	101356.4180231194
-0.9146646646646649 	300.0261936884335 	0.07587187608377455 	101355.9693902097
-0.9121621621621623 	300.025811343272 	0.07476431216532042 	101355.5172870741
-0.9096596596596597 	300.025426073398 	0.07364798952327362 	101355.0617271677
-0.9071571571571573 	300.0250371678408 	0.07252115630272582 	101354.6018697438
-0.9046546546546547 	300.0246439586515 	0.07138207693949146 	101354.1369250656
-0.9021521521521524 	300.0242463106721 	0.07023014082178414 	101353.6667334466
-0.8996496496496498 	300.0238440938054 	0.06906475185590802 	101353.1911409912
-0.8971471471471473 	300.0234366969146 	0.06788452908227999 	101352.7094251301
-0.894644644644645 	300.0230240573312 	0.0666900157722233 	101352.2215117427
-0.892142142142142 	300.0226084518318 	0.06548775021805854 	101351.7300927538
-0.8896396396396397 	300.0221942330395 	0.0642889838352686 	101351.2403148357
-0.8871371371371374 	300.0217842813794 	0.06310053403445126 	101350.7555842131
-0.8846346346346349 	300.0213761242682 	0.06191534898625 	101350.2729776149
-0.8821321321321324 	300.0209623264772 	0.06071401490446923 	101349.7837037254
-0.8796296296296297 	300.0205360446463 	0.05947905539170949 	101349.2796706864
-0.8771271271271271 	300.0200970922061 	0.0582102225340317 	101348.760657413
-0.8746246246246248 	300.0196526613505 	0.0569262018557008 	101348.2351676463
-0.8721221221221224 	300.0192117345493 	0.05565038909696556 	101347.7138224669
-0.8696196196196196 	300.0187782534872 	0.05439341790081329 	101347.2012829656
-0.8671171171171175 	300.0183490295671 	0.05314752438220265 	101346.6937792941
-0.8646146146146148 	300.0179175218169 	0.05189585075276747 	101346.1835776257
-0.8621121121121121 	300.017479278848 	0.05062633310299844 	101345.6654144065
-0.8596096096096097 	300.017034173661 	0.04933782307115901 	101345.1391393285
-0.857107107107107 	300.0165844618253 	0.04803565866821537 	101344.6074194269
-0.8546046046046049 	300.0161317073135 	0.04672404347184021 	101344.0721038974
-0.8521021021021022 	300.0156758943029 	0.04540356669705084 	101343.5331741598
-0.8495995995995997 	300.0152170022939 	0.04407479295359261 	101342.990605982
-0.8470970970970974 	300.0147565720957 	0.04274194521432499 	101342.4462210716
-0.8445945945945946 	300.0142970722144 	0.04141124708711052 	101341.9029379966
-0.8420920920920922 	300.0138395169432 	0.04008500323446706 	101341.3619562105
-0.8395895895895897 	300.0133818599483 	0.03875770525285593 	101340.820856593
-0.8370870870870872 	300.0129201210807 	0.03741907353196146 	101340.2749332266
-0.8345845845845846 	300.0124516589531 	0.03606251400763738 	101339.7210629236
-0.8320820820820823 	300.0119779152661 	0.03469212533141061 	101339.1609500348
-0.8295795795795798 	300.011504175307 	0.03332194438347146 	101338.6008432477
-0.8270770770770772 	300.0110362014635 	0.03196708340679678 	101338.0475555983
-0.8245745745745746 	300.0105760751031 	0.03063282870192317 	101337.5035483552
-0.8220720720720721 	300.0101202528522 	0.02930955986267145 	101336.9646324347
-0.8195695695695699 	300.0096612997514 	0.02797739388086194 	101336.422017617
-0.817067067067067 	300.0091923027813 	0.02661797472831028 	101335.8675305737
-0.8145645645645651 	300.008711301394 	0.02522632053544792 	101335.2988528911
-0.8120620620620621 	300.0082231072444 	0.02381568057347509 	101334.7216728586
-0.8095595595595597 	300.0077374365112 	0.02241249900515756 	101334.1474776433
-0.8070570570570572 	300.0072643655756 	0.02104416181947337 	101333.5881804676
-0.8045545545545546 	300.0068095168946 	0.01972593966768631 	101333.0504288066
-0.8020520520520523 	300.0063713290541 	0.01845347051479563 	101332.5323770594
-0.7995495495495494 	300.0059414892934 	0.01720381767370453 	101332.0241977257
-0.7970470470470474 	300.0055080559688 	0.01594397972009493 	101331.5117728449
-0.7945445445445446 	300.0050598220284 	0.01464295424576495 	101330.9818526248
-0.7920420420420423 	300.0045902974107 	0.01328284264902864 	101330.4267638881
-0.7895395395395397 	300.0041000906438 	0.01186553192013793 	101329.8472257098
-0.7870370370370371 	300.0035971252273 	0.01041333366232844 	101329.2526051991
-0.7845345345345348 	300.0030948156851 	0.008963940938772433 	101328.6587611804
-0.7820320320320323 	300.0026089242322 	0.007561797721529872 	101328.0843279422
-0.7795295295295296 	300.0021542935618 	0.006249108923625962 	101327.5468527858
-0.7770270270270272 	300.0017425716145 	0.005059295584132394 	101327.060105892
-0.7745245245245247 	300.0013811622488 	0.004013809192376063 	101326.6328400245
-0.7720220220220222 	300.0010731380066 	0.003121754445577391 	101326.2686873704
-0.7695195195195199 	300.0008178011945 	0.002381412689899162 	101325.9668229993
-0.767017017017017 	300.0006115947419 	0.001782799886130442 	101325.7230415001
-0.7645145145145147 	300.0004491095682 	0.001310533113841201 	101325.5309481235
-0.7620120120120122 	300.0003240117601 	0.0009464895312151228 	101325.3830548133
-0.7595095095095097 	300.0002297896013 	0.0006719633884298748 	101325.2716633487
-0.7570070070070072 	300.0001602853671 	0.0004692114888120946 	101325.1894938079
-0.7545045045045048 	300.0001100205119 	0.0003224083528253754 	101325.1300694079
-0.7520020020020022 	300.0000743499681 	0.0002181068396074053 	101325.0878987937
-0.7494994994994997 	300.0000494898361 	0.000145330785712025 	101325.0585084684
-0.7469969969969972 	300.0000324615542 	9.542464897812271e-05 	101325.0383771109
-0.7444944944944945 	300.0000209903304 	6.1767101462758e-05 	101325.0248154893
-0.7419919919919924 	300.0000133855384 	3.942909215708749e-05 	101325.015824859
-0.7394894894894897 	300.000008421266 	2.483129160088445e-05 	101325.0099559663
-0.7369869869869872 	300.0000052287699 	1.543320438730158e-05 	101325.0061816571
-0.7344844844844846 	300.0000032050818 	9.469573282030553e-06 	101325.0037892004
-0.7319819819819822 	300.0000019401871 	5.73796589005462e-06 	101325.0022937552
-0.7294794794794797 	300.0000011601817 	3.434529073356883e-06 	101325.0013716138
-0.7269769769769773 	300.0000006855293 	2.031330300416118e-06 	101325.0008104459
-0.7244744744744747 	300.0000004003601 	1.187445253710024e-06 	101325.0004733027
-0.721971971971972 	300.0000002311105 	6.862424093754632e-07 	101325.0002732666
-0.7194694694694695 	300.0000001319576 	3.9217222747546e-07 	101325.0001560166
-0.7169669669669674 	300.0000000744759 	2.216729519972524e-07 	101325.0000881027
-0.7144644644644647 	300.0000000416168 	1.239595459210921e-07 	101325.0000492193
-0.711961961961962 	300.0000000230277 	6.85912575562864e-08 	101325.0000272078
-0.7094594594594597 	300.0000000126048 	3.756489879143185e-08 	101325.0000148848
-0.7069569569569573 	300.0000000068427 	2.036448034208974e-08 	101325.0000080602
-0.7044544544544545 	300.0000000036847 	1.093205378741092e-08 	101325.0000043205
-0.7019519519519523 	300.0000000019485 	5.811208236214574e-09 	101325.0000022925
-0.6994494494494495 	300.0000000009644 	3.060088569637754e-09 	101325.0000012036
-0.6969469469469471 	300.0000000004851 	1.595783256061773e-09 	101325.0000006245
-0.6944444444444446 	300.0000000002404 	8.244303136175349e-10 	101325.0000003195
-0.6919419419419421 	300.0000000001627 	4.214921155932443e-10 	101325.0000001606
-0.6894394394394396 	300.0000000000661 	2.139731689402352e-10 	101325.0000000784
-0.6869369369369374 	300.0000000000428 	1.067916112149349e-10 	101325.0000000364
-0.6844344344344344 	300.0000000000355 	5.310128805892678e-11 	101325.0000000152
-0.6819319319319321 	299.9999999999752 	2.567177318270449e-11 	101325.0000000046
-0.6794294294294296 	299.9999999999553 	1.224943175195879e-11 	101324.9999999993
-0.6769269269269272 	299.9999999999311 	5.135229841022198e-12 	101324.9999999968
-0.6744244244244245 	299.9999999999704 	1.848085223139034e-12 	101324.9999999958
-0.6719219219219222 	299.9999999999616 	7.119932194527366e-13 	101324.9999999952
-0.6694194194194195 	299.9999999999964 	9.803793178776378e-13 	101324.9999999946
-0.6669169169169172 	300.0000000000139 	5.725106338670435e-13 	101324.9999999944
-0.6644144144144146 	299.9999999999696 	9.317493346301085e-13 	101324.9999999942
-0.661911911911912 	299.9999999999739 	6.94488827635274e-13 	101324.9999999943
-0.6594094094094097 	299.9999999999829 	1.271002628155788e-12 	101324.9999999942
-0.656906906906907 	299.9999999999511 	4.160086663050821e-13 	101324.9999999943
-0.6544044044044046 	299.9999999999538 	2.110163220356681e-12 	101324.9999999944
-0.6519019019019021 	299.9999999999873 	7.965269117818828e-13 	101324.9999999945
-0.6493993993993996 	300.0000000000195 	3.096125513264129e-12 	101324.9999999944
-0.6468968968968971 	300.0000000000267 	1.881229350461758e-12 	101324.9999999945
-0.6443943943943946 	299.999999999996 	2.893661113341106e-12 	101324.9999999946
-0.6418918918918921 	299.9999999999964 	1.472574790153735e-12 	101324.9999999947
-0.6393893893893897 	299.9999999999993 	1.826444883429392e-12 	101324.9999999948
-0.6368868868868871 	299.9999999999827 	9.955855557079213e-13 	101324.9999999949
-0.6343843843843846 	299.9999999999925 	1.106883036677547e-12 	101324.9999999947
-0.6318818818818821 	299.9999999999595 	5.961853491300681e-13 	101324.9999999947
-0.6293793793793795 	300.0000000000031 	4.835253172237539e-13 	101324.9999999948
-0.6268768768768773 	300.0000000000157 	4.09803048409672e-13 	101324.999999995
-0.6243743743743745 	299.9999999999795 	2.869779492872893e-13 	101324.9999999951
-0.6218718718718721 	300.0000000000042 	1.252360887469914e-12 	101324.999999995
-0.6193693693693696 	299.9999999999479 	9.960795532611005e-13 	101324.9999999948
-0.6168668668668671 	299.9999999999868 	1.420149470552066e-12 	101324.9999999947
-0.6143643643643645 	300.0000000000148 	9.492101723479077e-13 	101324.9999999945
-0.6118618618618621 	299.9999999999905 	1.053306718201391e-12 	101324.9999999943
-0.6093593593593596 	299.9999999999885 	6.85339390586967e-13 	101324.9999999943
-0.6068568568568571 	299.9999999999878 	5.493920101968644e-13 	101324.9999999944
-0.6043543543543546 	299.999999999965 	1.221924954024698e-12 	101324.9999999945
-0.6018518518518521 	299.9999999999729 	5.977854999442657e-13 	101324.9999999946
-0.5993493493493496 	299.9999999999541 	9.475331558212342e-13 	101324.9999999946
-0.5968468468468471 	299.9999999999639 	1.053198933833189e-12 	101324.9999999947
-0.5943443443443446 	299.9999999999942 	1.459200533924842e-12 	101324.9999999948
-0.591841841841842 	299.9999999999659 	1.612981400839309e-12 	101324.9999999947
-0.5893393393393397 	299.9999999999562 	1.974077085260423e-12 	101324.9999999946
-0.5868368368368371 	299.9999999999955 	2.324169557448044e-12 	101324.9999999944
-0.5843343343343346 	300.0000000000108 	2.168243194291692e-12 	101324.9999999944
-0.5818318318318321 	300.0000000000288 	2.936236577824673e-12 	101324.9999999942
-0.5793293293293297 	299.9999999999901 	2.178910959621551e-12 	101324.9999999939
-0.5768268268268271 	300.0000000000072 	1.944731683960489e-12 	101324.9999999938
-0.5743243243243245 	300.0000000000197 	1.284485921986914e-12 	101324.9999999937
-0.5718218218218221 	300.0000000000178 	9.302197054834436e-13 	101324.9999999937
-0.5693193193193196 	300.0000000000348 	2.257971554360488e-13 	101324.9999999937
-0.5668168168168171 	299.999999999986 	7.433941070406056e-13 	101324.9999999939
-0.5643143143143147 	299.9999999999578 	4.783535924779655e-13 	101324.9999999939
-0.5618118118118121 	300.0000000000105 	1.164946976868819e-12 	101324.999999994
-0.5593093093093094 	300.0000000000268 	5.240847537011587e-13 	101324.999999994
-0.5568068068068072 	300.0000000000142 	1.782482349989869e-12 	101324.9999999938
-0.5543043043043046 	300.00000000001 	1.43645682077688e-12 	101324.9999999936
-0.551801801801802 	299.9999999999609 	2.142926324994285e-12 	101324.9999999934
-0.5492992992992995 	299.9999999999963 	1.551310887919409e-12 	101324.9999999934
-0.5467967967967969 	300.00000000001 	2.195386513350389e-12 	101324.9999999936
-0.5442942942942947 	300.0000000000065 	1.521352699010723e-12 	101324.9999999935
-0.5417917917917919 	299.9999999999662 	2.060241893505299e-12 	101324.9999999937
-0.5392892892892895 	299.9999999999434 	1.004414568295739e-12 	101324.9999999938
-0.536786786786787 	299.9999999999614 	1.31191709132296e-12 	101324.9999999938
-0.5342842842842846 	299.9999999999671 	1.631194024432679e-12 	101324.9999999937
-0.531781781781782 	299.9999999999443 	2.028957914826413e-12 	101324.9999999938
-0.5292792792792794 	299.999999999939 	2.553304793999248e-12 	101324.9999999937
-0.526776776776777 	299.999999999925 	3.095426320340834e-12 	101324.9999999937
-0.5242742742742745 	299.9999999999811 	4.177613719711187e-12 	101324.9999999938
-0.521771771771772 	300.0000000000123 	4.350233464353218e-12 	101324.999999994
-0.5192692692692695 	299.9999999999699 	4.600380973451279e-12 	101324.9999999939
-0.516766766766767 	300.0000000000043 	5.187314168097978e-12 	101324.999999994
-0.5142642642642645 	299.9999999999699 	3.780579110493396e-12 	101324.9999999939
-0.511761761761762 	299.9999999999635 	4.419224204790645e-12 	101324.9999999938
-0.5092592592592596 	299.9999999999769 	2.890643363649913e-12 	101324.9999999938
-0.506756756756757 	299.9999999999557 	3.783799396916165e-12 	101324.9999999938
-0.5042542542542544 	299.9999999999983 	1.411772609806772e-12 	101324.9999999938
-0.5017517517517521 	300.0000000000251 	3.540997941758389e-12 	101324.9999999936
-0.4992492492492494 	300.0000000000265 	9.236987958661783e-13 	101324.9999999934
-0.496746746746747 	299.9999999999912 	2.379722998739337e-12 	101324.9999999936
-0.4942442442442445 	299.9999999999534 	8.104460981548249e-13 	101324.9999999936
-0.4917417417417421 	299.999999999951 	1.449661624416346e-12 	101324.9999999938
-0.4892392392392395 	299.9999999999656 	9.599058113583764e-13 	101324.9999999938
-0.486736736736737 	299.9999999999661 	1.506151066444845e-12 	101324.9999999939
-0.4842342342342345 	299.9999999999361 	1.348583047061755e-12 	101324.9999999938
-0.481731731731732 	300.0000000000259 	1.870635085873959e-12 	101324.9999999937
-0.4792292292292296 	300.0000000000143 	1.568771861239295e-12 	101324.9999999935
-0.4767267267267268 	299.9999999999673 	2.906764079857618e-12 	101324.9999999933
-0.4742242242242246 	300.0000000000027 	2.314762502996006e-12 	101324.9999999932
-0.471721721721722 	299.9999999999667 	2.873090628973428e-12 	101324.9999999931
-0.4692192192192195 	299.9999999999857 	1.812260160298009e-12 	101324.9999999931
-0.4667167167167169 	299.9999999999302 	1.947915823070942e-12 	101324.999999993
-0.4642142142142145 	299.9999999999957 	1.278649552040476e-12 	101324.9999999932
-0.461711711711712 	300.0000000000139 	1.959734447722215e-12 	101324.9999999933
-0.4592092092092094 	300.0000000000061 	6.196869165732613e-13 	101324.9999999934
-0.456706706706707 	300.0000000000413 	1.98597325210617e-12 	101324.9999999934
-0.4542042042042045 	299.999999999954 	9.976662896618765e-13 	101324.9999999934
-0.451701701701702 	299.9999999999606 	1.89438100291178e-12 	101324.9999999934
-0.4491991991991995 	299.9999999999672 	4.911464900679433e-13 	101324.9999999935
-0.4466966966966969 	299.9999999999657 	1.893586902860075e-12 	101324.9999999934
-0.4441941941941945 	299.9999999999968 	7.106818608699635e-13 	101324.9999999934
-0.441691691691692 	299.9999999999688 	2.513475018972754e-12 	101324.9999999933
-0.4391891891891895 	299.9999999999914 	1.642984461985023e-12 	101324.9999999934
-0.436686686686687 	299.9999999999746 	3.843156750708201e-12 	101324.9999999932
-0.4341841841841846 	299.9999999999974 	1.948103143043047e-12 	101324.9999999932
-0.431681681681682 	299.9999999999602 	3.39728708545905e-12 	101324.9999999931
-0.4291791791791794 	299.9999999999456 	1.687694334766533e-12 	101324.9999999934
-0.426676676676677 	299.9999999999308 	1.608187603454365e-12 	101324.9999999936
-0.4241741741741744 	299.9999999999736 	2.005677443045224e-12 	101324.9999999935
-0.421671671671672 	300.0000000000036 	1.254496418469693e-12 	101324.9999999935
-0.4191691691691694 	300.0000000000378 	9.979809342950141e-13 	101324.9999999938
-0.4166666666666669 	300.0000000000448 	1.428774377578392e-12 	101324.9999999939
-0.4141641641641645 	299.9999999999501 	4.687000284466563e-13 	101324.9999999941
-0.411661661661662 	299.9999999999995 	1.233687241176345e-12 	101324.9999999938
-0.4091591591591594 	300.0000000000082 	8.258780323711268e-13 	101324.9999999935
-0.406656656656657 	299.999999999962 	1.647505695982621e-12 	101324.9999999935
-0.4041541541541545 	300.0000000000111 	6.589413930993788e-13 	101324.9999999936
-0.401651651651652 	299.9999999999432 	2.254628481355662e-12 	101324.9999999935
-0.3991491491491494 	300.0000000000063 	1.518652364777898e-12 	101324.9999999933
-0.396646646646647 	299.9999999999631 	3.367183283037415e-12 	101324.9999999932
-0.3941441441441444 	299.9999999999814 	1.908942712421415e-12 	101324.9999999932
-0.3916416416416419 	299.999999999947 	3.043999456551384e-12 	101324.9999999931
-0.3891391391391395 	299.9999999999651 	1.743540162671903e-12 	101324.999999993
-0.3866366366366368 	299.9999999999641 	1.955173349630315e-12 	101324.9999999929
-0.3841341341341344 	299.9999999999997 	9.688095843798824e-13 	101324.9999999929
-0.381631631631632 	299.9999999999561 	1.326448011315767e-12 	101324.9999999928
-0.3791291291291294 	299.999999999998 	1.021875218563278e-12 	101324.9999999928
-0.3766266266266269 	300.0000000000135 	9.187099600183756e-13 	101324.9999999925
-0.3741241241241244 	300.0000000000149 	1.50485123363958e-12 	101324.9999999924
-0.371621621621622 	300.0000000000148 	4.18700116183226e-13 	101324.9999999924
-0.3691191191191194 	300.0000000000031 	3.226980547979659e-12 	101324.9999999925
-0.366616616616617 	300.000000000002 	8.185879874728158e-13 	101324.9999999927
-0.3641141141141143 	299.9999999999803 	3.710817786373536e-12 	101324.9999999926
-0.3616116116116119 	299.999999999957 	2.231266443669597e-12 	101324.9999999928
-0.3591091091091095 	299.9999999999837 	3.307673223640851e-12 	101324.9999999926
-0.356606606606607 	299.999999999987 	2.686567296521251e-12 	101324.9999999926
-0.3541041041041044 	299.9999999999904 	2.264109014619448e-12 	101324.9999999925
-0.3516016016016019 	300.0000000000118 	2.889920656196363e-12 	101324.9999999925
-0.3490990990990994 	299.9999999999941 	1.612955593233118e-12 	101324.9999999925
-0.346596596596597 	300.0000000000274 	3.444134081552391e-12 	101324.9999999924
-0.3440940940940944 	300.0000000000327 	1.184458905912811e-12 	101324.9999999922
-0.3415915915915919 	300.0000000000167 	3.262291303306906e-12 	101324.9999999922
-0.3390890890890895 	299.999999999986 	1.88606441479277e-12 	101324.9999999924
-0.3365865865865869 	300.0000000000127 	3.555847243884346e-12 	101324.9999999924
-0.3340840840840844 	299.9999999999965 	3.299547262811445e-12 	101324.9999999924
-0.3315815815815819 	300.0000000000144 	3.988054333916622e-12 	101324.9999999926
-0.3290790790790794 	300.0000000000152 	3.660223931906686e-12 	101324.9999999928
-0.3265765765765769 	299.9999999999434 	4.578291247585737e-12 	101324.9999999927
-0.3240740740740744 	299.9999999999947 	3.55207198332842e-12 	101324.9999999927
-0.3215715715715718 	300.0000000000036 	5.354783569339311e-12 	101324.9999999925
-0.3190690690690695 	299.9999999999489 	4.185310641384368e-12 	101324.9999999924
-0.3165665665665668 	299.9999999999904 	6.072139085791352e-12 	101324.9999999926
-0.3140640640640644 	300.000000000001 	4.361182626787307e-12 	101324.9999999928
-0.311561561561562 	299.9999999999438 	6.984485743545977e-12 	101324.9999999929
-0.3090590590590593 	299.999999999993 	3.085703300430814e-12 	101324.9999999929
-0.3065565565565568 	300.0000000000036 	8.036658114741294e-12 	101324.999999993
-0.3040540540540545 	299.9999999999997 	2.9380838122273e-12 	101324.9999999928
-0.3015515515515518 	300.0000000000229 	7.363773981792113e-12 	101324.9999999927
-0.2990490490490494 	299.9999999999565 	4.299201027948005e-12 	101324.9999999927
-0.2965465465465469 	299.9999999999889 	6.109832489994956e-12 	101324.9999999928
-0.2940440440440444 	299.9999999999933 	4.893196981269246e-12 	101324.9999999928
-0.2915415415415418 	300.0000000000031 	4.947498956144457e-12 	101324.9999999927
-0.2890390390390395 	300.000000000004 	5.461174054627888e-12 	101324.9999999928
-0.2865365365365368 	299.9999999999833 	4.104968225648158e-12 	101324.9999999924
-0.2840340340340343 	299.999999999996 	5.887744360545076e-12 	101324.9999999924
-0.2815315315315318 	299.9999999999397 	2.821106334153885e-12 	101324.9999999923
-0.2790290290290295 	299.9999999999707 	4.590063105683744e-12 	101324.9999999923
-0.2765265265265269 	300.0000000000036 	3.54957938432949e-12 	101324.9999999925
-0.2740240240240244 	300.0000000000169 	4.837727895905879e-12 	101324.9999999929
-0.2715215215215219 	300.000000000009 	4.208414130074117e-12 	101324.9999999932
-0.2690190190190194 	299.9999999999567 	3.602828964043747e-12 	101324.9999999933
-0.2665165165165169 	299.9999999999981 	4.534635129857126e-12 	101324.9999999932
-0.2640140140140144 	299.9999999999783 	3.527525789602694e-12 	101324.999999993
-0.2615115115115119 	299.9999999999996 	5.763866253326426e-12 	101324.9999999926
-0.2590090090090094 	299.9999999999459 	4.049595971554761e-12 	101324.9999999925
-0.2565065065065068 	299.9999999999924 	4.925389316627521e-12 	101324.9999999925
-0.2540040040040044 	299.9999999999949 	4.659314009818094e-12 	101324.9999999928
-0.2515015015015019 	300.0000000000266 	4.123738571165284e-12 	101324.9999999928
-0.2489989989989994 	300.0000000000299 	5.533071404607247e-12 	101324.9999999928
-0.2464964964964968 	299.9999999999897 	3.230469400892789e-12 	101324.9999999927
-0.2439939939939944 	299.9999999999947 	6.589134052619417e-12 	101324.9999999928
-0.2414914914914919 	299.9999999999711 	2.789764891033115e-12 	101324.9999999927
-0.2389889889889893 	299.9999999999991 	6.387708339000141e-12 	101324.9999999928
-0.2364864864864869 	300.0000000000189 	3.215314059520369e-12 	101324.999999993
-0.2339839839839843 	299.9999999999515 	6.97124711817732e-12 	101324.9999999933
-0.2314814814814819 	299.9999999999853 	3.173552030243926e-12 	101324.9999999933
-0.2289789789789792 	299.9999999999375 	6.047643637701267e-12 	101324.9999999932
-0.2264764764764769 	299.9999999999592 	3.836717713317417e-12 	101324.9999999934
-0.2239739739739743 	299.9999999999717 	5.260475438106393e-12 	101324.9999999934
-0.2214714714714718 	299.9999999999538 	4.983951987935237e-12 	101324.9999999936
-0.2189689689689693 	299.9999999999749 	4.187656192530218e-12 	101324.9999999934
-0.2164664664664669 	299.9999999999856 	5.999073478407777e-12 	101324.9999999933
-0.2139639639639643 	299.9999999999494 	4.15778547685294e-12 	101324.9999999931
-0.2114614614614618 	299.9999999999771 	4.868825687896209e-12 	101324.9999999929
-0.2089589589589593 	299.9999999999928 	4.499759011472866e-12 	101324.9999999929
-0.2064564564564568 	299.9999999999914 	4.472003613560053e-12 	101324.9999999924
-0.2039539539539543 	299.9999999999319 	5.745764272949614e-12 	101324.9999999926
-0.2014514514514518 	299.9999999999565 	3.49672014044659e-12 	101324.9999999926
-0.1989489489489494 	299.9999999999728 	6.317319572865009e-12 	101324.9999999928
-0.1964464464464468 	299.9999999999936 	2.61041282518296e-12 	101324.999999993
-0.1939439439439443 	299.9999999999902 	5.718619697265673e-12 	101324.9999999933
-0.1914414414414418 	299.9999999999409 	3.340919127505644e-12 	101324.9999999934
-0.1889389389389393 	300.0000000000032 	4.597522978871004e-12 	101324.9999999934
-0.1864364364364368 	300.000000000028 	3.423804483618459e-12 	101324.9999999936
-0.1839339339339343 	299.9999999999823 	3.824040304680573e-12 	101324.9999999933
-0.1814314314314318 	299.9999999999959 	3.021351120665797e-12 	101324.9999999933
-0.1789289289289293 	299.9999999999256 	3.052495210674615e-12 	101324.9999999934
-0.1764264264264268 	299.9999999999856 	2.175110763047372e-12 	101324.9999999933
-0.1739239239239243 	299.999999999926 	3.463590367942163e-12 	101324.9999999934
-0.1714214214214218 	299.9999999999893 	1.91450807290967e-12 	101324.9999999937
-0.1689189189189193 	299.9999999999623 	5.32855991040813e-12 	101324.9999999937
-0.1664164164164168 	300.0000000000029 	1.474696248833569e-12 	101324.9999999935
-0.1639139139139143 	299.9999999999882 	6.507321816890499e-12 	101324.9999999936
-0.1614114114114118 	300.000000000016 	1.048000842339291e-12 	101324.9999999936
-0.1589089089089093 	299.999999999997 	7.946469055922303e-12 	101324.9999999937
-0.1564064064064068 	299.9999999999852 	2.412691954685564e-12 	101324.9999999935
-0.1539039039039043 	299.999999999992 	7.673104183885691e-12 	101324.9999999935
-0.1514014014014018 	300.0000000000184 	2.348060436001473e-12 	101324.9999999935
-0.1488988988988993 	299.9999999999912 	7.217161178105308e-12 	101324.9999999935
-0.1463963963963968 	300.0000000000015 	8.843824494309812e-13 	101324.9999999937
-0.1438938938938943 	299.9999999999684 	6.085318887091165e-12 	101324.9999999936
-0.1413913913913918 	299.9999999999449 	6.390483142216583e-13 	101324.9999999937
-0.1388888888888893 	299.9999999999835 	3.169568710753709e-12 	101324.9999999937
-0.1363863863863868 	299.9999999999188 	3.553475456022204e-13 	101324.9999999936
-0.1338838838838843 	299.9999999999399 	1.953001152441055e-12 	101324.9999999934
-0.1313813813813818 	299.9999999999949 	1.003379222551443e-12 	101324.9999999933
-0.1288788788788793 	299.9999999999708 	2.249186427929501e-12 	101324.9999999935
-0.1263763763763768 	299.9999999999778 	8.571543632724991e-13 	101324.9999999934
-0.1238738738738743 	299.9999999999491 	2.812847292471155e-12 	101324.9999999937
-0.1213713713713717 	299.9999999999885 	2.546087585764168e-13 	101324.9999999935
-0.1188688688688693 	300.0000000000076 	3.80050214791865e-12 	101324.9999999935
-0.1163663663663668 	299.9999999999316 	5.216640368778975e-13 	101324.9999999936
-0.1138638638638643 	299.9999999999933 	4.165147291297782e-12 	101324.9999999936
-0.1113613613613618 	299.9999999999885 	3.181957612473e-13 	101324.9999999936
-0.1088588588588592 	299.9999999999833 	4.994931183168254e-12 	101324.9999999935
-0.1063563563563568 	299.9999999999685 	2.874828299276301e-13 	101324.9999999934
-0.1038538538538543 	299.9999999999829 	3.963459247499379e-12 	101324.9999999934
-0.1013513513513517 	300.0000000000102 	8.412351231948146e-13 	101324.9999999932
-0.09884884884884926 	299.999999999962 	3.668578214888889e-12 	101324.999999993
-0.09634634634634676 	299.9999999999222 	1.684049043184543e-12 	101324.999999993
-0.09384384384384425 	299.999999999943 	2.674139690760378e-12 	101324.9999999932
-0.09134134134134177 	300.0000000000139 	1.968142359259748e-12 	101324.9999999932
-0.08883883883883925 	300.000000000006 	2.924323510970661e-12 	101324.999999993
-0.08633633633633674 	299.9999999999622 	2.061971304987559e-12 	101324.9999999929
-0.08383383383383426 	300.0000000000026 	1.786176990919282e-12 	101324.9999999929
-0.08133133133133173 	299.9999999999768 	1.871257059084164e-12 	101324.9999999929
-0.07882882882882926 	299.9999999999135 	9.143112327059737e-13 	101324.9999999927
-0.07632632632632676 	299.9999999999704 	5.404395991140245e-13 	101324.9999999928
-0.07382382382382424 	299.9999999999245 	3.631596150256884e-13 	101324.9999999928
-0.07132132132132173 	300.0000000000075 	3.309538086270533e-13 	101324.999999993
-0.06881881881881925 	299.9999999999704 	2.556918866842134e-13 	101324.9999999931
-0.06631631631631671 	299.9999999999204 	5.268045638527659e-13 	101324.9999999931
-0.06381381381381425 	299.9999999999666 	3.451729095129703e-13 	101324.9999999932
-0.06131131131131173 	299.9999999999669 	3.83860312406389e-13 	101324.9999999935
-0.05880880880880923 	299.9999999999407 	3.069245269068037e-13 	101324.9999999935
-0.05630630630630672 	299.9999999999748 	4.58899643040246e-14 	101324.9999999936
-0.05380380380380424 	300.0000000000114 	2.896387044392108e-13 	101324.9999999939
-0.05130130130130173 	300.0000000000067 	5.938321266077165e-13 	101324.9999999937
-0.04879879879879922 	299.9999999999596 	7.728141799636605e-13 	101324.9999999934
-0.04629629629629672 	299.9999999999512 	3.190648191288198e-13 	101324.9999999932
-0.04379379379379422 	299.9999999999378 	5.677328157164493e-13 	101324.9999999931
-0.04129129129129173 	299.9999999999831 	4.197212777883445e-13 	101324.9999999932
-0.03878878878878922 	299.9999999999872 	8.04249602675826e-13 	101324.9999999933
-0.03628628628628671 	299.9999999999845 	1.468904121259679e-13 	101324.9999999931
-0.03378378378378422 	299.9999999999475 	4.095221357387309e-13 	101324.9999999931
-0.03128128128128172 	299.9999999999774 	6.617888222635088e-13 	101324.9999999932
-0.02877877877877922 	299.9999999999758 	2.049707063455326e-13 	101324.9999999932
-0.0262762762762767 	299.9999999999262 	1.610777464346788e-13 	101324.999999993
-0.02377377377377422 	300.0000000000134 	2.381837603975693e-13 	101324.9999999929
-0.0212712712712717 	299.9999999999262 	2.362183922063015e-13 	101324.9999999928
-0.01876876876876921 	299.9999999999787 	3.593045871979662e-13 	101324.9999999932
-0.01626626626626671 	300.0000000000097 	6.524325819830598e-13 	101324.9999999933
-0.0137637637637642 	299.999999999973 	2.701291277470967e-13 	101324.9999999934
-0.0112612612612617 	300.0000000000113 	6.820223989553702e-13 	101324.9999999934
-0.008758758758759198 	299.9999999999971 	2.760921447225913e-13 	101324.9999999937
-0.006256256256256697 	299.9999999999172 	1.993327214744855e-13 	101324.9999999938
-0.003753753753754195 	299.9999999999638 	5.882794126701145e-13 	101324.9999999934
-0.001251251251251693 	299.9999999999457 	7.926311663831357e-14 	101324.9999999931
0.00125125125125081 	299.9999999999644 	4.303026489570853e-13 	101324.9999999928
0.003753753753753312 	299.9999999999736 	5.805512464177099e-14 	101324.9999999928
0.006256256256255817 	299.9999999999169 	4.922287788640721e-13 	101324.9999999929
0.008758758758758317 	299.9999999999903 	2.275731293564554e-13 	101324.999999993
0.01126126126126082 	300.0000000000064 	5.945049708706934e-14 	101324.9999999931
0.01376376376376332 	299.9999999999762 	1.91454557224926e-14 	101324.9999999934
0.01626626626626582 	300.0000000000063 	5.223477961625723e-13 	101324.9999999934
0.01876876876876833 	299.9999999999662 	8.040191649410133e-13 	101324.9999999937
0.02127127127127083 	299.9999999999763 	9.748510177481902e-13 	101324.9999999937
0.02377377377377332 	299.9999999999962 	8.170365291579544e-13 	101324.9999999939
0.02627627627627583 	299.9999999999316 	7.420968450272961e-13 	101324.9999999938
0.02877877877877833 	300.0000000000048 	8.356249624741971e-13 	101324.9999999939
0.03128128128128083 	299.9999999999589 	3.499384834151029e-13 	101324.9999999935
0.03378378378378333 	299.9999999999287 	1.25714900923964e-12 	101324.9999999933
0.03628628628628584 	299.99999999998 	1.326904704966924e-12 	101324.9999999932
0.03878878878878834 	299.9999999999853 	1.359134168774815e-12 	101324.9999999935
0.04129129129129084 	299.999999999982 	1.507139425543918e-12 	101324.9999999935
0.04379379379379333 	299.9999999999542 	1.250199722649571e-12 	101324.9999999934
0.04629629629629585 	299.9999999999167 	8.414298248303646e-13 	101324.9999999931
0.04879879879879834 	299.9999999999662 	8.022364096470222e-13 	101324.9999999931
0.05130130130130085 	300.0000000000095 	3.109955914035902e-13 	101324.9999999933
0.05380380380380335 	300.0000000000123 	5.784507833990219e-13 	101324.9999999933
0.05630630630630584 	299.9999999999906 	8.543139064496932e-13 	101324.9999999929
0.05880880880880836 	299.9999999999417 	5.727111979599196e-13 	101324.9999999929
0.06131131131131085 	299.9999999999819 	5.225368371204645e-13 	101324.9999999932
0.06381381381381336 	299.9999999999735 	9.431780820776371e-13 	101324.9999999933
0.06631631631631586 	299.9999999999185 	9.948238873645845e-13 	101324.9999999934
0.06881881881881835 	299.9999999999617 	1.166534198346433e-13 	101324.9999999932
0.07132132132132088 	299.99999999999 	1.351513518835008e-13 	101324.999999993
0.07382382382382337 	299.9999999999298 	4.562809845219869e-13 	101324.9999999931
0.07632632632632587 	299.9999999999781 	1.145165205436743e-12 	101324.9999999932
0.07882882882882837 	299.9999999999552 	6.187138444651066e-13 	101324.9999999931
0.08133133133133086 	299.9999999999901 	1.417247234200014e-12 	101324.9999999931
0.08383383383383337 	299.9999999999887 	1.612594114706319e-12 	101324.9999999932
0.08633633633633589 	299.9999999999311 	1.950677433197294e-12 	101324.999999993
0.08883883883883838 	300.0000000000085 	2.21181856899948e-12 	101324.9999999929
0.09134134134134086 	299.999999999992 	1.819663567362281e-12 	101324.9999999931
0.09384384384384339 	299.9999999999237 	2.833754843199144e-12 	101324.9999999933
0.09634634634634588 	299.9999999999746 	2.944223468819189e-12 	101324.9999999934
0.09884884884884838 	299.9999999999789 	2.772081716581855e-12 	101324.9999999933
0.1013513513513509 	300.0000000000142 	2.321401074964016e-12 	101324.9999999932
0.1038538538538534 	299.9999999999616 	2.299940548995865e-12 	101324.9999999931
0.1063563563563559 	300.0000000000099 	3.092758441053489e-12 	101324.9999999931
0.1088588588588584 	300.0000000000201 	2.436017490185702e-12 	101324.9999999931
0.1113613613613609 	299.9999999999432 	2.385891286940783e-12 	101324.9999999933
0.1138638638638634 	299.9999999999594 	2.075442183800226e-12 	101324.9999999931
0.1163663663663659 	299.999999999957 	2.172066372060906e-12 	101324.9999999931
0.1188688688688684 	299.9999999999752 	2.353792133180816e-12 	101324.9999999935
0.1213713713713709 	299.9999999999942 	2.161963537816544e-12 	101324.9999999933
0.1238738738738734 	299.9999999999435 	2.26044516384167e-12 	101324.9999999933
0.1263763763763759 	299.9999999999873 	2.430349848326597e-12 	101324.9999999933
0.1288788788788784 	299.9999999999891 	2.509867610878833e-12 	101324.9999999932
0.1313813813813809 	299.9999999999881 	2.881155659092943e-12 	101324.9999999935
0.1338838838838834 	299.9999999999804 	2.774886804142825e-12 	101324.9999999934
0.1363863863863859 	300.0000000000197 	3.128916791168449e-12 	101324.9999999934
0.1388888888888884 	300.0000000000333 	2.767498281424328e-12 	101324.9999999933
0.1413913913913909 	299.9999999999998 	2.337323199424141e-12 	101324.9999999932
0.1438938938938934 	299.9999999999948 	2.759756331268706e-12 	101324.9999999934
0.1463963963963959 	299.9999999999695 	2.695908011270475e-12 	101324.9999999934
0.1488988988988985 	299.9999999999348 	3.653560860498398e-12 	101324.9999999932
0.1514014014014009 	299.9999999999715 	2.81242440203406e-12 	101324.9999999932
0.1539039039039035 	299.9999999999704 	4.202531477316047e-12 	101324.9999999931
0.1564064064064059 	299.9999999999567 	1.884384171198098e-12 	101324.9999999932
0.1589089089089084 	299.999999999986 	5.180070613253465e-12 	101324.9999999933
0.1614114114114109 	299.9999999999818 	2.771335417838501e-12 	101324.9999999934
0.1639139139139134 	299.9999999999298 	4.843275578967208e-12 	101324.9999999933
0.166416416416416 	300.0000000000045 	4.410814661292835e-12 	101324.9999999933
0.1689189189189185 	300.0000000000182 	4.39398746137115e-12 	101324.9999999936
0.1714214214214209 	299.9999999999932 	4.69974702664582e-12 	101324.9999999936
0.1739239239239235 	299.9999999999873 	3.14788683854324e-12 	101324.9999999938
0.1764264264264259 	299.999999999975 	4.795242339470579e-12 	101324.9999999938
0.1789289289289284 	300.0000000000005 	2.167892533600428e-12 	101324.9999999937
0.181431431431431 	299.9999999999696 	4.482142303845993e-12 	101324.9999999935
0.1839339339339334 	299.9999999999746 	2.191146796926212e-12 	101324.9999999931
0.186436436436436 	299.9999999999443 	3.991579108912811e-12 	101324.9999999931
0.1889389389389385 	299.999999999985 	3.611229113525595e-12 	101324.9999999931
0.191441441441441 	299.9999999999829 	3.188647948665012e-12 	101324.9999999931
0.1939439439439434 	299.9999999999413 	4.819928749957511e-12 	101324.9999999932
0.196446446446446 	299.9999999999632 	3.282301832438603e-12 	101324.9999999931
0.1989489489489485 	299.999999999973 	5.519782323743524e-12 	101324.9999999929
0.2014514514514509 	299.9999999999876 	3.344667076948811e-12 	101324.999999993
0.2039539539539535 	299.9999999999942 	5.039694812973332e-12 	101324.999999993
0.2064564564564559 	299.9999999999672 	4.32508850257704e-12 	101324.9999999929
0.2089589589589585 	299.9999999999885 	5.19311767014625e-12 	101324.9999999931
0.211461461461461 	299.9999999999476 	5.591537814483554e-12 	101324.9999999928
0.2139639639639635 	299.9999999999852 	5.258383850481353e-12 	101324.9999999926
0.2164664664664659 	299.9999999999985 	5.532800670264788e-12 	101324.9999999926
0.2189689689689684 	299.9999999999978 	2.819876067407762e-12 	101324.9999999929
0.221471471471471 	299.9999999999926 	4.326861936271614e-12 	101324.9999999931
0.2239739739739735 	299.9999999999663 	1.740197412764961e-12 	101324.9999999931
0.226476476476476 	299.9999999999844 	3.137148402074996e-12 	101324.999999993
0.2289789789789785 	299.9999999999922 	1.893245898310824e-12 	101324.9999999928
0.231481481481481 	299.9999999999914 	1.980014015035253e-12 	101324.9999999929
0.2339839839839835 	299.9999999999905 	3.101142167413135e-12 	101324.999999993
0.236486486486486 	300.000000000016 	3.093420765670169e-12 	101324.9999999932
0.2389889889889885 	300.0000000000013 	5.362538739665092e-12 	101324.9999999931
0.241491491491491 	299.9999999999448 	3.901495580928621e-12 	101324.9999999929
0.2439939939939935 	299.9999999999821 	7.181841317939198e-12 	101324.9999999927
0.246496496496496 	299.9999999999925 	4.591726255966649e-12 	101324.9999999928
0.2489989989989985 	300.0000000000251 	6.30638642876742e-12 	101324.9999999928
0.251501501501501 	300.000000000021 	5.395316235782491e-12 	101324.9999999927
0.2540040040040035 	299.9999999999924 	4.897099832176429e-12 	101324.9999999925
0.256506506506506 	300.0000000000167 	5.089664258719272e-12 	101324.9999999928
0.2590090090090086 	299.999999999932 	3.289438908288852e-12 	101324.9999999927
0.261511511511511 	299.9999999999986 	5.425252376872638e-12 	101324.9999999927
0.2640140140140135 	299.9999999999933 	2.265888347136602e-12 	101324.9999999926
0.2665165165165161 	299.999999999949 	3.757767943677134e-12 	101324.9999999926
0.2690190190190185 	300.0000000000035 	1.955848941325568e-12 	101324.9999999925
0.271521521521521 	300.0000000000039 	1.630799132404788e-12 	101324.9999999924
0.2740240240240235 	300.0000000000103 	1.107077597603469e-12 	101324.9999999925
0.276526526526526 	300.0000000000046 	2.752249072205292e-13 	101324.9999999927
0.2790290290290286 	299.999999999958 	1.584857498598893e-12 	101324.9999999926
0.281531531531531 	299.9999999999444 	5.61946533714921e-13 	101324.9999999926
0.2840340340340335 	299.9999999999814 	2.380619118085232e-12 	101324.9999999927
0.2865365365365361 	299.9999999999693 	1.285329251788406e-12 	101324.9999999926
0.2890390390390385 	299.9999999999969 	2.719456658134316e-12 	101324.9999999924
0.291541541541541 	299.9999999999969 	2.366954208350039e-12 	101324.9999999924
0.2940440440440436 	299.999999999993 	2.011793206437085e-12 	101324.9999999926
0.296546546546546 	299.9999999999945 	2.847208198023008e-12 	101324.9999999925
0.2990490490490486 	299.9999999999498 	7.666218935994361e-13 	101324.9999999928
0.3015515515515511 	300.0000000000214 	3.934481351983884e-12 	101324.9999999927
0.3040540540540535 	299.9999999999941 	1.933574195670866e-12 	101324.9999999928
0.3065565565565562 	299.999999999997 	4.133787296869092e-12 	101324.9999999929
0.3090590590590585 	299.9999999999914 	2.101661154344103e-12 	101324.9999999929
0.3115615615615611 	299.9999999999556 	2.748929906495855e-12 	101324.9999999932
0.3140640640640635 	300.0000000000038 	5.584029711679786e-13 	101324.9999999932
0.316566566566566 	299.9999999999942 	3.599109699637099e-12 	101324.9999999932
0.3190690690690687 	299.9999999999644 	2.595872999591657e-12 	101324.9999999931
0.3215715715715711 	300.0000000000095 	4.442658678984617e-12 	101324.999999993
0.3240740740740735 	299.999999999999 	2.801595574582044e-12 	101324.999999993
0.326576576576576 	299.9999999999309 	3.937214765395062e-12 	101324.9999999928
0.3290790790790786 	300.0000000000019 	3.406068753573619e-12 	101324.9999999928
0.3315815815815811 	300.0000000000246 	3.585740897275516e-12 	101324.9999999931
0.3340840840840836 	299.9999999999907 	2.997643220559488e-12 	101324.9999999933
0.3365865865865861 	300.0000000000378 	3.421120267845088e-12 	101324.999999993
0.3390890890890886 	300.0000000000357 	2.180707503653826e-12 	101324.999999993
0.3415915915915911 	300.000000000001 	2.909888358538452e-12 	101324.9999999931
0.3440940940940935 	299.9999999999615 	1.324828030107035e-12 	101324.999999993
0.3465965965965962 	300.0000000000254 	2.610337557606338e-12 	101324.9999999932
0.3490990990990985 	300.0000000000198 	2.570058424457576e-13 	101324.9999999933
0.3516016016016011 	299.9999999999907 	8.4779126510216e-13 	101324.9999999933
0.3541041041041035 	300.0000000000039 	4.926742037799693e-13 	101324.9999999933
0.3566066066066061 	299.9999999999688 	6.507438789745487e-13 	101324.9999999933
0.3591091091091085 	299.9999999999447 	2.25444148600523e-12 	101324.9999999932
0.3616116116116112 	299.9999999999558 	1.715514848462172e-12 	101324.9999999932
0.3641141141141137 	299.9999999999493 	3.78615152328976e-12 	101324.9999999929
0.3666166166166161 	299.9999999999466 	1.236476188138179e-12 	101324.9999999929
0.3691191191191185 	300.0000000000272 	4.271508279117245e-12 	101324.9999999927
0.371621621621621 	300.0000000000076 	7.87396904214658e-13 	101324.9999999927
0.3741241241241237 	300.0000000000314 	2.549831381316174e-12 	101324.9999999926
0.3766266266266261 	300.0000000000181 	5.634925188370259e-13 	101324.9999999927
0.3791291291291286 	299.9999999999878 	1.439512055352743e-12 	101324.9999999927
0.3816316316316311 	299.9999999999419 	7.671728998039176e-13 	101324.9999999927
0.3841341341341336 	300.0000000000052 	1.450944382001387e-12 	101324.9999999927
0.3866366366366362 	299.9999999999969 	4.237039379600399e-13 	101324.9999999925
0.3891391391391387 	299.9999999999666 	1.091391569775705e-12 	101324.9999999925
0.391641641641641 	299.9999999999933 	5.301709551647161e-13 	101324.9999999926
0.3941441441441436 	300.0000000000064 	1.301414242777978e-12 	101324.9999999925
0.3966466466466462 	300.0000000000002 	5.174244100251061e-13 	101324.9999999925
0.3991491491491486 	299.9999999999645 	1.078555380399898e-12 	101324.9999999927
0.4016516516516512 	299.9999999999421 	5.785849068473428e-13 	101324.999999993
0.4041541541541536 	299.9999999999631 	1.874101045723801e-12 	101324.999999993
0.4066566566566561 	299.9999999999627 	5.136969976048911e-13 	101324.999999993
0.4091591591591587 	299.9999999999953 	1.511903839871876e-12 	101324.9999999931
0.4116616616616612 	300.0000000000053 	2.04163741435809e-13 	101324.999999993
0.4141641641641635 	300.0000000000265 	9.864056103515098e-13 	101324.9999999931
0.4166666666666662 	299.9999999999967 	6.323978499118627e-13 	101324.9999999931
0.4191691691691687 	299.9999999999583 	7.05176770301209e-13 	101324.9999999933
0.421671671671671 	300.0000000000063 	2.119465506164345e-12 	101324.9999999932
0.4241741741741737 	299.999999999979 	1.936595034477188e-12 	101324.9999999933
0.4266766766766761 	299.9999999999614 	2.755414574096372e-12 	101324.9999999932
0.4291791791791785 	300.000000000014 	2.500066332501816e-12 	101324.9999999932
0.4316816816816812 	300.0000000000063 	2.985772262906167e-12 	101324.9999999929
0.4341841841841836 	299.9999999999842 	2.790753699319888e-12 	101324.9999999927
0.4366866866866862 	299.9999999999428 	1.590394677545336e-12 	101324.9999999925
0.4391891891891885 	299.9999999999945 	1.67314046886533e-12 	101324.9999999924
0.4416916916916913 	299.9999999999858 	1.19797267206936e-12 	101324.9999999926
0.4441941941941936 	299.9999999999894 	1.119608298678385e-12 	101324.9999999926
0.4466966966966961 	299.999999999942 	5.916428356799459e-13 	101324.9999999928
0.4491991991991987 	299.9999999999893 	1.175472849993876e-12 	101324.999999993
0.4517017017017012 	299.9999999999883 	1.398579553029334e-12 	101324.9999999931
0.4542042042042035 	299.9999999999902 	1.043462778497015e-12 	101324.9999999934
0.4567067067067062 	299.9999999999977 	1.790296421912331e-12 	101324.9999999934
0.4592092092092087 	299.9999999999488 	1.804465367016745e-12 	101324.9999999932
0.4617117117117112 	300.0000000000151 	2.595053102173613e-12 	101324.9999999931
0.4642142142142137 	299.9999999999751 	2.811484782844514e-12 	101324.999999993
0.4667167167167162 	299.9999999999949 	2.591547378141768e-12 	101324.9999999931
0.4692192192192187 	299.9999999999694 	2.629934200380618e-12 	101324.9999999929
0.4717217217217212 	300.0000000000078 	2.570591652545197e-12 	101324.999999993
0.4742242242242236 	299.9999999999703 	2.687087267488559e-12 	101324.999999993
0.4767267267267262 	299.9999999999808 	2.078290332201653e-12 	101324.999999993
0.4792292292292287 	300.000000000014 	2.368007723363547e-12 	101324.9999999932
0.4817317317317312 	300.0000000000255 	2.095626100962814e-12 	101324.9999999934
0.4842342342342336 	299.9999999999891 	1.716740882804084e-12 	101324.9999999934
0.4867367367367362 	299.9999999999679 	1.757239702990851e-12 	101324.9999999936
0.4892392392392387 	300.0000000000204 	9.493618565242033e-13 	101324.9999999936
0.4917417417417412 	300.0000000000044 	2.134268555114629e-12 	101324.9999999935
0.4942442442442437 	299.9999999999337 	1.352690245039706e-12 	101324.9999999935
0.4967467467467462 	299.9999999999476 	2.574378964481839e-12 	101324.9999999934
0.4992492492492487 	299.9999999999444 	6.478893507307689e-13 	101324.9999999933
0.5017517517517511 	299.9999999999684 	1.884369502139006e-12 	101324.9999999931
0.5042542542542537 	299.9999999999743 	1.313227155315581e-12 	101324.999999993
0.5067567567567562 	299.9999999999623 	1.6383288910692e-12 	101324.9999999928
0.5092592592592589 	299.9999999999811 	1.914860394936443e-12 	101324.9999999928
0.5117617617617611 	299.9999999999708 	1.418297335376902e-12 	101324.9999999929
0.5142642642642637 	299.9999999999886 	2.894009493281014e-12 	101324.9999999929
0.5167667667667663 	299.9999999999788 	1.514896527602136e-12 	101324.999999993
0.5192692692692688 	299.9999999999449 	4.449860540616727e-12 	101324.999999993
0.5217717717717714 	299.9999999999549 	2.24711799963538e-12 	101324.9999999932
0.5242742742742736 	299.9999999999561 	3.667040087313735e-12 	101324.9999999936
0.5267767767767763 	299.9999999999703 	1.704216161576422e-12 	101324.9999999938
0.5292792792792789 	299.999999999957 	2.04080720583212e-12 	101324.9999999936
0.5317817817817813 	299.9999999999376 	1.160341740622921e-12 	101324.9999999934
0.5342842842842837 	300.0000000000124 	9.250570907199433e-13 	101324.9999999934
0.5367867867867864 	300.0000000000007 	7.100594094850287e-13 	101324.9999999934
0.5392892892892888 	299.9999999999699 	5.312978195136698e-13 	101324.9999999933
0.5417917917917912 	300 	4.899037310396249e-13 	101324.9999999935
0.5442942942942938 	299.9999999999876 	9.487464547271845e-13 	101324.9999999936
0.5467967967967964 	299.999999999971 	1.041309186108396e-12 	101324.9999999937
0.5492992992992988 	299.9999999999621 	1.908448273363174e-12 	101324.9999999937
0.5518018018018012 	299.9999999999545 	1.46142309049255e-12 	101324.9999999938
0.5543043043043039 	300.0000000000153 	2.028830803498926e-12 	101324.9999999938
0.5568068068068063 	299.9999999999932 	1.775283198662013e-12 	101324.9999999938
0.5593093093093087 	299.9999999999322 	2.30444380421279e-12 	101324.9999999937
0.5618118118118114 	299.9999999999733 	7.942061931271324e-13 	101324.9999999935
0.5643143143143137 	299.9999999999574 	1.599567397507494e-12 	101324.9999999934
0.5668168168168163 	299.9999999999939 	9.817157994978882e-13 	101324.9999999936
0.5693193193193188 	300.000000000025 	1.515555626155923e-12 	101324.9999999935
0.5718218218218213 	300.0000000000207 	1.404476243114524e-12 	101324.9999999935
0.5743243243243239 	300.0000000000067 	1.040985052640588e-12 	101324.9999999933
0.5768268268268262 	300.0000000000055 	2.285408430173561e-12 	101324.9999999933
0.5793293293293288 	299.9999999999656 	1.840419313212165e-12 	101324.9999999936
0.5818318318318314 	299.9999999999445 	2.953861047071591e-12 	101324.9999999938
0.5843343343343338 	299.9999999999861 	2.413541924597288e-12 	101324.9999999939
0.5868368368368363 	299.9999999999814 	2.581631626189646e-12 	101324.9999999938
0.5893393393393387 	299.9999999999617 	1.225473797730688e-12 	101324.9999999939
0.5918418418418413 	299.9999999999594 	2.012796068641165e-12 	101324.9999999939
0.5943443443443439 	300.0000000000105 	9.311774301471907e-13 	101324.999999994
0.5968468468468463 	300.0000000000123 	1.912195200114248e-12 	101324.9999999938
0.5993493493493487 	300.0000000000321 	1.088997258364211e-12 	101324.9999999936
0.6018518518518514 	299.999999999985 	1.704926212785696e-12 	101324.9999999935
0.6043543543543537 	299.9999999999957 	1.183989355167599e-12 	101324.9999999936
0.6068568568568564 	299.999999999988 	1.786499460137929e-12 	101324.9999999937
0.6093593593593587 	299.9999999999546 	1.571569092362392e-12 	101324.9999999939
0.6118618618618614 	299.9999999999473 	1.816663226191446e-12 	101324.9999999941
0.6143643643643638 	300.0000000000078 	1.524776960009396e-12 	101324.9999999943
0.6168668668668662 	299.999999999987 	2.432305471758162e-12 	101324.9999999942
0.6193693693693688 	299.9999999999702 	8.608389117860408e-13 	101324.9999999942
0.6218718718718714 	299.999999999978 	2.083056863615273e-12 	101324.9999999942
0.6243743743743737 	299.9999999999561 	7.814457545011986e-13 	101324.9999999941
0.6268768768768762 	299.999999999946 	1.878986572417052e-12 	101324.999999994
0.629379379379379 	299.999999999962 	1.276253494328836e-12 	101324.999999994
0.6318818818818812 	299.9999999999771 	2.299701457765919e-12 	101324.9999999939
0.6343843843843838 	300.0000000000122 	2.025538120573854e-12 	101324.9999999938
0.6368868868868864 	299.9999999999873 	1.834133561331442e-12 	101324.9999999937
0.6393893893893888 	299.9999999999452 	2.910198306109571e-12 	101324.9999999934
0.6418918918918912 	300.0000000000044 	2.144343613026336e-12 	101324.9999999932
0.6443943943943939 	299.9999999999865 	3.672561173008706e-12 	101324.9999999932
0.6468968968968963 	299.9999999999861 	2.698659815210315e-12 	101324.9999999933
0.6493993993993988 	299.9999999999827 	3.579479644817641e-12 	101324.9999999931
0.6519019019019012 	299.9999999999774 	1.556655841680436e-12 	101324.9999999934
0.6544044044044038 	299.9999999999326 	3.798976156914018e-12 	101324.9999999938
0.6569069069069065 	299.9999999999698 	1.321747406880715e-12 	101324.9999999941
0.6594094094094087 	299.9999999999753 	2.748407597850839e-12 	101324.9999999942
0.6619119119119113 	299.9999999999659 	1.339569814698528e-12 	101324.9999999943
0.664414414414414 	300.0000000000018 	2.575938824515929e-12 	101324.9999999943
0.6669169169169162 	300.0000000000156 	1.664474593160011e-12 	101324.9999999943
0.6694194194194188 	299.9999999999917 	2.515965108755692e-12 	101324.9999999941
0.6719219219219214 	299.9999999999484 	1.652013592645652e-12 	101324.9999999939
0.674424424424424 	299.9999999999818 	2.281097387651316e-12 	101324.999999994
0.6769269269269262 	299.9999999999415 	1.818989413656272e-12 	101324.999999994
0.679429429429429 	300.0000000000047 	2.43587891976293e-12 	101324.9999999939
0.6819319319319311 	299.9999999999868 	2.246903190700362e-12 	101324.9999999938
0.6844344344344341 	299.9999999999951 	3.297353183533445e-12 	101324.999999994
0.686936936936936 	299.9999999999916 	2.505586631952935e-12 	101324.9999999942
0.6894394394394392 	299.9999999999873 	3.296412615611218e-12 	101324.999999994
0.6919419419419413 	299.9999999999915 	2.609042355643045e-12 	101324.9999999939
0.694444444444444 	299.9999999999635 	2.39337914840212e-12 	101324.9999999938
0.6969469469469463 	299.9999999999531 	2.273476627502498e-12 	101324.999999994
0.6994494494494489 	299.999999999943 	1.527927141470521e-12 	101324.9999999941
0.7019519519519515 	299.9999999999885 	1.938468114098705e-12 	101324.999999994
0.7044544544544538 	299.9999999999615 	1.168634611435604e-12 	101324.9999999939
0.7069569569569564 	299.999999999996 	2.46105439699285e-12 	101324.999999994
0.7094594594594589 	299.9999999999749 	9.635886638301581e-13 	101324.9999999939
0.7119619619619615 	299.9999999999395 	1.962197796508452e-12 	101324.9999999939
0.7144644644644638 	299.9999999999662 	6.02303410018963e-13 	101324.999999994
0.7169669669669665 	299.9999999999462 	1.317101865195093e-12 	101324.999999994
0.7194694694694688 	299.9999999999952 	5.86471276951482e-13 	101324.999999994
0.7219719719719715 	299.9999999999928 	1.505108989822307e-12 	101324.9999999939
0.7244744744744737 	300.0000000000017 	1.577650271041894e-12 	101324.9999999938
0.7269769769769764 	299.999999999996 	1.677045781922917e-12 	101324.9999999938
0.7294794794794791 	299.9999999999906 	2.577134551890099e-12 	101324.9999999939
0.7319819819819813 	299.9999999999882 	1.643684616915066e-12 	101324.9999999938
0.7344844844844839 	299.9999999999454 	2.974728056117658e-12 	101324.9999999938
0.7369869869869864 	299.9999999999661 	2.123159734575374e-12 	101324.999999994
0.739489489489489 	299.9999999999565 	2.332511902173219e-12 	101324.9999999938
0.7419919919919914 	299.9999999999489 	1.998335620974649e-12 	101324.9999999939
0.7444944944944939 	299.9999999999847 	1.225404401681979e-12 	101324.999999994
0.7469969969969963 	299.9999999999805 	2.720533132568173e-12 	101324.9999999938
0.7494994994994989 	299.9999999999604 	1.844531023671952e-12 	101324.9999999937
0.7520020020020015 	299.9999999999773 	2.691185211121715e-12 	101324.9999999936
0.7545045045045039 	299.9999999999767 	1.547752459163818e-12 	101324.9999999936
0.7570070070070062 	299.9999999999584 	1.535360117375392e-12 	101324.9999999937
0.7595095095095092 	299.999999999948 	1.281806828144008e-12 	101324.9999999937
0.7620120120120112 	300.0000000000033 	7.549650764261511e-13 	101324.9999999936
0.7645145145145138 	299.9999999999906 	8.314094172882813e-13 	101324.9999999937
0.7670170170170165 	299.9999999999513 	1.341867984752061e-12 	101324.9999999938
0.7695195195195191 	299.9999999999445 	1.45545786879814e-12 	101324.9999999939
0.7720220220220213 	299.9999999999569 	1.899866755875725e-12 	101324.9999999939
0.7745245245245239 	299.999999999959 	1.0054370089677e-12 	101324.9999999938
0.7770270270270263 	299.9999999999797 	1.785875922405005e-12 	101324.9999999938
0.779529529529529 	299.9999999999862 	6.372764400105876e-13 	101324.9999999939
0.7820320320320313 	299.9999999999814 	9.286244829726304e-13 	101324.999999994
0.784534534534534 	299.9999999999968 	8.136869627300138e-13 	101324.9999999941
0.7870370370370364 	299.9999999999936 	1.107191453686026e-12 	101324.9999999943
0.7895395395395389 	299.9999999999828 	1.58657559389555e-12 	101324.9999999943
0.7920420420420413 	299.9999999999803 	1.809463986653685e-12 	101324.9999999944
0.794544544544544 	299.9999999999833 	2.94768447748384e-12 	101324.9999999944
0.7970470470470463 	300.0000000000017 	2.075839979989919e-12 	101324.9999999945
0.799549549549549 	299.999999999989 	3.116888570631105e-12 	101324.9999999944
0.8020520520520515 	299.9999999999936 	1.552959618365262e-12 	101324.9999999944
0.8045545545545539 	299.9999999999634 	3.638168981626986e-12 	101324.9999999945
0.8070570570570563 	299.9999999999899 	3.081352729344779e-12 	101324.9999999946
0.8095595595595589 	299.9999999999739 	3.758283970054169e-12 	101324.9999999946
0.8120620620620614 	299.9999999999574 	3.4908328677125e-12 	101324.9999999948
0.8145645645645638 	299.999999999998 	2.988241345045175e-12 	101324.9999999947
0.8170670670670666 	299.9999999999944 	3.26873662595209e-12 	101324.9999999946
0.8195695695695689 	299.9999999999839 	2.175813529721845e-12 	101324.9999999947
0.8220720720720714 	299.9999999999627 	3.955262766557914e-12 	101324.9999999946
0.8245745745745739 	299.999999999997 	2.57120212992071e-12 	101324.9999999945
0.8270770770770765 	299.9999999999861 	4.090448097798519e-12 	101324.9999999945
0.8295795795795788 	299.9999999999651 	3.375765549600404e-12 	101324.9999999944
0.8320820820820815 	300.0000000000111 	4.415833864589882e-12 	101324.9999999944
0.834584584584584 	300.000000000003 	4.30352356100571e-12 	101324.9999999945
0.8370870870870865 	299.9999999999732 	4.184782839107237e-12 	101324.9999999946
0.8395895895895891 	299.9999999999452 	4.530742504413732e-12 	101324.9999999946
0.8420920920920915 	299.999999999958 	3.73147497891315e-12 	101324.9999999947
0.844594594594594 	299.999999999954 	4.180911008717179e-12 	101324.9999999947
0.8470970970970964 	299.9999999999602 	4.576445525880827e-12 	101324.999999995
0.8495995995995991 	299.9999999999885 	4.944944173287122e-12 	101324.9999999951
0.8521021021021015 	299.9999999999851 	5.69775207301502e-12 	101324.999999995
0.8546046046046039 	299.9999999999858 	5.478417025409721e-12 	101324.999999995
0.8571071071071066 	299.9999999999982 	5.928074551860026e-12 	101324.9999999951
0.8596096096096089 	299.9999999999712 	3.824653052368734e-12 	101324.9999999949
0.8621121121121116 	299.9999999999473 	5.78338438514435e-12 	101324.9999999948
0.8646146146146139 	299.9999999999906 	3.966028710160763e-12 	101324.9999999947
0.8671171171171166 	299.9999999999808 	5.113777317767617e-12 	101324.9999999947
0.8696196196196189 	299.9999999999648 	4.973560730036387e-12 	101324.9999999947
0.8721221221221216 	299.9999999999806 	5.700797806098566e-12 	101324.9999999947
0.874624624624624 	300.000000000003 	5.336991363972815e-12 	101324.9999999946
0.8771271271271264 	300.0000000000015 	4.951516301531082e-12 	101324.9999999947
0.879629629629629 	300.0000000000026 	5.789053000385065e-12 	101324.9999999947
0.8821321321321317 	299.9999999999865 	4.672475461007019e-12 	101324.9999999946
0.8846346346346339 	299.9999999999442 	6.895206720501779e-12 	101324.9999999946
0.8871371371371364 	299.9999999999679 	5.52803060855944e-12 	101324.9999999948
0.8896396396396391 	299.999999999976 	6.867773772248928e-12 	101324.9999999952
0.8921421421421414 	299.9999999999758 	5.927023427853659e-12 	101324.9999999953
0.8946446446446441 	299.9999999999861 	6.274128710659428e-12 	101324.9999999953
0.8971471471471464 	299.9999999999999 	5.893078914758487e-12 	101324.9999999953
0.8996496496496489 	299.9999999999865 	5.567813670998584e-12 	101324.9999999953
0.9021521521521517 	299.9999999999779 	6.513172286145435e-12 	101324.9999999954
0.9046546546546541 	299.9999999999967 	5.861202913279651e-12 	101324.9999999955
0.9071571571571564 	299.9999999999675 	6.329092103415817e-12 	101324.9999999954
0.9096596596596589 	299.9999999999657 	6.110279260280601e-12 	101324.9999999954
0.9121621621621616 	300.0000000000058 	5.958278710971022e-12 	101324.9999999955
0.9146646646646639 	299.9999999999839 	5.739939416531166e-12 	101324.9999999955
0.9171671671671666 	299.9999999999611 	5.933984981591396e-12 	101324.9999999955
0.9196696696696689 	299.9999999999993 	6.569122201247177e-12 	101324.9999999956
0.9221721721721714 	300.0000000000008 	5.304664548942202e-12 	101324.9999999955
0.9246746746746741 	299.9999999999624 	6.938733136569251e-12 	101324.9999999955
0.9271771771771765 	299.9999999999657 	5.16116122587276e-12 	101324.9999999955
0.9296796796796791 	299.9999999999963 	6.748866848513997e-12 	101324.9999999956
0.9321821821821816 	299.9999999999837 	5.870370812842702e-12 	101324.9999999957
0.9346846846846838 	299.9999999999679 	6.895412600963379e-12 	101324.9999999956
0.9371871871871866 	300.0000000000123 	6.401325975143657e-12 	101324.9999999955
0.9396896896896891 	300.0000000000119 	6.406041727775791e-12 	101324.9999999955
0.9421921921921914 	300.0000000000077 	6.854879568246553e-12 	101324.9999999954
0.9446946946946939 	299.9999999999772 	6.156542424902459e-12 	101324.9999999954
0.9471971971971965 	299.9999999999461 	7.730832124602255e-12 	101324.9999999954
0.9496996996996991 	299.9999999999694 	6.032571054579699e-12 	101324.9999999953
0.9522022022022016 	299.9999999999795 	7.309271531904362e-12 	101324.9999999952
0.9547047047047038 	299.9999999999798 	6.520839537516113e-12 	101324.9999999953
0.9572072072072064 	299.9999999999724 	7.110802768338533e-12 	101324.9999999955
0.9597097097097093 	299.9999999999732 	6.972868172293671e-12 	101324.9999999957
0.9622122122122114 	299.9999999999688 	6.986188855826514e-12 	101324.9999999958
0.964714714714714 	299.9999999999651 	8.024051018490137e-12 	101324.9999999958
0.9672172172172167 	299.9999999999688 	7.462768007822718e-12 	101324.9999999958
0.969719719719719 	299.999999999991 	8.045601557212349e-12 	101324.9999999957
0.9722222222222214 	299.9999999999824 	7.662474701158666e-12 	101324.9999999954
0.9747247247247239 	299.9999999999802 	7.719323330791403e-12 	101324.9999999953
0.9772272272272267 	300.0000000000008 	7.103181103762754e-12 	101324.9999999954
0.9797297297297292 	299.9999999999893 	6.492317706220178e-12 	101324.9999999954
0.9822322322322313 	299.9999999999927 	7.12104471473337e-12 	101324.9999999955
0.9847347347347344 	299.9999999999926 	6.289297052641196e-12 	101324.9999999957
0.9872372372372363 	299.9999999999645 	8.320377035998685e-12 	101324.9999999959
0.9897397397397389 	299.9999999999817 	6.906428317532852e-12 	101324.9999999959
0.9922422422422417 	299.9999999999693 	8.875891838338614e-12 	101324.999999996
0.9947447447447441 	299.9999999999676 	8.273098570797669e-12 	101324.999999996
0.9972472472472468 	299.9999999999732 	9.253274852434592e-12 	101324.9999999958
0.999749749749749 	299.9999999999752 	9.124908948738596e-12 	101324.9999999956
1.002252252252252 	299.9999999999893 	9.366883864698854e-12 	101324.9999999956
1.004754754754754 	299.9999999999914 	9.309791236427332e-12 	101324.9999999955
1.007257257257256 	299.9999999999797 	8.737814424770627e-12 	101324.9999999956
1.009759759759759 	299.9999999999723 	1.015991216636684e-11 	101324.9999999956
1.012262262262261 	299.9999999999689 	8.30575352051816e-12 	101324.9999999956
1.014764764764764 	299.9999999999519 	9.274835255572902e-12 	101324.9999999958
1.017267267267267 	299.9999999999446 	8.436699765876473e-12 	101324.9999999959
1.019769769769769 	299.9999999999709 	9.181520042120863e-12 	101324.999999996
1.022272272272272 	299.9999999999819 	8.856919971280111e-12 	101324.9999999962
1.024774774774774 	299.9999999999875 	8.733993476863091e-12 	101324.9999999964
1.027277277277277 	299.9999999999845 	9.090986763790293e-12 	101324.9999999963
1.029779779779779 	300.0000000000016 	7.768773221243016e-12 	101324.999999996
1.032282282282282 	300.0000000000017 	7.835774980157992e-12 	101324.9999999958
1.034784784784784 	299.9999999999957 	7.29269912687894e-12 	101324.9999999958
1.037287287287286 	299.9999999999769 	7.864105968460228e-12 	101324.9999999958
1.039789789789789 	299.9999999999819 	8.068542901971045e-12 	101324.9999999959
1.042292292292291 	300.0000000000072 	8.184411626706521e-12 	101324.9999999958
1.044794794794794 	300.0000000000164 	8.183501157531067e-12 	101324.9999999955
1.047297297297296 	300.0000000000236 	7.23152208767227e-12 	101324.9999999955
1.049799799799799 	299.9999999999953 	8.482332094928638e-12 	101324.9999999958
1.052302302302302 	299.9999999999746 	6.767230428802967e-12 	101324.9999999961
1.054804804804804 	299.9999999999611 	7.857531458680746e-12 	101324.9999999963
1.057307307307306 	299.999999999949 	7.369128030416798e-12 	101324.9999999963
1.059809809809809 	299.9999999999687 	8.470930403098475e-12 	101324.9999999963
1.062312312312312 	299.9999999999649 	8.102200644473741e-12 	101324.9999999962
1.064814814814814 	299.9999999999636 	8.641039093848986e-12 	101324.9999999962
1.067317317317317 	299.9999999999507 	8.512457338427575e-12 	101324.9999999962
1.069819819819819 	299.9999999999508 	8.353754502299528e-12 	101324.9999999962
1.072322322322321 	299.9999999999959 	9.499919636668463e-12 	101324.9999999961
1.074824824824824 	300.0000000000168 	7.413383663868682e-12 	101324.999999996
1.077327327327327 	300.0000000000263 	7.90751019830433e-12 	101324.999999996
1.079829829829829 	300.0000000000249 	6.405164891997567e-12 	101324.999999996
1.082332332332332 	300.0000000000011 	6.872393114738678e-12 	101324.9999999961
1.084834834834834 	299.9999999999838 	6.68942400848067e-12 	101324.9999999963
1.087337337337337 	299.9999999999611 	6.750792083920223e-12 	101324.9999999963
1.089839839839839 	299.9999999999558 	7.631688564076534e-12 	101324.9999999964
1.092342342342342 	299.9999999999794 	6.690321941157874e-12 	101324.9999999965
1.094844844844844 	299.9999999999788 	7.794254090869102e-12 	101324.9999999964
1.097347347347347 	299.999999999962 	6.592414029519607e-12 	101324.9999999964
1.099849849849849 	299.9999999999524 	8.1902274844346e-12 	101324.9999999965
1.102352352352352 	299.9999999999721 	6.100322736497886e-12 	101324.9999999965
1.104854854854854 	299.9999999999887 	6.982912479934215e-12 	101324.9999999965
1.107357357357357 	299.9999999999764 	5.311978001903162e-12 	101324.9999999964
1.109859859859859 	299.9999999999653 	6.742642236380619e-12 	101324.9999999964
1.112362362362362 	300.0000000000126 	6.384181945637821e-12 	101324.9999999964
1.114864864864865 	300.0000000000135 	6.78603671918274e-12 	101324.9999999964
1.117367367367367 	299.9999999999759 	8.096330412551204e-12 	101324.9999999963
1.119869869869869 	299.9999999999515 	7.623027508275102e-12 	101324.9999999962
1.122372372372372 	299.9999999999733 	8.792696439968125e-12 	101324.9999999961
1.124874874874874 	299.999999999969 	7.903200210734075e-12 	101324.999999996
1.127377377377377 	299.9999999999778 	9.089506285438594e-12 	101324.999999996
1.129879879879879 	300.0000000000121 	8.48548059578994e-12 	101324.9999999961
1.132382382382382 	300.0000000000151 	8.497214252619774e-12 	101324.999999996
1.134884884884884 	300 	7.821727985863979e-12 	101324.9999999961
1.137387387387387 	300.0000000000104 	7.493231352255553e-12 	101324.9999999961
1.139889889889889 	299.9999999999745 	8.343650968364737e-12 	101324.9999999959
1.142392392392392 	299.9999999999659 	7.27747681275989e-12 	101324.9999999959
1.144894894894894 	300.0000000000082 	8.118663373954594e-12 	101324.999999996
1.147397397397397 	300.0000000000023 	7.263426184346053e-12 	101324.9999999959
1.149899899899899 	299.9999999999626 	7.958426040548809e-12 	101324.9999999958
1.152402402402402 	299.9999999999533 	7.442975536189314e-12 	101324.9999999958
1.154904904904904 	299.9999999999832 	7.992732442274964e-12 	101324.9999999961
1.157407407407407 	299.9999999999837 	7.373509840323681e-12 	101324.9999999963
1.159909909909909 	299.9999999999609 	7.296760004612208e-12 	101324.9999999965
1.162412412412412 	299.9999999999508 	8.247921950700005e-12 	101324.9999999965
1.164914914914914 	299.9999999999733 	6.805824062157069e-12 	101324.9999999964
1.167417417417417 	299.9999999999826 	7.828557422497517e-12 	101324.9999999962
1.169919919919919 	300.0000000000121 	7.019495664130434e-12 	101324.9999999961
1.172422422422422 	300.0000000000247 	7.785766952388843e-12 	101324.9999999959
1.174924924924925 	299.9999999999915 	7.300557786480837e-12 	101324.9999999957
1.177427427427427 	299.9999999999794 	7.926175861573557e-12 	101324.9999999958
1.179929929929929 	300.0000000000073 	8.140667750847018e-12 	101324.999999996
1.182432432432432 	300.0000000000181 	6.349748931979012e-12 	101324.9999999962
1.184934934934934 	299.9999999999975 	6.867349181373559e-12 	101324.9999999963
1.187437437437437 	299.9999999999851 	5.803077067110773e-12 	101324.9999999964
1.189939939939939 	299.9999999999813 	6.406354804270849e-12 	101324.9999999964
1.192442442442442 	299.9999999999528 	5.794593043727976e-12 	101324.9999999964
1.194944944944944 	299.9999999999561 	6.755200259399983e-12 	101324.9999999963
1.197447447447447 	300.0000000000014 	6.396348910557827e-12 	101324.9999999963
1.199949949949949 	300.0000000000099 	6.555582603521244e-12 	101324.9999999963
1.202452452452452 	299.9999999999704 	7.323760590379411e-12 	101324.9999999962
1.204954954954955 	299.9999999999671 	6.749922031800464e-12 	101324.999999996
1.207457457457457 	299.9999999999916 	7.737735673594772e-12 	101324.9999999959
1.20995995995996 	299.9999999999868 	6.550744815450567e-12 	101324.999999996
1.212462462462462 	299.9999999999858 	7.25660875597095e-12 	101324.9999999961
1.214964964964964 	299.9999999999871 	6.654738434433373e-12 	101324.999999996
1.217467467467467 	299.9999999999854 	7.457421416789246e-12 	101324.9999999961
1.219969969969969 	299.9999999999758 	6.852995576549186e-12 	101324.999999996
1.222472472472472 	300.0000000000053 	7.183752339201856e-12 	101324.9999999958
1.224974974974975 	300.0000000000206 	7.412683699398803e-12 	101324.9999999959
1.227477477477477 	299.9999999999924 	5.825090714971412e-12 	101324.9999999962
1.229979979979979 	299.9999999999899 	6.661499368434126e-12 	101324.9999999962
1.232482482482482 	299.9999999999717 	5.949227661275893e-12 	101324.9999999961
1.234984984984984 	299.9999999999689 	6.932809176642473e-12 	101324.9999999962
1.237487487487487 	299.999999999989 	5.856031480979889e-12 	101324.9999999962
1.239989989989989 	299.9999999999927 	6.311631259881879e-12 	101324.9999999962
1.242492492492492 	300.0000000000128 	6.420108288244047e-12 	101324.9999999962
1.244994994994994 	299.9999999999944 	5.32519586671358e-12 	101324.9999999962
1.247497497497497 	299.9999999999979 	6.308775282489269e-12 	101324.9999999962
1.249999999999999 	300.0000000000616 	5.755154979389454e-12 	101324.9999999961
