-1.25 	306.2666616782128 	0.01506657811892927 	101331.2666616782
-1.247497497497497 	301.0864264853427 	0.0174735753600555 	101331.9179320619
-1.244994994994995 	300.023420389589 	0.01901780535338855 	101332.60631702
-1.242492492492492 	300.0071690228081 	0.01986652807629122 	101333.2754823893
-1.23998998998999 	300.0075590468876 	0.02211202473042993 	101333.9361699433
-1.237487487487487 	300.0081234219564 	0.02350135454793603 	101334.6040818323
-1.234984984984985 	300.0086852670506 	0.02513816674586709 	101335.2682009098
-1.232482482482482 	300.0092454592438 	0.02676389874857559 	101335.9305088732
-1.22997997997998 	300.009803989129 	0.0283816306426425 	101336.5908554223
-1.227477477477477 	300.0103607440891 	0.02999510839490391 	101337.2491065059
-1.224974974974975 	300.0109156185654 	0.03160275314873986 	101337.9051372122
-1.222472472472472 	300.0114685064821 	0.03320477238182678 	101338.5588222725
-1.21996996996997 	300.0120193034692 	0.03480064133058874 	101339.2100382128
-1.217467467467467 	300.0125679061971 	0.03639016207283799 	101339.8586626523
-1.214964964964965 	300.013114211438 	0.03797299795598547 	101340.50457372
-1.212462462462462 	300.0136581175169 	0.03954887371598938 	101341.1476510518
-1.20995995995996 	300.0141995231544 	0.04111748740452303 	101341.7877749752
-1.207457457457457 	300.0147383272561 	0.04267855068530527 	101342.4248258474
-1.204954954954955 	300.0152744307048 	0.04423177489513332 	101343.0586862811
-1.202452452452452 	300.0158077342246 	0.04577687713466968 	101343.6892391548
-1.19994994994995 	300.0163381382546 	0.04731357081392924 	101344.3163666069
-1.197447447447447 	300.0168655458365 	0.04884157328226338 	101344.939953823
-1.194944944944945 	300.0173898607914 	0.05036060434835213 	101345.5598871208
-1.192442442442442 	300.0179109844772 	0.05187038219458195 	101346.176049935
-1.18993993993994 	300.0184288199229 	0.05337062931781397 	101346.7883273974
-1.187437437437437 	300.0189432747505 	0.05486107521515111 	101347.3966101483
-1.184934934934935 	300.0194542561277 	0.05634144853895411 	101348.0007886674
-1.182432432432432 	300.0199616674228 	0.05781147225341155 	101348.6007484812
-1.17992992992993 	300.0204654120202 	0.05927087056420019 	101349.1963750345
-1.177427427427427 	300.0209653984612 	0.06071937698328995 	101349.7875602412
-1.174924924924925 	300.0214615384034 	0.062156733607313 	101350.3742002831
-1.172422422422422 	300.0219537419439 	0.06358268236568874 	101350.9561892651
-1.16991991991992 	300.0224419178897 	0.06499695850112985 	101351.5334177481
-1.167417417417417 	300.0229259751874 	0.06639929418430836 	101352.105776324
-1.164914914914915 	300.0234058231606 	0.06778942903423701 	101352.6731590701
-1.162412412412412 	300.0238813723337 	0.06916711309126657 	101353.2354637139
-1.15990990990991 	300.0243525357282 	0.0705320974407822 	101353.7925885262
-1.157407407407407 	300.0248192292318 	0.07188412722486372 	101354.3444298775
-1.154904904904904 	300.0252813681203 	0.07322294588950853 	101354.8908828268
-1.152402402402403 	300.0257388632418 	0.07454829776103747 	101355.4318420126
-1.1498998998999 	300.026191622002 	0.07585992660373404 	101355.9672028187
-1.147397397397397 	300.0266395533873 	0.07715758118243567 	101356.4968629903
-1.144894894894895 	300.0270825723912 	0.07844101889074365 	101357.0207230609
-1.142392392392392 	300.0275205995573 	0.07971000113349065 	101357.5386852196
-1.13988988988989 	300.0279535587067 	0.08096429097719557 	101358.0506533269
-1.137387387387387 	300.0283813741023 	0.08220365814969717 	101358.5565336104
-1.134884884884885 	300.0288039674235 	0.08342787799279561 	101359.0562331319
-1.132382382382382 	300.0292212582962 	0.08463672509818747 	101359.5496593008
-1.12987987987988 	300.0296331671992 	0.08582997610991205 	101360.0367216393
-1.127377377377377 	300.0300396180917 	0.08700741380183305 	101360.5173326887
-1.124874874874875 	300.0304405363402 	0.08816882336817099 	101360.9914053649
-1.122372372372372 	300.0308358463886 	0.08931399065323074 	101361.4588507681
-1.11986986986987 	300.0312254742091 	0.09044270769832163 	101361.9195810723
-1.117367367367367 	300.0316093494805 	0.09155477233301326 	101362.373512508
-1.114864864864865 	300.0319874049875 	0.09264998036064738 	101362.8205647847
-1.112362362362362 	300.0323595730665 	0.09372812540947474 	101363.2606574745
-1.10985985985986 	300.0327257844708 	0.0947890051551359 	101363.6937084984
-1.107357357357357 	300.0330859711414 	0.09583242620272613 	101364.1196367578
-1.104854854854855 	300.0334400668265 	0.09685820608291629 	101364.5383634974
-1.102352352352353 	300.0337880068073 	0.09786616684544913 	101364.9498122151
-1.09984984984985 	300.0341297268616 	0.09885612375138353 	101365.3539073074
-1.097347347347347 	300.0344651641188 	0.099827885038062 	101365.7505740141
-1.094844844844845 	300.0347942587422 	0.1007812625739487 	101366.1397406493
-1.092342342342342 	300.0351169519088 	0.1017160774739913 	101366.5213382895
-1.08983983983984 	300.035433186107 	0.102632160649755 	101366.8953000068
-1.087337337337337 	300.0357429054053 	0.1035293512632391 	101367.2615588643
-1.084834834834835 	300.0360460532462 	0.1044074904063446 	101367.620045938
-1.082332332332332 	300.0363425710285 	0.105266417349048 	101367.9706922478
-1.07982982982983 	300.0366323986119 	0.1061059728606256 	101368.313429812
-1.077327327327327 	300.0369154803325 	0.1069260030162553 	101368.6481935467
-1.074824824824825 	300.0371917678866 	0.107726357907116 	101368.9749224313
-1.072322322322323 	300.0374612143265 	0.1085068917002939 	101369.2935572916
-1.06981981981982 	300.0377237693799 	0.1092674642313077 	101369.6040414964
-1.067317317317317 	300.0379793805942 	0.1100079375962217 	101369.906319876
-1.064814814814815 	300.0382280003393 	0.110728175908381 	101370.2003371379
-1.062312312312312 	300.0384695895907 	0.1114280477763583 	101370.4860399274
-1.05980980980981 	300.0387041099833 	0.1121074228440238 	101370.7633752766
-1.057307307307307 	300.0389315164313 	0.1127661741051978 	101371.03229136
-1.054804804804805 	300.0391517591956 	0.1134041814780624 	101371.2927394985
-1.052302302302302 	300.0393647903823 	0.114021326518982 	101371.5446710142
-1.0497997997998 	300.0395705728522 	0.1146174943839309 	101371.7880392311
-1.047297297297297 	300.0397690794191 	0.1151925766313787 	101372.0228003349
-1.044794794794795 	300.0399602811052 	0.1157464670655414 	101372.2489101565
-1.042292292292292 	300.0401441425493 	0.1162790643936211 	101372.4663276532
-1.03978978978979 	300.0403206210568 	0.116790271699823 	101372.6750136813
-1.037287287287287 	300.0404896717597 	0.1172799930688335 	101372.874928059
-1.034784784784785 	300.0406512611048 	0.1177481390134858 	101373.066034828
-1.032282282282283 	300.0408053664895 	0.1181946245825566 	101373.2482995786
-1.02977977977978 	300.0409519686818 	0.1186193661314072 	101373.4216870373
-1.027277277277277 	300.041091050248 	0.1190222870083425 	101373.5861668887
-1.024774774774775 	300.0412225881522 	0.1194033133942651 	101373.7417090813
-1.022272272272272 	300.0413465518212 	0.1197623724148116 	101373.8882824065
-1.01976976976977 	300.0414629102755 	0.1200993997875415 	101374.0258618717
-1.017267267267267 	300.0415716320097 	0.1204143339740785 	101374.1544225412
-1.014764764764765 	300.0416726899313 	0.1207071144198529 	101374.273938063
-1.012262262262262 	300.0417660692044 	0.1209776903385124 	101374.384389105
-1.00975975975976 	300.0418517565918 	0.1212260124273604 	101374.485755826
-1.007257257257257 	300.0419297360217 	0.1214520304826941 	101374.5780158016
-1.004754754754755 	300.0419999998835 	0.1216557053815859 	101374.6611545394
-1.002252252252252 	300.0420625426827 	0.1218369999903138 	101374.7351575331
-0.9997497497497498 	300.0421173523111 	0.1219958745495266 	101374.800006204
-0.9972472472472473 	300.0421644181509 	0.1221323027789709 	101374.8556910351
-0.9947447447447449 	300.0422037302387 	0.1222462635913415 	101374.9022047735
-0.9922422422422421 	300.0422352791559 	0.1223377301079095 	101374.9395340483
-0.9897397397397399 	300.0422590657832 	0.1224066881516387 	101374.9676736853
-0.9872372372372376 	300.0422750896087 	0.1224531322063814 	101374.9866235384
-0.9847347347347346 	300.0422833351928 	0.1224770454470245 	101374.9963745165
-0.9822322322322323 	300.0422837925867 	0.1224784178605549 	101374.9969221278
-0.9797297297297296 	300.0422764683706 	0.1224572553366945 	101374.9882707918
-0.9772272272272275 	300.0422613716765 	0.1224135568638785 	101374.9704191133
-0.9747247247247248 	300.0422385053222 	0.122347323706406 	101374.9433659612
-0.9722222222222224 	300.0422078696355 	0.1222585796737537 	101374.90712328
-0.9697197197197196 	300.042169460531 	0.122147346354765 	101374.8617008863
-0.9672172172172175 	300.0421232773265 	0.1220136302679577 	101374.8070985596
-0.9647147147147147 	300.0420693414256 	0.1218574548947971 	101374.7433259114
-0.9622122122122124 	300.0420076830034 	0.1216788607442235 	101374.6704025458
-0.9597097097097099 	300.0419383087451 	0.1214778725540524 	101374.5883375818
-0.9572072072072073 	300.0418612075228 	0.1212545119858116 	101374.4971367522
-0.9547047047047047 	300.0417763827799 	0.1210088302505243 	101374.3968228014
-0.9522022022022023 	300.0416838569682 	0.1207408862612225 	101374.2874230225
-0.9496996996996998 	300.0415836554752 	0.1204507129115838 	101374.168948117
-0.9471971971971973 	300.0414758080972 	0.1201383493756008 	101374.0414106352
-0.9446946946946947 	300.0413603524965 	0.1198038782500694 	101373.9048484668
-0.9421921921921923 	300.0412373055672 	0.1194473753080542 	101373.7592965565
-0.93968968968969 	300.0411066498924 	0.1190688673661292 	101373.6047596245
-0.9371871871871872 	300.0409683867988 	0.118668410307769 	101373.4412559375
-0.9346846846846848 	300.0408225717764 	0.1182461326105 	101373.2688474859
-0.9321821821821823 	300.0406692560474 	0.1178021184233453 	101373.0875735592
-0.9296796796796799 	300.0405084492876 	0.1173363695367944 	101372.8974207811
-0.9271771771771771 	300.0403401886473 	0.1168489728956916 	101372.6984202531
-0.9246746746746748 	300.0401645540728 	0.116340125859499 	101372.490672695
-0.9221721721721724 	300.0399815569197 	0.115809904449456 	101372.2742121613
-0.9196696696696698 	300.039791136931 	0.115258258692524 	101372.0489910448
-0.9171671671671672 	300.039593327972 	0.1146853256015498 	101371.8150645246
-0.9146646646646649 	300.0393882629751 	0.1140914049770705 	101371.5725907938
-0.9121621621621623 	300.0391759669891 	0.113476543683824 	101371.3215876086
-0.9096596596596597 	300.0389563666653 	0.1128405946797331 	101371.0619487404
-0.9071571571571573 	300.0387295521633 	0.1121837626267488 	101370.7937607712
-0.9046546546546547 	300.0384957465573 	0.1115065130257157 	101370.517273418
-0.9021521521521524 	300.0382549566368 	0.1108088608701119 	101370.2324902867
-0.8996496496496498 	300.0380069984274 	0.1100904716885945 	101369.9391985712
-0.8971471471471473 	300.0377519442542 	0.1093515845030128 	101369.6374940221
-0.894644644644645 	300.0374901255035 	0.1085929508798733 	101369.3277797056
-0.892142142142142 	300.0372215721476 	0.1078146477199759 	101369.0101005932
-0.8896396396396397 	300.0369459473302 	0.1070160066639276 	101368.6840657043
-0.8871371371371374 	300.0366632447933 	0.1061971114904428 	101368.3496726566
-0.8846346346346349 	300.0363739897386 	0.1053591469521062 	101368.0075446154
-0.8821321321321324 	300.0360784079302 	0.1045025802333702 	101367.6579483524
-0.8796296296296297 	300.0357759928792 	0.1036263171396769 	101367.3002838293
-0.8771271271271271 	300.0354664277211 	0.1027297675185849 	101366.9341752206
-0.8746246246246248 	300.0351503694984 	0.1018144677737483 	101366.5603979656
-0.8721221221221224 	300.0348285471415 	0.1008820022908072 	101366.1798118229
-0.8696196196196196 	300.0345005046911 	0.09993130434621036 	101365.7918754112
-0.8671171171171175 	300.034165262082 	0.09896026388989365 	101365.3954288613
-0.8646146146146148 	300.033823099938 	0.09796967580893155 	101364.9908040982
-0.8621121121121121 	300.0334754819738 	0.09696288715044681 	101364.5797311148
-0.8596096096096097 	300.0331228564122 	0.09594080420342568 	101364.1627382723
-0.857107107107107 	300.0327637357012 	0.09489999484924524 	101363.7380657959
-0.8546046046046049 	300.0323968935393 	0.09383782380366287 	101363.3042644467
-0.8521021021021022 	300.0320236029783 	0.09275743116984951 	101362.8628408773
-0.8495995995995997 	300.031646228189 	0.09166426716698491 	101362.4165900339
-0.8470970970970974 	300.0312647574277 	0.09055811023767171 	101361.9654959673
-0.8445945945945946 	300.0308763995808 	0.0894323992943421 	101361.5062576998
-0.8420920920920922 	300.0304794202145 	0.08828331875931197 	101361.0368265011
-0.8395895895895897 	300.0300761126346 	0.08711655392261973 	101360.5599163676
-0.8370870870870872 	300.0296703289781 	0.08594119439496063 	101360.0800812259
-0.8345845845845846 	300.0292622946235 	0.08475749459504908 	101359.5975844121
-0.8320820820820823 	300.0288476853373 	0.08355499453928306 	101359.107311627
-0.8295795795795798 	300.0284228873954 	0.08232528291585171 	101358.6049925973
-0.8270770770770772 	300.0279901458167 	0.08107416995699249 	101358.0932856971
-0.8245745745745746 	300.0275557181305 	0.07981689808444119 	101357.5795901394
-0.8220720720720721 	300.0271225375328 	0.07856029853843932 	101357.0673698844
-0.8195695695695699 	300.0266860571801 	0.07729295164184795 	101356.5512449237
-0.817067067067067 	300.0262387999032 	0.07599660126769731 	101356.0223756992
-0.8145645645645651 	300.0257790389687 	0.07466744050812781 	101355.4787261444
-0.8120620620620621 	300.0253137549736 	0.0733230920886937 	101354.9285539886
-0.8095595595595597 	300.0248519005602 	0.07198570987334081 	101354.3824424618
-0.8070570570570572 	300.0243947234384 	0.07065800652336456 	101353.8418601906
-0.8045545545545546 	300.0239335476441 	0.06931798054183859 	101353.2965445496
-0.8020520520520523 	300.0234579207534 	0.06793951880716965 	101352.7341398899
-0.7995495495495494 	300.0229663366433 	0.06651929274557837 	101352.1528733951
-0.7970470470470474 	300.0224687952639 	0.06508297539231342 	101351.5645740485
-0.7945445445445446 	300.0219781946245 	0.06366329934608678 	101350.9844893619
-0.7920420420420423 	300.021498344412 	0.06226963433737069 	101350.4171152064
-0.7895395395395397 	300.0210197267462 	0.06087728943101539 	101349.8511911367
-0.7870370370370371 	300.0205270902574 	0.05944707764737701 	101349.2686856491
-0.7845345345345348 	300.0200124829203 	0.05795883946794806 	101348.6602052061
-0.7820320320320323 	300.0194826603916 	0.05643044593650268 	101348.033746625
-0.7795295295295296 	300.0189545338343 	0.05490594763133484 	101347.4093072354
-0.7770270270270272 	300.0184422165773 	0.05342198188156218 	101346.8035671402
-0.7745245245245247 	300.0179459337311 	0.05197887855254613 	101346.2167818132
-0.7720220220220222 	300.0174512599473 	0.05053859067394526 	101345.6318887926
-0.7695195195195199 	300.0169390599979 	0.0490507620877858 	101345.026265983
-0.767017017017017 	300.0163988859798 	0.04748804215523249 	101344.3875701464
-0.7645145145145147 	300.0158365639344 	0.04586613611372706 	101343.7227005485
-0.7620120120120122 	300.015270965752 	0.04423530609926832 	101343.0539748505
-0.7595095095095097 	300.0147223173345 	0.04264944450497322 	101342.405302393
-0.7570070070070072 	300.0141997839563 	0.04113299708737963 	101341.7875086463
-0.7545045045045048 	300.0136959312691 	0.03966593046155205 	101341.1917932757
-0.7520020020020022 	300.0131908022277 	0.03819442703006214 	101340.5945563015
-0.7494994994994997 	300.0126626711385 	0.03665980528671334 	101339.9701147572
-0.7469969969969972 	300.0120994205326 	0.03502936363385117 	101339.3041520956
-0.7444944944944945 	300.0115048192056 	0.03331348499746471 	101338.6011355451
-0.7419919919919924 	300.0108969095746 	0.03156136118323265 	101337.8824036585
-0.7394894894894897 	300.0102997165751 	0.02983861604740142 	101337.1763607808
-0.7369869869869872 	300.009732649493 	0.02819849798173473 	101336.5059471188
-0.7344844844844846 	300.0092025483961 	0.02665991698775088 	101335.8792391156
-0.7319819819819822 	300.0087012966681 	0.02520057496638312 	101335.2866308044
-0.7294794794794797 	300.0082091613122 	0.0237658263995932 	101334.7047869588
-0.7269769769769773 	300.0077017438097 	0.02228777247439725 	101334.1048619035
-0.7244744744744747 	300.0071576819229 	0.02070678488968958 	101333.4616050154
-0.721971971971972 	300.0065647893797 	0.0189888131852306 	101332.7606175622
-0.7194694694694695 	300.0059232456238 	0.01713443052789117 	101332.0021210815
-0.7169669669669674 	300.0052454008616 	0.01517835549928062 	101331.2007248562
-0.7144644644644647 	300.0045526280703 	0.01318068304479105 	101330.3817015554
-0.711961961961962 	300.0038703363292 	0.01121305188683425 	101329.5750914471
-0.7094594594594597 	300.0032227587647 	0.009344316800474237 	101328.8095407943
-0.7069569569569573 	300.0026292571395 	0.007630046420400784 	101328.1079345197
-0.7044544544544545 	300.0021026954577 	0.006107520555580877 	101327.4854750228
-0.7019519519519523 	300.0016493444854 	0.004795209165829019 	101326.9495703863
-0.6994494494494495 	300.001269727506 	0.00369506892896197 	101326.5008348477
-0.6969469469469471 	300.0009599548832 	0.00279629684940526 	101326.1346666457
-0.6944444444444446 	300.0007131893925 	0.002079504375245366 	101325.842980816
-0.6919419419419421 	300.0005209979422 	0.001520595529115155 	101325.6158066408
-0.6894394394394396 	300.0003744512696 	0.001093943307381947 	101325.442587867
-0.6869369369369374 	300.0002649237026 	0.0007747118002393866 	101325.313127343
-0.6844344344344344 	300.0001846021688 	0.0005403478827948243 	101325.2181891354
-0.6819319319319321 	300.0001267517573 	0.0003713685837290633 	101325.1498120695
-0.6794294294294296 	300.0000857967308 	0.0002516130142717065 	101325.101405176
-0.6769269269269272 	300.0000572760125 	0.0001681291657188738 	101325.0676953816
-0.6744244244244245 	300.0000377255427 	0.000110843325950229 	101325.0445880186
-0.6719219219219222 	300.0000245257195 	7.212678989711838e-05 	101325.0289868883
-0.6694194194194195 	300.0000157429988 	4.634026383762436e-05 	101325.018606454
-0.6669169169169172 	300.0000099810744 	2.940631205436326e-05 	101325.0117963999
-0.6644144144144146 	300.0000062520794 	1.843655283979065e-05 	101325.0073891784
-0.661911911911912 	300.0000038704663 	1.142366255726708e-05 	101325.0045743866
-0.6594094094094097 	300.0000023687258 	6.997447447079278e-06 	101325.0027995081
-0.656906906906907 	300.0000014334478 	4.238365997446668e-06 	101325.0016941752
-0.6544044044044046 	300.0000008580089 	2.539165464085266e-06 	101325.0010140794
-0.6519019019019021 	300.0000005081131 	1.504950180238272e-06 	101325.0006005186
-0.6493993993993996 	300.0000002977885 	8.826515729510023e-07 	101325.0003519008
-0.6468968968968971 	300.0000001727402 	5.123782213921099e-07 	101325.0002041015
-0.6443943943943946 	300.0000000991633 	2.944483418550538e-07 	101325.0001171904
-0.6418918918918921 	300.0000000563807 	1.675487038420791e-07 	101325.0000666256
-0.6393893893893897 	300.0000000317511 	9.441798491945252e-08 	101325.0000375118
-0.6368868868868871 	300.000000017686 	5.27044415397397e-08 	101325.000020919
-0.6343843843843846 	300.0000000097755 	2.914552671691905e-08 	101325.0000115565
-0.6318818818818821 	300.0000000053129 	1.597117266806935e-08 	101325.0000063246
-0.6293793793793795 	300.0000000029116 	8.674044955387397e-09 	101325.0000034292
-0.6268768768768773 	300.0000000015818 	4.669754690487093e-09 	101325.0000018415
-0.6243743743743745 	300.0000000008117 	2.492751183388693e-09 	101325.0000009787
-0.6218718718718721 	300.0000000004443 	1.317934769432574e-09 	101325.0000005143
-0.6193693693693696 	300.0000000001751 	6.926824856487339e-10 	101325.0000002667
-0.6168668668668671 	300.000000000105 	3.597650518661733e-10 	101325.0000001356
-0.6143643643643645 	300.0000000000754 	1.864641570685101e-10 	101325.0000000667
-0.6118618618618621 	300.000000000018 	9.495268994350137e-11 	101325.0000000308
-0.6093593593593596 	300.0000000000027 	4.927313120576067e-11 	101325.0000000122
-0.6068568568568571 	299.9999999999949 	2.521536512761429e-11 	101325.0000000029
-0.6043543543543546 	299.9999999999584 	1.400606517413576e-11 	101324.9999999982
-0.6018518518518521 	299.9999999999695 	7.032305227474048e-12 	101324.9999999959
-0.5993493493493496 	299.9999999999518 	5.206053526072916e-12 	101324.9999999946
-0.5968468468468471 	299.9999999999605 	2.284422433658123e-12 	101324.9999999939
-0.5943443443443446 	299.9999999999951 	2.529916560526355e-12 	101324.9999999934
-0.591841841841842 	299.9999999999588 	1.819152278946836e-12 	101324.9999999931
-0.5893393393393397 	299.9999999999491 	1.348830130469315e-12 	101324.999999993
-0.5868368368368371 	299.9999999999951 	3.275248190997143e-12 	101324.9999999928
-0.5843343343343346 	300.0000000000085 	1.697667143266404e-12 	101324.9999999929
-0.5818318318318321 	300.0000000000302 	3.668984808164454e-12 	101324.9999999931
-0.5793293293293297 	299.9999999999871 	1.65809899272971e-12 	101324.9999999932
-0.5768268268268271 	299.9999999999994 	2.325751390465646e-12 	101324.9999999931
-0.5743243243243245 	300.00000000002 	1.904630479601813e-12 	101324.9999999931
-0.5718218218218221 	300.0000000000168 	7.95058091562826e-13 	101324.9999999933
-0.5693193193193196 	300.0000000000404 	1.759896889651862e-12 	101324.9999999934
-0.5668168168168171 	299.9999999999838 	2.900472235341173e-12 	101324.9999999935
-0.5643143143143147 	299.9999999999502 	2.035529796658266e-12 	101324.9999999936
-0.5618118118118121 	300.0000000000121 	2.616008486444398e-12 	101324.9999999937
-0.5593093093093094 	300.000000000032 	1.470498785313137e-12 	101324.9999999939
-0.5568068068068072 	300.0000000000182 	2.877426210755379e-12 	101324.999999994
-0.5543043043043046 	300.0000000000182 	2.246491774528451e-12 	101324.9999999941
-0.551801801801802 	299.9999999999569 	3.130639976616051e-12 	101324.999999994
-0.5492992992992995 	299.9999999999946 	1.870999283015467e-12 	101324.9999999939
-0.5467967967967969 	300.0000000000099 	3.016255388639727e-12 	101324.9999999936
-0.5442942942942947 	300.0000000000034 	2.328708928223688e-12 	101324.9999999935
-0.5417917917917919 	299.999999999959 	4.145922553667252e-12 	101324.9999999934
-0.5392892892892895 	299.9999999999345 	2.357270532698673e-12 	101324.9999999933
-0.536786786786787 	299.9999999999609 	4.068576304895868e-12 	101324.9999999931
-0.5342842842842846 	299.9999999999673 	1.376754382774054e-12 	101324.9999999931
-0.531781781781782 	299.999999999947 	3.498915143460465e-12 	101324.999999993
-0.5292792792792794 	299.9999999999401 	2.443864021469133e-12 	101324.9999999929
-0.526776776776777 	299.9999999999158 	3.495445447254479e-12 	101324.9999999929
-0.5242742742742745 	299.9999999999771 	4.263474880344475e-12 	101324.999999993
-0.521771771771772 	300.0000000000125 	5.126819829443533e-12 	101324.9999999931
-0.5192692692692695 	299.9999999999639 	4.415028753815445e-12 	101324.999999993
-0.516766766766767 	300.0000000000026 	5.788017098751889e-12 	101324.9999999931
-0.5142642642642645 	299.9999999999778 	3.203865214828561e-12 	101324.9999999932
-0.511761761761762 	299.9999999999573 	5.685779632544911e-12 	101324.9999999932
-0.5092592592592596 	299.9999999999725 	2.489283785221149e-12 	101324.999999993
-0.506756756756757 	299.9999999999438 	4.220194592222096e-12 	101324.9999999929
-0.5042542542542544 	299.9999999999941 	2.574135200068525e-12 	101324.9999999929
-0.5017517517517521 	300.0000000000268 	3.41207605377494e-12 	101324.999999993
-0.4992492492492494 	300.0000000000296 	1.208254621970807e-12 	101324.9999999929
-0.496746746746747 	299.9999999999901 	2.883707260378061e-12 	101324.9999999927
-0.4942442442442445 	299.9999999999516 	9.796089917928882e-13 	101324.9999999927
-0.4917417417417421 	299.9999999999463 	2.847775073097723e-12 	101324.9999999926
-0.4892392392392395 	299.9999999999642 	1.093305556511236e-12 	101324.9999999924
-0.486736736736737 	299.9999999999613 	2.699755464684592e-12 	101324.9999999924
-0.4842342342342345 	299.999999999928 	9.521466956065415e-13 	101324.9999999924
-0.481731731731732 	300.0000000000309 	3.264320248215029e-12 	101324.9999999923
-0.4792292292292296 	300.000000000019 	9.427758803303236e-13 	101324.9999999925
-0.4767267267267268 	299.9999999999609 	5.013826678013319e-12 	101324.9999999927
-0.4742242242242246 	299.9999999999992 	1.286060439015955e-12 	101324.9999999928
-0.471721721721722 	299.9999999999587 	4.693019773277607e-12 	101324.9999999926
-0.4692192192192195 	299.9999999999734 	1.272670535151306e-12 	101324.9999999925
-0.4667167167167169 	299.999999999915 	2.954769126786795e-12 	101324.9999999923
-0.4642142142142145 	299.9999999999947 	1.510677858509316e-12 	101324.9999999922
-0.461711711711712 	300.0000000000159 	2.097495498886619e-12 	101324.999999992
-0.4592092092092094 	300.0000000000102 	1.240024996268286e-12 	101324.9999999922
-0.456706706706707 	300.0000000000414 	1.918333036392911e-12 	101324.9999999919
-0.4542042042042045 	299.9999999999458 	5.889482363113344e-13 	101324.9999999921
-0.451701701701702 	299.9999999999555 	1.59977487458285e-12 	101324.9999999922
-0.4491991991991995 	299.9999999999625 	6.915459556678741e-13 	101324.9999999923
-0.4466966966966969 	299.9999999999584 	2.921431538172876e-12 	101324.9999999923
-0.4441941941941945 	299.9999999999933 	1.142457148154326e-12 	101324.9999999926
-0.441691691691692 	299.9999999999604 	3.856474791051077e-12 	101324.9999999925
-0.4391891891891895 	299.9999999999861 	1.041476082377136e-12 	101324.9999999922
-0.436686686686687 	299.9999999999686 	4.991021014199937e-12 	101324.9999999922
-0.4341841841841846 	299.9999999999956 	1.690206155514362e-12 	101324.9999999922
-0.431681681681682 	299.9999999999522 	4.375307614953602e-12 	101324.9999999924
-0.4291791791791794 	299.9999999999227 	1.135720572030648e-12 	101324.9999999924
-0.426676676676677 	299.9999999999275 	3.098298302769467e-12 	101324.9999999922
-0.4241741741741744 	299.9999999999721 	1.409775661124382e-12 	101324.9999999921
-0.421671671671672 	300.0000000000029 	2.545773313693504e-12 	101324.9999999921
-0.4191691691691694 	300.0000000000405 	9.375497541491626e-13 	101324.9999999921
-0.4166666666666669 	300.0000000000471 	3.276668655923942e-12 	101324.9999999921
-0.4141641641641645 	299.9999999999438 	1.764883027398796e-12 	101324.9999999923
-0.411661661661662 	300.0000000000034 	2.715530707566657e-12 	101324.9999999923
-0.4091591591591594 	300.0000000000079 	2.067749174349991e-12 	101324.9999999924
-0.406656656656657 	299.9999999999524 	3.124773963988277e-12 	101324.9999999922
-0.4041541541541545 	300.0000000000163 	1.374519379073153e-12 	101324.9999999922
-0.401651651651652 	299.9999999999328 	3.706081732612629e-12 	101324.9999999923
-0.3991491491491494 	300 	8.36237602679925e-13 	101324.9999999924
-0.396646646646647 	299.9999999999617 	5.003528130048603e-12 	101324.9999999926
-0.3941441441441444 	299.9999999999729 	1.244317689864997e-12 	101324.9999999923
-0.3916416416416419 	299.9999999999397 	4.955810500383625e-12 	101324.9999999923
-0.3891391391391395 	299.9999999999689 	2.182471516395564e-12 	101324.9999999925
-0.3866366366366368 	299.9999999999616 	4.174253124154877e-12 	101324.9999999922
-0.3841341341341344 	300.0000000000001 	2.868241575712054e-12 	101324.9999999919
-0.381631631631632 	299.9999999999591 	3.991664090833371e-12 	101324.9999999921
-0.3791291291291294 	300.0000000000018 	3.336127768497489e-12 	101324.9999999922
-0.3766266266266269 	300.0000000000175 	3.027089645830523e-12 	101324.9999999923
-0.3741241241241244 	300.0000000000196 	3.882602334573886e-12 	101324.9999999923
-0.371621621621622 	300.0000000000147 	2.060770782040015e-12 	101324.9999999923
-0.3691191191191194 	300.0000000000048 	5.28154158716784e-12 	101324.9999999923
-0.366616616616617 	300.0000000000064 	1.771866321970842e-12 	101324.9999999923
-0.3641141141141143 	299.9999999999682 	4.703271684644622e-12 	101324.9999999923
-0.3616116116116119 	299.9999999999534 	2.453020525006725e-12 	101324.9999999924
-0.3591091091091095 	299.9999999999873 	3.696369982834001e-12 	101324.9999999923
-0.356606606606607 	299.9999999999794 	2.603157635846766e-12 	101324.9999999924
-0.3541041041041044 	299.9999999999954 	2.320055498946411e-12 	101324.9999999922
-0.3516016016016019 	300.0000000000083 	3.248320616407595e-12 	101324.9999999919
-0.3490990990990994 	299.9999999999923 	2.296984777599973e-12 	101324.9999999919
-0.346596596596597 	300.0000000000362 	4.246027098413838e-12 	101324.9999999919
-0.3440940940940944 	300.0000000000427 	1.978962204019928e-12 	101324.9999999919
-0.3415915915915919 	300.0000000000152 	3.908502207178908e-12 	101324.9999999922
-0.3390890890890895 	299.9999999999819 	2.245197573448686e-12 	101324.9999999921
-0.3365865865865869 	300.0000000000114 	3.006329196397684e-12 	101324.9999999922
-0.3340840840840844 	300.0000000000034 	1.992373875557006e-12 	101324.9999999924
-0.3315815815815819 	300.0000000000184 	2.875312440219011e-12 	101324.9999999925
-0.3290790790790794 	300.0000000000172 	2.485211665372474e-12 	101324.9999999925
-0.3265765765765769 	299.9999999999407 	3.240427680538471e-12 	101324.9999999927
-0.3240740740740744 	299.9999999999968 	1.67868617911921e-12 	101324.9999999926
-0.3215715715715718 	300.0000000000059 	3.529762654754849e-12 	101324.9999999925
-0.3190690690690695 	299.9999999999475 	1.901121395348493e-12 	101324.9999999927
-0.3165665665665668 	299.9999999999897 	3.745165420721034e-12 	101324.9999999927
-0.3140640640640644 	300.0000000000024 	1.228592193286936e-12 	101324.9999999927
-0.311561561561562 	299.9999999999384 	4.06370167778485e-12 	101324.9999999924
-0.3090590590590593 	299.9999999999899 	1.344326584665545e-12 	101324.999999992
-0.3065565565565568 	300.0000000000005 	4.920443032922757e-12 	101324.9999999921
-0.3040540540540545 	299.999999999999 	1.635683575024564e-12 	101324.999999992
-0.3015515515515518 	300.0000000000272 	5.343737457435492e-12 	101324.9999999919
-0.2990490490490494 	299.9999999999567 	1.703599026571799e-12 	101324.9999999916
-0.2965465465465469 	299.9999999999928 	4.303295766561357e-12 	101324.9999999919
-0.2940440440440444 	300.0000000000022 	3.378178535734818e-12 	101324.9999999918
-0.2915415415415418 	300.000000000006 	4.265617957464773e-12 	101324.9999999921
-0.2890390390390395 	300.000000000006 	5.093403114262126e-12 	101324.9999999921
-0.2865365365365368 	299.9999999999856 	4.698407928858142e-12 	101324.9999999921
-0.2840340340340343 	299.999999999989 	6.550772428838456e-12 	101324.9999999921
-0.2815315315315318 	299.9999999999396 	4.405706891601266e-12 	101324.999999992
-0.2790290290290295 	299.9999999999587 	5.915039080533473e-12 	101324.999999992
-0.2765265265265269 	300.0000000000049 	4.970305047205521e-12 	101324.9999999917
-0.2740240240240244 	300.0000000000238 	5.909727812893873e-12 	101324.9999999917
-0.2715215215215219 	300.0000000000091 	6.106219827367242e-12 	101324.9999999917
-0.2690190190190194 	299.9999999999476 	6.119415503299353e-12 	101324.9999999916
-0.2665165165165169 	299.9999999999986 	7.442222692381236e-12 	101324.9999999919
-0.2640140140140144 	299.9999999999733 	6.286386010095644e-12 	101324.9999999916
-0.2615115115115119 	299.9999999999998 	8.396559502496518e-12 	101324.9999999917
-0.2590090090090094 	299.9999999999392 	5.783548475835205e-12 	101324.9999999917
-0.2565065065065068 	299.9999999999893 	5.969752592851115e-12 	101324.9999999919
-0.2540040040040044 	299.9999999999938 	5.588993991421288e-12 	101324.999999992
-0.2515015015015019 	300.0000000000336 	5.175226414808019e-12 	101324.9999999922
-0.2489989989989994 	300.0000000000379 	6.927207330849733e-12 	101324.9999999927
-0.2464964964964968 	299.9999999999906 	3.913655624939107e-12 	101324.9999999926
-0.2439939939939944 	299.999999999998 	6.67542164308528e-12 	101324.9999999928
-0.2414914914914919 	299.9999999999742 	2.697240368115316e-12 	101324.9999999922
-0.2389889889889893 	300.0000000000027 	6.166981536810509e-12 	101324.9999999921
-0.2364864864864869 	300.0000000000193 	2.780700413761137e-12 	101324.9999999921
-0.2339839839839843 	299.9999999999415 	6.810237596703988e-12 	101324.9999999925
-0.2314814814814819 	299.9999999999895 	3.054869289521692e-12 	101324.9999999925
-0.2289789789789792 	299.9999999999283 	6.914745410013835e-12 	101324.9999999924
-0.2264764764764769 	299.9999999999562 	4.959468053537157e-12 	101324.9999999927
-0.2239739739739743 	299.9999999999636 	6.078079461012497e-12 	101324.9999999924
-0.2214714714714718 	299.9999999999437 	5.210405118707981e-12 	101324.9999999925
-0.2189689689689693 	299.9999999999721 	4.003644562432749e-12 	101324.9999999924
-0.2164664664664669 	299.999999999982 	5.327289346175763e-12 	101324.9999999924
-0.2139639639639643 	299.9999999999384 	2.965892176049131e-12 	101324.9999999922
-0.2114614614614618 	299.9999999999813 	3.860221322428196e-12 	101324.999999992
-0.2089589589589593 	299.9999999999895 	3.329719830257235e-12 	101324.9999999919
-0.2064564564564568 	299.9999999999885 	2.983122815066529e-12 	101324.9999999921
-0.2039539539539543 	299.9999999999284 	3.388924866302286e-12 	101324.9999999921
-0.2014514514514518 	299.9999999999524 	1.678366693780528e-12 	101324.9999999919
-0.1989489489489494 	299.9999999999734 	4.43335084588523e-12 	101324.9999999921
-0.1964464464464468 	299.9999999999883 	1.668962682015973e-12 	101324.999999992
-0.1939439439439443 	299.9999999999887 	4.336629581005506e-12 	101324.9999999924
-0.1914414414414418 	299.9999999999291 	2.018036032484303e-12 	101324.9999999923
-0.1889389389389393 	300.0000000000072 	3.042945971481205e-12 	101324.9999999925
-0.1864364364364368 	300.0000000000358 	2.385475761784507e-12 	101324.9999999924
-0.1839339339339343 	299.9999999999756 	2.808559033440127e-12 	101324.9999999921
-0.1814314314314318 	299.9999999999973 	1.621668798534474e-12 	101324.999999992
-0.1789289289289293 	299.999999999918 	2.376650817839407e-12 	101324.9999999924
-0.1764264264264268 	299.9999999999794 	1.115696599505979e-12 	101324.9999999921
-0.1739239239239243 	299.9999999999193 	3.020868178674773e-12 	101324.9999999921
-0.1714214214214218 	299.9999999999857 	3.13789770719288e-13 	101324.9999999922
-0.1689189189189193 	299.9999999999582 	4.397076800696056e-12 	101324.9999999923
-0.1664164164164168 	299.9999999999997 	4.034161451266897e-13 	101324.9999999926
-0.1639139139139143 	299.9999999999904 	6.568125405954943e-12 	101324.9999999927
-0.1614114114114118 	300.0000000000256 	1.635101236727996e-12 	101324.9999999928
-0.1589089089089093 	299.9999999999948 	8.643924456417982e-12 	101324.9999999929
-0.1564064064064068 	299.9999999999843 	2.363341633168754e-12 	101324.9999999929
-0.1539039039039043 	299.9999999999935 	8.874315163582188e-12 	101324.9999999931
-0.1514014014014018 	300.0000000000223 	2.76249266684688e-12 	101324.9999999929
-0.1488988988988993 	299.9999999999876 	7.507343593091594e-12 	101324.9999999928
-0.1463963963963968 	300.000000000001 	2.322817229395309e-12 	101324.9999999927
-0.1438938938938943 	299.9999999999636 	5.469048217525972e-12 	101324.9999999927
-0.1413913913913918 	299.999999999932 	9.02704160200887e-13 	101324.9999999925
-0.1388888888888893 	299.9999999999822 	4.458671110761492e-12 	101324.9999999924
-0.1363863863863868 	299.9999999999141 	1.117952441184261e-12 	101324.9999999927
-0.1338838838838843 	299.9999999999297 	3.204930142595306e-12 	101324.999999993
-0.1313813813813818 	299.9999999999887 	2.177966872701533e-12 	101324.9999999931
-0.1288788788788793 	299.999999999965 	4.541715801561513e-12 	101324.9999999933
-0.1263763763763768 	299.9999999999719 	1.810048778539918e-12 	101324.9999999933
-0.1238738738738743 	299.9999999999328 	3.898893497341364e-12 	101324.9999999931
-0.1213713713713717 	299.999999999976 	1.144083326565608e-12 	101324.9999999931
-0.1188688688688693 	300.0000000000079 	4.76538296278156e-12 	101324.9999999929
-0.1163663663663668 	299.99999999992 	6.119802882103102e-13 	101324.9999999927
-0.1138638638638643 	299.99999999999 	4.549966745324561e-12 	101324.9999999926
-0.1113613613613618 	299.9999999999885 	7.267912549613101e-13 	101324.9999999927
-0.1088588588588592 	299.9999999999781 	5.26488305452699e-12 	101324.999999993
-0.1063563563563568 	299.9999999999559 	2.83131127086797e-13 	101324.9999999926
-0.1038538538538543 	299.9999999999784 	4.350142592275218e-12 	101324.9999999926
-0.1013513513513517 	300.0000000000122 	9.971840451422129e-13 	101324.9999999929
-0.09884884884884926 	299.9999999999536 	3.984955875090934e-12 	101324.999999993
-0.09634634634634676 	299.9999999999141 	1.7412939961773e-12 	101324.9999999931
-0.09384384384384425 	299.9999999999376 	3.005962206199339e-12 	101324.999999993
-0.09134134134134177 	300.0000000000232 	1.926062653367882e-12 	101324.9999999935
-0.08883883883883925 	300.0000000000055 	3.352953508192634e-12 	101324.9999999936
-0.08633633633633674 	299.9999999999587 	2.48522446866513e-12 	101324.9999999936
-0.08383383383383426 	300.0000000000086 	2.183704364487198e-12 	101324.9999999936
-0.08133133133133173 	299.9999999999688 	2.455805984844982e-12 	101324.9999999937
-0.07882882882882926 	299.9999999999008 	1.920624484851003e-12 	101324.9999999936
-0.07632632632632676 	299.9999999999681 	1.802746162943071e-12 	101324.9999999931
-0.07382382382382424 	299.9999999999124 	1.850873522414627e-12 	101324.9999999929
-0.07132132132132173 	300.0000000000077 	1.555016365797299e-12 	101324.9999999928
-0.06881881881881925 	299.9999999999569 	1.750863218628518e-12 	101324.9999999927
-0.06631631631631671 	299.9999999999081 	1.6928100500997e-12 	101324.9999999925
-0.06381381381381425 	299.9999999999632 	1.659154510642854e-12 	101324.9999999923
-0.06131131131131173 	299.9999999999654 	1.740171670111743e-12 	101324.9999999923
-0.05880880880880923 	299.9999999999289 	1.598347541606446e-12 	101324.9999999924
-0.05630630630630672 	299.9999999999714 	1.259182154345485e-12 	101324.9999999925
-0.05380380380380424 	300.0000000000127 	6.776763074170109e-13 	101324.9999999923
-0.05130130130130173 	300.0000000000063 	1.082612551734391e-12 	101324.9999999924
-0.04879879879879922 	299.9999999999478 	1.112079519983724e-12 	101324.9999999922
-0.04629629629629672 	299.9999999999459 	1.625104532460776e-12 	101324.9999999927
-0.04379379379379422 	299.9999999999322 	1.619006794838827e-12 	101324.9999999928
-0.04129129129129173 	299.9999999999839 	8.042335617325106e-13 	101324.9999999927
-0.03878878878878922 	299.9999999999847 	9.236196199897331e-13 	101324.9999999933
-0.03628628628628671 	299.9999999999821 	6.659212694520483e-13 	101324.9999999932
-0.03378378378378422 	299.9999999999401 	3.520297794014962e-13 	101324.999999993
-0.03128128128128172 	299.9999999999717 	4.944446197439967e-13 	101324.9999999925
-0.02877877877877922 	299.9999999999712 	3.820830840028539e-13 	101324.9999999924
-0.0262762762762767 	299.9999999999152 	4.657493866871663e-13 	101324.9999999923
-0.02377377377377422 	300.0000000000121 	7.39054987178905e-13 	101324.9999999921
-0.0212712712712717 	299.9999999999205 	7.812938955205004e-13 	101324.9999999921
-0.01876876876876921 	299.9999999999791 	8.015201733555325e-13 	101324.9999999921
-0.01626626626626671 	300.0000000000115 	9.27170397470805e-13 	101324.9999999924
-0.0137637637637642 	299.9999999999693 	2.259458671000719e-13 	101324.9999999922
-0.0112612612612617 	300.0000000000142 	3.914161957502889e-13 	101324.9999999922
-0.008758758758759198 	299.9999999999966 	5.152027931010263e-13 	101324.9999999922
-0.006256256256256697 	299.9999999999033 	5.824470710270391e-13 	101324.9999999924
-0.003753753753754195 	299.9999999999604 	9.732302530109205e-13 	101324.9999999927
-0.001251251251251693 	299.9999999999409 	7.096425914377899e-13 	101324.9999999926
0.00125125125125081 	299.9999999999562 	1.033045860249966e-12 	101324.9999999925
0.003753753753753312 	299.9999999999678 	2.087324073560248e-13 	101324.9999999923
0.006256256256255817 	299.9999999999104 	4.552349549361461e-13 	101324.9999999927
0.008758758758758317 	299.9999999999964 	3.904623874293424e-13 	101324.9999999927
0.01126126126126082 	300.0000000000067 	5.431781902728434e-13 	101324.9999999931
0.01376376376376332 	299.9999999999737 	3.942617678776605e-13 	101324.9999999933
0.01626626626626582 	300.0000000000104 	7.361020116508854e-13 	101324.9999999929
0.01876876876876833 	299.9999999999542 	1.162020392410678e-12 	101324.9999999927
0.02127127127127083 	299.9999999999735 	2.025183119971595e-12 	101324.9999999925
0.02377377377377332 	299.9999999999953 	1.511999091107567e-12 	101324.9999999929
0.02627627627627583 	299.9999999999189 	1.2608732247587e-12 	101324.9999999928
0.02877877877877833 	300.0000000000128 	1.466777801939813e-12 	101324.9999999928
0.03128128128128083 	299.9999999999525 	1.284293500846003e-12 	101324.9999999928
0.03378378378378333 	299.9999999999184 	2.336141062006741e-12 	101324.9999999927
0.03628628628628584 	299.9999999999703 	1.987707296564577e-12 	101324.9999999926
0.03878878878878834 	299.9999999999858 	1.339768049833181e-12 	101324.9999999929
0.04129129129129084 	299.9999999999848 	8.023196189922972e-13 	101324.9999999928
0.04379379379379333 	299.9999999999568 	1.212506978934005e-12 	101324.9999999929
0.04629629629629585 	299.999999999909 	1.770663237769621e-12 	101324.9999999929
0.04879879879879834 	299.9999999999654 	2.351223249854771e-12 	101324.9999999929
0.05130130130130085 	300.0000000000093 	1.93654011743138e-12 	101324.9999999928
0.05380380380380335 	300.0000000000095 	1.430845932984927e-12 	101324.9999999929
0.05630630630630584 	299.9999999999972 	7.602743810081411e-13 	101324.9999999928
0.05880880880880836 	299.9999999999342 	9.200652474512421e-13 	101324.9999999927
0.06131131131131085 	299.9999999999744 	1.034243000702458e-12 	101324.9999999927
0.06381381381381336 	299.9999999999711 	1.025617019226647e-12 	101324.9999999928
0.06631631631631586 	299.9999999999066 	1.449664695513462e-12 	101324.9999999927
0.06881881881881835 	299.9999999999617 	1.480993965871997e-12 	101324.9999999926
0.07132132132132088 	299.9999999999914 	5.631734239953351e-13 	101324.9999999926
0.07382382382382337 	299.9999999999184 	8.1573446007084e-13 	101324.9999999924
0.07632632632632587 	299.9999999999709 	1.639259549743961e-12 	101324.9999999925
0.07882882882882837 	299.9999999999457 	1.968328748962442e-12 	101324.9999999926
0.08133133133133086 	299.9999999999768 	2.325120112696921e-12 	101324.9999999921
0.08383383383383337 	299.9999999999871 	2.450901956887424e-12 	101324.9999999919
0.08633633633633589 	299.9999999999222 	2.569108931341807e-12 	101324.999999992
0.08883883883883838 	299.9999999999997 	2.868536206876294e-12 	101324.9999999921
0.09134134134134086 	299.999999999974 	2.421549336781205e-12 	101324.999999992
0.09384384384384339 	299.9999999999097 	3.509850926627821e-12 	101324.9999999923
0.09634634634634588 	299.9999999999682 	4.330271921562168e-12 	101324.9999999923
0.09884884884884838 	299.9999999999782 	4.84033636589679e-12 	101324.9999999926
0.1013513513513509 	300.0000000000142 	5.40534682554648e-12 	101324.9999999929
0.1038538538538534 	299.999999999964 	5.037691003982909e-12 	101324.999999993
0.1063563563563559 	300.0000000000033 	4.777756223851394e-12 	101324.9999999929
0.1088588588588584 	300.0000000000278 	4.084003003109124e-12 	101324.9999999927
0.1113613613613609 	299.9999999999337 	4.462968634339109e-12 	101324.9999999924
0.1138638638638634 	299.9999999999545 	4.324387137835726e-12 	101324.9999999927
0.1163663663663659 	299.9999999999578 	4.258581319224499e-12 	101324.9999999931
0.1188688688688684 	299.9999999999832 	4.876747304832357e-12 	101324.9999999929
0.1213713713713709 	299.9999999999997 	4.150379932018298e-12 	101324.9999999927
0.1238738738738734 	299.9999999999363 	3.472050077484943e-12 	101324.9999999926
0.1263763763763759 	299.999999999984 	3.548519783629393e-12 	101324.9999999923
0.1288788788788784 	299.9999999999843 	3.863828887208327e-12 	101324.9999999922
0.1313813813813809 	299.9999999999836 	3.63965340850531e-12 	101324.9999999924
0.1338838838838834 	299.9999999999785 	3.426509893668456e-12 	101324.9999999926
0.1363863863863859 	300.0000000000137 	3.292613643329045e-12 	101324.9999999923
0.1388888888888884 	300.0000000000394 	3.359450520577758e-12 	101324.9999999921
0.1413913913913909 	300.0000000000013 	2.57206114090791e-12 	101324.999999992
0.1438938938938934 	299.9999999999905 	2.753512060803344e-12 	101324.9999999923
0.1463963963963959 	299.9999999999579 	1.357730920896815e-12 	101324.9999999925
0.1488988988988985 	299.9999999999243 	2.878312271778956e-12 	101324.9999999927
0.1514014014014009 	299.9999999999702 	1.67311488056715e-12 	101324.9999999927
0.1539039039039035 	299.9999999999688 	3.689753237019044e-12 	101324.9999999928
0.1564064064064059 	299.9999999999456 	1.357170516874553e-12 	101324.9999999927
0.1589089089089084 	299.9999999999876 	4.602703752315063e-12 	101324.9999999928
0.1614114114114109 	299.9999999999829 	2.24615130390183e-12 	101324.9999999927
0.1639139139139134 	299.9999999999193 	4.5722683628155e-12 	101324.9999999927
0.166416416416416 	300.0000000000041 	3.691916086066411e-12 	101324.9999999927
0.1689189189189185 	300.0000000000214 	3.636268580354285e-12 	101324.9999999925
0.1714214214214209 	300.0000000000014 	4.459602837817337e-12 	101324.9999999926
0.1739239239239235 	299.9999999999835 	3.181779337087893e-12 	101324.9999999923
0.1764264264264259 	299.9999999999743 	4.7832709616466e-12 	101324.9999999924
0.1789289289289284 	300.0000000000002 	1.676227280738337e-12 	101324.9999999924
0.181431431431431 	299.9999999999642 	3.807410446659205e-12 	101324.9999999925
0.1839339339339334 	299.9999999999689 	1.416183900436189e-12 	101324.9999999922
0.186436436436436 	299.9999999999362 	3.132847419610171e-12 	101324.9999999922
0.1889389389389385 	299.9999999999815 	2.612132405705394e-12 	101324.9999999924
0.191441441441441 	299.9999999999777 	1.832673749640989e-12 	101324.9999999926
0.1939439439439434 	299.9999999999342 	2.967524263807719e-12 	101324.9999999926
0.196446446446446 	299.999999999952 	1.462748001503651e-12 	101324.9999999928
0.1989489489489485 	299.9999999999686 	3.654217394987872e-12 	101324.9999999926
0.2014514514514509 	299.999999999982 	1.981277283297898e-12 	101324.9999999925
0.2039539539539535 	299.9999999999987 	3.335885909218669e-12 	101324.9999999924
0.2064564564564559 	299.9999999999646 	2.325768835217383e-12 	101324.9999999922
0.2089589589589585 	299.9999999999872 	3.117925630168223e-12 	101324.9999999921
0.211461461461461 	299.9999999999391 	3.151659822374024e-12 	101324.999999992
0.2139639639639635 	299.9999999999808 	2.882622035458314e-12 	101324.9999999919
0.2164664664664659 	300.0000000000036 	4.257598216771245e-12 	101324.9999999918
0.2189689689689684 	300.0000000000022 	2.155108679232895e-12 	101324.9999999919
0.221471471471471 	299.9999999999895 	5.03233775099348e-12 	101324.9999999919
0.2239739739739735 	299.9999999999614 	3.327090277276542e-12 	101324.9999999921
0.226476476476476 	299.9999999999831 	4.87234194757521e-12 	101324.999999992
0.2289789789789785 	299.9999999999948 	4.023035667469278e-12 	101324.9999999922
0.231481481481481 	299.9999999999928 	3.910132513336605e-12 	101324.9999999922
0.2339839839839835 	299.9999999999861 	4.572997462788949e-12 	101324.999999992
0.236486486486486 	300.0000000000225 	3.34309886842158e-12 	101324.9999999919
0.2389889889889885 	300.0000000000003 	5.064941669209922e-12 	101324.9999999919
0.241491491491491 	299.9999999999357 	2.873314081755537e-12 	101324.9999999917
0.2439939939939935 	299.9999999999797 	5.85852731837322e-12 	101324.9999999917
0.246496496496496 	299.9999999999903 	3.439659523731807e-12 	101324.9999999919
0.2489989989989985 	300.0000000000315 	5.346954239636169e-12 	101324.999999992
0.251501501501501 	300.0000000000265 	4.089188910860401e-12 	101324.9999999921
0.2540040040040035 	299.999999999989 	3.620377928453016e-12 	101324.9999999924
0.256506506506506 	300.0000000000272 	3.755411701504038e-12 	101324.9999999923
0.2590090090090086 	299.9999999999211 	2.404215362633438e-12 	101324.9999999924
0.261511511511511 	300.0000000000019 	5.226629105805195e-12 	101324.9999999926
0.2640140140140135 	299.9999999999953 	2.228237325561471e-12 	101324.9999999923
0.2665165165165161 	299.9999999999433 	3.746853473930847e-12 	101324.9999999922
0.2690190190190185 	300.0000000000061 	2.137802279999807e-12 	101324.9999999923
0.271521521521521 	300.0000000000115 	2.140600845982555e-12 	101324.9999999921
0.2740240240240235 	300.0000000000193 	2.115865865539863e-12 	101324.9999999922
0.276526526526526 	300.0000000000103 	9.477719532437864e-13 	101324.9999999923
0.2790290290290286 	299.9999999999528 	2.09301308300528e-12 	101324.9999999923
0.281531531531531 	299.9999999999354 	9.801420527362217e-13 	101324.9999999925
0.2840340340340335 	299.9999999999816 	3.506585382498986e-12 	101324.9999999925
0.2865365365365361 	299.9999999999649 	2.301079998255975e-12 	101324.9999999924
0.2890390390390385 	300.0000000000026 	3.395231711840176e-12 	101324.9999999926
0.291541541541541 	300.000000000002 	3.353313270038518e-12 	101324.9999999926
0.2940440440440436 	299.9999999999968 	2.909645397287256e-12 	101324.9999999928
0.296546546546546 	299.9999999999968 	4.013336717233486e-12 	101324.9999999926
0.2990490490490486 	299.9999999999477 	2.080703669655165e-12 	101324.9999999924
0.3015515515515511 	300.0000000000364 	5.221645334648991e-12 	101324.999999992
0.3040540540540535 	300.0000000000023 	1.2691400511217e-12 	101324.999999992
0.3065565565565562 	299.9999999999937 	5.92929495041692e-12 	101324.999999992
0.3090590590590585 	299.9999999999879 	9.272703252645243e-13 	101324.9999999919
0.3115615615615611 	299.9999999999452 	4.478318163752395e-12 	101324.9999999916
0.3140640640640635 	300.0000000000055 	1.210012466776172e-12 	101324.9999999917
0.316566566566566 	299.9999999999918 	3.199594393314405e-12 	101324.9999999917
0.3190690690690687 	299.9999999999619 	9.583219288219177e-13 	101324.9999999919
0.3215715715715711 	300.0000000000145 	2.31183556577978e-12 	101324.999999992
0.3240740740740735 	300.0000000000005 	8.896966164608337e-13 	101324.9999999918
0.326576576576576 	299.9999999999179 	2.198847874889781e-12 	101324.9999999913
0.3290790790790786 	300.0000000000091 	1.251193541891613e-12 	101324.9999999913
0.3315815815815811 	300.0000000000295 	1.388741514075119e-12 	101324.9999999915
0.3340840840840836 	299.9999999999846 	5.533071324062177e-13 	101324.9999999915
0.3365865865865861 	300.00000000005 	1.450773012799681e-12 	101324.9999999918
0.3390890890890886 	300.000000000045 	2.628212016462545e-13 	101324.9999999918
0.3415915915915911 	300.0000000000028 	1.190905170964806e-12 	101324.9999999918
0.3440940940940935 	299.9999999999636 	4.428695541698449e-13 	101324.9999999917
0.3465965965965962 	300.0000000000288 	1.523459505735299e-12 	101324.9999999916
0.3490990990990985 	300.0000000000228 	8.106201013005447e-13 	101324.9999999918
0.3516016016016011 	299.9999999999907 	1.393907084141563e-12 	101324.999999992
0.3541041041041035 	300.0000000000075 	1.318123744563276e-12 	101324.9999999922
0.3566066066066061 	299.999999999961 	9.988341573394711e-13 	101324.9999999921
0.3591091091091085 	299.9999999999316 	1.873939065392396e-12 	101324.999999992
0.3616116116116112 	299.9999999999516 	9.652151379633458e-13 	101324.9999999919
0.3641141141141137 	299.9999999999419 	2.571827405766584e-12 	101324.9999999917
0.3666166166166161 	299.9999999999341 	1.612342697082741e-12 	101324.9999999917
0.3691191191191185 	300.0000000000294 	3.109106007901077e-12 	101324.9999999919
0.371621621621621 	300.0000000000156 	1.721947576498774e-12 	101324.9999999921
0.3741241241241237 	300.0000000000397 	2.064017820297962e-12 	101324.9999999923
0.3766266266266261 	300.0000000000203 	1.258259250787782e-12 	101324.9999999923
0.3791291291291286 	299.9999999999899 	8.350968666446321e-13 	101324.9999999924
0.3816316316316311 	299.9999999999345 	1.92693332835736e-12 	101324.9999999923
0.3841341341341336 	300.0000000000082 	7.232270474193005e-13 	101324.9999999924
0.3866366366366362 	299.9999999999961 	1.602026665259862e-12 	101324.9999999922
0.3891391391391387 	299.9999999999644 	4.257768078726117e-13 	101324.9999999922
0.391641641641641 	299.9999999999977 	8.573250396908749e-13 	101324.9999999921
0.3941441441441436 	300.0000000000035 	5.36659581557913e-13 	101324.9999999921
0.3966466466466462 	299.9999999999961 	2.232419431030514e-12 	101324.9999999922
0.3991491491491486 	299.9999999999548 	1.303077734296699e-12 	101324.9999999924
0.4016516516516512 	299.9999999999349 	1.685662532274336e-12 	101324.9999999924
0.4041541541541536 	299.999999999956 	8.742194048563346e-13 	101324.9999999922
0.4066566566566561 	299.99999999996 	8.708275571778586e-13 	101324.9999999922
0.4091591591591587 	299.999999999999 	1.453836814372525e-12 	101324.9999999923
0.4116616616616612 	300.0000000000068 	2.43170248847931e-13 	101324.9999999924
0.4141641641641635 	300.0000000000305 	7.531207524401957e-13 	101324.9999999923
0.4166666666666662 	299.9999999999966 	4.969058179469926e-13 	101324.9999999922
0.4191691691691687 	299.9999999999544 	1.157988618966154e-12 	101324.9999999922
0.421671671671671 	300.0000000000069 	1.447858568155362e-12 	101324.9999999922
0.4241741741741737 	299.9999999999803 	2.451058268085199e-12 	101324.9999999924
0.4266766766766761 	299.9999999999616 	2.007281981001165e-12 	101324.9999999923
0.4291791791791785 	300.0000000000177 	3.043671686508204e-12 	101324.9999999921
0.4316816816816812 	300.0000000000095 	2.56433604901096e-12 	101324.9999999918
0.4341841841841836 	299.9999999999882 	2.757895750471197e-12 	101324.9999999919
0.4366866866866862 	299.9999999999355 	1.702781337459507e-12 	101324.9999999921
0.4391891891891885 	299.9999999999876 	1.949630869417124e-12 	101324.9999999921
0.4416916916916913 	299.9999999999878 	8.810547957603951e-13 	101324.9999999922
0.4441941941941936 	299.999999999993 	1.503927371235395e-12 	101324.9999999922
0.4466966966966961 	299.9999999999315 	5.224206323625467e-13 	101324.9999999923
0.4491991991991987 	299.9999999999875 	1.479144874977181e-13 	101324.9999999924
0.4517017017017012 	299.999999999986 	9.982673945071848e-14 	101324.9999999923
0.4542042042042035 	299.9999999999889 	2.098641228925753e-13 	101324.9999999918
0.4567067067067062 	299.9999999999991 	8.748004516454387e-13 	101324.9999999918
0.4592092092092087 	299.9999999999427 	9.97951809808507e-13 	101324.9999999919
0.4617117117117112 	300.0000000000147 	1.36579748261638e-12 	101324.9999999921
0.4642142142142137 	299.9999999999687 	8.305980191113711e-13 	101324.9999999916
0.4667167167167162 	299.9999999999938 	8.72591239882159e-13 	101324.9999999915
0.4692192192192187 	299.9999999999649 	1.623404211066056e-12 	101324.9999999915
0.4717217217217212 	300.0000000000037 	1.977929518717477e-12 	101324.9999999917
0.4742242242242236 	299.9999999999618 	1.679359930314952e-12 	101324.9999999917
0.4767267267267262 	299.9999999999781 	9.112412685054564e-13 	101324.9999999921
0.4792292292292287 	300.0000000000151 	9.59760649563896e-13 	101324.9999999922
0.4817317317317312 	300.0000000000252 	7.13327736313544e-13 	101324.9999999924
0.4842342342342336 	299.9999999999868 	7.115479238494043e-13 	101324.9999999923
0.4867367367367362 	299.9999999999638 	1.353252188703432e-12 	101324.9999999923
0.4892392392392387 	300.0000000000236 	1.383587989051838e-12 	101324.9999999925
0.4917417417417412 	300.0000000000049 	2.931454587103935e-12 	101324.9999999923
0.4942442442442437 	299.9999999999242 	2.265888189759762e-12 	101324.9999999923
0.4967467467467462 	299.9999999999438 	3.411050977937875e-12 	101324.9999999921
0.4992492492492487 	299.9999999999335 	1.284472632012809e-12 	101324.9999999918
0.5017517517517511 	299.9999999999612 	2.050850921877959e-12 	101324.9999999917
0.5042542542542537 	299.9999999999695 	5.826344445473114e-13 	101324.9999999916
0.5067567567567562 	299.9999999999561 	5.680850824680624e-13 	101324.9999999915
0.5092592592592589 	299.9999999999709 	9.633876025495775e-13 	101324.9999999918
0.5117617617617611 	299.9999999999679 	1.314777609339757e-12 	101324.9999999918
0.5142642642642637 	299.9999999999928 	1.595341335900609e-12 	101324.9999999919
0.5167667667667663 	299.9999999999808 	2.034106324809954e-12 	101324.9999999919
0.5192692692692688 	299.9999999999339 	3.887750399568118e-12 	101324.999999992
0.5217717717717714 	299.9999999999544 	2.564251248458644e-12 	101324.9999999922
0.5242742742742736 	299.9999999999554 	3.39735647230435e-12 	101324.9999999924
0.5267767767767763 	299.9999999999711 	2.197399408813534e-12 	101324.9999999923
0.5292792792792789 	299.9999999999529 	2.1575765774851e-12 	101324.9999999926
0.5317817817817813 	299.9999999999245 	1.765060948930373e-12 	101324.9999999929
0.5342842842842837 	300.0000000000161 	9.618094017630815e-13 	101324.9999999929
0.5367867867867864 	300.0000000000039 	9.676624020366846e-13 	101324.9999999929
0.5392892892892888 	299.9999999999698 	1.31443903400198e-12 	101324.999999993
0.5417917917917912 	300.0000000000081 	6.356626312579564e-13 	101324.9999999929
0.5442942942942938 	299.9999999999858 	1.725534033794452e-12 	101324.9999999927
0.5467967967967964 	299.99999999996 	9.716872852758247e-13 	101324.9999999926
0.5492992992992988 	299.9999999999545 	1.476618732293301e-12 	101324.9999999925
0.5518018018018012 	299.9999999999512 	4.284813304886513e-13 	101324.9999999924
0.5543043043043039 	300.0000000000185 	9.292004219688025e-13 	101324.9999999924
0.5568068068068063 	299.999999999992 	7.582419622394488e-13 	101324.9999999923
0.5593093093093087 	299.9999999999251 	1.278106239521956e-12 	101324.9999999924
0.5618118118118114 	299.9999999999723 	8.270929749221747e-13 	101324.9999999927
0.5643143143143137 	299.9999999999549 	1.354811314935909e-12 	101324.9999999925
0.5668168168168163 	299.9999999999924 	8.715394433509784e-13 	101324.9999999926
0.5693193193193188 	300.0000000000226 	1.285576273228753e-12 	101324.9999999925
0.5718218218218213 	300.0000000000178 	1.604176163727529e-12 	101324.9999999926
0.5743243243243239 	300.0000000000038 	9.609015328022454e-13 	101324.9999999926
0.5768268268268262 	299.9999999999999 	1.82902906247976e-12 	101324.9999999924
0.5793293293293288 	299.9999999999555 	2.753601956521061e-12 	101324.9999999923
0.5818318318318314 	299.9999999999374 	2.382455623222547e-12 	101324.9999999922
0.5843343343343338 	299.9999999999868 	3.101160487509345e-12 	101324.9999999921
0.5868368368368363 	299.9999999999828 	2.284832527488569e-12 	101324.9999999919
0.5893393393393387 	299.9999999999611 	1.552533356079732e-12 	101324.999999992
0.5918418418418413 	299.9999999999583 	2.377258943679392e-12 	101324.9999999921
0.5943443443443439 	300.0000000000163 	1.342202064473083e-12 	101324.9999999923
0.5968468468468463 	300.0000000000134 	3.198651644552958e-12 	101324.9999999924
0.5993493493493487 	300.0000000000288 	2.426752559344567e-12 	101324.9999999924
0.6018518518518514 	299.9999999999856 	2.91372250876141e-12 	101324.9999999924
0.6043543543543537 	299.9999999999959 	1.684020602289178e-12 	101324.9999999924
0.6068568568568564 	299.9999999999866 	2.510336072690729e-12 	101324.9999999925
0.6093593593593587 	299.9999999999484 	1.562945676401996e-12 	101324.9999999927
0.6118618618618614 	299.9999999999409 	1.690700964192941e-12 	101324.9999999928
0.6143643643643638 	300.0000000000135 	1.06540986496231e-12 	101324.9999999926
0.6168668668668662 	299.999999999988 	2.208687370619958e-12 	101324.9999999924
0.6193693693693688 	299.9999999999657 	1.325648069118929e-12 	101324.9999999925
0.6218718718718714 	299.999999999972 	3.080240398715301e-12 	101324.9999999925
0.6243743743743737 	299.9999999999537 	1.765776190728157e-12 	101324.9999999924
0.6268768768768762 	299.9999999999411 	3.198673063035381e-12 	101324.9999999923
0.629379379379379 	299.99999999996 	1.721513544366945e-12 	101324.9999999926
0.6318818818818812 	299.9999999999776 	2.090108153761095e-12 	101324.9999999927
0.6343843843843838 	300.0000000000133 	2.304911879782734e-12 	101324.9999999925
0.6368868868868864 	299.9999999999862 	2.523837974039943e-12 	101324.9999999922
0.6393893893893888 	299.9999999999353 	3.652042966439942e-12 	101324.9999999924
0.6418918918918912 	300.000000000004 	1.8380438035649e-12 	101324.9999999927
0.6443943943943939 	299.9999999999907 	4.887066295631078e-12 	101324.9999999928
0.6468968968968963 	299.9999999999887 	2.192691335095831e-12 	101324.9999999927
0.6493993993993988 	299.999999999981 	3.717496659371642e-12 	101324.9999999927
0.6519019019019012 	299.9999999999795 	1.600893717645342e-12 	101324.9999999928
0.6544044044044038 	299.9999999999245 	3.420258189505677e-12 	101324.999999993
0.6569069069069065 	299.9999999999621 	1.16236052552095e-12 	101324.9999999932
0.6594094094094087 	299.9999999999724 	2.763416150473311e-12 	101324.9999999932
0.6619119119119113 	299.9999999999638 	1.064397305032454e-12 	101324.9999999931
0.664414414414414 	300.0000000000011 	1.910251830532258e-12 	101324.9999999931
0.6669169169169162 	300.0000000000157 	6.178656106234558e-13 	101324.999999993
0.6694194194194188 	299.9999999999884 	1.40004403981206e-12 	101324.999999993
0.6719219219219214 	299.9999999999375 	7.712005584182256e-13 	101324.9999999932
0.674424424424424 	299.999999999977 	8.014372829946579e-13 	101324.9999999933
0.6769269269269262 	299.9999999999343 	9.826534211843283e-13 	101324.9999999935
0.679429429429429 	300.0000000000019 	5.209425307572669e-13 	101324.9999999936
0.6819319319319311 	299.9999999999799 	9.8600074093724e-13 	101324.9999999936
0.6844344344344341 	299.999999999998 	4.567607424002912e-13 	101324.9999999936
0.686936936936936 	299.9999999999956 	7.209814380016555e-13 	101324.9999999937
0.6894394394394392 	299.9999999999912 	8.358351398379974e-13 	101324.9999999935
0.6919419419419413 	299.9999999999862 	7.568153241003968e-13 	101324.9999999935
0.694444444444444 	299.9999999999462 	8.191842986683097e-13 	101324.9999999936
0.6969469469469463 	299.9999999999393 	9.39362418752558e-13 	101324.9999999934
0.6994494494494489 	299.999999999936 	5.832940355924211e-13 	101324.9999999933
0.7019519519519515 	299.9999999999881 	1.671356032764325e-12 	101324.9999999933
0.7044544544544538 	299.9999999999615 	1.286984164532663e-12 	101324.9999999931
0.7069569569569564 	299.9999999999941 	2.192450495131463e-12 	101324.9999999931
0.7094594594594589 	299.99999999997 	1.089300284626724e-12 	101324.9999999934
0.7119619619619615 	299.9999999999276 	1.222621606272461e-12 	101324.9999999937
0.7144644644644638 	299.9999999999576 	1.058860231815641e-12 	101324.9999999937
0.7169669669669665 	299.9999999999329 	5.530128671911685e-13 	101324.9999999936
0.7194694694694688 	299.9999999999915 	7.479385044723829e-13 	101324.9999999938
0.7219719719719715 	299.9999999999874 	5.966963470009517e-13 	101324.9999999939
0.7244744744744737 	299.9999999999998 	7.062601723171325e-13 	101324.9999999938
0.7269769769769764 	299.9999999999923 	8.38253900599977e-13 	101324.9999999935
0.7294794794794791 	299.9999999999911 	1.176808194746467e-12 	101324.9999999936
0.7319819819819813 	299.9999999999855 	1.420463507326758e-12 	101324.9999999935
0.7344844844844839 	299.9999999999402 	5.08587430040662e-13 	101324.9999999935
0.7369869869869864 	299.9999999999628 	8.227691662600839e-13 	101324.9999999934
0.739489489489489 	299.9999999999554 	8.773345551496062e-13 	101324.9999999936
0.7419919919919914 	299.9999999999459 	8.528397013277635e-13 	101324.9999999937
0.7444944944944939 	299.9999999999836 	1.781361329120608e-12 	101324.9999999939
0.7469969969969963 	299.9999999999747 	2.237603176961096e-12 	101324.9999999941
0.7494994994994989 	299.9999999999532 	1.924440129184812e-12 	101324.9999999943
0.7520020020020015 	299.9999999999766 	3.001309657462904e-12 	101324.9999999945
0.7545045045045039 	299.9999999999747 	1.397696325715369e-12 	101324.9999999943
0.7570070070070062 	299.9999999999538 	2.330316068260959e-12 	101324.9999999943
0.7595095095095092 	299.9999999999416 	8.2677421945136e-13 	101324.9999999943
0.7620120120120112 	300 	1.508201271050812e-12 	101324.999999994
0.7645145145145138 	299.999999999989 	1.09021260606019e-12 	101324.9999999937
0.7670170170170165 	299.9999999999487 	8.441942784770695e-13 	101324.9999999936
0.7695195195195191 	299.9999999999376 	2.045354375159265e-12 	101324.9999999936
0.7720220220220213 	299.999999999945 	1.453790996279297e-12 	101324.9999999933
0.7745245245245239 	299.9999999999482 	1.05334314264598e-12 	101324.9999999932
0.7770270270270263 	299.9999999999825 	1.532582666889714e-12 	101324.9999999931
0.779529529529529 	299.9999999999868 	8.81409547210624e-13 	101324.9999999929
0.7820320320320313 	299.9999999999736 	1.618597506037219e-12 	101324.9999999929
0.784534534534534 	299.9999999999974 	1.407589654179219e-12 	101324.9999999932
0.7870370370370364 	299.9999999999944 	1.290066519572876e-12 	101324.9999999933
0.7895395395395389 	299.9999999999824 	2.290035179926283e-12 	101324.9999999934
0.7920420420420413 	299.9999999999754 	1.361942986998022e-12 	101324.9999999936
0.794544544544544 	299.9999999999794 	2.704887468869491e-12 	101324.9999999936
0.7970470470470463 	300.0000000000015 	1.917860988355793e-12 	101324.9999999937
0.799549549549549 	299.9999999999854 	2.852081227169782e-12 	101324.9999999937
0.8020520520520515 	299.9999999999869 	1.267369059864598e-12 	101324.9999999937
0.8045545545545539 	299.9999999999562 	1.771481604251335e-12 	101324.999999994
0.8070570570570563 	299.9999999999854 	5.80785679799854e-13 	101324.9999999941
0.8095595595595589 	299.9999999999653 	1.431012854693889e-12 	101324.9999999942
0.8120620620620614 	299.9999999999454 	1.707602555813205e-12 	101324.9999999942
0.8145645645645638 	299.9999999999969 	1.877625144010626e-12 	101324.9999999941
0.8170670670670666 	299.9999999999921 	2.443340843538988e-12 	101324.9999999939
0.8195695695695689 	299.9999999999776 	1.781319934295893e-12 	101324.9999999938
0.8220720720720714 	299.9999999999552 	3.773586306112782e-12 	101324.9999999937
0.8245745745745739 	299.9999999999952 	2.57069519750041e-12 	101324.9999999934
0.8270770770770765 	299.999999999979 	4.064214090458883e-12 	101324.9999999934
0.8295795795795788 	299.9999999999628 	3.009179943780825e-12 	101324.9999999935
0.8320820820820815 	300.0000000000117 	3.861129915482832e-12 	101324.9999999937
0.834584584584584 	300.0000000000019 	3.361056604055199e-12 	101324.9999999938
0.8370870870870865 	299.9999999999766 	3.326894069369388e-12 	101324.9999999939
0.8395895895895891 	299.9999999999465 	3.855751308319386e-12 	101324.9999999936
0.8420920920920915 	299.9999999999578 	3.53027005212306e-12 	101324.9999999938
0.844594594594594 	299.9999999999521 	3.626336086099657e-12 	101324.999999994
0.8470970970970964 	299.9999999999568 	3.576552905649496e-12 	101324.9999999943
0.8495995995995991 	299.9999999999866 	3.565699234200127e-12 	101324.9999999947
0.8521021021021015 	299.9999999999806 	4.087408423970599e-12 	101324.9999999948
0.8546046046046039 	299.9999999999829 	4.085464750403964e-12 	101324.9999999948
0.8571071071071066 	299.9999999999992 	5.111526969976308e-12 	101324.9999999946
0.8596096096096089 	299.9999999999691 	3.510837225007746e-12 	101324.9999999945
0.8621121121121116 	299.9999999999451 	4.916636410616178e-12 	101324.9999999946
0.8646146146146139 	299.9999999999919 	2.690746927983201e-12 	101324.9999999948
0.8671171171171166 	299.9999999999783 	3.898045235955116e-12 	101324.9999999949
0.8696196196196189 	299.999999999957 	3.705971041868395e-12 	101324.9999999947
0.8721221221221216 	299.9999999999763 	4.467713709559268e-12 	101324.9999999947
0.874624624624624 	299.9999999999988 	4.689846796372263e-12 	101324.9999999948
0.8771271271271264 	300.0000000000005 	5.030638118896814e-12 	101324.9999999948
0.879629629629629 	300.0000000000091 	6.14834581590841e-12 	101324.9999999949
0.8821321321321317 	299.9999999999886 	4.698016945879414e-12 	101324.9999999946
0.8846346346346339 	299.999999999941 	6.703125710178666e-12 	101324.9999999943
0.8871371371371364 	299.9999999999678 	5.390301434393494e-12 	101324.9999999944
0.8896396396396391 	299.999999999971 	7.261094040785305e-12 	101324.9999999946
0.8921421421421414 	299.999999999971 	6.439654864222634e-12 	101324.999999995
0.8946446446446441 	299.9999999999864 	6.643880728309215e-12 	101324.9999999951
0.8971471471471464 	300.000000000004 	5.538529542505721e-12 	101324.9999999951
0.8996496496496489 	299.9999999999873 	4.771714956832802e-12 	101324.9999999951
0.9021521521521517 	299.9999999999746 	5.013777763410527e-12 	101324.9999999952
0.9046546546546541 	299.9999999999965 	3.717599591086836e-12 	101324.999999995
0.9071571571571564 	299.9999999999635 	3.841260509675009e-12 	101324.9999999948
0.9096596596596589 	299.9999999999602 	3.720882401203561e-12 	101324.9999999946
0.9121621621621616 	300.000000000003 	4.501368063815637e-12 	101324.9999999945
0.9146646646646639 	299.9999999999827 	4.883473600534841e-12 	101324.9999999944
0.9171671671671666 	299.9999999999595 	5.137437223287247e-12 	101324.9999999944
0.9196696696696689 	299.9999999999974 	6.094561788041242e-12 	101324.9999999942
0.9221721721721714 	299.9999999999983 	5.396193468511907e-12 	101324.9999999943
0.9246746746746741 	299.9999999999544 	7.826986964348316e-12 	101324.9999999944
0.9271771771771765 	299.9999999999587 	6.332826907170006e-12 	101324.9999999946
0.9296796796796791 	299.9999999999887 	7.577914381250232e-12 	101324.9999999948
0.9321821821821816 	299.9999999999728 	6.316503697737265e-12 	101324.9999999947
0.9346846846846838 	299.9999999999613 	7.030200935851409e-12 	101324.9999999946
0.9371871871871866 	300.0000000000134 	6.261762426254026e-12 	101324.9999999945
0.9396896896896891 	300.0000000000124 	6.236366167509507e-12 	101324.9999999944
0.9421921921921914 	300.0000000000044 	6.670906795390545e-12 	101324.9999999944
0.9446946946946939 	299.9999999999715 	6.16921272212793e-12 	101324.9999999945
0.9471971971971965 	299.9999999999422 	8.395286684056757e-12 	101324.9999999949
0.9496996996996991 	299.99999999997 	7.394716996887829e-12 	101324.9999999951
0.9522022022022016 	299.9999999999811 	9.225658544746233e-12 	101324.9999999952
0.9547047047047038 	299.9999999999829 	8.563200793272035e-12 	101324.9999999951
0.9572072072072064 	299.9999999999771 	9.018400672305556e-12 	101324.999999995
0.9597097097097093 	299.9999999999745 	8.749749245525025e-12 	101324.9999999949
0.9622122122122114 	299.999999999969 	8.427289737818812e-12 	101324.999999995
0.964714714714714 	299.9999999999685 	9.150438944853145e-12 	101324.9999999949
0.9672172172172167 	299.999999999967 	8.115074115379895e-12 	101324.9999999948
0.969719719719719 	299.9999999999856 	8.115889928106171e-12 	101324.9999999947
0.9722222222222214 	299.9999999999793 	7.373759973601195e-12 	101324.9999999948
0.9747247247247239 	299.9999999999764 	7.864970648715002e-12 	101324.9999999948
0.9772272272272267 	300.0000000000022 	7.928622724851335e-12 	101324.9999999952
0.9797297297297292 	299.9999999999897 	7.527225252841971e-12 	101324.9999999955
0.9822322322322313 	299.9999999999907 	8.048883667459617e-12 	101324.9999999956
0.9847347347347344 	299.9999999999919 	7.072389160524222e-12 	101324.9999999958
0.9872372372372363 	299.9999999999638 	9.352027878907379e-12 	101324.9999999957
0.9897397397397389 	299.9999999999785 	7.761865684587318e-12 	101324.9999999955
0.9922422422422417 	299.9999999999652 	9.582580695086978e-12 	101324.9999999954
0.9947447447447441 	299.9999999999704 	8.754453420979414e-12 	101324.9999999954
0.9972472472472468 	299.9999999999715 	9.574902804274857e-12 	101324.9999999953
0.999749749749749 	299.9999999999737 	9.421859941147876e-12 	101324.9999999951
1.002252252252252 	299.9999999999862 	9.703553195000674e-12 	101324.9999999951
1.004754754754754 	299.9999999999882 	9.986095720408857e-12 	101324.9999999948
1.007257257257256 	299.99999999997 	9.308969055532522e-12 	101324.9999999949
1.009759759759759 	299.9999999999619 	1.109209798735488e-11 	101324.9999999953
1.012262262262261 	299.9999999999706 	9.414022299713752e-12 	101324.9999999955
1.014764764764764 	299.9999999999489 	1.087550493887507e-11 	101324.9999999956
1.017267267267267 	299.9999999999411 	1.058646152873907e-11 	101324.9999999955
1.019769769769769 	299.9999999999798 	1.185019272041749e-11 	101324.9999999954
1.022272272272272 	299.9999999999893 	1.155508608205577e-11 	101324.9999999953
1.024774774774774 	299.9999999999864 	1.186457695135374e-11 	101324.9999999953
1.027277277277277 	299.9999999999836 	1.27265121640032e-11 	101324.9999999951
1.029779779779779 	300.0000000000092 	1.156714516624776e-11 	101324.999999995
1.032282282282282 	300.000000000008 	1.157927721944988e-11 	101324.9999999951
1.034784784784784 	299.9999999999999 	1.081629579359002e-11 	101324.9999999953
1.037287287287286 	299.9999999999764 	1.098224552604966e-11 	101324.9999999953
1.039789789789789 	299.9999999999781 	1.103768342252437e-11 	101324.9999999953
1.042292292292291 	300.0000000000035 	1.105465760949258e-11 	101324.9999999954
1.044794794794794 	300.0000000000152 	1.07030476931094e-11 	101324.9999999956
1.047297297297296 	300.0000000000287 	9.436442920480743e-12 	101324.999999996
1.049799799799799 	299.9999999999898 	1.03636551634814e-11 	101324.9999999964
1.052302302302302 	299.999999999962 	8.492115630432864e-12 	101324.9999999964
1.054804804804804 	299.9999999999463 	1.008589146282124e-11 	101324.9999999965
1.057307307307306 	299.9999999999395 	9.911218677237664e-12 	101324.9999999966
1.059809809809809 	299.9999999999723 	1.124141470038272e-11 	101324.9999999967
1.062312312312312 	299.9999999999682 	1.065253731974452e-11 	101324.9999999966
1.064814814814814 	299.9999999999634 	1.140686679476801e-11 	101324.9999999963
1.067317317317317 	299.9999999999401 	1.126532858884285e-11 	101324.999999996
1.069819819819819 	299.9999999999426 	1.13269119997038e-11 	101324.9999999959
1.072322322322321 	299.9999999999948 	1.312904916737503e-11 	101324.9999999959
1.074824824824824 	300.0000000000019 	1.162073024406694e-11 	101324.9999999958
1.077327327327327 	300.0000000000194 	1.270374287884075e-11 	101324.999999996
1.079829829829829 	300.000000000029 	1.137885739760575e-11 	101324.9999999963
1.082332332332332 	300.0000000000046 	1.150305790183676e-11 	101324.9999999967
1.084834834834834 	299.9999999999899 	1.065245920003248e-11 	101324.999999997
1.087337337337337 	299.9999999999573 	1.067235385730654e-11 	101324.9999999971
1.089839839839839 	299.9999999999474 	1.19844203779145e-11 	101324.999999997
1.092342342342342 	299.9999999999746 	1.075833436982331e-11 	101324.999999997
1.094844844844844 	299.9999999999754 	1.120233516868184e-11 	101324.9999999971
1.097347347347347 	299.9999999999557 	9.774566670430389e-12 	101324.9999999972
1.099849849849849 	299.9999999999492 	1.197727352981667e-11 	101324.9999999972
1.102352352352352 	299.9999999999677 	1.034802323204016e-11 	101324.9999999972
1.104854854854854 	299.9999999999836 	1.206346089500829e-11 	101324.9999999971
1.107357357357357 	299.9999999999687 	1.086251648791706e-11 	101324.9999999971
1.109859859859859 	299.9999999999629 	1.245083466873052e-11 	101324.999999997
1.112362362362362 	300.0000000000152 	1.202232637395344e-11 	101324.9999999969
1.114864864864865 	300.0000000000129 	1.222108025921432e-11 	101324.9999999969
1.117367367367367 	299.9999999999729 	1.293014948841227e-11 	101324.9999999968
1.119869869869869 	299.999999999944 	1.197839832010778e-11 	101324.9999999971
1.122372372372372 	299.9999999999653 	1.341361121340641e-11 	101324.9999999973
1.124874874874874 	299.9999999999656 	1.273420769319231e-11 	101324.9999999971
1.127377377377377 	299.9999999999814 	1.414944049719938e-11 	101324.999999997
1.129879879879879 	300.0000000000174 	1.390212882799556e-11 	101324.9999999971
1.132382382382382 	300.0000000000256 	1.447246566632204e-11 	101324.9999999971
1.134884884884884 	300.0000000000076 	1.392439680635412e-11 	101324.9999999972
1.137387387387387 	300.000000000013 	1.372097475627624e-11 	101324.9999999974
1.139889889889889 	299.9999999999736 	1.402184424067138e-11 	101324.9999999975
1.142392392392392 	299.999999999963 	1.223237706223738e-11 	101324.9999999976
1.144894894894894 	300.0000000000083 	1.307999710418426e-11 	101324.9999999976
1.147397397397397 	299.9999999999966 	1.21076602006368e-11 	101324.9999999976
1.149899899899899 	299.9999999999544 	1.300056911810544e-11 	101324.9999999976
1.152402402402402 	299.9999999999462 	1.24714625120846e-11 	101324.9999999974
1.154904904904904 	299.999999999972 	1.324582474514941e-11 	101324.9999999974
1.157407407407407 	299.9999999999702 	1.283403154624373e-11 	101324.9999999976
1.159909909909909 	299.9999999999515 	1.301016594624787e-11 	101324.9999999976
1.162412412412412 	299.9999999999476 	1.43084739287303e-11 	101324.9999999977
1.164914914914914 	299.999999999966 	1.31333954353593e-11 	101324.9999999978
1.167417417417417 	299.9999999999728 	1.472657249914108e-11 	101324.999999998
1.169919919919919 	300.000000000013 	1.408338242879433e-11 	101324.9999999981
1.172422422422422 	300.000000000035 	1.497627891366948e-11 	101324.999999998
1.174924924924925 	299.9999999999965 	1.388560210342264e-11 	101324.9999999979
1.177427427427427 	299.9999999999742 	1.447765498258749e-11 	101324.9999999978
1.179929929929929 	300.0000000000079 	1.564290083105236e-11 	101324.9999999978
1.182432432432432 	300.0000000000242 	1.448290697104272e-11 	101324.9999999976
1.184934934934934 	299.9999999999982 	1.556681893093671e-11 	101324.9999999975
1.187437437437437 	299.9999999999832 	1.490732675794912e-11 	101324.9999999975
1.189939939939939 	299.9999999999781 	1.597776741992212e-11 	101324.9999999978
1.192442442442442 	299.9999999999508 	1.518344260841073e-11 	101324.9999999982
1.194944944944944 	299.9999999999563 	1.570170136728871e-11 	101324.9999999981
1.197447447447447 	299.9999999999966 	1.471533446001989e-11 	101324.9999999982
1.199949949949949 	300.0000000000044 	1.493197535948776e-11 	101324.9999999983
1.202452452452452 	299.9999999999654 	1.610285069414633e-11 	101324.9999999983
1.204954954954955 	299.9999999999602 	1.552062813503057e-11 	101324.9999999983
1.207457457457457 	299.9999999999842 	1.679563111160542e-11 	101324.9999999982
1.20995995995996 	299.9999999999855 	1.569793134379279e-11 	101324.9999999981
1.212462462462462 	299.9999999999934 	1.641043225181093e-11 	101324.9999999981
1.214964964964964 	299.9999999999927 	1.534032278987462e-11 	101324.9999999983
1.217467467467467 	299.9999999999874 	1.566595873096384e-11 	101324.9999999987
1.219969969969969 	299.9999999999765 	1.419034872729307e-11 	101324.9999999988
1.222472472472472 	300.0000000000141 	1.439437576642122e-11 	101324.9999999988
1.224974974974975 	300.0000000000346 	1.498474544864952e-11 	101324.999999999
1.227477477477477 	299.9999999999965 	1.383431707489201e-11 	101324.999999999
1.229979979979979 	299.9999999999857 	1.515912202813688e-11 	101324.999999999
1.232482482482482 	299.9999999999667 	1.403269450466295e-11 	101324.999999999
1.234984984984984 	299.999999999969 	1.516877037084771e-11 	101324.999999999
1.237487487487487 	299.9999999999837 	1.372025768874346e-11 	101324.9999999992
1.239989989989989 	299.9999999999824 	1.417280177852425e-11 	101324.9999999994
1.242492492492492 	300.0000000000076 	1.4617029337426e-11 	101324.9999999994
1.244994994994994 	299.9999999999839 	1.344441009744699e-11 	101324.9999999994
1.247497497497497 	299.9999999999885 	1.465605247817921e-11 	101324.9999999994
1.249999999999999 	300.0000000001652 	1.40358615698208e-11 	101324.9999999994
