-1.25 	300.015877626926 	1 	101325
-1.247497497497497 	299.9897139355253 	0.8416130104170638 	101314.3128542516
-1.244994994994995 	299.9818510004259 	1.102336210325787 	101304.5283951013
-1.242492492492492 	299.9918869988271 	0.877303848588747 	101315.3192323631
-1.23998998998999 	299.9840268569773 	0.941419916054845 	101306.308872821
-1.237487487487487 	299.9841657731197 	0.9819511503535709 	101306.1552692859
-1.234984984984985 	299.9831582856041 	0.9287837773146884 	101305.258164622
-1.232482482482482 	299.9806320728308 	0.9572711435545456 	101302.0674353841
-1.22997997997998 	299.9774514264858 	0.9254956025164323 	101298.3695524208
-1.227477477477477 	299.9746542393383 	0.9309436174209076 	101295.031941054
-1.224974974974975 	299.9735823537622 	0.9249683498128418 	101293.7745440878
-1.222472472472472 	299.9747023196979 	0.9271565512116349 	101295.0981877099
-1.21996996996997 	299.9776093469696 	0.9353363870844084 	101298.5328253163
-1.217467467467467 	299.9811090743566 	0.9450756597084001 	101302.6689080632
-1.214964964964965 	299.984036327967 	0.9534029385550575 	101306.1291288397
-1.212462462462462 	299.98599810558 	0.9592231465208343 	101308.4480696853
-1.20995995995996 	299.9873434234896 	0.9633378421258059 	101310.038330915
-1.207457457457457 	299.9886466026254 	0.9672457591844648 	101311.5787670406
-1.204954954954955 	299.9902784377579 	0.972014088159483 	101313.5076502539
-1.202452452452452 	299.9923581696563 	0.9780195358356583 	101315.9660765471
-1.19994994994995 	299.9948454370495 	0.9852218381273451 	101318.9062700175
-1.197447447447447 	299.9977481749191 	0.9937161364541419 	101322.3376174142
-1.194944944944945 	300.0012735539803 	1.003949225037362 	101326.5051973472
-1.192442442442442 	300.0054403286774 	1.015791137911051 	101331.4312818312
-1.18993993993994 	300.0096362863304 	1.027589954260499 	101336.3920350551
-1.187437437437437 	300.0129300043933 	1.036940494676569 	101340.2863075711
-1.184934934934935 	300.0148221553782 	1.042535161745297 	101342.5236033881
-1.182432432432432 	300.0156179160649 	1.045172091084922 	101343.4645198985
-1.17992992992993 	300.0162043607639 	1.047211465211435 	101344.1580487963
-1.177427427427427 	300.0174851958112 	1.051051117152249 	101345.6724350413
-1.174924924924925 	300.0197976618949 	1.057575855524047 	101348.406432159
-1.172422422422422 	300.0226711380836 	1.065516329560096 	101351.8038876306
-1.16991991991992 	300.0250785430914 	1.072114393958689 	101354.6505465508
-1.167417417417417 	300.0260241243194 	1.074713355045571 	101355.7680968806
-1.164914914914915 	300.0251495602462 	1.0723577004961 	101354.733538021
-1.162412412412412 	300.0229317092067 	1.066263132704774 	101352.11188326
-1.15990990990991 	300.0202419767447 	1.058694901542175 	101348.9321907393
-1.157407407407407 	300.0176868807748 	1.051337685221146 	101345.9111451883
-1.154904904904904 	300.0154133092695 	1.044735684147814 	101343.2228721703
-1.152402402402403 	300.0133911459731 	1.038874960429617 	101340.831984526
-1.1498998998999 	300.0115991884195 	1.033632351588359 	101338.7133973541
-1.147397397397397 	300.0098854033749 	1.028525306804289 	101336.6871091075
-1.144894894894895 	300.0078721499451 	1.022546823754125 	101334.3069321969
-1.142392392392392 	300.0051779196117 	1.014712450024662 	101331.1218220294
-1.13988988988989 	300.0017335416119 	1.004874081232255 	101327.0497677094
-1.137387387387387 	299.9979260331931 	0.9941210094101228 	101322.5485632611
-1.134884884884885 	299.9944994573077 	0.9844554723839944 	101318.4977867858
-1.132382382382382 	299.9921336764108 	0.9776200449073857 	101315.7009990876
-1.12987987987988 	299.9908620258338 	0.9736503747154543 	101314.1977184844
-1.127377377377377 	299.9899279346351 	0.9705702087658856 	101313.0935780541
-1.124874874874875 	299.9883419406806 	0.9657812917103636 	101311.2188735001
-1.122372372372372 	299.9855865201289 	0.9578888980213193 	101307.9619311644
-1.11986986986987 	299.9819076568891 	0.9475531592194436 	101303.6134085169
-1.117367367367367 	299.9781760940785 	0.9371450313033303 	101299.2026373958
-1.114864864864865 	299.97546763127 	0.9295696001754428 	101296.0012619734
-1.112362362362362 	299.9744952778455 	0.9267429312046609 	101294.8523450427
-1.10985985985986 	299.9752226224848 	0.9286028320862725 	101295.7122112165
-1.107357357357357 	299.9769888301042 	0.9334394112711542 	101297.7992336944
-1.104854854854855 	299.9790458002007 	0.9392622886894473 	101300.2300724175
-1.102352352352353 	299.9810159383109 	0.9449791478905207 	101302.5587575542
-1.09984984984985 	299.982901829851 	0.9504735970035656 	101304.7880082614
-1.097347347347347 	299.9847729821382 	0.9558578521501735 	101306.9997039237
-1.094844844844845 	299.9865354684309 	0.9608947281394367 	101309.0830721606
-1.092342342342342 	299.988018595873 	0.9652002350455779 	101310.8363462291
-1.08983983983984 	299.9892609661905 	0.9689582870572352 	101312.3048194654
-1.087337337337337 	299.9906939116655 	0.9733603346308064 	101313.9986450979
-1.084834834834835 	299.9929767102766 	0.9801279939701175 	101316.6971351741
-1.082332332332332 	299.996500198309 	0.9902223033307991 	101320.8621983152
-1.07982982982983 	300.0009503274176 	1.002765963963063 	101326.1230525229
-1.077327327327327 	300.0054006494698 	1.015307801347137 	101331.3844338442
-1.074824824824825 	300.0089213220519 	1.025381684710813 	101335.5468301548
-1.072322322322323 	300.0111775532679 	1.032062119522268 	101338.2144976342
-1.06981981981982 	300.0125505803151 	1.036319093924528 	101339.8378779258
-1.067317317317317 	300.0137873640091 	1.040137810522601 	101341.3000787368
-1.064814814814815 	300.01552352947 	1.045245644144258 	101343.3527865653
-1.062312312312312 	300.0179703859039 	1.052228564375218 	101346.2457973601
-1.05980980980981 	300.0208421356207 	1.060309902949622 	101349.6412806491
-1.057307307307307 	300.0234971976658 	1.06774029057101 	101352.7807241474
-1.054804804804805 	300.0252349529413 	1.072611331791835 	101354.8355949177
-1.052302302302302 	300.0256221745782 	1.073734546173088 	101355.2927642636
-1.0497997997998 	300.0246731163389 	1.071138817704411 	101354.1705512046
-1.047297297297297 	300.0228065927894 	1.065953788872281 	101351.964309162
-1.044794794794795 	300.0206200584244 	1.059801703835944 	101349.3792039142
-1.042292292292292 	300.0186033052037 	1.0540181769895 	101346.9945588243
-1.03978978978979 	300.0169146354855 	1.049038498877492 	101344.9979572871
-1.037287287287287 	300.0153210398298 	1.044252805601831 	101343.1137553911
-1.034784784784785 	300.0133761507244 	1.038497620755702 	101340.8142948857
-1.032282282282283 	300.0107645060028 	1.030964579270408 	101337.7266081336
-1.02977977977978 	300.0075790718265 	1.021923166072892 	101333.9604953406
-1.027277277277277 	300.0043198438663 	1.012712164670194 	101330.1072720581
-1.024774774774775 	300.001600230363 	1.004958107254809 	101326.8920217255
-1.022272272272272 	299.9997463110159 	0.9995108168040439 	101324.7002295999
-1.01976976976977 	299.9985476298974 	0.9957907766903226 	101323.2831828557
-1.017267267267267 	299.9973411775752 	0.9920216017341941 	101321.8569698168
-1.014764764764765 	299.9953966244345 	0.9862506583158073 	101319.5582879373
-1.012262262262262 	299.9923492817911 	0.9774939811656117 	101315.9560569851
-1.00975975975976 	299.9883931544779 	0.9662607112335777 	101311.2795182988
-1.007257257257257 	299.9841435437007 	0.954217677840019 	101306.2562400272
-1.004754754754755 	299.9803295166611 	0.9433828717470549 	101301.7479475462
-1.002252252252252 	299.9775361024456 	0.9354058436739623 	101298.4460141131
-0.9997497497497498 	299.9760744023112 	0.9311718468756467 	101296.7183280916
-0.9972472472472473 	299.9759365626352 	0.9306641911181222 	101296.55590144
-0.9947447447447449 	299.9768176742428 	0.9330380572968 	101297.5970893937
-0.9922422422422421 	299.9782324726897 	0.9369711783788982 	101299.2688599575
-0.9897397397397399 	299.9797357295134 	0.9412514408598811 	101301.0456162713
-0.9872372372372376 	299.9811225326775 	0.9452988959216587 	101302.6848366416
-0.9847347347347346 	299.9824656759208 	0.9492704529515417 	101304.2724221351
-0.9822322322322323 	299.9839746231854 	0.9536972414323803 	101306.0560240551
-0.9797297297297296 	299.985795371934 	0.9589617337437185 	101308.2081989944
-0.9772272272272275 	299.9879022012424 	0.9650067978245958 	101310.6985739988
-0.9747247247247248 	299.9901417887557 	0.9714398762216473 	101313.3459663466
-0.9722222222222224 	299.9923688134789 	0.9778829119757687 	101315.9785322356
-0.9697197197197196 	299.99456051962 	0.9842772806405132 	101318.5694143239
-0.9672172172172175 	299.9968368734284 	0.9909424660051249 	101321.2603821998
-0.9647147147147147 	299.9993861682899 	0.9983808721557784 	101324.2740412753
-0.9622122122122124 	300.0023494049223 	1.006966406813998 	101327.7771588486
-0.9597097097097099 	300.0057271872652 	1.016690644733829 	101331.7704387278
-0.9572072072072073 	300.0093528767669 	1.027089556031155 	101336.0569726139
-0.9547047047047047 	300.0129430280774 	1.037379647040763 	101340.3016405924
-0.9522022022022023 	300.0161990152753 	1.046734670074486 	101344.1513470632
-0.9496996996996998 	300.0189119626706 	1.054572134274246 	101347.359117906
-0.9471971971971973 	300.0210233435493 	1.060718863225155 	101349.8556348541
-0.9446946946946947 	300.0226149847029 	1.065385511474209 	101351.7376476348
-0.9421921921921923 	300.0238377027457 	1.068973832194249 	101353.1834475257
-0.93968968968969 	300.0248167368712 	1.071820426863533 	101354.3411017719
-0.9371871871871872 	300.0255811515041 	1.074003628071353 	101355.2450174477
-0.9346846846846848 	300.0260478385148 	1.075297048139902 	101355.7968341195
-0.9321821821821823 	300.0260609723559 	1.075274228432441 	101355.8119456763
-0.9296796796796799 	300.0254611693198 	1.073502404081585 	101355.1027505774
-0.9271771771771771 	300.0241588466576 	1.069737326285286 	101353.5632952007
-0.9246746746746748 	300.0221755184032 	1.064039332923267 	101351.2183734865
-0.9221721721721724 	300.0196424223084 	1.056777016540647 	101348.2232831379
-0.9196696696696698 	300.0167688555454 	1.048539052693404 	101344.8256760793
-0.9171671671671672 	300.0137932696828 	1.039998552359514 	101341.3075094611
-0.9146646646646649 	300.0109350327855 	1.031778872640144 	101337.9281545572
-0.9121621621621623 	300.0083609953983 	1.024358292638534 	101334.884870091
-0.9096596596596597 	300.0061712462826 	1.018027731791038 	101332.2959705925
-0.9071571571571573 	300.0044015989548 	1.012895819093936 	101330.2037762601
-0.9046546546546547 	300.0030369823907 	1.00892536614948 	101328.5904515625
-0.9021521521521524 	300.0020293030293 	1.005983251836875 	101327.3991255356
-0.8996496496496498 	300.0013146115062 	1.003889054609517 	101326.5541869955
-0.8971471471471473 	300.0008265192791 	1.002453554649309 	101325.9771449073
-0.894644644644645 	300.0005048397286 	1.001503918832677 	101325.5968427612
-0.892142142142142 	300.0002998589445 	1.000896481994713 	101325.3545063369
-0.8896396396396397 	300.0001733557624 	1.000520159979278 	101325.204949074
-0.8871371371371374 	300.0000976312928 	1.000294020857665 	101325.1154243923
-0.8846346346346349 	300.0000536066988 	1.00016203598104 	101325.0633765491
-0.8821321321321324 	300.0000287182069 	1.000087129020228 	101325.0339521881
-0.8796296296296297 	300.0000150214896 	1.000045744543373 	101325.0177592474
-0.8771271271271271 	300.0000076767427 	1.000023465522181 	101325.0090759149
-0.8746246246246248 	300.0000038355299 	1.000011768168197 	101325.0045346135
-0.8721221221221224 	300.0000018746358 	1.000005773420641 	101325.0022163268
-0.8696196196196196 	300.0000008967963 	1.000002772348215 	101325.0010602703
-0.8671171171171175 	300.000000420139 	1.000001303720611 	101325.000496731
-0.8646146146146148 	300.0000001928435 	1.00000060071259 	101325.0002280172
-0.8621121121121121 	300.0000000867728 	1.000000271330485 	101325.0001026035
-0.8596096096096097 	300.0000000383015 	1.000000120187397 	101325.000045279
-0.857107107107107 	300.0000000165782 	1.000000052237133 	101325.0000196044
-0.8546046046046049 	300.0000000070473 	1.000000022287664 	101325.0000083309
-0.8521021021021022 	300.0000000029536 	1.000000009337793 	101325.0000034754
-0.8495995995995997 	300.0000000012199 	1.000000003844623 	101325.0000014233
-0.8470970970970974 	300.0000000004747 	1.000000001556833 	101325.0000005719
-0.8445945945945946 	300.0000000001646 	1.000000000620206 	101325.0000002252
-0.8420920920920922 	300.0000000000804 	1.000000000243535 	101325.0000000864
-0.8395895895895897 	300.0000000000518 	1.000000000100186 	101325.0000000313
-0.8370870870870872 	300.0000000000173 	1.000000000035458 	101325.0000000097
-0.8345845845845846 	300.0000000000013 	1.000000000011761 	101325.0000000015
-0.8320820820820823 	299.9999999999894 	1.00000000000642 	101324.9999999984
-0.8295795795795798 	299.9999999999676 	1.000000000002827 	101324.999999997
-0.8270770770770772 	299.9999999999643 	1.000000000000471 	101324.9999999965
-0.8245745745745746 	299.9999999999648 	0.9999999999997229 	101324.9999999967
-0.8220720720720721 	299.9999999999836 	0.9999999999996537 	101324.9999999969
-0.8195695695695699 	299.9999999999932 	0.9999999999998229 	101324.9999999969
-0.817067067067067 	299.9999999999883 	1.000000000005612 	101324.9999999968
-0.8145645645645651 	299.9999999999586 	0.9999999999988366 	101324.9999999966
-0.8120620620620621 	299.9999999999775 	0.9999999999977593 	101324.9999999961
-0.8095595595595597 	300 	1.000000000000962 	101324.9999999957
-0.8070570570570572 	299.9999999999947 	1.00000000000133 	101324.9999999959
-0.8045545545545546 	299.9999999999599 	1.000000000000542 	101324.999999996
-0.8020520520520523 	299.9999999999857 	0.9999999999997767 	101324.9999999966
-0.7995495495495494 	300.0000000000061 	1.000000000004417 	101324.9999999967
-0.7970470470470474 	299.9999999999895 	0.9999999999968479 	101324.9999999965
-0.7945445445445446 	299.9999999999918 	0.9999999999984763 	101324.9999999968
-0.7920420420420423 	300.0000000000029 	0.9999999999988145 	101324.9999999966
-0.7895395395395397 	300.0000000000142 	1.000000000002679 	101324.9999999968
-0.7870370370370371 	300.0000000000004 	1.000000000000704 	101324.9999999969
-0.7845345345345348 	299.9999999999969 	0.9999999999994847 	101324.9999999969
-0.7820320320320323 	300.0000000000016 	0.9999999999997906 	101324.9999999966
-0.7795295295295296 	299.999999999978 	1.000000000005827 	101324.9999999961
-0.7770270270270272 	299.9999999999678 	0.9999999999993365 	101324.999999996
-0.7745245245245247 	299.9999999999635 	0.9999999999983163 	101324.9999999961
-0.7720220220220222 	299.9999999999719 	1.000000000000839 	101324.999999996
-0.7695195195195199 	299.9999999999609 	1.000000000001219 	101324.9999999958
-0.767017017017017 	299.9999999999699 	1.000000000001303 	101324.9999999959
-0.7645145145145147 	299.9999999999908 	1.000000000001261 	101324.9999999962
-0.7620120120120122 	299.9999999999953 	1.000000000000554 	101324.9999999964
-0.7595095095095097 	299.999999999981 	1.000000000009153 	101324.9999999963
-0.7570070070070072 	299.999999999959 	0.9999999999979413 	101324.9999999962
-0.7545045045045048 	299.9999999999711 	1.000000000002264 	101324.9999999957
-0.7520020020020022 	299.9999999999634 	0.9999999999984965 	101324.9999999955
-0.7494994994994997 	299.9999999999757 	1.000000000000474 	101324.9999999957
-0.7469969969969972 	299.9999999999901 	0.9999999999982397 	101324.9999999962
-0.7444944944944945 	299.9999999999767 	0.9999999999974432 	101324.9999999962
-0.7419919919919924 	299.9999999999871 	0.9999999999989052 	101324.999999996
-0.7394894894894897 	299.9999999999662 	0.9999999999991147 	101324.9999999953
-0.7369869869869872 	299.9999999999758 	0.9999999999993283 	101324.9999999953
-0.7344844844844846 	299.9999999999812 	0.9999999999990768 	101324.9999999961
-0.7319819819819822 	299.9999999999984 	1.000000000004542 	101324.9999999963
-0.7294794794794797 	300.0000000000071 	0.9999999999970868 	101324.9999999954
-0.7269769769769773 	300.0000000000071 	0.9999999999970144 	101324.9999999951
-0.7244744744744747 	300.0000000000002 	1.000000000000196 	101324.9999999947
-0.721971971971972 	299.9999999999825 	1.000000000000554 	101324.9999999951
-0.7194694694694695 	299.9999999999824 	1.000000000000259 	101324.9999999956
-0.7169669669669674 	299.9999999999679 	0.9999999999999822 	101324.9999999956
-0.7144644644644647 	299.9999999999917 	0.9999999999988387 	101324.9999999959
-0.711961961961962 	300.0000000000084 	0.9999999999974987 	101324.9999999963
-0.7094594594594597 	300.0000000000072 	1.00000000000054 	101324.9999999963
-0.7069569569569573 	299.9999999999954 	0.9999999999973658 	101324.9999999961
-0.7044544544544545 	300.0000000000001 	0.9999999999980836 	101324.999999996
-0.7019519519519523 	300.0000000000044 	0.9999999999996885 	101324.9999999961
-0.6994494494494495 	299.9999999999793 	0.9999999999991855 	101324.9999999961
-0.6969469469469471 	299.9999999999859 	0.9999999999982822 	101324.9999999961
-0.6944444444444446 	299.9999999999961 	0.9999999999982577 	101324.9999999966
-0.6919419419419421 	300.0000000000128 	0.9999999999988771 	101324.9999999968
-0.6894394394394396 	299.9999999999873 	0.9999999999989803 	101324.9999999964
-0.6869369369369374 	299.9999999999926 	0.9999999999980473 	101324.999999996
-0.6844344344344344 	299.9999999999986 	0.999999999997819 	101324.9999999959
-0.6819319319319321 	299.9999999999735 	0.9999999999974321 	101324.9999999959
-0.6794294294294296 	299.9999999999768 	0.9999999999971062 	101324.999999996
-0.6769269269269272 	299.9999999999667 	0.99999999999694 	101324.9999999956
-0.6744244244244245 	299.999999999987 	0.9999999999980841 	101324.9999999958
-0.6719219219219222 	299.9999999999657 	0.999999999998616 	101324.9999999954
-0.6694194194194195 	299.9999999999887 	0.9999999999980205 	101324.9999999951
-0.6669169169169172 	300.0000000000006 	0.9999999999972156 	101324.9999999952
-0.6644144144144146 	299.9999999999981 	0.9999999999971929 	101324.9999999955
-0.661911911911912 	299.9999999999967 	0.9999999999978919 	101324.9999999958
-0.6594094094094097 	299.9999999999812 	0.9999999999985945 	101324.9999999959
-0.656906906906907 	299.9999999999754 	0.9999999999984017 	101324.9999999963
-0.6544044044044046 	299.999999999955 	0.999999999998112 	101324.9999999965
-0.6519019019019021 	299.9999999999646 	0.9999999999983349 	101324.9999999963
-0.6493993993993996 	299.9999999999966 	0.9999999999977487 	101324.9999999961
-0.6468968968968971 	300.0000000000038 	1.000000000003954 	101324.9999999959
-0.6443943943943946 	300.0000000000102 	0.9999999999961 	101324.9999999962
-0.6418918918918921 	300.0000000000164 	0.9999999999961439 	101324.9999999964
-0.6393893893893897 	300.0000000000173 	0.9999999999982576 	101324.9999999961
-0.6368868868868871 	300.0000000000163 	0.9999999999988639 	101324.9999999964
-0.6343843843843846 	300.0000000000153 	0.999999999998749 	101324.9999999967
-0.6318818818818821 	299.9999999999882 	0.9999999999983187 	101324.9999999965
-0.6293793793793795 	299.9999999999935 	0.9999999999985217 	101324.9999999964
-0.6268768768768773 	299.9999999999966 	0.9999999999998829 	101324.9999999962
-0.6243743743743745 	299.9999999999758 	1.000000000003541 	101324.9999999961
-0.6218718718718721 	299.9999999999861 	0.9999999999990107 	101324.9999999963
-0.6193693693693696 	299.9999999999724 	0.9999999999992893 	101324.9999999963
-0.6168668668668671 	299.9999999999925 	1.000000000001097 	101324.9999999962
-0.6143643643643645 	300.0000000000013 	1.000000000000575 	101324.9999999964
-0.6118618618618621 	300.0000000000111 	0.9999999999996172 	101324.9999999967
-0.6093593593593596 	300.0000000000205 	0.9999999999992603 	101324.999999997
-0.6068568568568571 	299.9999999999895 	0.9999999999991088 	101324.9999999966
-0.6043543543543546 	299.9999999999824 	0.9999999999992027 	101324.9999999966
-0.6018518518518521 	299.9999999999743 	0.9999999999989009 	101324.9999999969
-0.5993493493493496 	299.9999999999857 	0.999999999998457 	101324.9999999962
-0.5968468468468471 	299.9999999999902 	0.9999999999978235 	101324.9999999954
-0.5943443443443446 	299.9999999999907 	0.9999999999979046 	101324.9999999954
-0.591841841841842 	299.9999999999648 	0.9999999999978278 	101324.9999999961
-0.5893393393393397 	299.9999999999709 	0.9999999999981029 	101324.9999999961
-0.5868368368368371 	299.9999999999913 	0.9999999999980629 	101324.9999999962
-0.5843343343343346 	300.000000000013 	1.000000000003874 	101324.9999999963
-0.5818318318318321 	300.0000000000178 	0.9999999999946813 	101324.9999999965
-0.5793293293293297 	299.9999999999848 	0.9999999999949646 	101324.9999999967
-0.5768268268268271 	299.9999999999898 	0.9999999999977407 	101324.9999999969
-0.5743243243243245 	300.0000000000003 	0.9999999999988128 	101324.9999999967
-0.5718218218218221 	299.9999999999981 	0.9999999999994031 	101324.9999999964
-0.5693193193193196 	300.0000000000132 	0.999999999999768 	101324.9999999964
-0.5668168168168171 	300.0000000000071 	0.9999999999996129 	101324.9999999969
-0.5643143143143147 	299.9999999999695 	0.9999999999993625 	101324.9999999967
-0.5618118118118121 	299.9999999999946 	1.000000000002179 	101324.9999999964
-0.5593093093093094 	300.0000000000063 	0.9999999999981364 	101324.9999999961
-0.5568068068068072 	300.0000000000018 	0.9999999999994905 	101324.9999999959
-0.5543043043043046 	300.0000000000023 	1.000000000001609 	101324.9999999961
-0.551801801801802 	299.9999999999704 	1.000000000001385 	101324.9999999965
-0.5492992992992995 	299.9999999999879 	1.00000000000091 	101324.9999999964
-0.5467967967967969 	300.0000000000031 	1.000000000000458 	101324.9999999962
-0.5442942942942947 	300.0000000000093 	1.00000000000086 	101324.9999999964
-0.5417917917917919 	299.9999999999725 	1.00000000000129 	101324.9999999963
-0.5392892892892895 	299.9999999999677 	1.000000000000639 	101324.9999999959
-0.536786786786787 	299.9999999999703 	0.9999999999996123 	101324.999999996
-0.5342842842842846 	299.9999999999686 	0.9999999999986751 	101324.9999999956
-0.531781781781782 	299.9999999999508 	0.999999999998591 	101324.999999996
-0.5292792792792794 	299.9999999999554 	0.9999999999988265 	101324.9999999964
-0.526776776776777 	299.9999999999663 	0.9999999999988098 	101324.9999999961
-0.5242742742742745 	299.9999999999721 	0.9999999999999645 	101324.9999999961
-0.521771771771772 	299.9999999999894 	1.000000000006187 	101324.999999996
-0.5192692692692695 	299.9999999999893 	0.9999999999951166 	101324.9999999958
-0.516766766766767 	299.9999999999962 	0.9999999999984965 	101324.9999999957
-0.5142642642642645 	299.9999999999689 	0.9999999999958432 	101324.9999999959
-0.511761761761762 	299.9999999999865 	1.000000000000422 	101324.9999999958
-0.5092592592592596 	300.0000000000038 	0.9999999999977492 	101324.9999999959
-0.506756756756757 	299.9999999999831 	0.9999999999989533 	101324.999999996
-0.5042542542542544 	300.0000000000073 	0.9999999999997536 	101324.9999999962
-0.5017517517517521 	300.0000000000148 	0.9999999999996201 	101324.9999999961
-0.4992492492492494 	300.0000000000118 	0.9999999999993253 	101324.9999999963
-0.496746746746747 	300.0000000000051 	0.9999999999993299 	101324.999999997
-0.4942442442442445 	299.9999999999692 	0.9999999999988738 	101324.9999999971
-0.4917417417417421 	299.9999999999667 	0.9999999999985457 	101324.9999999971
-0.4892392392392395 	299.9999999999685 	0.9999999999987687 	101324.9999999965
-0.486736736736737 	299.9999999999825 	0.9999999999993234 	101324.9999999963
-0.4842342342342345 	299.9999999999771 	0.9999999999996071 	101324.9999999964
-0.481731731731732 	300.0000000000093 	0.9999999999998612 	101324.9999999964
-0.4792292292292296 	300.0000000000181 	0.9999999999995786 	101324.9999999966
-0.4767267267267268 	299.9999999999766 	1.000000000005698 	101324.9999999966
-0.4742242242242246 	299.9999999999841 	0.9999999999963537 	101324.9999999962
-0.471721721721722 	299.9999999999656 	0.9999999999984762 	101324.9999999964
-0.4692192192192195 	299.9999999999704 	1.000000000000641 	101324.999999996
-0.4667167167167169 	299.999999999964 	1.000000000000117 	101324.9999999958
-0.4642142142142145 	300.0000000000008 	1.000000000000022 	101324.999999996
-0.461711711711712 	300.000000000006 	1.000000000000933 	101324.9999999962
-0.4592092092092094 	299.9999999999967 	1.000000000001835 	101324.9999999962
-0.456706706706707 	300.0000000000156 	1.000000000001871 	101324.9999999962
-0.4542042042042045 	299.9999999999859 	1.000000000000467 	101324.999999996
-0.451701701701702 	299.9999999999882 	0.9999999999996745 	101324.9999999959
-0.4491991991991995 	299.9999999999673 	1.000000000000099 	101324.9999999957
-0.4466966966966969 	299.9999999999665 	1.000000000000584 	101324.9999999958
-0.4441941941941945 	299.9999999999789 	1.000000000000414 	101324.9999999957
-0.441691691691692 	299.9999999999617 	0.9999999999996052 	101324.9999999953
-0.4391891891891895 	299.9999999999841 	0.9999999999989321 	101324.9999999957
-0.436686686686687 	299.999999999981 	1.00000000000567 	101324.9999999962
-0.4341841841841846 	299.999999999982 	0.9999999999953498 	101324.999999996
-0.431681681681682 	299.9999999999723 	0.9999999999970285 	101324.9999999958
-0.4291791791791794 	299.9999999999723 	1.00000000000022 	101324.9999999962
-0.426676676676677 	299.9999999999574 	1.000000000001008 	101324.9999999961
-0.4241741741741744 	299.9999999999831 	0.9999999999999487 	101324.9999999959
-0.421671671671672 	300.0000000000064 	0.9999999999988479 	101324.9999999957
-0.4191691691691694 	300.0000000000078 	0.9999999999979731 	101324.9999999958
-0.4166666666666669 	300.0000000000159 	0.9999999999971898 	101324.9999999959
-0.4141641641641645 	299.9999999999793 	0.9999999999976628 	101324.9999999958
-0.411661661661662 	299.9999999999899 	0.9999999999992597 	101324.9999999962
-0.4091591591591594 	299.9999999999893 	1.000000000000504 	101324.9999999961
-0.406656656656657 	299.9999999999643 	1.000000000000892 	101324.9999999964
-0.4041541541541545 	299.9999999999997 	1.000000000001368 	101324.9999999966
-0.401651651651652 	299.9999999999728 	1.000000000001567 	101324.9999999964
-0.3991491491491494 	299.9999999999871 	1.000000000000618 	101324.9999999963
-0.396646646646647 	299.9999999999869 	1.000000000006671 	101324.999999996
-0.3941441441441444 	300.000000000003 	0.9999999999958455 	101324.9999999958
-0.3916416416416419 	299.9999999999848 	0.9999999999986102 	101324.9999999959
-0.3891391391391395 	299.9999999999884 	1.000000000001433 	101324.9999999961
-0.3866366366366368 	299.9999999999966 	1.000000000001371 	101324.9999999963
-0.3841341341341344 	299.9999999999977 	1.000000000001346 	101324.9999999957
-0.381631631631632 	299.9999999999647 	1.00000000000228 	101324.9999999954
-0.3791291291291294 	299.9999999999919 	1.000000000003026 	101324.9999999957
-0.3766266266266269 	299.9999999999934 	1.000000000002497 	101324.9999999956
-0.3741241241241244 	300.000000000016 	1.000000000001995 	101324.9999999959
-0.371621621621622 	300.0000000000007 	1.000000000000923 	101324.9999999962
-0.3691191191191194 	300.0000000000109 	1.000000000007877 	101324.9999999959
-0.366616616616617 	300.0000000000078 	0.9999999999974598 	101324.9999999957
-0.3641141141141143 	299.9999999999692 	1.000000000000003 	101324.9999999955
-0.3616116116116119 	299.9999999999856 	1.00000000000254 	101324.9999999956
-0.3591091091091095 	300.000000000007 	1.000000000003012 	101324.9999999962
-0.356606606606607 	299.9999999999847 	1.000000000003368 	101324.9999999969
-0.3541041041041044 	300.0000000000002 	1.000000000002361 	101324.9999999967
-0.3516016016016019 	300.0000000000031 	1.000000000001168 	101324.9999999958
-0.3490990990990994 	300.0000000000072 	1.000000000000825 	101324.9999999955
-0.346596596596597 	300.0000000000142 	1.000000000004553 	101324.9999999955
-0.3440940940940944 	300.0000000000147 	0.9999999999989355 	101324.9999999956
-0.3415915915915919 	300.0000000000102 	0.9999999999998321 	101324.9999999959
-0.3390890890890895 	299.9999999999822 	1.000000000002338 	101324.9999999955
-0.3365865865865869 	299.9999999999966 	1.000000000003458 	101324.9999999955
-0.3340840840840844 	299.9999999999908 	1.000000000003393 	101324.9999999956
-0.3315815815815819 	300.0000000000121 	1.00000000000304 	101324.9999999958
-0.3290790790790794 	300.0000000000153 	1.000000000002201 	101324.9999999957
-0.3265765765765769 	299.9999999999751 	1.000000000002091 	101324.9999999959
-0.3240740740740744 	299.999999999993 	1.00000000000305 	101324.9999999959
-0.3215715715715718 	300.0000000000009 	1.000000000003727 	101324.9999999956
-0.3190690690690695 	299.9999999999766 	1.000000000004689 	101324.9999999958
-0.3165665665665668 	299.999999999994 	1.000000000004697 	101324.9999999961
-0.3140640640640644 	300.0000000000014 	1.000000000004126 	101324.9999999962
-0.311561561561562 	299.999999999979 	1.000000000003326 	101324.9999999957
-0.3090590590590593 	299.999999999995 	1.000000000002635 	101324.9999999952
-0.3065565565565568 	300.0000000000041 	1.000000000010018 	101324.9999999949
-0.3040540540540545 	299.9999999999914 	0.9999999999979079 	101324.9999999948
-0.3015515515515518 	299.999999999999 	1.000000000001199 	101324.9999999952
-0.2990490490490494 	299.9999999999766 	1.000000000004517 	101324.9999999953
-0.2965465465465469 	299.9999999999959 	1.00000000000441 	101324.9999999953
-0.2940440440440444 	300.00000000001 	1.000000000004619 	101324.9999999951
-0.2915415415415418 	300.0000000000121 	1.000000000004511 	101324.9999999953
-0.2890390390390395 	300.0000000000016 	1.000000000004512 	101324.999999995
-0.2865365365365368 	299.9999999999882 	1.00000000000417 	101324.9999999949
-0.2840340340340343 	299.9999999999913 	1.000000000007082 	101324.9999999948
-0.2815315315315318 	299.9999999999845 	1.000000000000573 	101324.9999999951
-0.2790290290290295 	299.9999999999699 	1.000000000001869 	101324.9999999955
-0.2765265265265269 	299.9999999999948 	1.00000000000352 	101324.9999999951
-0.2740240240240244 	300.000000000018 	1.000000000004084 	101324.9999999947
-0.2715215215215219 	300.0000000000198 	1.000000000004471 	101324.9999999948
-0.2690190190190194 	299.9999999999716 	1.000000000004564 	101324.9999999948
-0.2665165165165169 	299.9999999999885 	1.000000000003898 	101324.999999995
-0.2640140140140144 	299.9999999999874 	1.000000000003777 	101324.9999999953
-0.2615115115115119 	299.9999999999993 	1.000000000007969 	101324.9999999952
-0.2590090090090094 	299.9999999999635 	1.000000000001754 	101324.9999999951
-0.2565065065065068 	299.9999999999882 	1.0000000000036 	101324.999999995
-0.2540040040040044 	299.9999999999968 	1.000000000004849 	101324.9999999946
-0.2515015015015019 	300.0000000000142 	1.000000000005248 	101324.9999999942
-0.2489989989989994 	300.0000000000175 	1.000000000005137 	101324.9999999946
-0.2464964964964968 	299.999999999993 	1.000000000005014 	101324.9999999948
-0.2439939939939944 	299.999999999997 	1.000000000008346 	101324.9999999946
-0.2414914914914919 	299.9999999999786 	1.000000000001937 	101324.9999999947
-0.2389889889889893 	299.9999999999881 	1.000000000003715 	101324.999999995
-0.2364864864864869 	300.0000000000124 	1.000000000004497 	101324.9999999947
-0.2339839839839843 	299.9999999999792 	1.000000000008148 	101324.9999999946
-0.2314814814814819 	299.9999999999857 	1.000000000001611 	101324.9999999945
-0.2289789789789792 	299.9999999999586 	1.000000000003802 	101324.9999999949
-0.2264764764764769 	299.9999999999674 	1.000000000005327 	101324.9999999952
-0.2239739739739743 	299.9999999999819 	1.000000000005085 	101324.9999999955
-0.2214714714714718 	299.9999999999621 	1.000000000005055 	101324.9999999952
-0.2189689689689693 	299.9999999999752 	1.000000000004686 	101324.9999999949
-0.2164664664664669 	299.999999999991 	1.000000000008176 	101324.9999999944
-0.2139639639639643 	299.9999999999678 	1.000000000001694 	101324.9999999946
-0.2114614614614618 	299.9999999999818 	1.000000000003196 	101324.999999995
-0.2089589589589593 	299.9999999999972 	1.00000000000313 	101324.9999999949
-0.2064564564564568 	299.9999999999977 	1.000000000002252 	101324.9999999949
-0.2039539539539543 	299.9999999999562 	1.000000000002345 	101324.9999999946
-0.2014514514514518 	299.9999999999655 	1.000000000002725 	101324.9999999945
-0.1989489489489494 	299.9999999999781 	1.000000000006402 	101324.999999994
-0.1964464464464468 	299.999999999997 	1.000000000000498 	101324.9999999944
-0.1939439439439443 	299.9999999999973 	1.000000000002756 	101324.9999999946
-0.1914414414414418 	299.9999999999678 	1.000000000004089 	101324.9999999949
-0.1889389389389393 	299.9999999999939 	1.000000000003868 	101324.9999999952
-0.1864364364364368 	300.0000000000143 	1.00000000000438 	101324.999999995
-0.1839339339339343 	299.9999999999923 	1.000000000005109 	101324.999999995
-0.1814314314314318 	299.9999999999931 	1.000000000004523 	101324.9999999945
-0.1789289289289293 	299.9999999999569 	1.000000000005067 	101324.9999999942
-0.1764264264264268 	299.9999999999745 	1.000000000004203 	101324.9999999943
-0.1739239239239243 	299.9999999999557 	1.000000000003426 	101324.999999995
-0.1714214214214218 	299.9999999999861 	1.000000000003136 	101324.9999999947
-0.1689189189189193 	299.9999999999712 	1.000000000002911 	101324.9999999944
-0.1664164164164168 	299.9999999999948 	1.000000000002637 	101324.9999999947
-0.1639139139139143 	300.0000000000004 	1.000000000003757 	101324.9999999947
-0.1614114114114118 	300.0000000000095 	1.000000000003692 	101324.9999999947
-0.1589089089089093 	299.9999999999977 	1.000000000011896 	101324.9999999942
-0.1564064064064068 	299.9999999999907 	0.9999999999995733 	101324.9999999939
-0.1539039039039043 	299.9999999999946 	1.000000000007067 	101324.9999999946
-0.1514014014014018 	300.0000000000056 	1.000000000002194 	101324.9999999953
-0.1488988988988993 	299.9999999999944 	1.000000000006903 	101324.999999995
-0.1463963963963968 	300.0000000000006 	1.000000000001832 	101324.9999999946
-0.1438938938938943 	299.9999999999728 	1.00000000000383 	101324.9999999942
-0.1413913913913918 	299.9999999999712 	1.000000000004195 	101324.9999999942
-0.1388888888888893 	299.9999999999828 	1.000000000003802 	101324.9999999941
-0.1363863863863868 	299.9999999999619 	1.000000000004 	101324.9999999937
-0.1338838838838843 	299.9999999999486 	1.000000000004252 	101324.999999994
-0.1313813813813818 	299.999999999989 	1.000000000004336 	101324.9999999942
-0.1288788788788793 	299.9999999999706 	1.000000000003713 	101324.9999999948
-0.1263763763763768 	299.9999999999832 	1.000000000004386 	101324.9999999945
-0.1238738738738743 	299.9999999999666 	1.000000000004796 	101324.9999999946
-0.1213713713713717 	299.9999999999835 	1.000000000004916 	101324.9999999943
-0.1188688688688693 	300.0000000000052 	1.000000000004472 	101324.9999999948
-0.1163663663663668 	299.9999999999577 	1.000000000003311 	101324.9999999945
-0.1138638638638643 	299.9999999999863 	1.000000000006389 	101324.9999999943
-0.1113613613613618 	299.9999999999901 	1.000000000000072 	101324.9999999952
-0.1088588588588592 	299.9999999999895 	1.000000000006291 	101324.9999999948
-0.1063563563563568 	299.9999999999799 	1.00000000000115 	101324.999999995
-0.1038538538538543 	299.9999999999882 	1.000000000002914 	101324.9999999949
-0.1013513513513517 	300.000000000007 	1.000000000003135 	101324.9999999946
-0.09884884884884926 	299.9999999999811 	1.000000000002459 	101324.9999999945
-0.09634634634634676 	299.9999999999603 	1.000000000002438 	101324.9999999946
-0.09384384384384425 	299.9999999999482 	1.000000000003319 	101324.999999995
-0.09134134134134177 	300.0000000000006 	1.000000000004282 	101324.9999999948
-0.08883883883883925 	300.0000000000035 	1.000000000005182 	101324.999999995
-0.08633633633633674 	299.9999999999717 	1.000000000004697 	101324.9999999949
-0.08383383383383426 	299.9999999999974 	1.000000000003114 	101324.9999999951
-0.08133133133133173 	299.9999999999889 	1.000000000002166 	101324.9999999953
-0.07882882882882926 	299.9999999999537 	1.000000000002022 	101324.9999999947
-0.07632632632632676 	299.999999999977 	1.00000000000256 	101324.9999999949
-0.07382382382382424 	299.999999999954 	1.000000000002979 	101324.9999999949
-0.07132132132132173 	299.9999999999896 	1.000000000003317 	101324.9999999948
-0.06881881881881925 	299.9999999999741 	1.000000000003807 	101324.999999995
-0.06631631631631671 	299.999999999949 	1.000000000003462 	101324.9999999947
-0.06381381381381425 	299.999999999972 	1.000000000003312 	101324.999999995
-0.06131131131131173 	299.9999999999764 	1.000000000003617 	101324.9999999948
-0.05880880880880923 	299.9999999999767 	1.000000000002968 	101324.9999999951
-0.05630630630630672 	299.9999999999764 	1.000000000002574 	101324.9999999952
-0.05380380380380424 	300.0000000000123 	1.000000000002887 	101324.999999995
-0.05130130130130173 	300.000000000001 	1.000000000002532 	101324.999999995
-0.04879879879879922 	299.9999999999517 	1.000000000002775 	101324.9999999949
-0.04629629629629672 	299.9999999999612 	1.000000000002791 	101324.9999999947
-0.04379379379379422 	299.9999999999653 	1.000000000002097 	101324.9999999952
-0.04129129129129173 	299.9999999999703 	1.00000000000183 	101324.9999999954
-0.03878878878878922 	300.0000000000017 	1.000000000002259 	101324.9999999959
-0.03628628628628671 	299.9999999999847 	1.000000000002635 	101324.999999996
-0.03378378378378422 	299.9999999999607 	1.000000000002998 	101324.9999999947
-0.03128128128128172 	299.9999999999771 	1.000000000002508 	101324.9999999947
-0.02877877877877922 	300.0000000000003 	1.000000000002137 	101324.9999999949
-0.0262762762762767 	299.9999999999488 	1.000000000000432 	101324.9999999951
-0.02377377377377422 	299.9999999999876 	1.000000000000393 	101324.9999999941
-0.0212712712712717 	299.999999999945 	1.000000000001488 	101324.9999999945
-0.01876876876876921 	299.9999999999854 	1.000000000001954 	101324.9999999952
-0.01626626626626671 	299.9999999999944 	1.000000000001658 	101324.9999999954
-0.0137637637637642 	299.9999999999709 	0.9999999999997805 	101324.9999999953
-0.0112612612612617 	299.9999999999906 	0.9999999999993865 	101324.9999999953
-0.008758758758759198 	299.9999999999852 	1.000000000000685 	101324.9999999952
-0.006256256256256697 	299.9999999999658 	1.000000000001738 	101324.9999999948
-0.003753753753754195 	299.9999999999677 	1.00000000000112 	101324.9999999947
-0.001251251251251693 	299.9999999999639 	1.000000000000226 	101324.9999999952
0.00125125125125081 	299.999999999954 	0.9999999999990765 	101324.9999999949
0.003753753753753312 	299.9999999999642 	0.9999999999982415 	101324.9999999947
0.006256256256255817 	299.9999999999583 	0.9999999999981356 	101324.9999999948
0.008758758758758317 	299.9999999999671 	0.9999999999983619 	101324.9999999951
0.01126126126126082 	299.9999999999819 	0.9999999999979033 	101324.9999999946
0.01376376376376332 	299.9999999999717 	0.9999999999984028 	101324.9999999948
0.01626626626626582 	299.9999999999891 	0.9999999999995106 	101324.9999999955
0.01876876876876833 	299.9999999999881 	0.999999999999157 	101324.9999999953
0.02127127127127083 	299.999999999958 	0.999999999998645 	101324.9999999953
0.02377377377377332 	299.9999999999886 	0.9999999999981606 	101324.9999999952
0.02627627627627583 	299.9999999999549 	0.9999999999981501 	101324.9999999948
0.02877877877877833 	299.9999999999831 	0.999999999999317 	101324.9999999946
0.03128128128128083 	299.9999999999826 	0.9999999999993303 	101324.9999999946
0.03378378378378333 	299.9999999999566 	0.9999999999986937 	101324.9999999951
0.03628628628628584 	299.9999999999797 	0.9999999999983119 	101324.9999999958
0.03878878878878834 	300.0000000000005 	0.9999999999978453 	101324.9999999952
0.04129129129129084 	299.9999999999683 	0.9999999999981178 	101324.9999999949
0.04379379379379333 	299.9999999999736 	0.9999999999991683 	101324.9999999952
0.04629629629629585 	299.9999999999646 	0.9999999999983663 	101324.9999999949
0.04879879879879834 	299.9999999999539 	0.9999999999967452 	101324.9999999943
0.05130130130130085 	300.0000000000048 	0.9999999999961895 	101324.9999999942
0.05380380380380335 	300.0000000000113 	0.9999999999971956 	101324.9999999939
0.05630630630630584 	299.999999999979 	0.9999999999977804 	101324.9999999942
0.05880880880880836 	299.9999999999753 	0.9999999999969693 	101324.9999999946
0.06131131131131085 	299.9999999999803 	0.9999999999953226 	101324.999999995
0.06381381381381336 	299.9999999999865 	0.9999999999950052 	101324.9999999947
0.06631631631631586 	299.9999999999573 	0.9999999999958462 	101324.9999999941
0.06881881881881835 	299.9999999999771 	0.999999999997653 	101324.9999999945
0.07132132132132088 	299.9999999999934 	0.9999999999971398 	101324.9999999948
0.07382382382382337 	299.9999999999583 	0.9999999999961522 	101324.9999999951
0.07632632632632587 	299.9999999999786 	0.9999999999957723 	101324.9999999949
0.07882882882882837 	299.999999999978 	0.9999999999966149 	101324.9999999953
0.08133133133133086 	299.9999999999815 	0.9999999999966533 	101324.9999999957
0.08383383383383337 	299.9999999999899 	0.9999999999963217 	101324.9999999951
0.08633633633633589 	299.9999999999554 	0.9999999999960811 	101324.9999999947
0.08883883883883838 	299.9999999999913 	0.9999999999954523 	101324.9999999948
0.09134134134134086 	299.9999999999898 	0.9999999999945118 	101324.9999999952
0.09384384384384339 	299.999999999951 	0.9999999999943774 	101324.9999999951
0.09634634634634588 	299.9999999999781 	0.9999999999950294 	101324.9999999947
0.09884884884884838 	299.9999999999846 	0.999999999995219 	101324.999999995
0.1013513513513509 	300.0000000000088 	0.9999999999957012 	101324.999999995
0.1038538538538534 	299.9999999999925 	0.9999999999940716 	101324.9999999948
0.1063563563563559 	299.9999999999902 	0.9999999999928523 	101324.9999999943
0.1088588588588584 	300.0000000000159 	0.9999999999930493 	101324.9999999947
0.1113613613613609 	299.9999999999775 	0.9999999999934915 	101324.9999999948
0.1138638638638634 	299.9999999999623 	0.9999999999935386 	101324.9999999947
0.1163663663663659 	299.9999999999666 	0.9999999999945948 	101324.9999999946
0.1188688688688684 	299.999999999981 	0.9999999999953821 	101324.9999999947
0.1213713713713709 	300.0000000000015 	0.9999999999961198 	101324.9999999949
0.1238738738738734 	299.9999999999669 	0.9999999999962735 	101324.9999999955
0.1263763763763759 	299.9999999999892 	0.9999999999961694 	101324.9999999956
0.1288788788788784 	299.9999999999883 	0.9999999999958299 	101324.9999999953
0.1313813813813809 	299.9999999999847 	0.999999999995005 	101324.9999999946
0.1338838838838834 	299.9999999999887 	0.9999999999943765 	101324.9999999943
0.1363863863863859 	299.9999999999986 	0.9999999999955048 	101324.999999994
0.1388888888888884 	300.0000000000148 	0.9999999999960912 	101324.9999999942
0.1413913913913909 	299.9999999999974 	0.9999999999958978 	101324.9999999947
0.1438938938938934 	299.999999999996 	0.9999999999953822 	101324.9999999957
0.1463963963963959 	299.9999999999736 	0.9999999999948522 	101324.9999999956
0.1488988988988985 	299.9999999999633 	0.9999999999955533 	101324.9999999956
0.1514014014014009 	299.9999999999822 	0.9999999999955268 	101324.9999999954
0.1539039039039035 	299.9999999999791 	0.9999999999961577 	101324.9999999956
0.1564064064064059 	299.9999999999676 	1.000000000000249 	101324.9999999955
0.1589089089089084 	299.9999999999837 	0.9999999999929156 	101324.9999999949
0.1614114114114109 	299.9999999999814 	0.9999999999943613 	101324.9999999951
0.1639139139139134 	299.9999999999589 	0.9999999999944729 	101324.9999999946
0.166416416416416 	299.9999999999857 	0.9999999999939121 	101324.9999999946
0.1689189189189185 	300.0000000000142 	0.999999999994031 	101324.9999999947
0.1714214214214209 	300.0000000000024 	0.9999999999938158 	101324.9999999948
0.1739239239239235 	299.9999999999842 	0.9999999999945119 	101324.999999995
0.1764264264264259 	299.999999999992 	0.9999999999960759 	101324.9999999955
0.1789289289289284 	300.0000000000057 	0.9999999999999761 	101324.9999999955
0.181431431431431 	299.9999999999879 	0.9999999999927993 	101324.9999999959
0.1839339339339334 	299.9999999999878 	0.9999999999949555 	101324.9999999956
0.186436436436436 	299.99999999997 	0.999999999996019 	101324.9999999952
0.1889389389389385 	299.999999999987 	0.9999999999965949 	101324.9999999954
0.191441441441441 	299.9999999999857 	0.9999999999962537 	101324.9999999953
0.1939439439439434 	299.999999999969 	0.999999999995532 	101324.9999999951
0.196446446446446 	299.9999999999661 	0.9999999999977179 	101324.9999999955
0.1989489489489485 	299.999999999982 	0.9999999999909918 	101324.9999999958
0.2014514514514509 	299.9999999999956 	0.9999999999937811 	101324.999999996
0.2039539539539535 	299.9999999999934 	0.9999999999951438 	101324.9999999956
0.2064564564564559 	299.9999999999736 	0.9999999999953564 	101324.9999999951
0.2089589589589585 	299.9999999999901 	0.9999999999955695 	101324.9999999946
0.211461461461461 	299.9999999999703 	0.9999999999960532 	101324.9999999947
0.2139639639639635 	299.9999999999892 	0.9999999999959147 	101324.999999995
0.2164664664664659 	300.0000000000038 	0.9999999999954682 	101324.9999999951
0.2189689689689684 	300.0000000000016 	0.9999999999983971 	101324.999999995
0.221471471471471 	299.9999999999993 	0.9999999999927243 	101324.9999999943
0.2239739739739735 	299.9999999999784 	0.9999999999945365 	101324.9999999946
0.226476476476476 	299.9999999999893 	0.9999999999952162 	101324.9999999945
0.2289789789789785 	299.9999999999987 	0.9999999999947232 	101324.9999999948
0.231481481481481 	299.9999999999913 	0.9999999999946733 	101324.9999999952
0.2339839839839835 	299.9999999999859 	0.9999999999947188 	101324.9999999951
0.236486486486486 	300.0000000000058 	0.9999999999951739 	101324.9999999942
0.2389889889889885 	299.9999999999998 	0.9999999999953418 	101324.9999999944
0.241491491491491 	299.9999999999638 	0.9999999999976976 	101324.9999999951
0.2439939939939935 	299.999999999987 	0.9999999999912526 	101324.9999999953
0.246496496496496 	299.9999999999956 	0.9999999999945759 	101324.9999999949
0.2489989989989985 	300.0000000000242 	0.9999999999965969 	101324.9999999947
0.251501501501501 	300.000000000022 	0.9999999999970898 	101324.999999995
0.2540040040040035 	300.0000000000019 	0.9999999999969585 	101324.9999999952
0.256506506506506 	300.0000000000147 	0.9999999999960689 	101324.9999999953
0.2590090090090086 	299.9999999999633 	0.9999999999978793 	101324.9999999953
0.261511511511511 	299.9999999999933 	0.9999999999918774 	101324.9999999955
0.2640140140140135 	299.9999999999918 	0.9999999999952411 	101324.9999999958
0.2665165165165161 	299.9999999999691 	0.9999999999959602 	101324.9999999951
0.2690190190190185 	299.9999999999999 	0.9999999999953506 	101324.9999999953
0.271521521521521 	300.0000000000186 	0.999999999994779 	101324.9999999958
0.2740240240240235 	300.0000000000197 	0.9999999999954559 	101324.9999999955
0.276526526526526 	300.0000000000113 	0.9999999999971126 	101324.9999999958
0.2790290290290286 	299.9999999999732 	0.9999999999978108 	101324.9999999954
0.281531531531531 	299.9999999999712 	1.000000000000373 	101324.9999999954
0.2840340340340335 	299.9999999999789 	0.999999999994888 	101324.9999999955
0.2865365365365361 	299.9999999999881 	0.9999999999979656 	101324.9999999955
0.2890390390390385 	300.0000000000118 	0.9999999999987285 	101324.9999999952
0.291541541541541 	300.0000000000143 	0.9999999999976429 	101324.9999999948
0.2940440440440436 	300.0000000000144 	0.999999999997352 	101324.9999999952
0.296546546546546 	300.0000000000106 	0.9999999999971001 	101324.9999999953
0.2990490490490486 	299.9999999999825 	0.9999999999963576 	101324.9999999952
0.3015515515515511 	299.9999999999978 	0.9999999999979287 	101324.9999999952
0.3040540540540535 	299.9999999999964 	1.000000000003974 	101324.9999999956
0.3065565565565562 	300.0000000000016 	0.99999999999204 	101324.9999999958
0.3090590590590585 	299.9999999999973 	0.9999999999977305 	101324.9999999956
0.3115615615615611 	299.9999999999659 	1.000000000000469 	101324.9999999953
0.3140640640640635 	299.9999999999996 	0.9999999999998687 	101324.9999999953
0.316566566566566 	300.0000000000014 	0.9999999999990925 	101324.9999999956
0.3190690690690687 	299.9999999999634 	0.9999999999989375 	101324.9999999954
0.3215715715715711 	299.9999999999927 	0.9999999999994311 	101324.9999999953
0.3240740740740735 	299.9999999999911 	0.9999999999996978 	101324.9999999953
0.326576576576576 	299.9999999999723 	0.9999999999992328 	101324.9999999954
0.3290790790790786 	300.000000000014 	0.9999999999990237 	101324.9999999956
0.3315815815815811 	300.000000000016 	0.9999999999991577 	101324.9999999955
0.3340840840840836 	300.0000000000079 	0.999999999999716 	101324.9999999957
0.3365865865865861 	300.0000000000182 	0.9999999999996607 	101324.9999999957
0.3390890890890886 	300.0000000000171 	0.9999999999993863 	101324.9999999953
0.3415915915915911 	299.9999999999968 	0.9999999999997673 	101324.9999999954
0.3440940940940935 	299.9999999999671 	1.000000000001474 	101324.9999999955
0.3465965965965962 	300.0000000000059 	0.9999999999959256 	101324.9999999959
0.3490990990990985 	300.0000000000075 	0.9999999999987839 	101324.9999999958
0.3516016016016011 	300.0000000000132 	1.000000000000025 	101324.9999999954
0.3541041041041035 	300.0000000000056 	0.9999999999989992 	101324.9999999955
0.3566066066066061 	299.9999999999662 	0.9999999999979881 	101324.9999999955
0.3591091091091085 	299.9999999999804 	0.9999999999985671 	101324.9999999954
0.3616116116116112 	299.9999999999833 	0.9999999999995773 	101324.9999999958
0.3641141141141137 	299.9999999999619 	1.000000000000896 	101324.9999999963
0.3666166166166161 	299.9999999999465 	1.000000000006444 	101324.9999999961
0.3691191191191185 	299.9999999999986 	0.9999999999958398 	101324.9999999958
0.371621621621621 	300.0000000000022 	0.9999999999996767 	101324.9999999958
0.3741241241241237 	300.0000000000144 	1.000000000000162 	101324.9999999957
0.3766266266266261 	300.000000000003 	0.9999999999996735 	101324.9999999955
0.3791291291291286 	299.99999999999 	1.000000000000044 	101324.9999999957
0.3816316316316311 	299.999999999979 	1.000000000000852 	101324.999999995
0.3841341341341336 	299.9999999999967 	1.000000000002083 	101324.9999999953
0.3866366366366362 	299.9999999999923 	1.000000000002092 	101324.9999999956
0.3891391391391387 	299.9999999999733 	1.000000000001049 	101324.9999999957
0.391641641641641 	299.9999999999996 	0.9999999999998661 	101324.9999999962
0.3941441441441436 	299.999999999996 	0.9999999999995526 	101324.9999999965
0.3966466466466462 	299.9999999999941 	0.9999999999999437 	101324.9999999962
0.3991491491491486 	299.9999999999815 	1.000000000000091 	101324.9999999958
0.4016516516516512 	299.99999999997 	1.000000000000044 	101324.9999999958
0.4041541541541536 	299.9999999999825 	0.9999999999999416 	101324.9999999957
0.4066566566566561 	299.999999999984 	1.000000000001542 	101324.9999999961
0.4091591591591587 	300.0000000000065 	0.9999999999961247 	101324.9999999967
0.4116616616616612 	300.0000000000097 	0.9999999999995746 	101324.9999999962
0.4141641641641635 	300.0000000000197 	1.000000000002158 	101324.9999999952
0.4166666666666662 	300.0000000000059 	1.000000000002742 	101324.9999999947
0.4191691691691687 	299.9999999999683 	1.000000000002806 	101324.9999999948
0.421671671671671 	299.9999999999956 	1.00000000000271 	101324.9999999956
0.4241741741741737 	299.999999999982 	1.000000000002569 	101324.999999996
0.4266766766766761 	299.9999999999716 	1.000000000002939 	101324.999999996
0.4291791791791785 	299.9999999999953 	1.000000000006788 	101324.9999999963
0.4316816816816812 	299.9999999999933 	0.9999999999961867 	101324.9999999964
0.4341841841841836 	300.000000000003 	1.000000000000931 	101324.999999996
0.4366866866866862 	299.9999999999827 	1.000000000001968 	101324.9999999957
0.4391891891891885 	300.0000000000011 	1.000000000001474 	101324.999999996
0.4416916916916913 	300.0000000000047 	1.000000000002103 	101324.9999999964
0.4441941941941936 	299.9999999999945 	1.000000000002839 	101324.9999999963
0.4466966966966961 	299.9999999999561 	1.000000000002779 	101324.9999999961
0.4491991991991987 	299.9999999999922 	1.000000000002116 	101324.9999999959
0.4517017017017012 	299.9999999999799 	1.000000000001994 	101324.9999999958
0.4542042042042035 	299.9999999999964 	1.000000000003027 	101324.9999999956
0.4567067067067062 	299.9999999999972 	1.000000000003185 	101324.9999999956
0.4592092092092087 	299.9999999999559 	1.000000000003084 	101324.9999999958
0.4617117117117112 	299.9999999999887 	1.000000000002894 	101324.9999999955
0.4642142142142137 	299.9999999999756 	1.0000000000019 	101324.9999999956
0.4667167167167162 	299.9999999999931 	1.000000000000986 	101324.999999996
0.4692192192192187 	299.9999999999752 	1.000000000001051 	101324.9999999963
0.4717217217217212 	300.0000000000028 	1.000000000001766 	101324.9999999967
0.4742242242242236 	299.9999999999818 	1.000000000002276 	101324.9999999964
0.4767267267267262 	299.9999999999786 	1.000000000001875 	101324.9999999961
0.4792292292292287 	299.9999999999996 	1.000000000002199 	101324.9999999958
0.4817317317317312 	300.0000000000083 	1.000000000003475 	101324.999999996
0.4842342342342336 	300.0000000000037 	1.00000000000353 	101324.9999999954
0.4867367367367362 	299.9999999999968 	1.000000000003244 	101324.9999999955
0.4892392392392387 	300.0000000000009 	1.000000000003096 	101324.9999999953
0.4917417417417412 	300.0000000000151 	1.000000000003013 	101324.9999999953
0.4942442442442437 	299.9999999999821 	1.000000000002797 	101324.9999999955
0.4967467467467462 	299.9999999999629 	1.000000000003492 	101324.9999999957
0.4992492492492487 	299.9999999999513 	0.9999999999980543 	101324.9999999958
0.5017517517517511 	299.9999999999647 	1.000000000001064 	101324.9999999959
0.5042542542542537 	299.9999999999959 	1.000000000003122 	101324.999999996
0.5067567567567562 	299.9999999999869 	1.000000000003243 	101324.999999996
0.5092592592592589 	299.999999999979 	1.0000000000025 	101324.9999999964
0.5117617617617611 	299.9999999999911 	1.000000000001556 	101324.9999999964
0.5142642642642637 	300.0000000000074 	1.000000000001501 	101324.9999999959
0.5167667667667663 	300.0000000000001 	1.000000000003201 	101324.9999999957
0.5192692692692688 	299.9999999999625 	1.000000000006596 	101324.9999999958
0.5217717717717714 	299.999999999981 	0.9999999999962225 	101324.9999999963
0.5242742742742736 	299.9999999999807 	1.00000000000058 	101324.9999999964
0.5267767767767763 	299.9999999999724 	1.000000000001069 	101324.9999999959
0.5292792792792789 	299.999999999977 	1.000000000001066 	101324.9999999953
0.5317817817817813 	299.9999999999618 	1.000000000001658 	101324.9999999952
0.5342842842842837 	299.9999999999912 	1.000000000002386 	101324.9999999955
0.5367867867867864 	299.9999999999887 	1.000000000003295 	101324.9999999956
0.5392892892892888 	299.9999999999656 	1.000000000004085 	101324.9999999957
0.5417917917917912 	299.9999999999796 	1.000000000003577 	101324.9999999957
0.5442942942942938 	299.9999999999753 	1.000000000002444 	101324.9999999956
0.5467967967967964 	299.9999999999861 	1.000000000001978 	101324.999999996
0.5492992992992988 	299.9999999999831 	1.000000000002255 	101324.9999999958
0.5518018018018012 	299.9999999999776 	1.000000000002903 	101324.9999999955
0.5543043043043039 	299.9999999999965 	1.000000000002631 	101324.9999999959
0.5568068068068063 	299.9999999999897 	1.000000000002499 	101324.9999999965
0.5593093093093087 	299.9999999999655 	1.000000000003182 	101324.9999999971
0.5618118118118114 	299.9999999999643 	0.9999999999981112 	101324.9999999967
0.5643143143143137 	299.9999999999582 	1.000000000000599 	101324.999999996
0.5668168168168163 	299.9999999999837 	1.000000000001447 	101324.9999999954
0.5693193193193188 	300.0000000000015 	1.000000000001254 	101324.9999999953
0.5718218218218213 	300.0000000000125 	1.00000000000168 	101324.9999999957
0.5743243243243239 	300.0000000000122 	1.00000000000223 	101324.9999999961
0.5768268268268262 	300.0000000000036 	1.000000000002027 	101324.9999999964
0.5793293293293288 	299.9999999999821 	1.000000000003531 	101324.9999999965
0.5818318318318314 	299.9999999999769 	1.000000000006155 	101324.9999999963
0.5843343343343338 	300.0000000000055 	0.9999999999956224 	101324.999999996
0.5868368368368363 	299.9999999999947 	0.9999999999995397 	101324.9999999958
0.5893393393393387 	299.9999999999638 	1.000000000001543 	101324.9999999956
0.5918418418418413 	299.9999999999816 	1.000000000002337 	101324.9999999953
0.5943443443443439 	299.9999999999983 	1.000000000003529 	101324.9999999954
0.5968468468468463 	300.0000000000049 	1.000000000004099 	101324.9999999951
0.5993493493493487 	300.0000000000207 	1.000000000003499 	101324.9999999949
0.6018518518518514 	300.0000000000101 	1.000000000002711 	101324.9999999952
0.6043543543543537 	300.0000000000081 	1.00000000000264 	101324.9999999955
0.6068568568568564 	299.9999999999977 	1.00000000000349 	101324.9999999957
0.6093593593593587 	299.9999999999573 	1.000000000004195 	101324.9999999955
0.6118618618618614 	299.999999999972 	1.00000000000364 	101324.9999999955
0.6143643643643638 	300.0000000000045 	1.000000000002229 	101324.9999999956
0.6168668668668662 	300.0000000000002 	1.00000000000222 	101324.9999999956
0.6193693693693688 	299.9999999999907 	1.000000000003255 	101324.9999999952
0.6218718718718714 	300.0000000000003 	1.000000000004563 	101324.9999999956
0.6243743743743737 	299.9999999999918 	1.000000000000164 	101324.9999999958
0.6268768768768762 	299.9999999999825 	1.000000000002579 	101324.999999996
0.629379379379379 	299.9999999999922 	1.000000000003728 	101324.999999996
0.6318818818818812 	300.0000000000013 	1.000000000003131 	101324.9999999957
0.6343843843843838 	300.0000000000112 	1.00000000000247 	101324.9999999955
0.6368868868868864 	300.0000000000035 	1.000000000002371 	101324.9999999955
0.6393893893893888 	299.9999999999728 	1.000000000001444 	101324.9999999954
0.6418918918918912 	299.9999999999861 	1.000000000001658 	101324.9999999953
0.6443943943943939 	299.9999999999812 	1.000000000003854 	101324.9999999952
0.6468968968968963 	299.9999999999877 	0.9999999999961544 	101324.9999999955
0.6493993993993988 	299.9999999999855 	1.000000000001703 	101324.9999999956
0.6519019019019012 	300.0000000000014 	1.000000000003308 	101324.9999999958
0.6544044044044038 	299.9999999999748 	1.000000000002182 	101324.9999999962
0.6569069069069065 	299.9999999999675 	1.000000000001698 	101324.999999996
0.6594094094094087 	299.9999999999843 	1.000000000001169 	101324.9999999957
0.6619119119119113 	299.9999999999973 	1.000000000001294 	101324.9999999959
0.664414414414414 	300.000000000001 	1.000000000001507 	101324.999999996
0.6669169169169162 	299.9999999999953 	1.000000000002098 	101324.9999999956
0.6694194194194188 	299.9999999999877 	1.000000000002255 	101324.9999999954
0.6719219219219214 	299.9999999999739 	1.000000000001438 	101324.9999999955
0.674424424424424 	299.9999999999876 	1.000000000000425 	101324.9999999955
0.6769269269269262 	299.9999999999759 	1.000000000000351 	101324.9999999954
0.679429429429429 	300.0000000000061 	1.000000000000482 	101324.9999999952
0.6819319319319311 	300.0000000000173 	1.000000000001899 	101324.9999999949
0.6844344344344341 	300.0000000000182 	1.000000000003933 	101324.999999995
0.686936936936936 	300.0000000000169 	0.9999999999998002 	101324.9999999952
0.6894394394394392 	300.0000000000134 	1.000000000001974 	101324.9999999952
0.6919419419419413 	300.000000000004 	1.000000000002525 	101324.9999999956
0.694444444444444 	299.9999999999727 	1.00000000000199 	101324.9999999957
0.6969469469469463 	299.9999999999581 	1.000000000001612 	101324.9999999956
0.6994494494494489 	299.9999999999717 	1.000000000000903 	101324.9999999954
0.7019519519519515 	299.9999999999799 	1.000000000000994 	101324.9999999954
0.7044544544544538 	299.9999999999712 	1.000000000003156 	101324.9999999956
0.7069569569569564 	300.0000000000026 	1.000000000004589 	101324.9999999959
0.7094594594594589 	299.9999999999884 	0.9999999999955899 	101324.9999999955
0.7119619619619615 	299.9999999999733 	1.000000000000027 	101324.9999999948
0.7144644644644638 	299.9999999999906 	1.000000000001527 	101324.9999999948
0.7169669669669665 	299.9999999999819 	1.000000000001629 	101324.999999995
0.7194694694694688 	300.0000000000136 	1.000000000001962 	101324.9999999953
0.7219719719719715 	300.0000000000078 	1.000000000001712 	101324.9999999953
0.7244744744744737 	299.9999999999961 	1.000000000001227 	101324.9999999951
0.7269769769769764 	300.0000000000049 	1.000000000002784 	101324.999999995
0.7294794794794791 	300.0000000000017 	1.000000000003511 	101324.9999999947
0.7319819819819813 	299.9999999999868 	0.9999999999942235 	101324.9999999945
0.7344844844844839 	299.9999999999528 	0.9999999999982396 	101324.9999999945
0.7369869869869864 	299.9999999999675 	1.000000000000002 	101324.9999999947
0.739489489489489 	299.9999999999837 	1.000000000000575 	101324.999999995
0.7419919919919914 	299.9999999999777 	1.000000000001007 	101324.9999999954
0.7444944944944939 	299.9999999999748 	1.000000000001663 	101324.9999999956
0.7469969969969963 	299.9999999999901 	1.000000000001504 	101324.9999999956
0.7494994994994989 	299.9999999999652 	0.9999999999984341 	101324.9999999953
0.7520020020020015 	299.9999999999729 	1.000000000001788 	101324.999999995
0.7545045045045039 	299.999999999977 	0.9999999999948446 	101324.9999999952
0.7570070070070062 	299.9999999999783 	0.9999999999995528 	101324.9999999954
0.7595095095095092 	299.9999999999818 	1.000000000000841 	101324.9999999955
0.7620120120120112 	299.9999999999912 	1.000000000000443 	101324.9999999952
0.7645145145145138 	299.9999999999905 	1.000000000000604 	101324.9999999947
0.7670170170170165 	299.9999999999719 	1.00000000000249 	101324.9999999945
0.7695195195195191 	299.999999999958 	1.000000000003305 	101324.9999999947
0.7720220220220213 	299.9999999999739 	0.9999999999950462 	101324.9999999949
0.7745245245245239 	299.9999999999646 	0.9999999999988025 	101324.9999999952
0.7770270270270263 	299.9999999999653 	0.9999999999994997 	101324.9999999954
0.779529529529529 	299.9999999999799 	0.9999999999991001 	101324.9999999955
0.7820320320320313 	299.9999999999761 	0.999999999999365 	101324.9999999955
0.784534534534534 	299.9999999999981 	0.9999999999996043 	101324.9999999954
0.7870370370370364 	299.9999999999902 	0.9999999999994365 	101324.9999999953
0.7895395395395389 	299.9999999999836 	0.9999999999996074 	101324.9999999955
0.7920420420420413 	299.9999999999987 	0.999999999999975 	101324.9999999958
0.794544544544544 	299.9999999999941 	1.000000000002687 	101324.9999999962
0.7970470470470463 	300.0000000000058 	1.000000000003278 	101324.9999999965
0.799549549549549 	300.0000000000055 	0.9999999999943529 	101324.9999999963
0.8020520520520515 	299.9999999999901 	0.9999999999983844 	101324.9999999959
0.8045545545545539 	299.9999999999657 	1.000000000000078 	101324.9999999961
0.8070570570570563 	299.9999999999786 	0.9999999999992768 	101324.9999999959
0.8095595595595589 	299.9999999999744 	0.9999999999984227 	101324.9999999951
0.8120620620620614 	299.9999999999854 	0.9999999999980044 	101324.9999999949
0.8145645645645638 	300.0000000000063 	0.9999999999979499 	101324.9999999947
0.8170670670670666 	300.0000000000197 	1.00000000000045 	101324.999999995
0.8195695695695689 	300.0000000000016 	1.000000000001266 	101324.9999999954
0.8220720720720714 	299.999999999966 	0.9999999999934983 	101324.9999999956
0.8245745745745739 	299.99999999998 	0.9999999999979526 	101324.9999999959
0.8270770770770765 	299.9999999999857 	0.9999999999999858 	101324.999999996
0.8295795795795788 	299.9999999999892 	0.9999999999993767 	101324.999999996
0.8320820820820815 	300.0000000000085 	0.9999999999993376 	101324.9999999958
0.834584584584584 	300.0000000000028 	1.000000000000716 	101324.9999999953
0.8370870870870865 	299.9999999999757 	1.000000000000579 	101324.9999999951
0.8395895895895891 	299.9999999999619 	0.9999999999968827 	101324.9999999952
0.8420920920920915 	299.9999999999903 	0.9999999999995595 	101324.9999999951
0.844594594594594 	299.9999999999843 	1.000000000000498 	101324.9999999951
0.8470970970970964 	299.9999999999787 	1.00000000000018 	101324.9999999955
0.8495995995995991 	300.0000000000067 	0.999999999999675 	101324.9999999955
0.8521021021021015 	299.9999999999961 	0.9999999999990455 	101324.9999999951
0.8546046046046039 	299.9999999999804 	0.9999999999988561 	101324.999999995
0.8571071071071066 	299.9999999999961 	1.000000000001915 	101324.9999999952
0.8596096096096089 	299.9999999999932 	1.000000000002302 	101324.9999999953
0.8621121121121116 	299.9999999999845 	0.9999999999946299 	101324.9999999951
0.8646146146146139 	300.0000000000082 	0.9999999999991643 	101324.9999999952
0.8671171171171166 	299.9999999999918 	1.000000000000598 	101324.9999999954
0.8696196196196189 	299.9999999999681 	1.000000000000184 	101324.9999999955
0.8721221221221216 	299.9999999999892 	0.9999999999995868 	101324.9999999954
0.874624624624624 	300.0000000000034 	0.999999999999198 	101324.9999999955
0.8771271271271264 	299.9999999999993 	0.9999999999992366 	101324.9999999956
0.879629629629629 	299.9999999999945 	1.000000000001827 	101324.9999999959
0.8821321321321317 	299.9999999999897 	1.000000000001867 	101324.9999999961
0.8846346346346339 	299.9999999999741 	0.9999999999941935 	101324.9999999959
0.8871371371371364 	299.9999999999782 	0.9999999999979978 	101324.9999999957
0.8896396396396391 	299.999999999981 	0.9999999999993656 	101324.9999999955
0.8921421421421414 	299.9999999999818 	0.9999999999993674 	101324.9999999955
0.8946446446446441 	299.9999999999883 	0.9999999999994054 	101324.9999999959
0.8971471471471464 	299.9999999999939 	1.000000000000727 	101324.9999999956
0.8996496496496489 	299.999999999998 	1.000000000000741 	101324.9999999951
0.9021521521521517 	299.9999999999968 	0.9999999999962126 	101324.9999999951
0.9046546546546541 	299.9999999999986 	0.9999999999978093 	101324.9999999952
0.9071571571571564 	299.9999999999837 	0.9999999999991059 	101324.9999999953
0.9096596596596589 	299.9999999999735 	0.9999999999994756 	101324.9999999955
0.9121621621621616 	299.9999999999917 	0.9999999999993409 	101324.9999999952
0.9146646646646639 	299.9999999999828 	0.9999999999994419 	101324.999999995
0.9171671671671666 	299.9999999999728 	0.9999999999990747 	101324.9999999951
0.9196696696696689 	299.9999999999894 	1.000000000001704 	101324.9999999952
0.9221721721721714 	299.9999999999847 	1.000000000001392 	101324.9999999953
0.9246746746746741 	299.9999999999659 	0.9999999999939239 	101324.9999999956
0.9271771771771765 	299.9999999999823 	0.9999999999978906 	101324.9999999955
0.9296796796796791 	299.9999999999892 	0.999999999999002 	101324.9999999953
0.9321821821821816 	299.9999999999792 	0.9999999999996144 	101324.9999999954
0.9346846846846838 	299.9999999999776 	0.9999999999997691 	101324.9999999951
0.9371871871871866 	300.0000000000023 	0.9999999999987597 	101324.9999999949
0.9396896896896891 	299.9999999999993 	0.9999999999980149 	101324.9999999952
0.9421921921921914 	299.9999999999961 	1.000000000000606 	101324.9999999954
0.9446946946946939 	299.9999999999958 	1.000000000000329 	101324.9999999955
0.9471971971971965 	299.9999999999814 	0.9999999999933701 	101324.9999999953
0.9496996996996991 	299.9999999999835 	0.9999999999968832 	101324.9999999953
0.9522022022022016 	299.9999999999948 	0.99999999999805 	101324.9999999951
0.9547047047047038 	300.0000000000013 	0.9999999999988107 	101324.9999999949
0.9572072072072064 	299.9999999999903 	0.9999999999989366 	101324.9999999947
0.9597097097097093 	299.9999999999797 	1.000000000000488 	101324.9999999945
0.9622122122122114 	299.9999999999783 	1.000000000000748 	101324.9999999945
0.964714714714714 	299.9999999999684 	0.9999999999975001 	101324.9999999946
0.9672172172172167 	299.9999999999677 	0.9999999999990787 	101324.9999999949
0.969719719719719 	299.999999999985 	0.9999999999995157 	101324.9999999951
0.9722222222222214 	299.9999999999904 	0.9999999999999128 	101324.9999999951
0.9747247247247239 	299.9999999999889 	1.000000000000384 	101324.9999999946
0.9772272272272267 	299.9999999999996 	1.000000000000507 	101324.9999999943
0.9797297297297292 	299.99999999999 	1.000000000000383 	101324.9999999945
0.9822322322322313 	299.9999999999839 	1.000000000003115 	101324.9999999948
0.9847347347347344 	299.9999999999814 	1.000000000002029 	101324.999999995
0.9872372372372363 	299.9999999999612 	0.9999999999951061 	101324.9999999947
0.9897397397397389 	299.9999999999646 	0.9999999999989936 	101324.9999999943
0.9922422422422417 	299.9999999999691 	0.9999999999998785 	101324.9999999943
0.9947447447447441 	299.9999999999883 	0.9999999999992976 	101324.9999999945
0.9972472472472468 	299.9999999999894 	0.9999999999992486 	101324.9999999947
0.999749749749749 	299.999999999986 	0.9999999999991329 	101324.9999999949
1.002252252252252 	299.9999999999891 	0.9999999999990943 	101324.9999999948
1.004754754754754 	300.0000000000018 	1.000000000002739 	101324.9999999946
1.007257257257256 	299.9999999999958 	1.000000000002274 	101324.9999999944
1.009759759759759 	299.9999999999889 	0.9999999999952421 	101324.9999999944
1.012262262262261 	299.9999999999915 	0.9999999999983962 	101324.9999999944
1.014764764764764 	299.9999999999779 	0.9999999999996492 	101324.9999999942
1.017267267267267 	299.9999999999686 	0.9999999999993203 	101324.9999999943
1.019769769769769 	299.9999999999895 	0.9999999999990112 	101324.9999999949
1.022272272272272 	299.9999999999984 	1.000000000000698 	101324.9999999948
1.024774774774774 	299.9999999999985 	1.000000000000147 	101324.9999999948
1.027277277277277 	299.9999999999967 	0.9999999999970759 	101324.999999995
1.029779779779779 	300.0000000000056 	0.9999999999996945 	101324.9999999946
1.032282282282282 	300.0000000000063 	1.00000000000064 	101324.9999999944
1.034784784784784 	300.0000000000059 	1.000000000000723 	101324.9999999947
1.037287287287286 	299.9999999999988 	1.000000000001491 	101324.9999999948
1.039789789789789 	299.9999999999952 	1.000000000001894 	101324.9999999948
1.042292292292291 	300.0000000000083 	1.000000000001286 	101324.9999999945
1.044794794794794 	300.0000000000199 	1.000000000004313 	101324.9999999943
1.047297297297296 	300.0000000000177 	1.000000000003224 	101324.9999999942
1.049799799799799 	300.0000000000072 	0.9999999999972295 	101324.9999999943
1.052302302302302 	299.999999999996 	1.000000000000955 	101324.9999999947
1.054804804804804 	299.9999999999804 	1.00000000000161 	101324.9999999952
1.057307307307306 	299.9999999999677 	1.000000000001368 	101324.9999999949
1.059809809809809 	299.9999999999798 	1.000000000001706 	101324.9999999947
1.062312312312312 	299.9999999999872 	1.00000000000175 	101324.9999999945
1.064814814814814 	299.9999999999884 	1.000000000001058 	101324.9999999941
1.067317317317317 	299.9999999999775 	1.000000000003995 	101324.9999999939
1.069819819819819 	299.9999999999715 	1.000000000002845 	101324.9999999942
1.072322322322321 	299.9999999999985 	0.9999999999975557 	101324.9999999944
1.074824824824824 	300.0000000000156 	1.000000000002062 	101324.9999999946
1.077327327327327 	300.0000000000177 	1.000000000003203 	101324.9999999943
1.079829829829829 	300.0000000000168 	1.000000000002651 	101324.9999999939
1.082332332332332 	300.0000000000004 	1.000000000002264 	101324.999999994
1.084834834834834 	299.9999999999806 	1.000000000005219 	101324.9999999941
1.087337337337337 	299.9999999999657 	1.000000000003247 	101324.9999999942
1.089839839839839 	299.9999999999613 	0.9999999999976792 	101324.9999999942
1.092342342342342 	299.9999999999754 	1.00000000000181 	101324.999999994
1.094844844844844 	299.9999999999764 	1.000000000006364 	101324.999999994
1.097347347347347 	299.9999999999659 	1.000000000004495 	101324.9999999939
1.099849849849849 	299.9999999999562 	0.9999999999985042 	101324.9999999938
1.102352352352352 	299.9999999999767 	1.000000000001913 	101324.999999994
1.104854854854854 	299.9999999999956 	1.00000000000285 	101324.9999999941
1.107357357357357 	299.9999999999841 	1.000000000003232 	101324.9999999939
1.109859859859859 	299.9999999999778 	1.000000000003692 	101324.9999999939
1.112362362362362 	300.0000000000015 	1.000000000007137 	101324.9999999942
1.114864864864865 	300.0000000000052 	1.000000000005306 	101324.9999999943
1.117367367367367 	299.9999999999811 	1.000000000000047 	101324.9999999942
1.119869869869869 	299.9999999999645 	1.000000000003726 	101324.9999999941
1.122372372372372 	299.9999999999831 	1.000000000004582 	101324.9999999941
1.124874874874874 	299.9999999999865 	1.000000000004153 	101324.9999999942
1.127377377377377 	299.9999999999837 	1.000000000003936 	101324.9999999942
1.129879879879879 	299.9999999999968 	1.000000000003732 	101324.9999999944
1.132382382382382 	300.0000000000158 	1.000000000003483 	101324.9999999942
1.134884884884884 	300.0000000000085 	1.000000000007087 	101324.9999999939
1.137387387387387 	300.000000000002 	1.000000000005106 	101324.9999999939
1.139889889889889 	299.9999999999783 	0.99999999999963 	101324.9999999939
1.142392392392392 	299.9999999999685 	1.000000000003254 	101324.9999999937
1.144894894894894 	299.9999999999964 	1.000000000004633 	101324.9999999936
1.147397397397397 	299.9999999999999 	1.000000000004621 	101324.9999999938
1.149899899899899 	299.9999999999796 	1.000000000003942 	101324.9999999939
1.152402402402402 	299.9999999999704 	1.000000000003713 	101324.9999999938
1.154904904904904 	299.9999999999843 	1.000000000004265 	101324.9999999939
1.157407407407407 	299.9999999999844 	1.000000000008673 	101324.9999999939
1.159909909909909 	299.9999999999687 	1.000000000006833 	101324.999999994
1.162412412412412 	299.999999999962 	1.000000000001784 	101324.9999999943
1.164914914914914 	299.9999999999784 	1.00000000000516 	101324.9999999945
1.167417417417417 	299.9999999999801 	1.000000000005276 	101324.9999999943
1.169919919919919 	299.999999999995 	1.000000000004404 	101324.999999994
1.172422422422422 	300.0000000000124 	1.000000000004075 	101324.9999999937
1.174924924924925 	300.0000000000015 	1.000000000007823 	101324.9999999935
1.177427427427427 	299.9999999999858 	1.000000000005674 	101324.9999999935
1.179929929929929 	299.9999999999975 	1.000000000000714 	101324.9999999936
1.182432432432432 	300.0000000000148 	1.000000000004768 	101324.9999999937
1.184934934934934 	300.0000000000044 	1.000000000006441 	101324.9999999939
1.187437437437437 	299.9999999999903 	1.000000000006566 	101324.9999999941
1.189939939939939 	299.999999999984 	1.000000000006244 	101324.9999999938
1.192442442442442 	299.9999999999693 	1.000000000005395 	101324.9999999939
1.194944944944944 	299.9999999999671 	1.000000000004494 	101324.9999999938
1.197447447447447 	299.999999999992 	1.00000000000821 	101324.9999999934
1.199949949949949 	300.0000000000049 	1.000000000006134 	101324.9999999933
1.202452452452452 	299.999999999982 	1.000000000001656 	101324.9999999935
1.204954954954955 	299.9999999999724 	1.000000000005237 	101324.9999999937
1.207457457457457 	299.9999999999832 	1.000000000005626 	101324.9999999936
1.20995995995996 	299.9999999999848 	1.000000000004921 	101324.9999999935
1.212462462462462 	299.9999999999889 	1.000000000004566 	101324.9999999935
1.214964964964964 	299.9999999999894 	1.000000000004766 	101324.9999999934
1.217467467467467 	299.9999999999943 	1.000000000005647 	101324.9999999932
1.219969969969969 	299.9999999999828 	1.000000000009979 	101324.9999999933
1.222472472472472 	299.9999999999944 	1.000000000007363 	101324.9999999937
1.224974974974975 	300.0000000000148 	1.000000000002918 	101324.9999999939
1.227477477477477 	299.9999999999953 	1.000000000006332 	101324.9999999938
1.229979979979979 	299.9999999999858 	1.000000000006932 	101324.9999999935
1.232482482482482 	299.9999999999753 	1.00000000000671 	101324.9999999935
1.234984984984984 	299.9999999999735 	1.000000000005908 	101324.9999999933
1.237487487487487 	299.9999999999843 	1.000000000008603 	101324.999999993
1.239989989989989 	299.9999999999878 	1.000000000005165 	101324.999999993
1.242492492492492 	299.9999999999999 	1.000000000000637 	101324.9999999927
1.244994994994994 	299.9999999999893 	1.000000000004447 	101324.9999999928
1.247497497497497 	299.9999999999919 	1.000000000005961 	101324.9999999933
1.249999999999999 	299.9999999999372 	1.000000000006719 	101324.9999999937
