-1.25 	300 	0 	101275.8856374636
-1.247497497497497 	299.9667353724795 	0.3332222427555572 	101288.529743668
-1.244994994994995 	299.9592989578258 	0.1348117825424255 	101277.0991577151
-1.242492492492492 	299.9686037342107 	0.1909763176185544 	101287.9018551382
-1.23998998998999 	299.960931294095 	0.2148269761643573 	101278.9272097574
-1.237487487487487 	299.9680310453984 	0.3740169601876678 	101287.2807753455
-1.234984984984985 	299.9610305232046 	0.5180079290528073 	101279.1605988875
-1.232482482482482 	299.9675254264774 	0.6534719318593363 	101286.8335513446
-1.22997997997998 	299.961213515165 	0.7710113637606543 	101279.561371198
-1.227477477477477 	299.9669591428584 	0.8802455827927536 	101286.3547971239
-1.224974974974975 	299.961584135351 	0.9687781204353458 	101280.2001732623
-1.222472472472472 	299.9668018925345 	1.049063216190077 	101286.3502260864
-1.21996996996997 	299.9625708937429 	1.104199351743646 	101281.5332995055
-1.217467467467467 	299.9665588883094 	1.149950825344727 	101286.1878071692
-1.214964964964965 	299.9644474103933 	1.153168316207879 	101283.8154402171
-1.212462462462462 	299.9664124439159 	1.136473622653538 	101286.0019267357
-1.20995995995996 	299.9658442106476 	1.101805708415684 	101285.389752757
-1.207457457457457 	299.9672313306315 	1.07204266806757 	101286.8961268577
-1.204954954954955 	299.9667448699065 	1.028397036871422 	101286.3533035083
-1.202452452452452 	299.9677592136486 	0.9944462937422764 	101287.4345621558
-1.19994994994995 	299.9672848394534 	0.9459023367213939 	101286.8881129976
-1.197447447447447 	299.9680143965581 	0.9105384820380082 	101287.6497553492
-1.194944944944945 	299.9676063224517 	0.859592906789979 	101287.1699063589
-1.192442442442442 	299.9682987113011 	0.8239855453033845 	101287.9038099356
-1.18993993993994 	299.9680509180628 	0.772547964706888 	101287.6064277935
-1.187437437437437 	299.9688356084359 	0.7374391231363979 	101288.4644576972
-1.184934934934935 	299.9687737256256 	0.6866438538278249 	101288.3824276466
-1.182432432432432 	299.9696747963094 	0.6527243709927061 	101289.3916303191
-1.17992992992993 	299.9697538693205 	0.6031720775092428 	101289.4738852702
-1.177427427427427 	299.9706326869859 	0.5711890543935856 	101290.468608703
-1.174924924924925 	299.9706973021007 	0.5228577896897197 	101290.5330357583
-1.172422422422422 	299.9713356728012 	0.4936904987058309 	101291.2536708908
-1.16991991991992 	299.9713133156544 	0.4466095129544996 	101291.2154479162
-1.167417417417417 	299.9717645164721 	0.4207124154863564 	101291.723052897
-1.164914914914915 	299.9717890025918 	0.3757576292605523 	101291.7419013465
-1.162412412412412 	299.9723145500733 	0.3528387820357927 	101292.3435052714
-1.15990990990991 	299.9725389370408 	0.310987800760818 	101292.6008564891
-1.157407407407407 	299.9732310904757 	0.2908271275617621 	101293.4040728724
-1.154904904904904 	299.9736287453794 	0.2522669534724385 	101293.8687021114
-1.152402402402403 	299.9743150607968 	0.2352572429945842 	101294.6685745388
-1.1498998998999 	299.9746836819272 	0.1994490377817405 	101295.1008752717
-1.147397397397397 	299.9751096287957 	0.1863335393597768 	101295.5959656703
-1.144894894894895 	299.9753024817636 	0.152812421924073 	101295.822144685
-1.142392392392392 	299.9754816074019 	0.1438846813340003 	101296.0276559494
-1.13988988988989 	299.9756231496871 	0.1130246345588929 	101296.1944362322
-1.137387387387387 	299.9758434993164 	0.1076368135439262 	101296.4503211059
-1.134884884884885 	299.9761878351338 	0.08027734453995949 	101296.8577699821
-1.132382382382382 	299.9766728695153 	0.07749403158695496 	101297.4276729385
-1.12987987987988 	299.9773015690811 	0.06591794745654397 	101298.1716770256
-1.127377377377377 	299.9779843455646 	0.06329537353272841 	101298.9762612636
-1.124874874874875 	299.9786947866136 	0.06234901209897772 	101299.8171835738
-1.122372372372372 	299.9792865834556 	0.0592353670663232 	101300.5149010175
-1.11986986986987 	299.9797910841969 	0.05941171343095762 	101301.1124471918
-1.117367367367367 	299.9801107265008 	0.05682182183853094 	101301.4889311458
-1.114864864864865 	299.9803661242731 	0.05771129521489094 	101301.7913788747
-1.112362362362362 	299.9805432160559 	0.05567311257461137 	101302.0001028368
-1.10985985985986 	299.9807751092508 	0.0562784677877963 	101302.2744220398
-1.107357357357357 	299.9810709106118 	0.05433318876047571 	101302.6238414141
-1.104854854854855 	299.9814894783793 	0.05393613179978637 	101303.1187085436
-1.102352352352353 	299.9820101490274 	0.05182562841350095 	101303.7340455253
-1.09984984984985 	299.9826181921676 	0.0505120025922247 	101304.4528128052
-1.097347347347347 	299.983269475285 	0.04835575106096526 	101305.2226153471
-1.094844844844845 	299.983929376023 	0.04659945949410734 	101306.0026524066
-1.092342342342342 	299.9845658624245 	0.04471706251062899 	101306.7550022588
-1.08983983983984 	299.9851562125881 	0.04301663148131331 	101307.4528263257
-1.087337337337337 	299.9856862345121 	0.04148089999493898 	101308.0793429324
-1.084834834834835 	299.986148529761 	0.0401494683440547 	101308.6258072068
-1.082332332332332 	299.9865447910076 	0.03899831715113589 	101309.0942166903
-1.07982982982983 	299.9868893186376 	0.03799059910222545 	101309.50147304
-1.077327327327327 	299.9872083078722 	0.03705670247590397 	101309.8785401115
-1.074824824824825 	299.9875285443209 	0.03612219682588667 	101310.257079997
-1.072322322322323 	299.9878688476974 	0.03513712040484707 	101310.6593408213
-1.06981981981982 	299.9882359409619 	0.03407336368749343 	101311.0932702018
-1.067317317317317 	299.9886305611019 	0.03292496371667134 	101311.5597392927
-1.064814814814815 	299.9890623662332 	0.0316705751788226 	101312.0701648562
-1.062312312312312 	299.9895415801284 	0.03029026591300082 	101312.6366331778
-1.05980980980981 	299.9900546604601 	0.02881128084235744 	101313.2431380137
-1.057307307307307 	299.9905804680745 	0.02728348072704957 	101313.8646905936
-1.054804804804805 	299.991124729812 	0.02570584076730626 	101314.5080600798
-1.052302302302302 	299.9916982205815 	0.02405478858373726 	101315.1859858852
-1.0497997997998 	299.9922825732052 	0.02237587231775211 	101315.8767582395
-1.047297297297297 	299.9928478442446 	0.02073387222836356 	101316.5449790462
-1.044794794794795 	299.9933944442841 	0.01913493467804305 	101317.1911311901
-1.042292292292292 	299.9939425600286 	0.01754909689521882 	101317.8390777017
-1.03978978978979 	299.9944901802613 	0.01597910261452971 	101318.4864420309
-1.037287287287287 	299.9950080160648 	0.01448426941916847 	101319.0986000596
-1.034784784784785 	299.9954815966888 	0.01310028105025275 	101319.6584427397
-1.032282282282283 	299.9959290937842 	0.01178649127801668 	101320.1874491581
-1.02977977977978 	299.9963904396361 	0.01044463107756984 	101320.7328264322
-1.027277277277277 	299.9968940240725 	0.008993394336021565 	101321.3281387796
-1.024774774774775 	299.9974357120944 	0.0074368322113585 	101321.9685008631
-1.022272272272272 	299.9979883295973 	0.005827675158769819 	101322.6217889291
-1.01976976976977 	299.9985387517013 	0.004228189075212423 	101323.2724855012
-1.017267267267267 	299.9990833346947 	0.002658018417031238 	101323.9162819645
-1.014764764764765 	299.9996234709287 	0.001096814738178872 	101324.5548237809
-1.012262262262262 	300.0001569566082 	0.0008199608027148147 	101325.185506612
-1.00975975975976 	300.0006766180392 	0.001951551009118833 	101325.7998493616
-1.007257257257257 	300.0011903615914 	0.003445365279657055 	101326.4071979177
-1.004754754754755 	300.0017125772049 	0.004958470495149717 	101327.0245649542
-1.002252252252252 	300.002244122543 	0.006493581729461843 	101327.6529651276
-0.9997497497497498 	300.002773135708 	0.008022700077292543 	101328.2783748912
-0.9972472472472473 	300.0032911686667 	0.009525599152645592 	101328.8908056797
-0.9947447447447449 	300.0038038962721 	0.01101595518875152 	101329.4969652308
-0.9922422422422421 	300.0043241159041 	0.01252486815622061 	101330.1119834543
-0.9897397397397399 	300.0048565908654 	0.0140639977158401 	101330.7414932535
-0.9872372372372376 	300.0053925369156 	0.01561146518701822 	101331.3751107947
-0.9847347347347346 	300.0059187528749 	0.01713410750694836 	101331.9972291511
-0.9822322322322323 	300.0064307198677 	0.01862036263656155 	101332.6025045812
-0.9797297297297296 	300.0069365662822 	0.02009068691550403 	101333.200546059
-0.9772272272272275 	300.0074491070672 	0.02157782272053057 	101333.8065041869
-0.9747247247247248 	300.0079744710287 	0.02309777640061627 	101334.4276252862
-0.9722222222222224 	300.0085074675052 	0.02463737268232593 	101335.0577735138
-0.9697197197197196 	300.0090363913197 	0.02616616024515776 	101335.6831099997
-0.9672172172172175 	300.009552107132 	0.02765998587898581 	101336.2928335258
-0.9647147147147147 	300.0100541675047 	0.02911729386703511 	101336.8864145749
-0.9622122122122124 	300.0105501593084 	0.03055778485576384 	101337.4728224126
-0.9597097097097099 	300.0110497121754 	0.0320068426573004 	101338.0634424903
-0.9572072072072073 	300.0115578489097 	0.03347789473440357 	101338.6642141115
-0.9547047047047047 	300.0120719798301 	0.0349642123805308 	101339.2720757655
-0.9522022022022023 	300.0125839372303 	0.03644413718116567 	101339.8773711484
-0.9496996996996998 	300.0130853011688 	0.03789522270384097 	101340.4701442653
-0.9471971971971973 	300.0135725799694 	0.03930810647989046 	101341.0462659536
-0.9446946946946947 	300.0140492085233 	0.04069193318726507 	101341.6097970154
-0.9421921921921923 	300.0145234071724 	0.04206874047107093 	101342.1704561033
-0.93968968968969 	300.0150034668798 	0.04346091896671404 	101342.7380468502
-0.9371871871871872 	300.0154934045451 	0.04487950380076516 	101343.3173197666
-0.9346846846846848 	300.0159913238285 	0.04631956747400606 	101343.9060334322
-0.9321821821821823 	300.0164908915267 	0.04776397403562423 	101344.4967001165
-0.9296796796796799 	300.0169845691544 	0.04919201955295929 	101345.0804059526
-0.9271771771771771 	300.0174666812731 	0.05058785934327802 	101345.6504397849
-0.9246746746746748 	300.0179350581859 	0.05194520965998646 	101346.2042353834
-0.9221721721721724 	300.0183910711944 	0.05326766026157437 	101346.7434131007
-0.9196696696696698 	300.0188386094309 	0.05456596124126298 	101347.2725714049
-0.9171671671671672 	300.0192826679402 	0.05585407920344451 	101347.7976164211
-0.9146646646646649 	300.0197279607477 	0.05714523803472216 	101348.3241221497
-0.9121621621621623 	300.0201777341121 	0.05844852083771907 	101348.8559278017
-0.9096596596596597 	300.0206328922309 	0.05976639285226722 	101349.3941027093
-0.9071571571571573 	300.021091590334 	0.06109359269163218 	101349.9364658976
-0.9046546546546547 	300.0215494777264 	0.06241787402872271 	101350.4778733883
-0.9021521521521524 	300.0220006832735 	0.0637228214520846 	101351.0113829842
-0.8996496496496498 	300.0224394306021 	0.06499239318925648 	101351.5301643439
-0.8971471471471473 	300.0228619074431 	0.06621611818994065 	101352.0297091537
-0.894644644644645 	300.0232677980617 	0.06739330235413352 	101352.5096436205
-0.892142142142142 	300.0236608562084 	0.06853453496396363 	101352.9744058317
-0.8896396396396397 	300.024048118401 	0.06965942365651434 	101353.4323153784
-0.8871371371371374 	300.0244378020242 	0.07079071725181244 	101353.8930890586
-0.8846346346346349 	300.024836455993 	0.07194640763567217 	101354.3644707414
-0.8821321321321324 	300.0252463253031 	0.0731324903617778 	101354.8491155041
-0.8796296296296297 	300.0256639914075 	0.07433929948119788 	101355.3429819191
-0.8771271271271271 	300.0260810256445 	0.07554340637238241 	101355.8361035938
-0.8746246246246248 	300.0264866703698 	0.07671506980149008 	101356.3157600968
-0.8721221221221224 	300.0268716772781 	0.07782879060483676 	101356.7710153803
-0.8696196196196196 	300.0272317777727 	0.07887279617123116 	101357.1968209896
-0.8671171171171175 	300.027569267538 	0.07985336155504752 	101357.5958908579
-0.8646146146146148 	300.0278919962457 	0.08079207802642649 	101357.9775066068
-0.8621121121121121 	300.0282102934271 	0.08171751282776711 	101358.3538825197
-0.8596096096096097 	300.0285333318402 	0.08265528226881691 	101358.7358657321
-0.857107107107107 	300.0288665388397 	0.08362086201513452 	101359.1298742984
-0.8546046046046049 	300.0292108922001 	0.08461744900348991 	101359.5370645826
-0.8521021021021022 	300.0295638600734 	0.08563832662816082 	101359.9544426249
-0.8495995995995997 	300.0299210474073 	0.08667128156556016 	101360.376811146
-0.8470970970970974 	300.0302776073365 	0.08770253110424903 	101360.7984390792
-0.8445945945945946 	300.0306289690211 	0.08871887424393191 	101361.2139214826
-0.8420920920920922 	300.0309709804704 	0.08970825545439157 	101361.6183492439
-0.8395895895895897 	300.0312998564604 	0.09065974872936033 	101362.0072467916
-0.8370870870870872 	300.0316122959333 	0.09156395915963438 	101362.3767098615
-0.8345845845845846 	300.0319059416015 	0.09241433465780603 	101362.7239501617
-0.8320820820820823 	300.0321801240651 	0.09320921371570448 	101363.0481750283
-0.8295795795795798 	300.032436597469 	0.09395379203214498 	101363.3514579807
-0.8270770770770772 	300.0326798245026 	0.09466079945733166 	101363.6390763635
-0.8245745745745746 	300.0329164184304 	0.09534885020802582 	101363.9188508303
-0.8220720720720721 	300.0331536633005 	0.09603830471748798 	101364.1993959007
-0.8195695695695699 	300.0333975133487 	0.09674575495125642 	101364.4877531204
-0.817067067067067 	300.033650825057 	0.09747917707318708 	101364.787300495
-0.8145645645645651 	300.0339125523048 	0.0982357130927063 	101365.0968007238
-0.8120620620620621 	300.0341782125656 	0.09900292824586138 	101365.4109522441
-0.8095595595595597 	300.0344413810008 	0.09976291688053711 	101365.7221575842
-0.8070570570570572 	300.0346956090314 	0.1004976173035732 	101366.0227912727
-0.8045545545545546 	300.03493611125 	0.1011935340215456 	101366.3071941413
-0.8020520520520523 	300.035160769428 	0.1018445885940845 	101366.5728615824
-0.7995495495495494 	300.0353702855512 	0.102452578033195 	101366.8206235743
-0.7970470470470474 	300.0355675297104 	0.1030253613751227 	101367.0538741826
-0.7945445445445446 	300.035756295734 	0.1035733893676787 	101367.277099724
-0.7920420420420423 	300.0359398391504 	0.1041056541059227 	101367.4941492794
-0.7895395395395397 	300.0361197023328 	0.1046264693585469 	101367.7068465735
-0.7870370370370371 	300.0362953107341 	0.1051343878120262 	101367.9145120895
-0.7845345345345348 	300.0364645662913 	0.1056238515449136 	101368.1146652025
-0.7820320320320323 	300.036625244306 	0.1060890102385781 	101368.3046758827
-0.7795295295295296 	300.0367765786333 	0.1065280109638308 	101368.4836377689
-0.7770270270270272 	300.0369202358218 	0.1069456059329229 	101368.6535210875
-0.7745245245245247 	300.0370601077215 	0.1073525432668358 	101368.8189275234
-0.7720220220220222 	300.0372008970922 	0.1077616822103509 	101368.9854184033
-0.7695195195195199 	300.0373460614334 	0.1081823706531996 	101369.1570833753
-0.767017017017017 	300.0374960134295 	0.1086155305157747 	101369.3344105533
-0.7645145145145147 	300.0376473904307 	0.1090516750426859 	101369.5134236781
-0.7620120120120122 	300.0377937497288 	0.1094728263251486 	101369.6865037637
-0.7595095095095097 	300.0379274272699 	0.1098576400551371 	101369.8445874236
-0.7570070070070072 	300.0380418531694 	0.1101878122351578 	101369.9799056824
-0.7545045045045048 	300.0381335127601 	0.1104535257059682 	101370.0883018219
-0.7520020020020022 	300.038202930992 	0.1106562091431881 	101370.1703958994
-0.7494994994994997 	300.0382544294064 	0.1108078966539463 	101370.2312972934
-0.7469969969969972 	300.0382948191162 	0.110927626062292 	101370.279060179
-0.7444944944944945 	300.0383315194683 	0.1110362089089818 	101370.3224595909
-0.7419919919919924 	300.0383707018158 	0.111151032558906 	101370.3687947579
-0.7394894894894897 	300.0384159572457 	0.1112823123437867 	101370.4223129268
-0.7369869869869872 	300.0384677845011 	0.1114316217580685 	101370.4836034798
-0.7344844844844846 	300.0385239306316 	0.1115927827992943 	101370.5500009297
-0.7319819819819822 	300.0385803328227 	0.1117544359850991 	101370.616700118
-0.7294794794794797 	300.0386322350267 	0.1119031406600156 	101370.6780774016
-0.7269769769769773 	300.0386751100987 	0.1120259989293331 	101370.728779798
-0.7244744744744747 	300.0387052584254 	0.11211242666573 	101370.7644333593
-0.721971971971972 	300.0387201771927 	0.1121552628298943 	101370.7820779087
-0.7194694694694695 	300.0387188077444 	0.1121514754244281 	101370.7804596591
-0.7169669669669674 	300.0387016270228 	0.1121023881284094 	101370.7601450931
-0.7144644644644647 	300.0386704623446 	0.1120130745866087 	101370.7232928238
-0.711961961961962 	300.0386279058582 	0.1118907482918044 	101370.6729674533
-0.7094594594594597 	300.0385765298869 	0.11174264465321 	101370.6122118488
-0.7069569569569573 	300.0385183087746 	0.1115744732821474 	101370.5433610736
-0.7044544544544545 	300.0384545900288 	0.1113903225863994 	101370.4680087814
-0.7019519519519523 	300.038386571391 	0.1111938477567289 	101370.3875716587
-0.6994494494494495 	300.0383157703517 	0.1109893962117783 	101370.3038445181
-0.6969469469469471 	300.0382438791909 	0.1107815348435442 	101370.2188287457
-0.6944444444444446 	300.03817187686 	0.1105727010334672 	101370.1336821075
-0.6919419419419421 	300.0380989911734 	0.1103605472059063 	101370.0474909697
-0.6894394394394396 	300.0380224314183 	0.1101373555301272 	101369.9569548544
-0.6869369369369374 	300.0379383762569 	0.1098927332906537 	101369.8575540926
-0.6844344344344344 	300.0378437745157 	0.1096184109611133 	101369.7456807112
-0.6819319319319321 	300.0377378484379 	0.1093122149063812 	101369.6204156688
-0.6794294294294296 	300.0376222921395 	0.1089785646150573 	101369.4837629965
-0.6769269269269272 	300.0374999664745 	0.1086249768760176 	101369.3391063297
-0.6744244244244245 	300.0373728511451 	0.1082566139104432 	101369.1887865758
-0.6719219219219222 	300.0372405351785 	0.107872306715563 	101369.0323172489
-0.6694194194194195 	300.0371002916942 	0.1074648151785527 	101368.8664727473
-0.6669169169169172 	300.0369488389188 	0.107025543691533 	101368.6873717961
-0.6644144144144146 	300.0367847536561 	0.1065509348905102 	101368.4933315822
-0.661911911911912 	300.0366099603808 	0.1060463937849141 	101368.2866282795
-0.6594094094094097 	300.036429274709 	0.1055250684393722 	101368.072957397
-0.656906906906907 	300.0362482679423 	0.1050021437109648 	101367.8589078478
-0.6544044044044046 	300.0360707125238 	0.1044879216691679 	101367.648940569
-0.6519019019019021 	300.035896890166 	0.1039831400816455 	101367.4433882587
-0.6493993993993996 	300.0357233749693 	0.1034783230148218 	101367.238198935
-0.6468968968968971 	300.0355442554999 	0.1029571734313231 	101367.0263816506
-0.6443943943943946 	300.0353533808599 	0.1024027943158609 	101366.800662667
-0.6418918918918921 	300.0351468336669 	0.1018044208206795 	101366.5564097061
-0.6393893893893897 	300.0349244725743 	0.1011615311312556 	101366.2934562553
-0.6368868868868871 	300.0346896218452 	0.1004830073330845 	101366.0157340503
-0.6343843843843846 	300.0344470906667 	0.09978192217738409 	101365.7289305641
-0.6318818818818821 	300.0342008955415 	0.09906949610072199 	101365.4377959119
-0.6293793793793795 	300.033953127563 	0.09835190457411939 	101365.144802765
-0.6268768768768773 	300.0337042127142 	0.09763066612679744 	101364.8504544701
-0.6243743743743745 	300.0334536511623 	0.09690443219638277 	101364.5541504673
-0.6218718718718721 	300.0332003439389 	0.09617008886378073 	101364.2546067302
-0.6193693693693696 	300.0329427593139 	0.09542342406339537 	101363.9500193082
-0.6168668668668671 	300.0326795234122 	0.09466077755371546 	101363.6387437361
-0.6143643643643645 	300.0324103226558 	0.09388137918382392 	101363.3204115451
-0.6118618618618621 	300.0321362271865 	0.09308793742735387 	101362.9962918367
-0.6093593593593596 	300.0318586387255 	0.09228386420961823 	101362.6680423379
-0.6068568568568571 	300.0315776181437 	0.09146911024376647 	101362.3357352921
-0.6043543543543546 	300.0312913238588 	0.09063886685937012 	101361.9971930673
-0.6018518518518521 	300.0309973833994 	0.08978707599080167 	101361.6496100655
-0.5993493493493496 	300.0306949900516 	0.08891165483159214 	101361.2920324378
-0.5968468468468471 	300.0303855399978 	0.08801599889341381 	101360.9261109902
-0.5943443443443446 	300.0300709464639 	0.08710469755509881 	101360.5541083883
-0.591841841841842 	300.0297511862009 	0.08617741488983834 	101360.1759975337
-0.5893393393393397 	300.0294236279123 	0.08522732441383424 	101359.7886670418
-0.5868368368368371 	300.0290851156029 	0.08424648838639553 	101359.3883848978
-0.5843343343343346 	300.0287350968102 	0.08323381033950777 	101358.9744977104
-0.5818318318318321 	300.0283769165645 	0.082198256325275 	101358.5509607249
-0.5793293293293297 	300.0280159151943 	0.08115390116685113 	101358.1240888503
-0.5768268268268271 	300.027655776441 	0.08011048248600813 	101357.6982380736
-0.5743243243243245 	300.0272960763384 	0.07906701260153765 	101357.2729074148
-0.5718218218218221 	300.0269329002136 	0.07801329507058959 	101356.8434681265
-0.5693193193193196 	300.0265618391317 	0.07693767485550532 	101356.4047065909
-0.5668168168168171 	300.0261809415514 	0.0758348196987403 	101355.9543152514
-0.5643143143143147 	300.0257915919038 	0.07470821580701148 	101355.493930809
-0.5618118118118121 	300.0253971623725 	0.07356682632580261 	101355.0275405779
-0.5593093093093094 	300.0250008922991 	0.07241954564722053 	101354.5589753121
-0.5568068068068072 	300.0246045606788 	0.07127151431982116 	101354.0903386997
-0.5543043043043046 	300.0242084024433 	0.07012362228332421 	101353.6219086105
-0.551801801801802 	300.023811634388 	0.06897373599411813 	101353.1527591248
-0.5492992992992995 	300.0234128259698 	0.06781774111765687 	101352.6811985694
-0.5467967967967969 	300.0230100215169 	0.06665009598064385 	101352.2049147731
-0.5442942942942947 	300.0226011079129 	0.06546502713274413 	101351.7214091669
-0.5417917917917919 	300.022184748595 	0.06425907988219455 	101351.2291013623
-0.5392892892892895 	300.0217614694772 	0.06303390495951727 	101350.7286130338
-0.536786786786787 	300.0213339644398 	0.06179690501404186 	101350.2231292958
-0.5342842842842846 	300.0209060104045 	0.0605582398083075 	101349.7171162532
-0.531781781781782 	300.020480393857 	0.05932530770749594 	101349.213868762
-0.5292792792792794 	300.020057137561 	0.05809809742832809 	101348.7134139492
-0.526776776776777 	300.019633310797 	0.0568687542398101 	101348.2122867272
-0.5242742742742745 	300.0192047237283 	0.05562612091506466 	101347.7055329711
-0.521771771771772 	300.0187685283967 	0.05436265118358788 	101347.1897852611
-0.5192692692692695 	300.0183250776372 	0.05307932599286607 	101346.665460749
-0.516766766766767 	300.0178778060852 	0.05178530889682056 	101346.1366200645
-0.5142642642642645 	300.0174311400434 	0.05049237121864603 	101345.6084971509
-0.511761761761762 	300.0169877066478 	0.04920745388541101 	101345.0841982411
-0.5092592592592596 	300.0165465600209 	0.04792794523147929 	101344.5626053062
-0.506756756756757 	300.0161035296684 	0.04664262736791657 	101344.0387875661
-0.5042542542542544 	300.0156535274762 	0.04533787521680865 	101343.5067288368
-0.5017517517517521 	300.0151935215897 	0.04400565332737502 	101342.9628443719
-0.4992492492492494 	300.0147245214959 	0.04264884746801999 	101342.4083275285
-0.496746746746747 	300.0142514625904 	0.04128093477842595 	101341.8490134836
-0.4942442442442445 	300.0137810080975 	0.03992003089125878 	101341.2927804083
-0.4917417417417421 	300.0133183747421 	0.03858028761727316 	101340.7457963303
-0.4892392392392395 	300.0128647620622 	0.0372649043779032 	101340.2094798259
-0.486736736736737 	300.0124166139733 	0.03596409999083135 	101339.6796267628
-0.4842342342342345 	300.0119670226844 	0.03465893234255316 	101339.1480701051
-0.481731731731732 	300.0115086164641 	0.03332920516564804 	101338.6060937776
-0.4792292292292296 	300.0110366866148 	0.03196206198198241 	101338.0481308386
-0.4767267267267268 	300.0105512878146 	0.03055776768022067 	101337.4742455772
-0.4742242242242246 	300.0100575052779 	0.02913045423906203 	101336.8904497711
-0.471721721721722 	300.0095638279664 	0.0277036529741999 	101336.3067800743
-0.4692192192192195 	300.0090792911483 	0.0263024206769004 	101335.7339186478
-0.4667167167167169 	300.0086104671601 	0.02494501626976569 	101335.1796362418
-0.4642142142142145 	300.0081593497865 	0.02363699123676597 	101334.6462899731
-0.461711711711712 	300.0077227373635 	0.02236941572395183 	101334.1300951125
-0.4592092092092094 	300.0072931642973 	0.02112140855092109 	101333.622225375
-0.456706706706707 	300.006860948319 	0.01986582887860268 	101333.1112336649
-0.4542042042042045 	300.0064166968223 	0.01857630926626092 	101332.5860156721
-0.451701701701702 	300.005953623542 	0.0172337910537574 	101332.0385477321
-0.4491991991991995 	300.0054691753537 	0.01583113940120237 	101331.4658114635
-0.4466966966966969 	300.0049656959223 	0.01437503809949888 	101330.8705774763
-0.4441941941941945 	300.0044500777905 	0.01288502802843787 	101330.2609942404
-0.441691691691692 	300.0039325652222 	0.01139014858420725 	101329.6491730192
-0.4391891891891895 	300.0034250280598 	0.009924106602623328 	101329.0491464115
-0.436686686686687 	300.0029391471684 	0.00852023990373544 	101328.4747239123
-0.4341841841841846 	300.0024850090645 	0.007207498605978688 	101327.9378297341
-0.431681681681682 	300.0020702768243 	0.006007986036413331 	101327.4475232238
-0.4291791791791794 	300.0016998521721 	0.004935931673958219 	101327.0095988866
-0.426676676676677 	300.0013759218756 	0.003997785242089546 	101326.6266417249
-0.4241741741741744 	300.0010982773034 	0.003193102620259424 	101326.2984047288
-0.421671671671672 	300.0008647919756 	0.002515898405083638 	101326.0223738756
-0.4191691691691694 	300.0006719594576 	0.001956180110689424 	101325.7944036462
-0.4166666666666669 	300.0005154152784 	0.001501446440308769 	101325.6093342244
-0.4141641641641645 	300.000390394084 	0.001138005120750201 	101325.4615320526
-0.411661661661662 	300.0002920968021 	0.0008520334599852712 	101325.3453230562
-0.4091591591591594 	300.0002159575558 	0.0006303580578244393 	101325.2553097845
-0.406656656656657 	300.0001578204999 	0.0004609684305992888 	101325.1865790863
-0.4041541541541545 	300.0001140361011 	0.0003333018579658191 	101325.1348161455
-0.401651651651652 	300.0000814944369 	0.0002383476133741931 	101325.0963448259
-0.3991491491491494 	300.0000576156616 	0.0001686198112629598 	101325.0681147016
-0.396646646646647 	300.0000403079819 	0.0001180439937394642 	101325.0476532133
-0.3941441441441444 	300.0000279118572 	8.179449417389896e-05 	101325.0329981776
-0.3916416416416419 	300.0000191352273 	5.611146538097897e-05 	101325.0226222925
-0.3891391391391395 	300.0000129905251 	3.811745917494245e-05 	101325.0153578275
-0.3866366366366368 	300.000008734914 	2.564686049979237e-05 	101325.0103267221
-0.3841341341341344 	300.0000058186379 	1.70950719224753e-05 	101325.0068789699
-0.381631631631632 	300.0000038404988 	1.129064848350707e-05 	101325.0045404314
-0.3791291291291294 	300.0000025122586 	7.390242853136467e-06 	101325.0029700541
-0.3766266266266269 	300.0000016289562 	4.794769287532684e-06 	101325.0019257603
-0.3741241241241244 	300.0000010471273 	3.084039111003292e-06 	101325.0012378969
-0.371621621621622 	300.0000006674184 	1.966914559465678e-06 	101325.0007890079
-0.3691191191191194 	300.0000004218683 	1.24403839014112e-06 	101325.0004987239
-0.366616616616617 	300.0000002644958 	7.804175397946581e-07 	101325.0003126693
-0.3641141141141143 	300.0000001644393 	4.85660844846007e-07 	101325.0001944545
-0.3616116116116119 	300.0000001014308 	2.99850563541365e-07 	101325.0001199821
-0.3591091091091095 	300.0000000621246 	1.837010696501519e-07 	101325.0000734572
-0.356606606606607 	300.0000000377225 	1.116859936302667e-07 	101325.0000446293
-0.3541041041041044 	300.0000000227616 	6.739534635863945e-08 	101325.0000269102
-0.3516016016016019 	300.0000000136403 	4.037041993720872e-08 	101325.0000161052
-0.3490990990990994 	300.0000000080937 	2.400603023098369e-08 	101325.0000095669
-0.346596596596597 	300.0000000048377 	1.417612177592334e-08 	101325.0000056407
-0.3440940940940944 	300.000000002868 	8.310406345125967e-09 	101325.0000033008
-0.3415915915915919 	300.0000000016493 	4.842107869504426e-09 	101325.0000019162
-0.3390890890890895 	300.0000000009177 	2.799340794010205e-09 	101325.000001103
-0.3365865865865869 	300.0000000005647 	1.610837782316761e-09 	101325.0000006289
-0.3340840840840844 	300.0000000003152 	9.195226948303533e-10 	101325.000000354
-0.3315815815815819 	300.000000000203 	5.24170658369454e-10 	101325.0000001957
-0.3290790790790794 	300.0000000001255 	2.956267284920497e-10 	101325.0000001053
-0.3265765765765769 	299.9999999999578 	1.680204710607238e-10 	101325.0000000541
-0.3240740740740744 	300.0000000000182 	9.249563654159718e-11 	101325.0000000254
-0.3215715715715718 	300.0000000000197 	5.400911226280056e-11 	101325.0000000093
-0.3190690690690695 	299.9999999999228 	2.839111678154104e-11 	101325.0000000003
-0.3165665665665668 	299.9999999999952 	1.848606102948515e-11 	101324.9999999955
-0.3140640640640644 	300.000000000008 	8.264040194106846e-12 	101324.9999999927
-0.311561561561562 	299.9999999999072 	9.015962375770812e-12 	101324.9999999912
-0.3090590590590593 	299.9999999999906 	1.423842391715329e-12 	101324.9999999902
-0.3065565565565568 	300.000000000003 	7.030997838276131e-12 	101324.9999999895
-0.3040540540540545 	300.0000000000017 	1.872915662415589e-12 	101324.9999999891
-0.3015515515515518 	300.0000000000477 	6.085574493756288e-12 	101324.9999999888
-0.2990490490490494 	299.9999999999376 	2.109699602618527e-12 	101324.9999999888
-0.2965465465465469 	299.9999999999836 	5.526934024632827e-12 	101324.9999999889
-0.2940440440440444 	300.0000000000008 	4.181705550516744e-12 	101324.999999989
-0.2915415415415418 	299.9999999999989 	6.328328928124594e-12 	101324.9999999887
-0.2890390390390395 	299.9999999999985 	7.200603331059537e-12 	101324.9999999888
-0.2865365365365368 	299.9999999999749 	6.926222416858771e-12 	101324.9999999885
-0.2840340340340343 	299.9999999999987 	8.609910904242994e-12 	101324.9999999883
-0.2815315315315318 	299.9999999999038 	6.01302018555561e-12 	101324.9999999884
-0.2790290290290295 	299.9999999999478 	7.341363347944496e-12 	101324.9999999883
-0.2765265265265269 	300.000000000012 	5.518725194440277e-12 	101324.9999999883
-0.2740240240240244 	300.00000000003 	5.811034968929856e-12 	101324.9999999884
-0.2715215215215219 	300.0000000000126 	5.381572808762547e-12 	101324.9999999887
-0.2690190190190194 	299.9999999999309 	4.890930228435196e-12 	101324.999999989
-0.2665165165165169 	299.9999999999985 	5.565467207064062e-12 	101324.999999989
-0.2640140140140144 	299.9999999999516 	4.734595986030025e-12 	101324.9999999891
-0.2615115115115119 	300.0000000000005 	7.055328620474162e-12 	101324.9999999893
-0.2590090090090094 	299.9999999999152 	5.595978930142566e-12 	101324.9999999893
-0.2565065065065068 	299.9999999999885 	6.234907011495961e-12 	101324.9999999893
-0.2540040040040044 	299.9999999999965 	6.285861323646946e-12 	101324.9999999895
-0.2515015015015019 	300.0000000000517 	4.441668648225797e-12 	101324.9999999895
-0.2489989989989994 	300.0000000000584 	6.936190156975969e-12 	101324.9999999894
-0.2464964964964968 	299.9999999999899 	3.470028603545134e-12 	101324.9999999893
-0.2439939939939944 	299.9999999999947 	7.164015694259464e-12 	101324.9999999892
-0.2414914914914919 	299.999999999962 	1.509413867556062e-12 	101324.9999999891
-0.2389889889889893 	300.0000000000038 	6.291962523956483e-12 	101324.999999989
-0.2364864864864869 	300.0000000000286 	1.667666846187531e-12 	101324.9999999892
-0.2339839839839843 	299.9999999999071 	6.203522131629468e-12 	101324.9999999893
-0.2314814814814819 	299.9999999999746 	1.19941147721166e-12 	101324.9999999894
-0.2289789789789792 	299.9999999999029 	5.085219063243105e-12 	101324.9999999892
-0.2264764764764769 	299.9999999999376 	2.081317836731232e-12 	101324.9999999891
-0.2239739739739743 	299.9999999999448 	4.490220842327768e-12 	101324.999999989
-0.2214714714714718 	299.9999999999246 	3.646228783857784e-12 	101324.999999989
-0.2189689689689693 	299.9999999999578 	3.552560434345388e-12 	101324.9999999891
-0.2164664664664669 	299.9999999999781 	4.395485375308721e-12 	101324.9999999893
-0.2139639639639643 	299.9999999999115 	2.958313061387705e-12 	101324.9999999895
-0.2114614614614618 	299.9999999999625 	3.111069391048504e-12 	101324.9999999892
-0.2089589589589593 	299.9999999999902 	2.273829436840468e-12 	101324.9999999893
-0.2064564564564568 	299.99999999999 	1.728341644781529e-12 	101324.9999999895
-0.2039539539539543 	299.9999999998823 	3.08023690723139e-12 	101324.9999999893
-0.2014514514514518 	299.9999999999338 	2.76041446403289e-13 	101324.9999999893
-0.1989489489489494 	299.9999999999646 	3.334473825448022e-12 	101324.9999999894
-0.1964464464464468 	299.9999999999957 	8.846424559816003e-13 	101324.9999999891
-0.1939439439439443 	299.999999999977 	3.232240475642126e-12 	101324.999999989
-0.1914414414414418 	299.999999999894 	7.100897562592781e-13 	101324.9999999893
-0.1889389389389393 	300.0000000000049 	1.734147899479079e-12 	101324.999999989
-0.1864364364364368 	300.0000000000545 	2.517668704607451e-13 	101324.9999999889
-0.1839339339339343 	299.9999999999661 	2.820320923205184e-12 	101324.9999999889
-0.1814314314314318 	299.9999999999914 	1.161783589722184e-12 	101324.9999999892
-0.1789289289289293 	299.9999999998726 	3.725697901036505e-12 	101324.9999999894
-0.1764264264264268 	299.9999999999723 	6.02183816686989e-13 	101324.9999999894
-0.1739239239239243 	299.9999999998722 	4.475306013091381e-12 	101324.9999999894
-0.1714214214214218 	299.9999999999886 	1.506720558354172e-12 	101324.9999999894
-0.1689189189189193 	299.9999999999364 	5.339234697175612e-12 	101324.9999999895
-0.1664164164164168 	300.0000000000046 	3.21741527516544e-12 	101324.9999999896
-0.1639139139139143 	299.9999999999768 	6.483449485757933e-12 	101324.9999999897
-0.1614114114114118 	300.0000000000277 	4.436452146761406e-12 	101324.9999999895
-0.1589089089089093 	300.0000000000014 	8.682642166745625e-12 	101324.9999999894
-0.1564064064064068 	299.9999999999799 	4.608864034400852e-12 	101324.9999999896
-0.1539039039039043 	299.9999999999844 	1.013761650695522e-11 	101324.9999999894
-0.1514014014014018 	300.0000000000317 	3.012317150728927e-12 	101324.9999999894
-0.1488988988988993 	299.9999999999774 	9.891218747599832e-12 	101324.9999999891
-0.1463963963963968 	299.9999999999991 	2.02748890028221e-12 	101324.999999989
-0.1438938938938943 	299.9999999999375 	8.563927633842023e-12 	101324.9999999889
-0.1413913913913918 	299.9999999999085 	1.311878759783657e-12 	101324.9999999891
-0.1388888888888893 	299.9999999999714 	5.752614148169609e-12 	101324.9999999892
-0.1363863863863868 	299.9999999998631 	1.510396715541754e-12 	101324.9999999896
-0.1338838838838843 	299.9999999998919 	3.311955237131117e-12 	101324.9999999894
-0.1313813813813818 	299.999999999996 	1.231621500830822e-12 	101324.9999999894
-0.1288788788788793 	299.9999999999462 	3.840956788809695e-12 	101324.9999999895
-0.1263763763763768 	299.9999999999664 	4.3319012811497e-13 	101324.9999999893
-0.1238738738738743 	299.9999999999173 	4.041054107597859e-12 	101324.999999989
-0.1213713713713717 	299.99999999998 	1.010708801542465e-12 	101324.9999999888
-0.1188688688688693 	300.000000000004 	5.332915809094572e-12 	101324.9999999886
-0.1163663663663668 	299.9999999998828 	8.877983195428396e-13 	101324.9999999885
-0.1138638638638643 	299.9999999999843 	5.84640230404679e-12 	101324.9999999886
-0.1113613613613618 	299.9999999999805 	1.112190205258394e-12 	101324.9999999889
-0.1088588588588592 	299.9999999999653 	6.18140305555645e-12 	101324.9999999887
-0.1063563563563568 	299.9999999999498 	1.366622641605167e-12 	101324.9999999889
-0.1038538538538543 	299.9999999999683 	4.794253456253594e-12 	101324.9999999889
-0.1013513513513517 	300.0000000000153 	7.01091318126502e-13 	101324.9999999888
-0.09884884884884926 	299.9999999999321 	3.936993479112493e-12 	101324.9999999886
-0.09634634634634676 	299.9999999998549 	4.068824841787663e-13 	101324.9999999885
-0.09384384384384425 	299.9999999999119 	2.711951412905758e-12 	101324.9999999884
-0.09134134134134177 	300.0000000000278 	8.633543422292218e-13 	101324.9999999885
-0.08883883883883925 	300.0000000000069 	3.834381697947087e-12 	101324.9999999884
-0.08633633633633674 	299.9999999999395 	3.087010602386446e-12 	101324.9999999886
-0.08383383383383426 	300.0000000000142 	4.0600736563837e-12 	101324.9999999889
-0.08133133133133173 	299.9999999999574 	4.244718214727236e-12 	101324.9999999888
-0.07882882882882926 	299.999999999849 	3.891671511308946e-12 	101324.9999999888
-0.07632632632632676 	299.9999999999486 	3.741936156533574e-12 	101324.9999999886
-0.07382382382382424 	299.9999999998704 	4.016723887601914e-12 	101324.9999999884
-0.07132132132132173 	300.0000000000122 	3.62971729307003e-12 	101324.9999999884
-0.06881881881881925 	299.9999999999482 	3.744375665148253e-12 	101324.9999999882
-0.06631631631631671 	299.9999999998627 	3.2896034239862e-12 	101324.9999999881
-0.06381381381381425 	299.999999999942 	3.068259303664777e-12 	101324.9999999882
-0.06131131131131173 	299.9999999999441 	2.804778192200421e-12 	101324.9999999883
-0.05880880880880923 	299.9999999999005 	2.712541683539497e-12 	101324.9999999882
-0.05630630630630672 	299.9999999999569 	2.494763415521748e-12 	101324.9999999885
-0.05380380380380424 	300.0000000000188 	3.154373734008134e-12 	101324.9999999882
-0.05130130130130173 	300.0000000000171 	2.813500456008845e-12 	101324.9999999882
-0.04879879879879922 	299.9999999999238 	2.44181119755344e-12 	101324.9999999883
-0.04629629629629672 	299.9999999999158 	1.631568450048111e-12 	101324.9999999885
-0.04379379379379422 	299.999999999896 	1.881541536809693e-12 	101324.9999999886
-0.04129129129129173 	299.9999999999728 	9.413654317780513e-13 	101324.9999999886
-0.03878878878878922 	299.9999999999789 	1.21966548658324e-12 	101324.9999999887
-0.03628628628628671 	299.9999999999779 	6.377121536894886e-13 	101324.9999999888
-0.03378378378378422 	299.9999999999055 	8.401888650158995e-13 	101324.9999999889
-0.03128128128128172 	299.9999999999596 	6.519371402884257e-14 	101324.9999999889
-0.02877877877877922 	299.99999999996 	1.35248620039275e-13 	101324.9999999889
-0.0262762762762767 	299.9999999998725 	3.701322381352667e-13 	101324.9999999891
-0.02377377377377422 	300.0000000000257 	6.762336375776618e-13 	101324.9999999891
-0.0212712712712717 	299.9999999998761 	1.240978387092637e-12 	101324.9999999891
-0.01876876876876921 	299.9999999999671 	2.38135591713647e-12 	101324.9999999892
-0.01626626626626671 	300.0000000000145 	1.502547468633535e-12 	101324.999999989
-0.0137637637637642 	299.9999999999536 	1.358538051959322e-12 	101324.9999999891
-0.0112612612612617 	300.0000000000207 	9.026845469122565e-13 	101324.9999999892
-0.008758758758759198 	299.9999999999949 	8.752608879105867e-13 	101324.9999999891
-0.006256256256256697 	299.9999999998543 	1.054809943725644e-13 	101324.9999999891
-0.003753753753754195 	299.9999999999399 	5.454282962111414e-13 	101324.9999999887
-0.001251251251251693 	299.9999999999143 	3.727370657638405e-14 	101324.9999999885
0.00125125125125081 	299.9999999999397 	2.812829897036187e-13 	101324.9999999885
0.003753753753753312 	299.9999999999531 	2.648542067427417e-13 	101324.9999999884
0.006256256256255817 	299.9999999998602 	5.749222761478265e-13 	101324.9999999883
0.008758758758758317 	299.999999999987 	6.358500961671448e-13 	101324.9999999886
0.01126126126126082 	300.0000000000078 	1.010515737271897e-12 	101324.9999999891
0.01376376376376332 	299.9999999999602 	1.301194120685957e-12 	101324.9999999893
0.01626626626626582 	300.0000000000139 	1.633948579105208e-12 	101324.9999999895
0.01876876876876833 	299.9999999999404 	1.1193561388333e-12 	101324.9999999897
0.02127127127127083 	299.9999999999598 	1.2732530518543e-12 	101324.9999999898
0.02377377377377332 	299.9999999999961 	8.830610296027687e-13 	101324.9999999897
0.02627627627627583 	299.9999999998835 	1.866707198996164e-13 	101324.9999999893
0.02877877877877833 	300.0000000000071 	6.845778655471119e-13 	101324.9999999892
0.03128128128128083 	299.9999999999304 	2.003908335865567e-13 	101324.9999999893
0.03378378378378333 	299.9999999998776 	2.888212222415891e-13 	101324.9999999893
0.03628628628628584 	299.9999999999641 	1.313353713060866e-13 	101324.9999999891
0.03878878878878834 	299.9999999999735 	1.036833893136025e-12 	101324.9999999889
0.04129129129129084 	299.9999999999695 	1.422031561048978e-12 	101324.9999999885
0.04379379379379333 	299.9999999999263 	7.596149219878172e-13 	101324.9999999884
0.04629629629629585 	299.9999999998578 	2.789569240292114e-13 	101324.9999999885
0.04879879879879834 	299.9999999999436 	4.45066112284994e-13 	101324.9999999884
0.05130130130130085 	300.000000000019 	7.353612847631107e-13 	101324.9999999885
0.05380380380380335 	300.0000000000218 	8.99979118952787e-13 	101324.9999999886
0.05630630630630584 	299.999999999984 	6.640130067219338e-13 	101324.9999999887
0.05880880880880836 	299.9999999998969 	1.387142718215603e-12 	101324.9999999888
0.06131131131131085 	299.9999999999675 	2.550217275784186e-12 	101324.9999999891
0.06381381381381336 	299.9999999999529 	2.756366718781692e-12 	101324.9999999891
0.06631631631631586 	299.9999999998622 	3.350022571643549e-12 	101324.999999989
0.06881881881881835 	299.9999999999354 	3.373385702834137e-12 	101324.9999999891
0.07132132132132088 	299.9999999999847 	3.015238726517649e-12 	101324.999999989
0.07382382382382337 	299.9999999998753 	3.186605400484733e-12 	101324.999999989
0.07632632632632587 	299.9999999999606 	3.627583409706326e-12 	101324.9999999884
0.07882882882882837 	299.9999999999235 	2.825306261623179e-12 	101324.9999999886
0.08133133133133086 	299.99999999998 	2.723230027492879e-12 	101324.9999999886
0.08383383383383337 	299.9999999999795 	1.599945971016063e-12 	101324.9999999884
0.08633633633633589 	299.9999999998805 	1.95346242113597e-12 	101324.9999999884
0.08883883883883838 	300.0000000000106 	2.628182536636038e-12 	101324.9999999884
0.09134134134134086 	299.9999999999856 	1.950922267094462e-12 	101324.9999999882
0.09384384384384339 	299.999999999864 	2.821226428009695e-12 	101324.9999999883
0.09634634634634588 	299.9999999999548 	2.844989537391721e-12 	101324.9999999879
0.09884884884884838 	299.9999999999617 	2.063657050673581e-12 	101324.9999999878
0.1013513513513509 	300.0000000000224 	1.998927089369675e-12 	101324.9999999879
0.1038538538538534 	299.999999999942 	1.84059221924115e-12 	101324.999999988
0.1063563563563559 	300.0000000000211 	2.181344635064722e-12 	101324.9999999883
0.1088588588588584 	300.0000000000367 	1.759403048863452e-12 	101324.9999999883
0.1113613613613609 	299.9999999998971 	1.341230152339194e-12 	101324.9999999885
0.1138638638638634 	299.9999999999292 	1.706656012964238e-12 	101324.9999999886
0.1163663663663659 	299.9999999999271 	1.726502224585541e-12 	101324.9999999886
0.1188688688688684 	299.9999999999559 	2.225973321981277e-12 	101324.9999999887
0.1213713713713709 	299.9999999999901 	1.658125319940837e-12 	101324.9999999888
0.1238738738738734 	299.9999999999039 	2.474988460674018e-12 	101324.9999999888
0.1263763763763759 	299.9999999999831 	2.642888861441515e-12 	101324.9999999888
0.1288788788788784 	299.9999999999879 	2.680764216085584e-12 	101324.999999989
0.1313813813813809 	299.9999999999869 	2.242534697933967e-12 	101324.9999999889
0.1338838838838834 	299.9999999999678 	2.621840702746653e-12 	101324.999999989
0.1363863863863859 	300.0000000000373 	2.52507525991636e-12 	101324.9999999893
0.1388888888888884 	300.0000000000565 	2.906184370416914e-12 	101324.9999999889
0.1413913913913909 	300.0000000000029 	1.928001739667075e-12 	101324.9999999888
0.1438938938938934 	299.9999999999897 	2.09895218476755e-12 	101324.9999999886
0.1463963963963959 	299.999999999949 	4.841813598627676e-13 	101324.9999999889
0.1488988988988985 	299.9999999998862 	2.354016632203959e-12 	101324.9999999888
0.1514014014014009 	299.9999999999621 	1.002363510953682e-12 	101324.9999999888
0.1539039039039035 	299.9999999999546 	3.121262216242984e-12 	101324.9999999887
0.1564064064064059 	299.9999999999145 	7.658941623047484e-13 	101324.9999999887
0.1589089089089084 	299.9999999999733 	4.350464290891989e-12 	101324.9999999887
0.1614114114114109 	299.9999999999679 	1.225974162145794e-12 	101324.9999999886
0.1639139139139134 	299.9999999998868 	3.07907569067403e-12 	101324.9999999887
0.166416416416416 	300.0000000000079 	1.920062314676045e-12 	101324.9999999887
0.1689189189189185 	300.0000000000377 	1.669134108656242e-12 	101324.9999999889
0.1714214214214209 	299.9999999999953 	2.02766796309061e-12 	101324.9999999889
0.1739239239239235 	299.9999999999873 	3.37425142946952e-13 	101324.9999999889
0.1764264264264259 	299.9999999999594 	2.309996580148766e-12 	101324.999999989
0.1789289289289284 	300.0000000000083 	3.902369710682674e-13 	101324.999999989
0.181431431431431 	299.9999999999565 	3.582417863363659e-12 	101324.999999989
0.1839339339339334 	299.9999999999656 	1.894970979598281e-12 	101324.999999989
0.186436436436436 	299.999999999903 	3.954190375564734e-12 	101324.9999999892
0.1889389389389385 	299.9999999999812 	4.21136591743049e-12 	101324.9999999892
0.191441441441441 	299.9999999999744 	4.015435174355731e-12 	101324.9999999893
0.1939439439439434 	299.9999999998997 	4.976907394797325e-12 	101324.9999999893
0.196446446446446 	299.9999999999269 	2.865470602367685e-12 	101324.9999999893
0.1989489489489485 	299.999999999962 	5.098776661937963e-12 	101324.999999989
0.2014514514514509 	299.9999999999775 	2.939691239551325e-12 	101324.9999999887
0.2039539539539535 	299.9999999999881 	4.509732243986982e-12 	101324.9999999887
0.2064564564564559 	299.9999999999481 	2.991396772890109e-12 	101324.9999999885
0.2089589589589585 	299.9999999999777 	3.165460047187747e-12 	101324.9999999888
0.211461461461461 	299.9999999999187 	3.199530812460949e-12 	101324.9999999889
0.2139639639639635 	299.9999999999769 	2.368748348081358e-12 	101324.9999999892
0.2164664664664659 	299.9999999999915 	3.721513644788003e-12 	101324.9999999893
0.2189689689689684 	299.999999999992 	1.391496177607933e-12 	101324.9999999892
0.221471471471471 	299.9999999999877 	4.06991230565542e-12 	101324.999999989
0.2239739739739735 	299.9999999999434 	1.482396960647293e-12 	101324.999999989
0.226476476476476 	299.9999999999748 	3.080775990022743e-12 	101324.999999989
0.2289789789789785 	299.9999999999959 	2.428903840153637e-12 	101324.9999999889
0.231481481481481 	299.9999999999862 	2.971730156723059e-12 	101324.9999999892
0.2339839839839835 	299.9999999999851 	3.705565594376249e-12 	101324.9999999889
0.236486486486486 	300.0000000000275 	2.657007244624027e-12 	101324.9999999888
0.2389889889889885 	300.0000000000051 	3.874628998767252e-12 	101324.999999989
0.241491491491491 	299.9999999999036 	1.470258287875445e-12 	101324.999999989
0.2439939939939935 	299.999999999983 	4.615420571684663e-12 	101324.999999989
0.246496496496496 	299.9999999999916 	2.219450353243025e-12 	101324.9999999891
0.2489989989989985 	300.0000000000452 	3.945043874405703e-12 	101324.9999999892
0.251501501501501 	300.0000000000381 	2.851549895588356e-12 	101324.9999999893
0.2540040040040035 	299.9999999999866 	2.815056551400481e-12 	101324.9999999896
0.256506506506506 	300.0000000000346 	3.415883099869175e-12 	101324.9999999893
0.2590090090090086 	299.9999999998824 	2.158606389085192e-12 	101324.9999999891
0.261511511511511 	299.9999999999968 	5.016876877235608e-12 	101324.9999999888
0.2640140140140135 	299.9999999999882 	2.725775317910911e-12 	101324.9999999886
0.2665165165165161 	299.9999999999113 	4.774414541686688e-12 	101324.9999999886
0.2690190190190185 	300.0000000000134 	3.455671830473339e-12 	101324.9999999884
0.271521521521521 	300.0000000000182 	3.580092393116603e-12 	101324.9999999882
0.2740240240240235 	300.0000000000214 	3.426190079630105e-12 	101324.9999999885
0.276526526526526 	300.0000000000111 	2.585732239078449e-12 	101324.9999999885
0.2790290290290286 	299.9999999999275 	3.007390350648395e-12 	101324.9999999888
0.281531531531531 	299.9999999999066 	1.55856731775171e-12 	101324.9999999889
0.2840340340340335 	299.9999999999683 	2.765524835629447e-12 	101324.999999989
0.2865365365365361 	299.9999999999518 	1.625162791027313e-12 	101324.999999989
0.2890390390390385 	299.9999999999974 	2.272465922685839e-12 	101324.9999999889
0.291541541541541 	299.9999999999964 	2.850258385164445e-12 	101324.9999999888
0.2940440440440436 	299.9999999999861 	1.965943475371148e-12 	101324.9999999889
0.296546546546546 	299.9999999999891 	3.428720624775106e-12 	101324.9999999888
0.2990490490490486 	299.9999999999208 	8.708099430405983e-13 	101324.9999999891
0.3015515515515511 	300.0000000000445 	4.501980035765768e-12 	101324.9999999889
0.3040540540540535 	299.999999999996 	2.45460660921087e-12 	101324.9999999888
0.3065565565565562 	299.9999999999981 	5.392512847286096e-12 	101324.9999999887
0.3090590590590585 	299.9999999999884 	2.16852462037329e-12 	101324.9999999886
0.3115615615615611 	299.9999999999276 	4.925983254034337e-12 	101324.9999999884
0.3140640640640635 	300.0000000000084 	9.693019860650043e-13 	101324.9999999886
0.316566566566566 	299.9999999999887 	4.429582893093335e-12 	101324.9999999886
0.3190690690690687 	299.9999999999397 	1.139280132363873e-12 	101324.9999999885
0.3215715715715711 	300.0000000000223 	4.032911278831401e-12 	101324.9999999887
0.3240740740740735 	300.0000000000014 	8.355063874248253e-13 	101324.9999999887
0.326576576576576 	299.9999999998857 	2.623797063727763e-12 	101324.9999999889
0.3290790790790786 	300.0000000000118 	2.286225625298785e-13 	101324.9999999886
0.3315815815815811 	300.0000000000402 	1.267278856499199e-12 	101324.9999999885
0.3340840840840836 	299.9999999999795 	1.137534165461173e-12 	101324.9999999885
0.3365865865865861 	300.0000000000682 	7.697547870812213e-13 	101324.9999999883
0.3390890890890886 	300.0000000000585 	1.412941490228751e-12 	101324.9999999884
0.3415915915915911 	300.0000000000019 	4.244696091861129e-13 	101324.9999999886
0.3440940940940935 	299.9999999999391 	1.523025052005499e-12 	101324.9999999887
0.3465965965965962 	300.00000000004 	6.059424582667083e-13 	101324.9999999887
0.3490990990990985 	300.0000000000305 	1.283212164561541e-12 	101324.9999999889
0.3516016016016011 	299.9999999999833 	8.150876553461624e-13 	101324.9999999888
0.3541041041041035 	300.0000000000091 	9.908246531464255e-13 	101324.9999999885
0.3566066066066061 	299.9999999999487 	1.677593654919376e-12 	101324.9999999882
0.3591091091091085 	299.9999999998995 	9.280703387658849e-13 	101324.9999999882
0.3616116116116112 	299.9999999999235 	1.915738511466932e-12 	101324.9999999884
0.3641141141141137 	299.999999999917 	2.139765204085588e-12 	101324.9999999886
0.3666166166166161 	299.9999999999098 	2.43301323072711e-12 	101324.9999999888
0.3691191191191185 	300.0000000000481 	3.213223407009572e-12 	101324.9999999887
0.371621621621621 	300.0000000000138 	2.157324125040514e-12 	101324.9999999886
0.3741241241241237 	300.000000000056 	2.780763826230061e-12 	101324.9999999886
0.3766266266266261 	300.0000000000374 	1.85493229879304e-12 	101324.9999999884
0.3791291291291286 	299.9999999999846 	1.905126878420838e-12 	101324.9999999885
0.3816316316316311 	299.9999999999024 	1.621853217923735e-12 	101324.9999999885
0.3841341341341336 	300.0000000000132 	2.046363653906902e-12 	101324.9999999883
0.3866366366366362 	299.9999999999982 	1.523337331429791e-12 	101324.9999999886
0.3891391391391387 	299.9999999999465 	9.226568331815932e-13 	101324.9999999888
0.391641641641641 	299.999999999991 	2.004228720547318e-12 	101324.9999999886
0.3941441441441436 	300.0000000000104 	6.464440353829267e-13 	101324.9999999888
0.3966466466466462 	300.0000000000003 	2.394726975821817e-12 	101324.9999999887
0.3991491491491486 	299.999999999942 	1.234151977426837e-12 	101324.9999999888
0.4016516516516512 	299.9999999999028 	2.461687992725958e-12 	101324.9999999889
0.4041541541541536 	299.9999999999365 	1.100573198683848e-12 	101324.999999989
0.4066566566566561 	299.9999999999357 	2.825247043691689e-12 	101324.9999999889
0.4091591591591587 	299.9999999999916 	1.197573118519116e-12 	101324.999999989
0.4116616616616612 	300.0000000000061 	2.601942219083076e-12 	101324.9999999891
0.4141641641641635 	300.0000000000483 	1.866951682170567e-12 	101324.9999999893
0.4166666666666662 	299.9999999999935 	1.333954078486779e-12 	101324.9999999891
0.4191691691691687 	299.9999999999333 	2.232241599036025e-12 	101324.9999999889
0.421671671671671 	300.0000000000164 	1.480023722050221e-12 	101324.9999999888
0.4241741741741737 	299.9999999999682 	3.443712289018848e-12 	101324.9999999888
0.4266766766766761 	299.9999999999413 	2.647270992399337e-12 	101324.9999999888
0.4291791791791785 	300.0000000000231 	3.771053350081616e-12 	101324.999999989
0.4316816816816812 	300.0000000000165 	3.050577781553413e-12 	101324.9999999891
0.4341841841841836 	299.9999999999823 	3.246656924212551e-12 	101324.9999999891
0.4366866866866862 	299.9999999999074 	2.692838936566942e-12 	101324.999999989
0.4391891891891885 	299.9999999999833 	1.723330173134531e-12 	101324.999999989
0.4416916916916913 	299.9999999999747 	2.639324214101374e-12 	101324.9999999891
0.4441941941941936 	299.9999999999852 	7.757787747503215e-13 	101324.999999989
0.4466966966966961 	299.9999999999001 	1.547154237738304e-12 	101324.9999999892
0.4491991991991987 	299.9999999999783 	1.179896422901901e-13 	101324.9999999893
0.4517017017017012 	299.9999999999757 	1.887961491229548e-13 	101324.9999999895
0.4542042042042035 	299.9999999999787 	5.612040553132455e-13 	101324.9999999895
0.4567067067067062 	299.9999999999939 	5.167405828479056e-13 	101324.9999999896
0.4592092092092087 	299.9999999999097 	2.739659517583434e-13 	101324.9999999897
0.4617117117117112 	300.0000000000217 	3.542896342042193e-13 	101324.9999999899
0.4642142142142137 	299.9999999999554 	2.530980617118955e-13 	101324.9999999898
0.4667167167167162 	299.999999999988 	9.969017800017607e-14 	101324.99999999
0.4692192192192187 	299.9999999999454 	9.126067603531622e-14 	101324.9999999902
0.4717217217217212 	300.0000000000216 	5.661489230472672e-13 	101324.99999999
0.4742242242242236 	299.9999999999453 	1.236540102073841e-12 	101324.9999999899
0.4767267267267262 	299.9999999999756 	2.232282114826664e-12 	101324.9999999899
0.4792292292292287 	300.0000000000171 	2.76803526495167e-12 	101324.99999999
0.4817317317317312 	300.0000000000369 	2.401488445993849e-12 	101324.9999999899
0.4842342342342336 	299.9999999999839 	2.588664911750235e-12 	101324.99999999
0.4867367367367362 	299.9999999999466 	1.817482026408703e-12 	101324.9999999903
0.4892392392392387 	300.0000000000337 	2.743269501580091e-12 	101324.99999999
0.4917417417417412 	300.0000000000057 	1.525540764114862e-12 	101324.9999999901
0.4942442442442437 	299.9999999998864 	3.027373875023556e-12 	101324.9999999901
0.4967467467467462 	299.9999999999056 	1.898555961456336e-12 	101324.9999999901
0.4992492492492487 	299.9999999999029 	3.556140427526366e-12 	101324.9999999901
0.5017517517517511 	299.9999999999418 	2.787993162453349e-12 	101324.99999999
0.5042542542542537 	299.9999999999597 	3.589451111981275e-12 	101324.9999999901
0.5067567567567562 	299.9999999999363 	3.673127243963617e-12 	101324.9999999903
0.5092592592592589 	299.9999999999661 	3.142150112883922e-12 	101324.9999999904
0.5117617617617611 	299.9999999999505 	4.219926098892086e-12 	101324.9999999904
0.5142642642642637 	299.9999999999836 	2.205630971796428e-12 	101324.9999999904
0.5167667667667663 	299.999999999967 	4.457400546878476e-12 	101324.9999999904
0.5192692692692688 	299.9999999999039 	2.104156735913971e-12 	101324.9999999903
0.5217717717717714 	299.999999999925 	5.316109144521427e-12 	101324.9999999901
0.5242742742742736 	299.9999999999287 	2.09710591633108e-12 	101324.9999999899
0.5267767767767763 	299.9999999999459 	3.840131190881518e-12 	101324.99999999
0.5292792792792789 	299.9999999999267 	1.563485084576845e-12 	101324.99999999
0.5317817817817813 	299.9999999998935 	3.516191431467786e-12 	101324.9999999902
0.5342842842842837 	300.0000000000146 	1.960005840485002e-12 	101324.9999999903
0.5367867867867864 	299.9999999999983 	4.114942393654143e-12 	101324.9999999903
0.5392892892892888 	299.9999999999439 	2.760180550873667e-12 	101324.9999999902
0.5417917917917912 	299.9999999999987 	4.685996738593779e-12 	101324.9999999901
0.5442942942942938 	299.9999999999781 	3.860581989811434e-12 	101324.99999999
0.5467967967967964 	299.9999999999444 	6.014539874834709e-12 	101324.9999999903
0.5492992992992988 	299.9999999999364 	5.830288000882157e-12 	101324.9999999904
0.5518018018018012 	299.9999999999272 	7.26414354071792e-12 	101324.9999999906
0.5543043043043039 	300.000000000022 	6.112211971939306e-12 	101324.9999999905
0.5568068068068063 	299.9999999999869 	6.789920096006542e-12 	101324.9999999905
0.5593093093093087 	299.9999999998853 	5.151707157802443e-12 	101324.9999999907
0.5618118118118114 	299.9999999999461 	6.769293377814691e-12 	101324.9999999906
0.5643143143143137 	299.999999999928 	5.255681218240559e-12 	101324.9999999905
0.5668168168168163 	299.9999999999878 	5.955644577803675e-12 	101324.9999999907
0.5693193193193188 	300.0000000000359 	5.134230801175868e-12 	101324.9999999906
0.5718218218218213 	300.0000000000303 	4.241536208186053e-12 	101324.9999999904
0.5743243243243239 	300.0000000000114 	5.889284451608247e-12 	101324.9999999903
0.5768268268268262 	300.000000000007 	4.831353100868462e-12 	101324.9999999904
0.5793293293293288 	299.9999999999419 	7.788360277091157e-12 	101324.9999999905
0.5818318318318314 	299.9999999999072 	4.586424357127155e-12 	101324.9999999904
0.5843343343343338 	299.9999999999771 	8.96777249484822e-12 	101324.9999999903
0.5868368368368363 	299.9999999999681 	4.430772206289206e-12 	101324.9999999902
0.5893393393393387 	299.9999999999311 	8.02335376742594e-12 	101324.9999999903
0.5918418418418413 	299.9999999999323 	5.649640906645753e-12 	101324.9999999902
0.5943443443443439 	300.0000000000165 	8.511201055153841e-12 	101324.9999999901
0.5968468468468463 	300.0000000000214 	6.689882919078846e-12 	101324.9999999901
0.5993493493493487 	300.0000000000508 	8.137885899516713e-12 	101324.99999999
0.6018518518518514 	299.9999999999798 	5.972556020305879e-12 	101324.99999999
0.6043543543543537 	299.9999999999946 	7.212041049278788e-12 	101324.99999999
0.6068568568568564 	299.9999999999819 	5.544476119149822e-12 	101324.9999999902
0.6093593593593587 	299.9999999999251 	6.465012973933101e-12 	101324.9999999904
0.6118618618618614 	299.9999999999121 	4.832415900545949e-12 	101324.9999999907
0.6143643643643638 	300.0000000000124 	5.496307284666874e-12 	101324.9999999906
0.6168668668668662 	299.9999999999823 	3.883431006951893e-12 	101324.9999999907
0.6193693693693688 	299.9999999999534 	6.149078101140255e-12 	101324.9999999907
0.6218718718718714 	299.9999999999621 	4.361533734383115e-12 	101324.9999999908
0.6243743743743737 	299.9999999999249 	6.506074524962643e-12 	101324.9999999907
0.6268768768768762 	299.9999999999137 	4.578930334684431e-12 	101324.9999999905
0.629379379379379 	299.9999999999527 	5.290516916616766e-12 	101324.9999999905
0.6318818818818812 	299.9999999999794 	4.517653005770955e-12 	101324.9999999903
0.6343843843843838 	300.0000000000222 	4.450904742413232e-12 	101324.9999999903
0.6368868868868864 	299.9999999999846 	5.183894794899875e-12 	101324.9999999901
0.6393893893893888 	299.9999999999106 	3.687171738157173e-12 	101324.9999999902
0.6418918918918912 	300.0000000000039 	6.585670446844385e-12 	101324.9999999903
0.6443943943943939 	299.9999999999692 	3.224337175352565e-12 	101324.9999999905
0.6468968968968963 	299.9999999999822 	8.105728196197087e-12 	101324.9999999908
0.6493993993993988 	299.9999999999723 	3.845307484592061e-12 	101324.9999999907
0.6519019019019012 	299.9999999999749 	7.889279771557114e-12 	101324.9999999909
0.6544044044044038 	299.999999999891 	4.595603358947247e-12 	101324.9999999908
0.6569069069069065 	299.9999999999411 	8.377051317353034e-12 	101324.9999999908
0.6594094094094087 	299.9999999999569 	6.268794137792678e-12 	101324.9999999908
0.6619119119119113 	299.9999999999496 	8.923624133706327e-12 	101324.9999999909
0.664414414414414 	300.0000000000061 	7.005860640679235e-12 	101324.9999999909
0.6669169169169162 	300.0000000000219 	8.558514903001738e-12 	101324.9999999912
0.6694194194194188 	299.9999999999835 	6.76750389629722e-12 	101324.9999999912
0.6719219219219214 	299.9999999999127 	8.157706420351104e-12 	101324.9999999911
0.674424424424424 	299.9999999999682 	7.602483862095524e-12 	101324.9999999909
0.6769269269269262 	299.9999999999063 	9.363054672535813e-12 	101324.9999999907
0.679429429429429 	300.0000000000081 	8.589507124221874e-12 	101324.9999999905
0.6819319319319311 	299.9999999999854 	8.801170793176545e-12 	101324.9999999905
0.6844344344344341 	299.9999999999994 	7.527478043111259e-12 	101324.9999999906
0.686936936936936 	299.9999999999935 	8.172428486701604e-12 	101324.9999999908
0.6894394394394392 	299.9999999999866 	6.793392526566639e-12 	101324.9999999908
0.6919419419419413 	299.9999999999846 	6.687687299361484e-12 	101324.9999999906
0.694444444444444 	299.9999999999204 	6.241784740355469e-12 	101324.9999999905
0.6969469469469463 	299.9999999999132 	6.09147202363702e-12 	101324.9999999906
0.6994494494494489 	299.9999999999082 	6.874765647779306e-12 	101324.9999999907
0.7019519519519515 	299.9999999999786 	5.935200135382628e-12 	101324.9999999909
0.7044544544544538 	299.9999999999357 	7.869253779526647e-12 	101324.999999991
0.7069569569569564 	300.0000000000001 	6.111498310154822e-12 	101324.9999999911
0.7094594594594589 	299.999999999963 	9.339115993461726e-12 	101324.9999999911
0.7119619619619615 	299.999999999903 	6.749391891336613e-12 	101324.9999999912
0.7144644644644638 	299.9999999999502 	8.74789581565667e-12 	101324.9999999912
0.7169669669669665 	299.999999999917 	7.201763119462923e-12 	101324.9999999912
0.7194694694694688 	299.9999999999977 	8.351641021614739e-12 	101324.9999999911
0.7219719719719715 	299.9999999999907 	7.577233910838122e-12 	101324.999999991
0.7244744744744737 	300.0000000000081 	7.654028201550576e-12 	101324.9999999909
0.7269769769769764 	299.9999999999991 	8.091164446397505e-12 	101324.9999999908
0.7294794794794791 	299.9999999999869 	6.817803324852724e-12 	101324.999999991
0.7319819819819813 	299.9999999999757 	9.068588455971884e-12 	101324.9999999911
0.7344844844844839 	299.9999999999043 	7.161407858180365e-12 	101324.999999991
0.7369869869869864 	299.999999999937 	8.598278231981582e-12 	101324.9999999911
0.739489489489489 	299.9999999999267 	7.805745890146993e-12 	101324.9999999909
0.7419919919919914 	299.9999999999149 	8.165726769862857e-12 	101324.9999999907
0.7444944944944939 	299.9999999999767 	8.990063748390364e-12 	101324.9999999905
0.7469969969969963 	299.9999999999698 	7.104496135377362e-12 	101324.9999999904
0.7494994994994989 	299.9999999999281 	9.069089775201476e-12 	101324.9999999903
0.7520020020020015 	299.9999999999586 	5.893005540238782e-12 	101324.9999999904
0.7545045045045039 	299.9999999999575 	9.607846111362743e-12 	101324.9999999906
0.7570070070070062 	299.9999999999327 	6.760940403673036e-12 	101324.9999999907
0.7595095095095092 	299.9999999999194 	9.243979301461639e-12 	101324.9999999907
0.7620120120120112 	300.0000000000058 	8.583687568369746e-12 	101324.9999999908
0.7645145145145138 	299.9999999999827 	8.490001271757765e-12 	101324.9999999908
0.7670170170170165 	299.9999999999216 	8.486442581608105e-12 	101324.9999999908
0.7695195195195191 	299.9999999999133 	7.237756259898268e-12 	101324.9999999909
0.7720220220220213 	299.9999999999278 	9.826144910138388e-12 	101324.9999999908
0.7745245245245239 	299.9999999999221 	7.793953134680866e-12 	101324.9999999907
0.7770270270270263 	299.9999999999566 	1.002655368793261e-11 	101324.9999999906
0.779529529529529 	299.9999999999716 	8.729445331324241e-12 	101324.9999999906
0.7820320320320313 	299.9999999999647 	9.709180111851844e-12 	101324.9999999909
0.784534534534534 	300.0000000000057 	9.44788351407073e-12 	101324.999999991
0.7870370370370364 	299.9999999999931 	8.818943260145167e-12 	101324.9999999909
0.7895395395395389 	299.9999999999737 	9.496667072453759e-12 	101324.9999999911
0.7920420420420413 	299.9999999999721 	8.153848970845266e-12 	101324.9999999915
0.794544544544544 	299.9999999999719 	1.0101428786874e-11 	101324.9999999917
0.7970470470470463 	300.0000000000035 	7.35180098210561e-12 	101324.9999999918
0.799549549549549 	299.9999999999915 	1.042695083822415e-11 	101324.9999999919
0.8020520520520515 	299.9999999999793 	6.744243597473404e-12 	101324.9999999919
0.8045545545545539 	299.9999999999312 	8.518958518148611e-12 	101324.999999992
0.8070570570570563 	299.999999999982 	6.510042067313178e-12 	101324.999999992
0.8095595595595589 	299.9999999999525 	7.599762373441664e-12 	101324.9999999918
0.8120620620620614 	299.9999999999327 	7.639506074581221e-12 	101324.9999999918
0.8145645645645638 	299.9999999999997 	7.70406261680144e-12 	101324.9999999916
0.8170670670670666 	300.0000000000009 	8.411740143084387e-12 	101324.9999999916
0.8195695695695689 	299.9999999999795 	6.936392644821729e-12 	101324.9999999917
0.8220720720720714 	299.9999999999317 	9.233156127921381e-12 	101324.9999999916
0.8245745745745739 	299.9999999999867 	6.409779967040199e-12 	101324.9999999915
0.8270770770770765 	299.999999999972 	8.325194650389706e-12 	101324.9999999916
0.8295795795795788 	299.9999999999473 	7.295858681291266e-12 	101324.9999999916
0.8320820820820815 	300.0000000000181 	8.428589875930932e-12 	101324.9999999913
0.834584584584584 	300.0000000000022 	7.883217814755946e-12 	101324.9999999912
0.8370870870870865 	299.9999999999467 	7.407681165920509e-12 	101324.9999999913
0.8395895895895891 	299.9999999999118 	8.039472390621734e-12 	101324.9999999912
0.8420920920920915 	299.999999999942 	7.283083761151796e-12 	101324.9999999914
0.844594594594594 	299.99999999993 	8.028443634886141e-12 	101324.9999999914
0.8470970970970964 	299.9999999999354 	8.10643941955278e-12 	101324.9999999916
0.8495995995995991 	299.9999999999927 	7.828934310803815e-12 	101324.9999999916
0.8521021021021015 	299.9999999999782 	8.179219297796731e-12 	101324.9999999914
0.8546046046046039 	299.9999999999673 	7.417042297205327e-12 	101324.9999999913
0.8571071071071066 	300.0000000000031 	8.419182131922669e-12 	101324.9999999914
0.8596096096096089 	299.9999999999654 	6.279224982593561e-12 	101324.9999999915
0.8621121121121116 	299.9999999999306 	9.328546519798122e-12 	101324.9999999915
0.8646146146146139 	300.0000000000014 	6.85998251960161e-12 	101324.9999999914
0.8671171171171166 	299.9999999999737 	8.304097222787139e-12 	101324.9999999914
0.8696196196196189 	299.9999999999308 	7.135848254058226e-12 	101324.9999999916
0.8721221221221216 	299.9999999999682 	7.938133564897708e-12 	101324.9999999916
0.874624624624624 	300.0000000000052 	7.637250461677785e-12 	101324.9999999916
0.8771271271271264 	299.9999999999964 	6.968354715942891e-12 	101324.9999999917
0.879629629629629 	299.9999999999941 	7.573044367886151e-12 	101324.9999999919
0.8821321321321317 	299.9999999999816 	5.147575346577967e-12 	101324.9999999918
0.8846346346346339 	299.9999999999228 	7.035932719660646e-12 	101324.9999999918
0.8871371371371364 	299.9999999999513 	4.382887809364879e-12 	101324.999999992
0.8896396396396391 	299.9999999999475 	5.9304833632091e-12 	101324.9999999921
0.8921421421421414 	299.9999999999555 	4.748132737024142e-12 	101324.9999999921
0.8946446446446441 	299.999999999989 	6.057870865509648e-12 	101324.9999999922
0.8971471471471464 	300.0000000000041 	6.066810345820188e-12 	101324.9999999921
0.8996496496496489 	299.9999999999765 	6.368500536673284e-12 	101324.9999999921
0.9021521521521517 	299.9999999999545 	7.441356648251673e-12 	101324.999999992
0.9046546546546541 	299.999999999988 	6.138427233247527e-12 	101324.999999992
0.9071571571571564 	299.9999999999355 	6.811758326539587e-12 	101324.999999992
0.9096596596596589 	299.9999999999377 	6.627153157949456e-12 	101324.9999999921
0.9121621621621616 	300.000000000019 	6.787329726457323e-12 	101324.9999999923
0.9146646646646639 	299.9999999999746 	6.380347803819495e-12 	101324.9999999921
0.9171671671671666 	299.9999999999258 	5.881754757058391e-12 	101324.999999992
0.9196696696696689 	299.9999999999902 	6.726837603934852e-12 	101324.999999992
0.9221721721721714 	299.9999999999951 	5.098468664560103e-12 	101324.999999992
0.9246746746746741 	299.9999999999266 	7.962634424151105e-12 	101324.9999999918
0.9271771771771765 	299.9999999999329 	5.864300687789458e-12 	101324.9999999916
0.9296796796796791 	299.9999999999872 	7.887910140255475e-12 	101324.9999999914
0.9321821821821816 	299.9999999999726 	6.595701943490109e-12 	101324.9999999913
0.9346846846846838 	299.9999999999509 	7.782583912867836e-12 	101324.9999999912
0.9371871871871866 	300.0000000000249 	7.052036544266789e-12 	101324.9999999914
0.9396896896896891 	300.0000000000251 	6.823935423183687e-12 	101324.9999999916
0.9421921921921914 	300.0000000000144 	7.0584689883886e-12 	101324.9999999915
0.9446946946946939 	299.9999999999617 	5.727737594584874e-12 	101324.9999999916
0.9471971971971965 	299.9999999999162 	7.440577740018846e-12 	101324.9999999917
0.9496996996996991 	299.9999999999453 	5.096722953735039e-12 	101324.9999999917
0.9522022022022016 	299.999999999964 	6.591227368186744e-12 	101324.9999999917
0.9547047047047038 	299.9999999999656 	5.740218130525384e-12 	101324.9999999916
0.9572072072072064 	299.9999999999536 	7.009510075801051e-12 	101324.9999999916
0.9597097097097093 	299.999999999948 	6.803252650499546e-12 	101324.9999999917
0.9622122122122114 	299.999999999943 	6.952633781722747e-12 	101324.9999999918
0.964714714714714 	299.9999999999431 	8.127996487472032e-12 	101324.9999999918
0.9672172172172167 	299.9999999999502 	7.65774100841734e-12 	101324.9999999918
0.969719719719719 	299.9999999999851 	8.51734428957935e-12 	101324.9999999918
0.9722222222222214 	299.9999999999657 	8.478423159484298e-12 	101324.9999999918
0.9747247247247239 	299.9999999999604 	8.754295662733376e-12 	101324.9999999919
0.9772272272272267 	299.9999999999983 	9.065887300177081e-12 	101324.9999999919
0.9797297297297292 	299.9999999999823 	8.268071792335555e-12 	101324.999999992
0.9822322322322313 	299.9999999999915 	9.150361799557146e-12 	101324.999999992
0.9847347347347344 	299.9999999999922 	7.18787430048794e-12 	101324.999999992
0.9872372372372363 	299.9999999999392 	9.343011945325538e-12 	101324.999999992
0.9897397397397389 	299.9999999999684 	6.969575786878971e-12 	101324.9999999919
0.9922422422422417 	299.9999999999478 	9.023379888618106e-12 	101324.9999999918
0.9947447447447441 	299.9999999999381 	7.332126869430494e-12 	101324.9999999917
0.9972472472472468 	299.9999999999511 	7.84724686553659e-12 	101324.9999999915
0.999749749749749 	299.9999999999579 	6.859391262943816e-12 	101324.9999999912
1.002252252252252 	299.9999999999805 	6.79731569196939e-12 	101324.9999999913
1.004754754754754 	299.9999999999836 	6.736561759074658e-12 	101324.9999999915
1.007257257257256 	299.9999999999598 	5.962177774955174e-12 	101324.9999999917
1.009759759759759 	299.9999999999483 	8.10803389041248e-12 	101324.9999999919
1.012262262262261 	299.9999999999469 	6.719114555580537e-12 	101324.9999999919
1.014764764764764 	299.9999999999163 	8.399741631193544e-12 	101324.999999992
1.017267267267267 	299.9999999999029 	7.05371788890105e-12 	101324.9999999921
1.019769769769769 	299.9999999999498 	7.833491810684978e-12 	101324.9999999923
1.022272272272272 	299.9999999999682 	7.10761382694913e-12 	101324.9999999923
1.024774774774774 	299.9999999999739 	7.23632513511181e-12 	101324.9999999925
1.027277277277277 	299.9999999999675 	7.561384190840445e-12 	101324.9999999925
1.029779779779779 	299.9999999999968 	6.265706572562836e-12 	101324.9999999925
1.032282282282282 	299.9999999999977 	6.429751897491461e-12 	101324.9999999925
1.034784784784784 	299.9999999999902 	5.920591227409825e-12 	101324.9999999926
1.037287287287286 	299.9999999999558 	6.170878410704723e-12 	101324.9999999926
1.039789789789789 	299.9999999999685 	6.345069103181078e-12 	101324.9999999924
1.042292292292291 	300.0000000000135 	6.606764772503423e-12 	101324.9999999923
1.044794794794794 	300.0000000000239 	7.236669779038234e-12 	101324.9999999921
1.047297297297296 	300.0000000000365 	5.867178184882463e-12 	101324.9999999921
1.049799799799799 	299.9999999999855 	7.163571435362717e-12 	101324.9999999923
1.052302302302302 	299.999999999954 	5.555685524633954e-12 	101324.9999999923
1.054804804804804 	299.9999999999308 	7.517689656220911e-12 	101324.9999999923
1.057307307307306 	299.9999999999075 	6.398898119560518e-12 	101324.9999999924
1.059809809809809 	299.9999999999404 	7.173482086192876e-12 	101324.9999999925
1.062312312312312 	299.9999999999348 	6.393470620700718e-12 	101324.9999999926
1.064814814814814 	299.9999999999321 	7.089785262949238e-12 	101324.9999999926
1.067317317317317 	299.9999999999092 	7.415305650912545e-12 	101324.9999999926
1.069819819819819 	299.9999999999095 	7.628096837999804e-12 	101324.9999999925
1.072322322322321 	299.9999999999857 	9.342190649416437e-12 	101324.9999999923
1.074824824824824 	300.0000000000197 	7.647866701577821e-12 	101324.999999992
1.077327327327327 	300.0000000000368 	8.895441866311028e-12 	101324.9999999918
1.079829829829829 	300.0000000000368 	7.772510823340624e-12 	101324.9999999918
1.082332332332332 	300.0000000000011 	8.178420591019325e-12 	101324.9999999919
1.084834834834834 	299.9999999999716 	7.887430377001821e-12 	101324.999999992
1.087337337337337 	299.9999999999274 	7.905856007692171e-12 	101324.9999999919
1.089839839839839 	299.9999999999218 	9.187218748336932e-12 	101324.9999999917
1.092342342342342 	299.9999999999646 	7.956400036676604e-12 	101324.9999999917
1.094844844844844 	299.9999999999667 	8.950359696404058e-12 	101324.9999999918
1.097347347347347 	299.999999999933 	6.918917448870137e-12 	101324.999999992
1.099849849849849 	299.9999999999172 	8.922090178174379e-12 	101324.9999999921
1.102352352352352 	299.9999999999467 	6.525327451922227e-12 	101324.9999999921
1.104854854854854 	299.9999999999744 	8.328284798834173e-12 	101324.9999999921
1.107357357357357 	299.9999999999553 	6.90188526615694e-12 	101324.9999999921
1.109859859859859 	299.999999999933 	8.801234394801163e-12 	101324.9999999922
1.112362362362362 	300.0000000000173 	7.807310657072252e-12 	101324.9999999922
1.114864864864865 	300.000000000019 	7.93556780270999e-12 	101324.9999999922
1.117367367367367 	299.9999999999586 	8.115868633769088e-12 	101324.9999999924
1.119869869869869 	299.9999999999153 	7.058738913812224e-12 	101324.9999999925
1.122372372372372 	299.999999999949 	8.348287853457416e-12 	101324.9999999923
1.124874874874874 	299.9999999999434 	7.339947048838951e-12 	101324.9999999922
1.127377377377377 	299.999999999959 	8.368069599112706e-12 	101324.9999999921
1.129879879879879 	300.0000000000221 	7.862346869111217e-12 	101324.999999992
1.132382382382382 	300.0000000000266 	7.85238725936749e-12 	101324.9999999922
1.134884884884884 	300.0000000000002 	7.183708311740467e-12 	101324.9999999923
1.137387387387387 	300.0000000000185 	7.203903750399239e-12 	101324.9999999923
1.139889889889889 	299.999999999953 	8.166707012053078e-12 	101324.9999999923
1.142392392392392 	299.9999999999404 	6.84093734294908e-12 	101324.9999999924
1.144894894894894 	300.0000000000128 	7.922354091310326e-12 	101324.9999999925
1.147397397397397 	299.999999999999 	6.888941939440644e-12 	101324.9999999924
1.149899899899899 	299.9999999999286 	8.208077256141328e-12 	101324.9999999922
1.152402402402402 	299.9999999999108 	8.006816579072055e-12 	101324.9999999921
1.154904904904904 	299.9999999999595 	9.118314102536801e-12 	101324.9999999921
1.157407407407407 	299.9999999999615 	8.846333449679605e-12 	101324.999999992
1.159909909909909 	299.9999999999268 	9.14537575568556e-12 	101324.9999999918
1.162412412412412 	299.9999999999173 	1.045114474182758e-11 	101324.9999999918
1.164914914914914 	299.9999999999549 	8.908636545367971e-12 	101324.9999999918
1.167417417417417 	299.999999999959 	9.806411519783087e-12 	101324.9999999916
1.169919919919919 	300.0000000000095 	8.593699275581724e-12 	101324.9999999917
1.172422422422422 	300.0000000000355 	9.266540439045796e-12 	101324.9999999917
1.174924924924925 	299.9999999999779 	8.162907817739577e-12 	101324.9999999916
1.177427427427427 	299.9999999999548 	8.629677594712275e-12 	101324.9999999916
1.179929929929929 	300.0000000000053 	9.369942899112521e-12 	101324.9999999916
1.182432432432432 	300.0000000000272 	7.941700872158632e-12 	101324.9999999919
1.184934934934934 	299.9999999999995 	8.74794888420427e-12 	101324.9999999921
1.187437437437437 	299.9999999999823 	7.874053056086036e-12 	101324.9999999921
1.189939939939939 	299.9999999999686 	8.888889008214585e-12 	101324.9999999921
1.192442442442442 	299.999999999915 	8.051090444038094e-12 	101324.9999999923
1.194944944944944 	299.9999999999192 	9.070087303300954e-12 	101324.9999999923
1.197447447447447 	299.9999999999969 	8.612770289136695e-12 	101324.9999999922
1.199949949949949 	300.0000000000125 	8.548993742061017e-12 	101324.9999999922
1.202452452452452 	299.9999999999427 	9.248840701031906e-12 	101324.9999999921
1.204954954954955 	299.9999999999377 	8.380719102025934e-12 	101324.9999999919
1.207457457457457 	299.9999999999828 	9.439264463072512e-12 	101324.999999992
1.20995995995996 	299.9999999999733 	8.406784110022773e-12 	101324.9999999919
1.212462462462462 	299.9999999999706 	9.515682370717744e-12 	101324.9999999919
1.214964964964964 	299.9999999999692 	8.948894429461523e-12 	101324.9999999919
1.217467467467467 	299.9999999999699 	1.003311093388528e-11 	101324.9999999918
1.219969969969969 	299.9999999999646 	9.198947890622248e-12 	101324.9999999919
1.222472472472472 	300.0000000000153 	9.339954373262669e-12 	101324.9999999919
1.224974974974975 	300.0000000000338 	9.630607736182022e-12 	101324.9999999919
1.227477477477477 	299.9999999999889 	8.646926016368158e-12 	101324.999999992
1.229979979979979 	299.9999999999887 	9.947543727834727e-12 	101324.9999999921
1.232482482482482 	299.9999999999482 	8.94403566348585e-12 	101324.9999999919
1.234984984984984 	299.9999999999345 	1.00271887876314e-11 	101324.9999999919
1.237487487487487 	299.9999999999758 	8.793881573056408e-12 	101324.9999999921
1.239989989989989 	299.9999999999893 	9.156581127440762e-12 	101324.9999999921
1.242492492492492 	300.0000000000233 	9.231414796160369e-12 	101324.9999999921
1.244994994994994 	299.9999999999893 	7.909317080127404e-12 	101324.9999999923
1.247497497497497 	299.9999999999972 	8.837957590754619e-12 	101324.9999999924
1.249999999999999 	300.0000000000529 	8.065304519536788e-12 	101324.9999999925
