-1.25 	300.0395459934148 	1.118172388389513 	101372.5528258148
-1.247497497497497 	300.0383737617962 	1.112711195674451 	101370.4180294799
-1.244994994994995 	300.0355784582892 	1.102666660844105 	101367.0387628939
-1.242492492492492 	300.0320433339634 	1.092595064130685 	101362.8864172611
-1.23998998998999 	300.0279438280292 	1.080787393317949 	101358.0388844821
-1.237487487487487 	300.0233322947286 	1.067453075045611 	101352.5862026253
-1.234984984984985 	300.0182926682024 	1.052887280001997 	101346.6274106437
-1.232482482482482 	300.0129168072036 	1.037349956070768 	101340.2714689791
-1.22997997997998 	300.0073031943487 	1.021125088535066 	101333.6347246044
-1.227477477477477 	300.0015544391845 	1.004509602560604 	101326.8384267367
-1.224974974974975 	299.9957763601466 	0.9878089212643675 	101320.0076878598
-1.222472472472472 	299.9900750337583 	0.9713297393839213 	101313.2679662409
-1.21996996996997 	299.9845547348895 	0.9553741510086425 	101306.7425206973
-1.217467467467467 	299.979317309461 	0.9402363087195746 	101300.5517054759
-1.214964964964965 	299.9744596644063 	0.9261961051290868 	101294.8100570054
-1.212462462462462 	299.9700711077589 	0.9135118029734141 	101289.6230519229
-1.20995995995996 	299.9662319586232 	0.9024159942965113 	101285.085562554
-1.207457457457457 	299.9630130892212 	0.8931133522914407 	101281.2812564892
-1.204954954954955 	299.9604741669173 	0.8857760176918215 	101278.2806388833
-1.202452452452452 	299.9586615880602 	0.8805382397509838 	101276.1384942399
-1.19994994994995 	299.957607933798 	0.8774942683562081 	101274.8932553837
-1.197447447447447 	299.9573314986609 	0.876698076073438 	101274.5668387793
-1.194944944944945 	299.9578376312667 	0.8781634895247281 	101275.1650740216
-1.192442442442442 	299.9591173693349 	0.8818630611703954 	101276.6770160864
-1.18993993993994 	299.961145709329 	0.8877267747968446 	101279.0738460745
-1.187437437437437 	299.9638844422619 	0.8956444429339814 	101282.3104896075
-1.184934934934935 	299.9672830519284 	0.9054693406318084 	101286.3270712955
-1.182432432432432 	299.9712791643215 	0.9170210750826839 	101291.0499609253
-1.17992992992993 	299.9757996814951 	0.9300880494919012 	101296.3928209964
-1.177427427427427 	299.9807615121105 	0.9444304817305046 	101302.2575794519
-1.174924924924925 	299.9860738009307 	0.9597857596806378 	101308.5368318393
-1.172422422422422 	299.9916398399591 	0.9758740634505532 	101315.1163071036
-1.16991991991992 	299.9973581825122 	0.9924021901767068 	101321.8761908487
-1.167417417417417 	300.0031241685204 	1.009067872650514 	101328.6927856661
-1.164914914914915 	300.0088323594763 	1.02556626568505 	101335.441320509
-1.162412412412412 	300.0143786669398 	1.041596561504478 	101341.9987498579
-1.15990990990991 	300.0196621400765 	1.056867149215778 	101348.2458029437
-1.157407407407407 	300.024586723294 	1.071100110271877 	101354.0687803315
-1.154904904904904 	300.0290625860403 	1.084035604530265 	101359.3613245626
-1.152402402402403 	300.0330075259376 	1.095436465365239 	101364.0262626264
-1.1498998998999 	300.03634909158 	1.10509358506375 	101367.9778829339
-1.147397397397397 	300.0390264123134 	1.11283075966825 	101371.1440518015
-1.144894894894895 	300.0409908368034 	1.118507207421109 	101373.4672005296
-1.142392392392392 	300.0422063018128 	1.122018928699003 	101374.9047111637
-1.13988988988989 	300.0426505057649 	1.123300349871704 	101375.429807048
-1.137387387387387 	300.0423140451472 	1.122324795435684 	101375.0315180989
-1.134884884884885 	300.0412005268345 	1.119106246679394 	101373.7150833323
-1.132382382382382 	300.0393306102164 	1.113701911031031 	101371.5042245928
-1.12987987987988 	300.0367388993994 	1.106209964991614 	101368.4394053273
-1.127377377377377 	300.0334717568845 	1.096766010173432 	101364.5759600982
-1.124874874874875 	300.0295884528537 	1.08554122732003 	101359.9839931302
-1.122372372372372 	300.0251595978112 	1.072739701899448 	101354.7470886194
-1.11986986986987 	300.0202659104127 	1.05859478409209 	101348.9607623601
-1.117367367367367 	300.014997024881 	1.043365309862728 	101342.7309024361
-1.114864864864865 	300.0094497772257 	1.027331703218974 	101336.1722949305
-1.112362362362362 	300.0037269659453 	1.010790831722356 	101329.4065030388
-1.10985985985986 	299.9979347131862 	0.9940493148762468 	101322.5590163936
-1.107357357357357 	299.9921803134363 	0.9774169948929508 	101315.7565423278
-1.104854854854855 	299.9865702267832 	0.9612016200022064 	101309.1248541833
-1.102352352352353 	299.9812082749285 	0.945703721919176 	101302.7868329139
-1.09984984984985 	299.9761940187669 	0.9312106455493196 	101296.8599782778
-1.097347347347347 	299.9716201215666 	0.9179906443633252 	101291.4538945755
-1.094844844844845 	299.9675710847187 	0.906287753198201 	101286.6683138247
-1.092342342342342 	299.9641212976695 	0.8963169075651591 	101282.5910898991
-1.08983983983984 	299.9613335007328 	0.8882596669062676 	101279.2963712571
-1.087337337337337 	299.9592579157641 	0.8822609619698463 	101276.8433379837
-1.084834834834835 	299.9579310908466 	0.8784269065766568 	101275.2752957313
-1.082332332332332 	299.9573759482425 	0.8768239795022381 	101274.6192981191
-1.07982982982983 	299.9576016571872 	0.8774791801936203 	101274.8863626447
-1.077327327327327 	299.9586045091336 	0.8803784875538443 	101276.071279394
-1.074824824824825 	299.9603642383189 	0.8854645691564857 	101278.1504162497
-1.072322322322323 	299.9628459298264 	0.892639058727944 	101281.0832819253
-1.06981981981982 	299.966003650725 	0.9017675345868925 	101284.8151115547
-1.067317317317317 	299.9697794360694 	0.9126822955374764 	101289.2775252144
-1.064814814814815 	299.9741042034007 	0.9251838392273092 	101294.3890551939
-1.062312312312312 	299.9788991854231 	0.9390439086347042 	101300.0564050929
-1.05980980980981 	299.9840768129881 	0.9540099752187475 	101306.1764094779
-1.057307307307307 	299.9895429996268 	0.9698098186777458 	101312.6377630995
-1.054804804804805 	299.9951985828742 	0.9861567640795321 	101319.3232612609
-1.052302302302302 	300.0009410899684 	1.002754748264814 	101326.1119208006
-1.0497997997998 	300.0066664219798 	1.019302790260378 	101332.8805761739
-1.047297297297297 	300.0122707128654 	1.035500763941889 	101339.5064313186
-1.044794794794795 	300.0176523646169 	1.0510550084861 	101345.869437132
-1.042292292292292 	300.0227135846122 	1.065682756031576 	101351.853804136
-1.03978978978979 	300.0273621731988 	1.079117749365995 	101357.3505051619
-1.037287287287287 	300.0315136078954 	1.091115572584877 	101362.2595746771
-1.034784784784785 	300.0350921071184 	1.101457390822667 	101366.4913221889
-1.032282282282283 	300.0380324132556 	1.10995437858891 	101369.9684098495
-1.02977977977978 	300.040280633783 	1.116450818920398 	101372.6272351656
-1.027277277277277 	300.0417947962474 	1.120825297543888 	101374.4179276787
-1.024774774774775 	300.0425458576398 	1.122994169261436 	101375.3061206439
-1.022272272272272 	300.0425192968344 	1.12291348048492 	101375.2742472255
-1.01976976976977 	300.0417118519761 	1.120578034470724 	101374.3194788821
-1.017267267267267 	300.0401365073514 	1.116025349471997 	101372.4570857978
-1.014764764764765 	300.0378228468503 	1.109337100172769 	101369.7211746744
-1.012262262262262 	300.0348117862451 	1.100632500671747 	101366.1604799364
-1.00975975975976 	300.0311562978449 	1.090066218009503 	101361.8378866814
-1.007257257257257 	300.0269230467156 	1.077830219672696 	101356.8321854911
-1.004754754754755 	300.0221897612097 	1.064148696841769 	101351.2354597255
-1.002252252252252 	300.0170427287917 	1.04927181375527 	101345.1496798479
-0.9997497497497498 	300.0115772387928 	1.03347528536207 	101338.6876767941
-0.9972472472472473 	300.0058961712829 	1.017054957927039 	101331.9711263072
-0.9947447447447449 	300.0001048849123 	1.000315674437719 	101325.1244742956
-0.9922422422422421 	299.9943104081686 	0.983568599839002 	101318.2744859536
-0.9897397397397399 	299.9886227838554 	0.9671298481098807 	101311.5510963083
-0.9872372372372376 	299.9831489500661 	0.9513076888916404 	101305.0806610247
-0.9847347347347346 	299.9779889613758 	0.9363938382580811 	101298.9815515408
-0.9822322322322323 	299.9732391918065 	0.9226662389459526 	101293.367477823
-0.9797297297297296 	299.9689893343598 	0.9103820380419766 	101288.3445139704
-0.9772272272272275 	299.9653156527078 	0.8997629096196061 	101284.0026498742
-0.9747247247247248 	299.9622826185281 	0.8909976309783449 	101280.4180137679
-0.9722222222222224 	299.9599472311035 	0.8842486090032565 	101277.6579794849
-0.9697197197197196 	299.9583522923432 	0.8796373657783638 	101275.7730262233
-0.9672172172172175 	299.9575208351069 	0.8772344083224086 	101274.7904209261
-0.9647147147147147 	299.9574645074339 	0.8770762609375459 	101274.7242021904
-0.9622122122122124 	299.9581889549875 	0.8791714968080919 	101275.5802996033
-0.9597097097097099 	299.9596794642495 	0.8834765333474596 	101277.3412711967
-0.9572072072072073 	299.9618993177676 	0.8898937628024635 	101279.964516151
-0.9547047047047047 	299.9648071596893 	0.8983033886654939 	101283.401102343
-0.9522022022022023 	299.9683572211016 	0.908564967642108 	101287.5966372291
-0.9496996996996998 	299.972482573009 	0.9204861703688448 	101292.4724066509
-0.9471971971971973 	299.9770987170517 	0.9338305534977361 	101297.9283865963
-0.9446946946946947 	299.9821241381412 	0.9483617374948858 	101303.8682932595
-0.9421921921921923 	299.9874795948892 	0.9638412018406882 	101310.1987235934
-0.93968968968969 	299.9930665420349 	0.9799840230517538 	101316.8029892651
-0.9371871871871872 	299.9987698588 	0.996469352895632 	101323.5451389077
-0.9346846846846848 	300.0044879108935 	1.013004093579314 	101330.3051488787
-0.9321821821821823 	300.0101351555955 	1.029326926440825 	101336.9816603772
-0.9296796796796799 	300.0156105523353 	1.045143645757358 	101343.455324034
-0.9271771771771771 	300.0207941783443 	1.060123210201838 	101349.5844031911
-0.9246746746746748 	300.0255868917239 	1.073984671948559 	101355.2513777613
-0.9221721721721724 	300.0299258818954 	1.0865306777115 	101360.3821799823
-0.9196696696696698 	300.0337462040288 	1.097561273329782 	101364.8998154205
-0.9171671671671672 	300.0369530537143 	1.106817712087386 	101368.6920290272
-0.9146646646646649 	300.0394614579223 	1.114074387155655 	101371.658578312
-0.9121621621621623 	300.0412452471693 	1.11924392142346 	101373.7680519697
-0.9096596596596597 	300.0423091459891 	1.122314137276443 	101375.0262773401
-0.9071571571571573 	300.0426247979418 	1.123202515361409 	101375.3992917172
-0.9046546546546547 	300.0421324543893 	1.121768550791972 	101374.8166670358
-0.9021521521521524 	300.0408198994824 	1.11799518669303 	101373.2650441521
-0.8996496496496498 	300.0387620518702 	1.112066771889867 	101370.8318490567
-0.8971471471471473 	300.0360444892353 	1.104198379746057 	101367.6181895697
-0.894644644644645 	300.0326835158477 	1.094451850566829 	101363.643851601
-0.892142142142142 	300.0286617425064 	1.082820320204097 	101358.8881435227
-0.8896396396396397 	300.0240375504222 	1.069486203605525 	101353.4202765034
-0.8871371371371374 	300.0189769325285 	1.054889539057498 	101347.4366711085
-0.8846346346346349 	300.0136496076418 	1.039477668828572 	101341.1378404449
-0.8821321321321324 	300.0081181812134 	1.023444926620887 	101334.5980750685
-0.8796296296296297 	300.0023711802102 	1.006814191458395 	101327.8037514339
-0.8771271271271271 	299.9964659789378 	0.9897810747098095 	101320.8226447215
-0.8746246246246248 	299.9906029423095 	0.9728885029064366 	101313.8918105439
-0.8721221221221224 	299.9850279614904 	0.9567836882281898 	101307.3017253555
-0.8696196196196196 	299.9798662222509 	0.9418129719119362 	101301.2003702289
-0.8671171171171175 	299.9750808420624 	0.9279234164741623 	101295.5442417163
-0.8646146146146148 	299.9706113697264 	0.9150051283559033 	101290.2615493093
-0.8621121121121121 	299.9665420830098 	0.9033081402833433 	101285.4521071013
-0.8596096096096097 	299.96311487437 	0.8934684373774935 	101281.4016235945
-0.857107107107107 	299.9605611135158 	0.8860857426277948 	101278.3834124179
-0.8546046046046049 	299.9589196143446 	0.8812677022741824 	101276.4434740649
-0.8521021021021022 	299.9580251902788 	0.8786028497767606 	101275.3863913747
-0.8495995995995997 	299.9576844225094 	0.877608379714757 	101274.9837028653
-0.8470970970970974 	299.9578761735391 	0.8782389959890139 	101275.2107526498
-0.8445945945945946 	299.9587909337826 	0.8809814955262811 	101276.2915687477
-0.8420920920920922 	299.9606651875438 	0.8864375372712073 	101278.5061245505
-0.8395895895895897 	299.9635611141152 	0.8947521671768448 	101281.9284328403
-0.8370870870870872 	299.9672734055562 	0.9053718329358936 	101286.3156855152
-0.8345845845845846 	299.9714398952441 	0.9173347585731344 	101291.2400590976
-0.8320820820820823 	299.9757715577439 	0.9298674262484052 	101296.359755534
-0.8295795795795798 	299.9802215380291 	0.9428294650254802 	101301.6194533754
-0.8270770770770772 	299.9849725519895 	0.9566833121078824 	101307.2352798498
-0.8245745745745746 	299.9902587788721 	0.9720251887584106 	101313.4838489324
-0.8220720720720721 	299.9961486765135 	0.9890120683086612 	101320.4464083657
-0.8195695695695699 	300.0024347042566 	1.007065611509871 	101327.8776826657
-0.817067067067067 	300.0086944470175 	1.025032091163639 	101335.2782178713
-0.8145645645645651 	300.0144777895185 	1.041681910562697 	101342.1160428559
-0.8120620620620621 	300.0195053724946 	1.056242771050546 	101348.0605083864
-0.8095595595595597 	300.0237685939206 	1.068674812223281 	101353.1013893309
-0.8070570570570572 	300.0274889068519 	1.079564038213514 	101357.5005655299
-0.8045545545545546 	300.0309679715531 	1.089718078460669 	101361.6144399554
-0.8020520520520523 	300.0344103603463 	1.099686294931731 	101365.6851371623
-0.7995495495495494 	300.0378056974045 	1.109432673521039 	101369.7003370399
-0.7970470470470474 	300.0409122496376 	1.118285723388662 	101373.3740800923
-0.7945445445445446 	300.0433355161221 	1.125151176398666 	101376.2400272225
-0.7920420420420423 	300.0446601742517 	1.128872441120747 	101377.8065196814
-0.7895395395395397 	300.0445797796505 	1.128590665506036 	101377.7102733782
-0.7870370370370371 	300.0429786549447 	1.123991012394917 	101375.8173010692
-0.7845345345345348 	300.0399693123767 	1.115382422751225 	101372.2594361476
-0.7820320320320323 	300.0358519149228 	1.103602624116576 	101367.3906148904
-0.7795295295295296 	300.0310349997758 	1.089805216907025 	101361.6945448397
-0.7770270270270272 	300.0259519598814 	1.075219599762065 	101355.6839887435
-0.7745245245245247 	300.0209885857165 	1.060946835172995 	101349.8151510147
-0.7720220220220222 	300.0164373605771 	1.047828489980621 	101344.4338412628
-0.7695195195195199 	300.0124811728755 	1.036396795737765 	101339.7562446577
-0.767017017017017 	300.0091997783783 	1.026890174705472 	101335.8765933164
-0.7645145145145147 	300.0065902565397 	1.019309563595852 	101332.7913750121
-0.7620120120120122 	300.0045931588683 	1.013491867770706 	101330.4302596311
-0.7595095095095097 	300.003117889643 	1.009182075658072 	101328.6861085578
-0.7570070070070072 	300.0020633809405 	1.006092588349811 	101327.4394155264
-0.7545045045045048 	300.0013325069466 	1.003945044634472 	101326.5753439286
-0.7520020020020022 	300.0008404381181 	1.002494950896228 	101325.9936000202
-0.7494994994994997 	300.0005181276497 	1.001542331040932 	101325.6125518224
-0.7469969969969972 	300.0003124541499 	1.000932653047883 	101325.3693964844
-0.7444944944944945 	300.0001844399549 	1.000552062792086 	101325.2180529816
-0.7419919919919924 	300.0001066406377 	1.000320081799878 	101325.1260753957
-0.7394894894894897 	300.000060429626 	1.000181885109041 	101325.0714427848
-0.7369869869869872 	300.0000335799814 	1.000101353683115 	101325.0396999256
-0.7344844844844846 	300.0000183080631 	1.000055413479534 	101325.0216447431
-0.7319819819819822 	300.0000097983025 	1.000029739823958 	101325.0115840612
-0.7294794794794797 	300.0000051499973 	1.00001567505356 	101325.0060885874
-0.7269769769769773 	300.0000026595074 	1.000008117406636 	101325.003144197
-0.7244744744744747 	300.0000013499298 	1.00000413183355 	101325.0015959533
-0.721971971971972 	300.0000006737417 	1.000002068022326 	101325.0007965595
-0.7194694694694695 	300.0000003307691 	1.000001018158533 	101325.0003910796
-0.7169669669669674 	300.0000001597712 	1.000000493260349 	101325.0001889358
-0.7144644644644647 	300.0000000759878 	1.000000235225542 	101325.0000898483
-0.711961961961962 	300.0000000355988 	1.000000110453687 	101325.0000420709
-0.7094594594594597 	300.0000000164223 	1.000000051089056 	101325.000019402
-0.7069569569569573 	300.0000000074537 	1.00000002327773 	101325.0000088149
-0.7044544544544545 	300.0000000033434 	1.00000001045392 	101325.0000039461
-0.7019519519519523 	300.0000000014833 	1.000000004630645 	101325.0000017406
-0.6994494494494495 	300.0000000006148 	1.000000002023073 	101325.0000007558
-0.6969469469469471 	300.0000000002534 	1.000000000871816 	101325.0000003221
-0.6944444444444446 	300.00000000011 	1.000000000370413 	101325.000000134
-0.6919419419419421 	300.0000000000642 	1.000000000155233 	101325.0000000537
-0.6894394394394396 	300.0000000000054 	1.000000000064917 	101325.0000000195
-0.6869369369369374 	299.9999999999964 	1.000000000027114 	101325.0000000056
-0.6844344344344344 	299.9999999999974 	1.00000000001038 	101324.9999999998
-0.6819319319319321 	299.9999999999671 	1.000000000003613 	101324.9999999969
-0.6794294294294296 	299.9999999999686 	1.000000000001523 	101324.9999999956
-0.6769269269269272 	299.999999999954 	1.000000000000733 	101324.9999999953
-0.6744244244244245 	299.9999999999795 	1.000000000000142 	101324.9999999956
-0.6719219219219222 	299.9999999999538 	1.000000000000052 	101324.9999999952
-0.6694194194194195 	299.9999999999851 	0.9999999999999503 	101324.999999995
-0.6669169169169172 	300.0000000000031 	0.9999999999997202 	101324.9999999949
-0.6644144144144146 	299.9999999999977 	0.9999999999995633 	101324.9999999954
-0.661911911911912 	299.9999999999937 	0.9999999999992748 	101324.9999999955
-0.6594094094094097 	299.9999999999773 	0.999999999999244 	101324.9999999951
-0.656906906906907 	299.9999999999676 	0.9999999999994222 	101324.9999999948
-0.6544044044044046 	299.9999999999432 	0.9999999999997545 	101324.999999995
-0.6519019019019021 	299.9999999999523 	0.9999999999999465 	101324.9999999952
-0.6493993993993996 	299.9999999999955 	0.9999999999991569 	101324.9999999953
-0.6468968968968971 	300.0000000000092 	1.000000000006536 	101324.9999999954
-0.6443943943943946 	300.0000000000155 	0.999999999995311 	101324.9999999951
-0.6418918918918921 	300.0000000000208 	0.9999999999939932 	101324.9999999947
-0.6393893893893897 	300.0000000000221 	0.9999999999983583 	101324.9999999944
-0.6368868868868871 	300.0000000000203 	1.000000000000084 	101324.9999999948
-0.6343843843843846 	300.0000000000178 	1.000000000000297 	101324.9999999955
-0.6318818818818821 	299.9999999999823 	0.9999999999999598 	101324.999999996
-0.6293793793793795 	299.9999999999899 	0.9999999999993346 	101324.9999999958
-0.6268768768768773 	299.9999999999958 	0.9999999999986328 	101324.9999999954
-0.6243743743743745 	299.9999999999661 	1.000000000002461 	101324.9999999948
-0.6218718718718721 	299.999999999975 	0.9999999999972607 	101324.9999999948
-0.6193693693693696 	299.9999999999619 	0.9999999999976031 	101324.9999999946
-0.6168668668668671 	299.9999999999882 	1.000000000000434 	101324.9999999947
-0.6143643643643645 	300.0000000000036 	1.000000000001209 	101324.999999995
-0.6118618618618621 	300.0000000000155 	1.000000000000726 	101324.9999999951
-0.6093593593593596 	300.0000000000255 	1.000000000000592 	101324.9999999948
-0.6068568568568571 	299.9999999999861 	1.000000000000791 	101324.999999995
-0.6043543543543546 	299.9999999999742 	1.000000000000711 	101324.9999999948
-0.6018518518518521 	299.9999999999617 	1.000000000000779 	101324.9999999945
-0.5993493493493496 	299.9999999999793 	1.000000000000288 	101324.9999999943
-0.5968468468468471 	299.9999999999887 	1.000000000000058 	101324.9999999944
-0.5943443443443446 	299.9999999999889 	0.9999999999998892 	101324.9999999943
-0.591841841841842 	299.9999999999563 	0.9999999999996447 	101324.9999999942
-0.5893393393393397 	299.9999999999575 	0.9999999999996964 	101324.9999999944
-0.5868368368368371 	299.9999999999841 	0.9999999999989453 	101324.9999999945
-0.5843343343343346 	300.0000000000187 	1.000000000006782 	101324.9999999946
-0.5818318318318321 	300.0000000000265 	0.9999999999955271 	101324.9999999945
-0.5793293293293297 	299.999999999983 	0.9999999999962619 	101324.9999999943
-0.5768268268268271 	299.9999999999872 	1.00000000000095 	101324.9999999941
-0.5743243243243245 	299.999999999998 	1.000000000002471 	101324.9999999937
-0.5718218218218221 	299.9999999999937 	1.000000000001837 	101324.9999999939
-0.5693193193193196 	300.000000000014 	1.000000000000827 	101324.9999999944
-0.5668168168168171 	300.0000000000093 	1.000000000001075 	101324.9999999949
-0.5643143143143147 	299.9999999999577 	1.000000000001274 	101324.999999995
-0.5618118118118121 	299.9999999999865 	1.00000000000586 	101324.9999999947
-0.5593093093093094 	300.0000000000057 	1.000000000000129 	101324.9999999944
-0.5568068068068072 	300.0000000000026 	0.9999999999993 	101324.9999999944
-0.5543043043043046 	300.0000000000018 	0.9999999999998888 	101324.9999999944
-0.551801801801802 	299.9999999999601 	0.9999999999987279 	101324.9999999945
-0.5492992992992995 	299.99999999998 	0.999999999998555 	101324.9999999945
-0.5467967967967969 	300.0000000000026 	0.9999999999991134 	101324.9999999943
-0.5442942942942947 	300.0000000000139 	1.00000000000012 	101324.999999994
-0.5417917917917919 	299.9999999999618 	1.000000000001079 	101324.9999999937
-0.5392892892892895 	299.9999999999561 	1.000000000001524 	101324.9999999936
-0.536786786786787 	299.9999999999595 	1.000000000001393 	101324.9999999934
-0.5342842842842846 	299.9999999999563 	1.000000000000973 	101324.9999999927
-0.531781781781782 	299.9999999999322 	1.000000000000157 	101324.9999999931
-0.5292792792792794 	299.9999999999376 	0.9999999999998512 	101324.9999999935
-0.526776776776777 	299.9999999999503 	1.000000000000156 	101324.9999999936
-0.5242742742742745 	299.9999999999619 	1.000000000000962 	101324.9999999937
-0.521771771771772 	299.9999999999857 	1.000000000009756 	101324.9999999936
-0.5192692692692695 	299.9999999999853 	0.9999999999969041 	101324.9999999939
-0.516766766766767 	299.9999999999944 	1.000000000002392 	101324.9999999937
-0.5142642642642645 	299.9999999999585 	1.000000000000076 	101324.9999999935
-0.511761761761762 	299.9999999999764 	1.000000000004634 	101324.9999999935
-0.5092592592592596 	300.0000000000016 	0.9999999999997037 	101324.9999999933
-0.506756756756757 	299.9999999999794 	0.9999999999997656 	101324.9999999932
-0.5042542542542544 	300.0000000000046 	1.000000000001781 	101324.9999999935
-0.5017517517517521 	300.0000000000197 	1.00000000000192 	101324.999999994
-0.4992492492492494 	300.0000000000166 	1.000000000000932 	101324.999999994
-0.496746746746747 	300.0000000000045 	1.00000000000144 	101324.9999999938
-0.4942442442442445 	299.9999999999588 	1.000000000002336 	101324.9999999935
-0.4917417417417421 	299.9999999999536 	1.000000000002796 	101324.999999994
-0.4892392392392395 	299.9999999999523 	1.000000000002606 	101324.9999999944
-0.486736736736737 	299.9999999999692 	1.00000000000221 	101324.9999999951
-0.4842342342342345 	299.9999999999658 	1.000000000002003 	101324.9999999951
-0.481731731731732 	300.0000000000117 	1.000000000002926 	101324.9999999944
-0.4792292292292296 	300.0000000000232 	1.000000000002476 	101324.9999999942
-0.4767267267267268 	299.9999999999724 	1.000000000010194 	101324.999999994
-0.4742242242242246 	299.9999999999785 	0.9999999999971121 	101324.9999999938
-0.471721721721722 	299.9999999999524 	0.9999999999980486 	101324.9999999936
-0.4692192192192195 	299.9999999999599 	1.000000000001917 	101324.9999999938
-0.4667167167167169 	299.9999999999496 	1.000000000002262 	101324.9999999942
-0.4642142142142145 	299.9999999999981 	1.000000000002165 	101324.9999999939
-0.461711711711712 	300.0000000000106 	1.000000000003004 	101324.999999994
-0.4592092092092094 	299.9999999999974 	1.000000000002769 	101324.9999999938
-0.456706706706707 	300.0000000000219 	1.000000000002123 	101324.9999999936
-0.4542042042042045 	299.9999999999783 	1.000000000001579 	101324.9999999937
-0.451701701701702 	299.9999999999771 	1.000000000001887 	101324.999999994
-0.4491991991991995 	299.99999999996 	1.000000000002708 	101324.9999999939
-0.4466966966966969 	299.9999999999561 	1.000000000002921 	101324.9999999939
-0.4441941941941945 	299.9999999999723 	1.000000000002114 	101324.9999999937
-0.441691691691692 	299.9999999999498 	1.000000000001505 	101324.9999999937
-0.4391891891891895 	299.9999999999741 	1.000000000000584 	101324.9999999934
-0.436686686686687 	299.9999999999681 	1.000000000009405 	101324.9999999929
-0.4341841841841846 	299.9999999999746 	0.9999999999955973 	101324.9999999929
-0.431681681681682 	299.9999999999674 	0.999999999996373 	101324.9999999931
-0.4291791791791794 	299.9999999999625 	1.000000000000471 	101324.9999999932
-0.426676676676677 	299.9999999999417 	1.000000000000367 	101324.9999999933
-0.4241741741741744 	299.9999999999657 	0.9999999999996676 	101324.9999999937
-0.421671671671672 	300.0000000000036 	1.000000000000162 	101324.9999999938
-0.4191691691691694 	300.0000000000115 	1.000000000000939 	101324.9999999934
-0.4166666666666669 	300.0000000000195 	1.000000000000745 	101324.9999999936
-0.4141641641641645 	299.9999999999756 	1.000000000000939 	101324.999999994
-0.411661661661662 	299.9999999999861 	1.000000000001941 	101324.9999999938
-0.4091591591591594 	299.9999999999872 	1.000000000002811 	101324.9999999934
-0.406656656656657 	299.999999999952 	1.000000000002885 	101324.9999999933
-0.4041541541541545 	299.9999999999909 	1.000000000003542 	101324.9999999935
-0.401651651651652 	299.9999999999615 	1.000000000003278 	101324.9999999931
-0.3991491491491494 	299.9999999999839 	1.000000000001903 	101324.9999999929
-0.396646646646647 	299.9999999999766 	1.000000000009726 	101324.9999999932
-0.3941441441441444 	300.0000000000027 	0.9999999999952551 	101324.9999999936
-0.3916416416416419 	299.9999999999768 	0.9999999999973601 	101324.9999999936
-0.3891391391391395 	299.9999999999775 	1.000000000002 	101324.999999993
-0.3866366366366368 	299.999999999991 	1.000000000002787 	101324.9999999927
-0.3841341341341344 	299.9999999999978 	1.000000000002406 	101324.9999999931
-0.381631631631632 	299.999999999957 	1.00000000000164 	101324.9999999934
-0.3791291291291294 	299.9999999999821 	1.000000000001019 	101324.9999999932
-0.3766266266266269 	299.9999999999895 	1.000000000000851 	101324.999999993
-0.3741241241241244 	300.0000000000138 	1.000000000001365 	101324.9999999933
-0.371621621621622 	300.0000000000045 	1.000000000001534 	101324.9999999935
-0.3691191191191194 	300.0000000000167 	1.000000000010407 	101324.9999999937
-0.366616616616617 	300.0000000000119 	0.9999999999958256 	101324.9999999936
-0.3641141141141143 	299.9999999999667 	0.9999999999981418 	101324.9999999938
-0.3616116116116119 	299.9999999999724 	1.000000000002357 	101324.9999999933
-0.3591091091091095 	299.9999999999977 	1.000000000002437 	101324.9999999933
-0.356606606606607 	299.9999999999811 	1.000000000002755 	101324.9999999931
-0.3541041041041044 	299.9999999999999 	1.000000000003705 	101324.9999999936
-0.3516016016016019 	300.0000000000118 	1.000000000002951 	101324.9999999944
-0.3490990990990994 	300.0000000000127 	1.000000000002337 	101324.9999999943
-0.346596596596597 	300.0000000000232 	1.00000000000679 	101324.9999999941
-0.3440940940940944 	300.0000000000246 	0.9999999999998225 	101324.999999994
-0.3415915915915919 	300.0000000000168 	1.000000000000758 	101324.9999999938
-0.3390890890890895 	299.9999999999822 	1.000000000002453 	101324.9999999939
-0.3365865865865869 	299.9999999999992 	1.00000000000178 	101324.9999999939
-0.3340840840840844 	299.9999999999944 	1.00000000000161 	101324.9999999936
-0.3315815815815819 	300.0000000000144 	1.000000000002107 	101324.9999999933
-0.3290790790790794 	300.000000000018 	1.000000000003008 	101324.999999993
-0.3265765765765769 	299.9999999999632 	1.000000000004098 	101324.999999993
-0.3240740740740744 	299.9999999999921 	1.000000000004319 	101324.9999999932
-0.3215715715715718 	300.0000000000017 	1.000000000003636 	101324.9999999935
-0.3190690690690695 	299.9999999999639 	1.000000000004183 	101324.9999999937
-0.3165665665665668 	299.9999999999905 	1.000000000004717 	101324.9999999931
-0.3140640640640644 	300.000000000001 	1.000000000004185 	101324.9999999926
-0.311561561561562 	299.999999999965 	1.000000000003613 	101324.9999999928
-0.3090590590590593 	299.9999999999941 	1.000000000002964 	101324.9999999932
-0.3065565565565568 	300.0000000000001 	1.000000000013225 	101324.9999999929
-0.3040540540540545 	299.9999999999936 	0.999999999998322 	101324.9999999932
-0.3015515515515518 	300.0000000000066 	1.000000000000043 	101324.9999999935
-0.2990490490490494 	299.999999999969 	1.000000000003989 	101324.9999999933
-0.2965465465465469 	299.9999999999894 	1.000000000004334 	101324.999999993
-0.2940440440440444 	300.0000000000074 	1.000000000005654 	101324.999999993
-0.2915415415415418 	300.0000000000119 	1.000000000006945 	101324.9999999933
-0.2890390390390395 	300.0000000000089 	1.000000000006139 	101324.999999993
-0.2865365365365368 	299.9999999999861 	1.000000000004535 	101324.9999999929
-0.2840340340340343 	299.9999999999912 	1.000000000007958 	101324.9999999925
-0.2815315315315318 	299.9999999999773 	1.000000000000548 	101324.9999999928
-0.2790290290290295 	299.9999999999617 	1.000000000003279 	101324.9999999932
-0.2765265265265269 	299.9999999999936 	1.000000000006377 	101324.9999999936
-0.2740240240240244 	300.0000000000236 	1.0000000000073 	101324.9999999933
-0.2715215215215219 	300.000000000026 	1.000000000007934 	101324.9999999932
-0.2690190190190194 	299.9999999999703 	1.000000000007581 	101324.9999999932
-0.2665165165165169 	299.9999999999874 	1.000000000006452 	101324.9999999933
-0.2640140140140144 	299.9999999999786 	1.00000000000586 	101324.9999999928
-0.2615115115115119 	299.9999999999968 	1.000000000010727 	101324.9999999934
-0.2590090090090094 	299.9999999999545 	1.000000000003681 	101324.9999999933
-0.2565065065065068 	299.9999999999872 	1.000000000004924 	101324.9999999934
-0.2540040040040044 	300.0000000000009 	1.000000000005825 	101324.9999999936
-0.2515015015015019 	300.0000000000229 	1.000000000005527 	101324.9999999934
-0.2489989989989994 	300.0000000000292 	1.000000000006382 	101324.9999999932
-0.2464964964964968 	299.9999999999952 	1.000000000007253 	101324.9999999933
-0.2439939939939944 	299.9999999999971 	1.000000000012115 	101324.9999999936
-0.2414914914914919 	299.9999999999755 	1.000000000003455 	101324.9999999941
-0.2389889889889893 	299.9999999999855 	1.000000000004297 	101324.9999999934
-0.2364864864864869 	300.0000000000136 	1.000000000005195 	101324.9999999929
-0.2339839839839843 	299.9999999999682 	1.000000000009748 	101324.999999993
-0.2314814814814819 	299.9999999999798 	1.000000000002023 	101324.9999999928
-0.2289789789789792 	299.9999999999467 	1.000000000004097 	101324.9999999933
-0.2264764764764769 	299.9999999999564 	1.000000000006796 	101324.9999999941
-0.2239739739739743 	299.9999999999715 	1.000000000007599 	101324.9999999943
-0.2214714714714718 	299.9999999999501 	1.000000000007294 	101324.9999999945
-0.2189689689689693 	299.9999999999656 	1.000000000006077 	101324.999999994
-0.2164664664664669 	299.9999999999845 	1.000000000009939 	101324.9999999938
-0.2139639639639643 	299.9999999999538 	1.000000000000899 	101324.9999999936
-0.2114614614614618 	299.9999999999708 	1.000000000002783 	101324.9999999939
-0.2089589589589593 	299.999999999996 	1.000000000005343 	101324.9999999944
-0.2064564564564568 	299.9999999999969 	1.000000000007264 	101324.999999994
-0.2039539539539543 	299.9999999999434 	1.000000000008088 	101324.999999993
-0.2014514514514518 	299.9999999999521 	1.000000000007002 	101324.9999999928
-0.1989489489489494 	299.9999999999731 	1.000000000009856 	101324.9999999931
-0.1964464464464468 	299.999999999996 	1.000000000000469 	101324.999999993
-0.1939439439439443 	299.9999999999956 	1.000000000002215 	101324.9999999933
-0.1914414414414418 	299.9999999999557 	1.000000000003742 	101324.9999999929
-0.1889389389389393 	299.9999999999881 	1.000000000004405 	101324.999999993
-0.1864364364364368 	300.0000000000221 	1.000000000005176 	101324.9999999935
-0.1839339339339343 	299.9999999999886 	1.0000000000058 	101324.9999999932
-0.1814314314314318 	299.9999999999916 	1.000000000005108 	101324.9999999936
-0.1789289289289293 	299.9999999999417 	1.000000000005753 	101324.9999999939
-0.1764264264264268 	299.9999999999662 	1.000000000005407 	101324.9999999937
-0.1739239239239243 	299.9999999999361 	1.000000000004341 	101324.9999999935
-0.1714214214214218 	299.9999999999802 	1.000000000003759 	101324.9999999936
-0.1689189189189193 	299.9999999999611 	1.000000000003474 	101324.9999999933
-0.1664164164164168 	299.9999999999932 	1.000000000003474 	101324.9999999932
-0.1639139139139143 	299.9999999999998 	1.000000000005156 	101324.9999999928
-0.1614114114114118 	300.0000000000149 	1.000000000006012 	101324.9999999928
-0.1589089089089093 	300.0000000000046 	1.000000000015476 	101324.9999999933
-0.1564064064064068 	299.9999999999899 	0.9999999999979855 	101324.9999999937
-0.1539039039039043 	299.9999999999911 	1.000000000006085 	101324.9999999934
-0.1514014014014018 	300.0000000000094 	1.000000000000577 	101324.9999999935
-0.1488988988988993 	299.9999999999927 	1.000000000006056 	101324.9999999935
-0.1463963963963968 	299.9999999999974 	0.9999999999991112 	101324.9999999936
-0.1438938938938943 	299.9999999999653 	1.000000000001547 	101324.9999999937
-0.1413913913913918 	299.9999999999579 	1.000000000003102 	101324.9999999936
-0.1388888888888893 	299.9999999999759 	1.000000000003452 	101324.9999999933
-0.1363863863863868 	299.9999999999444 	1.000000000004158 	101324.9999999934
-0.1338838838838843 	299.99999999993 	1.000000000003684 	101324.9999999928
-0.1313813813813818 	299.9999999999824 	1.000000000002512 	101324.9999999933
-0.1288788788788793 	299.9999999999637 	1.000000000001186 	101324.9999999936
-0.1263763763763768 	299.9999999999797 	1.000000000001342 	101324.999999994
-0.1238738738738743 	299.9999999999582 	1.000000000002056 	101324.9999999939
-0.1213713713713717 	299.9999999999779 	1.000000000003032 	101324.9999999939
-0.1188688688688693 	300.0000000000067 	1.000000000003439 	101324.9999999934
-0.1163663663663668 	299.9999999999447 	1.000000000002777 	101324.9999999934
-0.1138638638638643 	299.9999999999808 	1.00000000000683 	101324.9999999941
-0.1113613613613618 	299.9999999999878 	0.9999999999981297 	101324.9999999944
-0.1088588588588592 	299.9999999999865 	1.000000000005477 	101324.999999994
-0.1063563563563568 	299.9999999999754 	0.9999999999992362 	101324.9999999937
-0.1038538538538543 	299.9999999999833 	1.000000000001791 	101324.9999999934
-0.1013513513513517 	300.0000000000051 	1.000000000003302 	101324.9999999932
-0.09884884884884926 	299.9999999999786 	1.000000000003091 	101324.9999999932
-0.09634634634634676 	299.9999999999435 	1.000000000003666 	101324.9999999938
-0.09384384384384425 	299.9999999999261 	1.000000000003659 	101324.9999999937
-0.09134134134134177 	299.999999999998 	1.000000000003319 	101324.9999999939
-0.08883883883883925 	300.0000000000041 	1.000000000002345 	101324.9999999939
-0.08633633633633674 	299.9999999999648 	1.000000000002739 	101324.9999999934
-0.08383383383383426 	299.9999999999953 	1.000000000003774 	101324.9999999933
-0.08133133133133173 	299.9999999999845 	1.000000000003678 	101324.9999999938
-0.07882882882882926 	299.9999999999372 	1.000000000003192 	101324.9999999936
-0.07632632632632676 	299.9999999999654 	1.000000000003232 	101324.9999999936
-0.07382382382382424 	299.999999999933 	1.000000000002333 	101324.9999999931
-0.07132132132132173 	299.9999999999803 	1.000000000001187 	101324.9999999933
-0.06881881881881925 	299.999999999965 	1.000000000000506 	101324.9999999934
-0.06631631631631671 	299.9999999999293 	1.000000000000028 	101324.9999999928
-0.06381381381381425 	299.9999999999598 	0.999999999999313 	101324.9999999933
-0.06131131131131173 	299.9999999999645 	0.9999999999999536 	101324.9999999934
-0.05880880880880923 	299.9999999999673 	1.000000000000064 	101324.9999999929
-0.05630630630630672 	299.999999999966 	1.000000000000282 	101324.9999999932
-0.05380380380380424 	300.0000000000174 	1.000000000000729 	101324.9999999939
-0.05130130130130173 	300.0000000000035 	1.000000000000673 	101324.9999999936
-0.04879879879879922 	299.9999999999383 	0.9999999999999937 	101324.999999994
-0.04629629629629672 	299.9999999999453 	1.000000000000476 	101324.9999999938
-0.04379379379379422 	299.9999999999523 	1.000000000000789 	101324.9999999933
-0.04129129129129173 	299.9999999999602 	0.9999999999999566 	101324.9999999937
-0.03878878878878922 	300.0000000000006 	0.999999999999477 	101324.9999999937
-0.03628628628628671 	299.9999999999838 	0.9999999999988125 	101324.9999999937
-0.03378378378378422 	299.999999999944 	0.9999999999992859 	101324.9999999933
-0.03128128128128172 	299.9999999999651 	1.000000000000037 	101324.9999999935
-0.02877877877877922 	299.9999999999974 	1.000000000000143 	101324.9999999936
-0.0262762762762767 	299.9999999999354 	0.9999999999997945 	101324.9999999936
-0.02377377377377422 	299.9999999999777 	0.999999999999908 	101324.9999999936
-0.0212712712712717 	299.9999999999296 	1.000000000000361 	101324.9999999935
-0.01876876876876921 	299.9999999999766 	1.000000000000139 	101324.9999999936
-0.01626626626626671 	299.9999999999913 	0.9999999999999565 	101324.999999994
-0.0137637637637642 	299.999999999962 	0.999999999999877 	101324.9999999937
-0.0112612612612617 	299.9999999999839 	0.9999999999998118 	101324.9999999929
-0.008758758758759198 	299.9999999999791 	1.000000000000481 	101324.9999999939
-0.006256256256256697 	299.9999999999516 	0.9999999999992284 	101324.9999999931
-0.003753753753754195 	299.9999999999529 	0.9999999999981769 	101324.9999999933
-0.001251251251251693 	299.9999999999537 	0.9999999999979287 	101324.9999999931
0.00125125125125081 	299.9999999999407 	0.9999999999977348 	101324.9999999928
0.003753753753753312 	299.9999999999463 	0.9999999999986112 	101324.9999999929
0.006256256256255817 	299.9999999999413 	0.9999999999991315 	101324.999999993
0.008758758758758317 	299.9999999999528 	0.999999999998693 	101324.9999999933
0.01126126126126082 	299.9999999999742 	0.999999999997894 	101324.9999999936
0.01376376376376332 	299.9999999999613 	0.9999999999974811 	101324.9999999938
0.01626626626626582 	299.9999999999857 	0.9999999999969783 	101324.9999999938
0.01876876876876833 	299.9999999999854 	0.9999999999978946 	101324.9999999938
0.02127127127127083 	299.9999999999469 	0.9999999999996183 	101324.9999999942
0.02377377377377332 	299.9999999999855 	1.000000000000401 	101324.9999999942
0.02627627627627583 	299.9999999999441 	1.000000000000087 	101324.9999999934
0.02877877877877833 	299.9999999999749 	0.9999999999998864 	101324.999999993
0.03128128128128083 	299.999999999976 	0.9999999999989545 	101324.9999999933
0.03378378378378333 	299.9999999999447 	0.9999999999981282 	101324.9999999937
0.03628628628628584 	299.9999999999641 	0.9999999999972179 	101324.9999999941
0.03878878878878834 	299.9999999999972 	0.9999999999978512 	101324.9999999941
0.04129129129129084 	299.999999999958 	0.9999999999988959 	101324.9999999941
0.04379379379379333 	299.9999999999626 	0.9999999999989569 	101324.9999999939
0.04629629629629585 	299.9999999999521 	0.9999999999974261 	101324.9999999941
0.04879879879879834 	299.999999999939 	0.9999999999968906 	101324.9999999936
0.05130130130130085 	300.0000000000017 	0.9999999999976047 	101324.9999999937
0.05380380380380335 	300.0000000000117 	0.9999999999973825 	101324.9999999936
0.05630630630630584 	299.9999999999809 	0.9999999999970184 	101324.9999999934
0.05880880880880836 	299.9999999999621 	0.9999999999971181 	101324.9999999934
0.06131131131131085 	299.9999999999704 	0.9999999999975475 	101324.999999994
0.06381381381381336 	299.9999999999776 	0.9999999999972754 	101324.9999999936
0.06631631631631586 	299.9999999999438 	0.9999999999964356 	101324.9999999939
0.06881881881881835 	299.9999999999635 	0.9999999999972398 	101324.9999999939
0.07132132132132088 	299.9999999999889 	0.9999999999972375 	101324.9999999944
0.07382382382382337 	299.9999999999432 	0.9999999999979908 	101324.9999999938
0.07632632632632587 	299.9999999999687 	0.9999999999986708 	101324.9999999935
0.07882882882882837 	299.9999999999652 	0.9999999999987387 	101324.9999999933
0.08133133133133086 	299.999999999975 	0.9999999999987583 	101324.9999999932
0.08383383383383337 	299.9999999999855 	0.9999999999971504 	101324.9999999938
0.08633633633633589 	299.9999999999408 	0.9999999999956892 	101324.9999999939
0.08883883883883838 	299.9999999999882 	0.9999999999960708 	101324.999999994
0.09134134134134086 	299.9999999999875 	0.9999999999969877 	101324.999999994
0.09384384384384339 	299.9999999999393 	0.9999999999974919 	101324.9999999941
0.09634634634634588 	299.9999999999694 	0.999999999997755 	101324.9999999938
0.09884884884884838 	299.999999999981 	0.9999999999965271 	101324.9999999938
0.1013513513513509 	300.000000000017 	0.9999999999964827 	101324.999999994
0.1038538538538534 	299.9999999999906 	0.9999999999971458 	101324.999999994
0.1063563563563559 	299.9999999999902 	0.999999999997352 	101324.9999999936
0.1088588588588584 	300.0000000000147 	0.999999999997035 	101324.9999999933
0.1113613613613609 	299.9999999999773 	0.9999999999964109 	101324.9999999937
0.1138638638638634 	299.9999999999508 	0.999999999995729 	101324.999999994
0.1163663663663659 	299.9999999999537 	0.9999999999957516 	101324.9999999936
0.1188688688688684 	299.9999999999724 	0.999999999995574 	101324.9999999937
0.1213713713713709 	299.999999999999 	0.9999999999957654 	101324.9999999933
0.1238738738738734 	299.9999999999546 	0.9999999999964048 	101324.9999999932
0.1263763763763759 	299.9999999999878 	0.9999999999968879 	101324.9999999935
0.1288788788788784 	299.9999999999879 	0.9999999999964522 	101324.999999994
0.1313813813813809 	299.999999999982 	0.9999999999955242 	101324.999999995
0.1338838838838834 	299.9999999999845 	0.9999999999951192 	101324.9999999946
0.1363863863863859 	300.0000000000021 	0.999999999995942 	101324.9999999935
0.1388888888888884 	300.0000000000188 	0.9999999999955074 	101324.9999999935
0.1413913913913909 	300.0000000000002 	0.9999999999955539 	101324.9999999933
0.1438938938938934 	299.9999999999915 	0.9999999999950572 	101324.9999999935
0.1463963963963959 	299.9999999999683 	0.9999999999956799 	101324.9999999939
0.1488988988988985 	299.9999999999466 	0.9999999999968342 	101324.9999999934
0.1514014014014009 	299.9999999999714 	0.9999999999968422 	101324.9999999935
0.1539039039039035 	299.9999999999686 	0.9999999999965452 	101324.9999999931
0.1564064064064059 	299.9999999999584 	1.000000000000559 	101324.9999999934
0.1589089089089084 	299.9999999999736 	0.9999999999922379 	101324.9999999935
0.1614114114114109 	299.9999999999719 	0.9999999999951646 	101324.9999999933
0.1639139139139134 	299.9999999999452 	0.9999999999959495 	101324.9999999932
0.166416416416416 	299.9999999999786 	0.9999999999950834 	101324.9999999936
0.1689189189189185 	300.0000000000196 	0.9999999999960161 	101324.9999999942
0.1714214214214209 	300.0000000000087 	0.9999999999966385 	101324.9999999944
0.1739239239239235 	299.9999999999816 	0.9999999999974494 	101324.9999999938
0.1764264264264259 	299.9999999999833 	0.9999999999979223 	101324.9999999931
0.1789289289289284 	300.0000000000065 	1.00000000000133 	101324.9999999933
0.181431431431431 	299.9999999999875 	0.9999999999922271 	101324.9999999934
0.1839339339339334 	299.9999999999847 	0.9999999999950089 	101324.9999999932
0.186436436436436 	299.999999999963 	0.9999999999965656 	101324.9999999933
0.1889389389389385 	299.9999999999811 	0.9999999999960657 	101324.9999999933
0.191441441441441 	299.9999999999792 	0.9999999999947579 	101324.9999999933
0.1939439439439434 	299.9999999999616 	0.9999999999942525 	101324.9999999928
0.196446446446446 	299.999999999956 	0.999999999998215 	101324.9999999925
0.1989489489489485 	299.9999999999733 	0.9999999999904425 	101324.999999993
0.2014514514514509 	299.9999999999923 	0.9999999999929882 	101324.9999999936
0.2039539539539535 	299.9999999999896 	0.9999999999935766 	101324.9999999934
0.2064564564564559 	299.9999999999649 	0.999999999992926 	101324.9999999933
0.2089589589589585 	299.9999999999857 	0.9999999999945333 	101324.9999999935
0.211461461461461 	299.9999999999606 	0.999999999995962 	101324.9999999935
0.2139639639639635 	299.9999999999839 	0.9999999999958252 	101324.9999999936
0.2164664664664659 	300.0000000000086 	0.9999999999942644 	101324.9999999935
0.2189689689689684 	300.0000000000088 	0.9999999999971585 	101324.9999999936
0.221471471471471 	300.0000000000028 	0.9999999999905452 	101324.9999999931
0.2239739739739735 	299.9999999999758 	0.9999999999943889 	101324.9999999932
0.226476476476476 	299.9999999999898 	0.9999999999965737 	101324.9999999937
0.2289789789789785 	299.9999999999981 	0.9999999999956745 	101324.9999999937
0.231481481481481 	299.9999999999893 	0.9999999999948175 	101324.9999999937
0.2339839839839835 	299.9999999999789 	0.9999999999955995 	101324.9999999933
0.236486486486486 	300.0000000000089 	0.9999999999962534 	101324.9999999928
0.2389889889889885 	299.999999999996 	0.9999999999958882 	101324.9999999923
0.241491491491491 	299.9999999999537 	0.9999999999988229 	101324.9999999922
0.2439939939939935 	299.9999999999822 	0.9999999999898059 	101324.9999999923
0.246496496496496 	299.9999999999937 	0.9999999999918741 	101324.9999999926
0.2489989989989985 	300.0000000000284 	0.999999999993691 	101324.9999999927
0.251501501501501 	300.0000000000266 	0.9999999999940338 	101324.9999999927
0.2540040040040035 	300.0000000000011 	0.9999999999949715 	101324.9999999933
0.256506506506506 	300.000000000018 	0.9999999999962785 	101324.9999999936
0.2590090090090086 	299.9999999999542 	0.9999999999995616 	101324.9999999937
0.261511511511511 	299.9999999999913 	0.9999999999906087 	101324.999999994
0.2640140140140135 	299.999999999986 	0.9999999999928073 	101324.9999999937
0.2665165165165161 	299.9999999999568 	0.9999999999935599 	101324.9999999934
0.2690190190190185 	299.9999999999978 	0.9999999999942517 	101324.9999999932
0.271521521521521 	300.000000000021 	0.9999999999946855 	101324.9999999934
0.2740240240240235 	300.0000000000214 	0.9999999999951403 	101324.9999999931
0.276526526526526 	300.0000000000154 	0.9999999999959691 	101324.999999993
0.2790290290290286 	299.9999999999663 	0.9999999999966777 	101324.9999999932
0.281531531531531 	299.9999999999579 	1.000000000000857 	101324.9999999929
0.2840340340340335 	299.9999999999758 	0.9999999999939497 	101324.9999999921
0.2865365365365361 	299.9999999999815 	0.9999999999976708 	101324.9999999927
0.2890390390390385 	300.0000000000098 	0.9999999999995983 	101324.9999999934
0.291541541541541 	300.0000000000152 	0.9999999999981294 	101324.999999994
0.2940440440440436 	300.0000000000142 	0.9999999999960379 	101324.9999999945
0.296546546546546 	300.0000000000105 	0.9999999999950568 	101324.999999994
0.2990490490490486 	299.9999999999752 	0.9999999999947567 	101324.9999999935
0.3015515515515511 	300.0000000000021 	0.9999999999967022 	101324.9999999931
0.3040540540540535 	299.9999999999977 	1.00000000000505 	101324.9999999932
0.3065565565565562 	300.0000000000038 	0.9999999999895115 	101324.999999993
0.3090590590590585 	299.9999999999977 	0.9999999999943663 	101324.9999999933
0.3115615615615611 	299.9999999999606 	0.9999999999978042 	101324.9999999931
0.3140640640640635 	300.000000000001 	0.9999999999980994 	101324.9999999929
0.316566566566566 	299.999999999997 	0.999999999998357 	101324.9999999933
0.3190690690690687 	299.9999999999572 	0.9999999999985989 	101324.9999999934
0.3215715715715711 	299.9999999999932 	0.9999999999999196 	101324.9999999932
0.3240740740740735 	299.9999999999927 	1.000000000000119 	101324.9999999933
0.326576576576576 	299.9999999999586 	0.9999999999989002 	101324.9999999937
0.3290790790790786 	300.0000000000118 	0.9999999999987894 	101324.9999999936
0.3315815815815811 	300.0000000000182 	0.9999999999981821 	101324.999999994
0.3340840840840836 	300.000000000008 	0.9999999999973218 	101324.9999999938
0.3365865865865861 	300.0000000000238 	0.9999999999967968 	101324.9999999934
0.3390890890890886 	300.0000000000305 	0.9999999999966441 	101324.9999999938
0.3415915915915911 	300.0000000000063 	0.9999999999983585 	101324.9999999941
0.3440940940940935 	299.9999999999562 	1.000000000003318 	101324.9999999933
0.3465965965965962 	300.0000000000026 	0.9999999999975053 	101324.999999993
0.3490990990990985 	300.0000000000088 	1.000000000000251 	101324.9999999932
0.3516016016016011 	300.0000000000153 	1.000000000001124 	101324.9999999934
0.3541041041041035 	300.0000000000058 	1.000000000000112 	101324.999999993
0.3566066066066061 	299.9999999999523 	0.9999999999996159 	101324.999999993
0.3591091091091085 	299.9999999999682 	0.999999999998385 	101324.9999999931
0.3616116116116112 	299.9999999999777 	0.999999999997912 	101324.9999999929
0.3641141141141137 	299.9999999999554 	0.9999999999986782 	101324.9999999933
0.3666166166166161 	299.9999999999305 	1.00000000000443 	101324.9999999933
0.3691191191191185 	299.9999999999948 	0.9999999999899081 	101324.9999999935
0.371621621621621 	300.0000000000019 	0.9999999999954207 	101324.9999999929
0.3741241241241237 	300.0000000000169 	0.9999999999988536 	101324.9999999931
0.3766266266266261 	300.0000000000063 	0.9999999999985979 	101324.9999999933
0.3791291291291286 	299.9999999999907 	0.9999999999985363 	101324.9999999933
0.3816316316316311 	299.999999999969 	0.9999999999987986 	101324.999999993
0.3841341341341336 	299.999999999994 	0.9999999999989685 	101324.9999999932
0.3866366366366362 	299.9999999999879 	0.999999999998605 	101324.9999999933
0.3891391391391387 	299.9999999999686 	0.9999999999988802 	101324.9999999933
0.391641641641641 	299.9999999999956 	0.9999999999997593 	101324.9999999927
0.3941441441441436 	299.9999999999952 	0.9999999999997948 	101324.9999999927
0.3966466466466462 	299.9999999999934 	1.000000000000246 	101324.9999999931
0.3991491491491486 	299.9999999999797 	1.00000000000084 	101324.9999999931
0.4016516516516512 	299.9999999999582 	1.000000000000999 	101324.9999999931
0.4041541541541536 	299.9999999999728 	1.000000000001643 	101324.9999999926
0.4066566566566561 	299.9999999999745 	1.000000000004597 	101324.9999999923
0.4091591591591587 	300.000000000006 	0.9999999999969811 	101324.9999999927
0.4116616616616612 	300.0000000000152 	0.9999999999988609 	101324.9999999935
0.4141641641641635 	300.0000000000283 	1.000000000000569 	101324.9999999939
0.4166666666666662 	300.0000000000094 	1.000000000000924 	101324.9999999936
0.4191691691691687 	299.999999999957 	1.000000000000719 	101324.9999999937
0.421671671671671 	299.9999999999933 	1.00000000000102 	101324.9999999938
0.4241741741741737 	299.9999999999771 	1.000000000000965 	101324.9999999939
0.4266766766766761 	299.9999999999606 	1.000000000001006 	101324.9999999938
0.4291791791791785 	299.9999999999905 	1.000000000006047 	101324.9999999936
0.4316816816816812 	299.9999999999897 	0.9999999999922882 	101324.9999999935
0.4341841841841836 	300.0000000000016 	0.9999999999980893 	101324.9999999933
0.4366866866866862 	299.9999999999768 	1.000000000001515 	101324.9999999932
0.4391891891891885 	299.9999999999985 	1.000000000001174 	101324.9999999931
0.4416916916916913 	300.0000000000039 	1.000000000000867 	101324.9999999933
0.4441941941941936 	299.9999999999906 	1.000000000000407 	101324.9999999936
0.4466966966966961 	299.9999999999444 	1.000000000000165 	101324.999999994
0.4491991991991987 	299.9999999999855 	1.000000000000757 	101324.999999994
0.4517017017017012 	299.9999999999713 	1.000000000001647 	101324.9999999935
0.4542042042042035 	299.999999999991 	1.000000000002429 	101324.9999999931
0.4567067067067062 	299.9999999999937 	1.000000000002871 	101324.9999999929
0.4592092092092087 	299.9999999999415 	1.000000000003438 	101324.9999999929
0.4617117117117112 	299.999999999981 	1.000000000003858 	101324.9999999931
0.4642142142142137 	299.9999999999665 	1.000000000003719 	101324.999999993
0.4667167167167162 	299.9999999999858 	1.000000000003337 	101324.9999999932
0.4692192192192187 	299.999999999966 	1.000000000002617 	101324.9999999935
0.4717217217217212 	300.0000000000032 	1.000000000001771 	101324.9999999939
0.4742242242242236 	299.9999999999762 	1.000000000001191 	101324.9999999934
0.4767267267267262 	299.9999999999682 	1.000000000001106 	101324.9999999937
0.4792292292292287 	299.9999999999952 	1.000000000001368 	101324.9999999939
0.4817317317317312 	300.0000000000109 	1.000000000002378 	101324.999999994
0.4842342342342336 	300.0000000000069 	1.000000000003053 	101324.9999999941
0.4867367367367362 	299.9999999999936 	1.000000000002256 	101324.9999999938
0.4892392392392387 	300.0000000000041 	1.000000000000848 	101324.9999999938
0.4917417417417412 	300.0000000000211 	1.000000000001527 	101324.9999999932
0.4942442442442437 	299.9999999999777 	1.000000000003004 	101324.9999999931
0.4967467467467462 	299.9999999999503 	1.000000000006005 	101324.9999999938
0.4992492492492487 	299.9999999999326 	0.999999999999781 	101324.9999999944
0.5017517517517511 	299.9999999999499 	1.000000000001602 	101324.9999999942
0.5042542542542537 	299.9999999999874 	1.000000000001931 	101324.9999999939
0.5067567567567562 	299.9999999999796 	1.000000000000919 	101324.9999999939
0.5092592592592589 	299.9999999999711 	1.000000000000919 	101324.9999999938
0.5117617617617611 	299.9999999999849 	1.000000000001126 	101324.9999999937
0.5142642642642637 	300.0000000000084 	1.000000000000793 	101324.9999999935
0.5167667667667663 	299.9999999999997 	1.000000000003035 	101324.9999999934
0.5192692692692688 	299.9999999999529 	1.00000000000878 	101324.9999999934
0.5217717717717714 	299.9999999999685 	0.9999999999959318 	101324.9999999942
0.5242742742742736 	299.9999999999695 	1.000000000000659 	101324.9999999947
0.5267767767767763 	299.9999999999628 	1.000000000002169 	101324.9999999945
0.5292792792792789 	299.9999999999654 	1.000000000000686 	101324.9999999941
0.5317817817817813 	299.9999999999467 	0.9999999999998275 	101324.9999999936
0.5342842842842837 	299.9999999999878 	1.000000000000294 	101324.9999999936
0.5367867867867864 	299.9999999999864 	1.000000000001431 	101324.9999999937
0.5392892892892888 	299.9999999999574 	1.000000000001859 	101324.9999999938
0.5417917917917912 	299.9999999999722 	1.000000000001009 	101324.9999999938
0.5442942942942938 	299.9999999999667 	1.000000000000273 	101324.9999999937
0.5467967967967964 	299.9999999999778 	0.9999999999996672 	101324.9999999932
0.5492992992992988 	299.9999999999723 	0.9999999999994521 	101324.9999999931
0.5518018018018012 	299.9999999999656 	1.000000000000497 	101324.9999999933
0.5543043043043039 	299.9999999999946 	1.000000000001482 	101324.9999999936
0.5568068068068063 	299.9999999999868 	1.000000000003213 	101324.9999999944
0.5593093093093087 	299.9999999999557 	1.000000000005403 	101324.9999999944
0.5618118118118114 	299.9999999999518 	0.9999999999974283 	101324.9999999943
0.5643143143143137 	299.9999999999444 	0.9999999999989648 	101324.9999999945
0.5668168168168163 	299.9999999999731 	1.000000000000638 	101324.9999999944
0.5693193193193188 	300.0000000000039 	1.000000000001448 	101324.9999999943
0.5718218218218213 	300.0000000000209 	1.000000000002867 	101324.9999999942
0.5743243243243239 	300.0000000000205 	1.000000000003005 	101324.9999999944
0.5768268268268262 	300.0000000000088 	1.000000000002048 	101324.9999999938
0.5793293293293288 	299.9999999999773 	1.000000000004424 	101324.9999999936
0.5818318318318314 	299.9999999999638 	1.000000000009011 	101324.9999999937
0.5843343343343338 	300.0000000000003 	0.999999999996572 	101324.9999999937
0.5868368368368363 	299.999999999989 	1.000000000001401 	101324.9999999939
0.5893393393393387 	299.999999999952 	1.000000000003646 	101324.9999999942
0.5918418418418413 	299.9999999999685 	1.000000000002361 	101324.9999999943
0.5943443443443439 	300.0000000000009 	1.00000000000184 	101324.9999999942
0.5968468468468463 	300.0000000000114 	1.000000000001853 	101324.9999999939
0.5993493493493487 	300.0000000000309 	1.000000000002111 	101324.9999999936
0.6018518518518514 	300.0000000000111 	1.000000000002419 	101324.9999999936
0.6043543543543537 	300.0000000000065 	1.000000000001972 	101324.9999999939
0.6068568568568564 	299.9999999999945 	1.000000000002213 	101324.9999999942
0.6093593593593587 	299.999999999949 	1.000000000002416 	101324.9999999943
0.6118618618618614 	299.9999999999563 	1.000000000002391 	101324.9999999944
0.6143643643643638 	300.0000000000039 	1.000000000002002 	101324.9999999942
0.6168668668668662 	299.999999999998 	1.000000000002145 	101324.9999999946
0.6193693693693688 	299.9999999999838 	1.000000000003529 	101324.9999999946
0.6218718718718714 	299.9999999999948 	1.000000000005479 	101324.9999999947
0.6243743743743737 	299.999999999982 	0.9999999999995084 	101324.9999999943
0.6268768768768762 	299.9999999999696 	1.000000000001296 	101324.9999999935
0.629379379379379 	299.9999999999866 	1.000000000002068 	101324.9999999934
0.6318818818818812 	299.9999999999957 	1.000000000001689 	101324.9999999938
0.6343843843843838 	300.0000000000157 	1.000000000001984 	101324.9999999937
0.6368868868868864 	300.000000000003 	1.000000000002616 	101324.999999994
0.6393893893893888 	299.9999999999658 	1.000000000002499 	101324.9999999944
0.6418918918918912 	299.9999999999844 	1.000000000004786 	101324.9999999943
0.6443943943943939 	299.9999999999752 	1.000000000007611 	101324.9999999943
0.6468968968968963 	299.9999999999809 	0.9999999999960386 	101324.9999999943
0.6493993993993988 	299.9999999999795 	1.000000000002095 	101324.9999999945
0.6519019019019012 	299.9999999999942 	1.00000000000408 	101324.9999999945
0.6544044044044038 	299.9999999999616 	1.000000000001871 	101324.999999994
0.6569069069069065 	299.9999999999567 	1.000000000000663 	101324.9999999936
0.6594094094094087 	299.999999999976 	1.000000000000379 	101324.9999999936
0.6619119119119113 	299.9999999999868 	1.000000000001141 	101324.9999999938
0.664414414414414 	299.9999999999959 	1.000000000001447 	101324.999999994
0.6669169169169162 	299.999999999997 	1.000000000001808 	101324.9999999942
0.6694194194194188 	299.9999999999855 	1.000000000002206 	101324.9999999945
0.6719219219219214 	299.9999999999647 	1.000000000002985 	101324.9999999948
0.674424424424424 	299.9999999999817 	1.000000000003387 	101324.9999999946
0.6769269269269262 	299.9999999999624 	1.000000000002677 	101324.9999999941
0.679429429429429 	300.0000000000044 	1.000000000001788 	101324.9999999937
0.6819319319319311 	300.0000000000172 	1.000000000002736 	101324.9999999938
0.6844344344344341 	300.0000000000217 	1.000000000004759 	101324.9999999946
0.686936936936936 	300.0000000000205 	0.9999999999992449 	101324.999999995
0.6894394394394392 	300.0000000000171 	1.000000000001436 	101324.9999999952
0.6919419419419413 	300.0000000000057 	1.000000000003365 	101324.9999999952
0.694444444444444 	299.9999999999676 	1.000000000003667 	101324.9999999953
0.6969469469469463 	299.999999999945 	1.000000000002539 	101324.9999999947
0.6994494494494489 	299.9999999999566 	1.000000000000548 	101324.9999999944
0.7019519519519515 	299.9999999999721 	1.000000000000182 	101324.9999999941
0.7044544544544538 	299.9999999999608 	1.000000000003459 	101324.9999999939
0.7069569569569564 	299.9999999999976 	1.000000000006896 	101324.9999999935
0.7094594594594589 	299.9999999999828 	0.9999999999954881 	101324.9999999936
0.7119619619619615 	299.9999999999582 	1.000000000000664 	101324.9999999935
0.7144644644644638 	299.9999999999787 	1.000000000002973 	101324.9999999936
0.7169669669669665 	299.9999999999707 	1.00000000000199 	101324.9999999938
0.7194694694694688 	300.0000000000136 	1.000000000001591 	101324.9999999936
0.7219719719719715 	300.0000000000098 	1.000000000001957 	101324.9999999937
0.7244744744744737 	299.999999999998 	1.000000000001914 	101324.9999999942
0.7269769769769764 	300.000000000007 	1.000000000004281 	101324.9999999943
0.7294794794794791 	299.9999999999999 	1.00000000000634 	101324.9999999939
0.7319819819819813 	299.9999999999835 	0.9999999999952141 	101324.999999994
0.7344844844844839 	299.9999999999416 	1.000000000000079 	101324.9999999942
0.7369869869869864 	299.9999999999558 	1.000000000002296 	101324.9999999944
0.739489489489489 	299.9999999999769 	1.000000000001596 	101324.9999999947
0.7419919919919914 	299.9999999999708 	1.000000000001441 	101324.9999999943
0.7444944944944939 	299.9999999999696 	1.000000000002902 	101324.9999999944
0.7469969969969963 	299.999999999985 	1.00000000000328 	101324.9999999942
0.7494994994994989 	299.9999999999523 	0.9999999999997444 	101324.9999999944
0.7520020020020015 	299.9999999999615 	1.000000000004153 	101324.9999999946
0.7545045045045039 	299.9999999999669 	0.999999999993976 	101324.9999999944
0.7570070070070062 	299.9999999999684 	0.9999999999982034 	101324.9999999943
0.7595095095095092 	299.9999999999736 	1.000000000000679 	101324.9999999942
0.7620120120120112 	299.9999999999879 	1.000000000001104 	101324.9999999946
0.7645145145145138 	299.9999999999868 	1.00000000000184 	101324.9999999946
0.7670170170170165 	299.999999999964 	1.000000000003606 	101324.9999999944
0.7695195195195191 	299.9999999999454 	1.000000000004088 	101324.9999999943
0.7720220220220213 	299.9999999999647 	0.9999999999932176 	101324.9999999941
0.7745245245245239 	299.9999999999496 	0.9999999999978095 	101324.9999999939
0.7770270270270263 	299.9999999999488 	0.9999999999995655 	101324.9999999935
0.779529529529529 	299.9999999999702 	0.9999999999992794 	101324.9999999934
0.7820320320320313 	299.9999999999663 	0.999999999999527 	101324.9999999934
0.784534534534534 	299.9999999999937 	0.9999999999994809 	101324.9999999938
0.7870370370370364 	299.9999999999864 	0.9999999999994705 	101324.999999994
0.7895395395395389 	299.9999999999803 	0.9999999999994609 	101324.9999999944
0.7920420420420413 	299.9999999999953 	0.9999999999991178 	101324.9999999944
0.794544544544544 	299.9999999999901 	1.000000000002274 	101324.9999999947
0.7970470470470463 	300.0000000000069 	1.000000000004712 	101324.9999999944
0.799549549549549 	300.0000000000097 	0.9999999999946674 	101324.9999999942
0.8020520520520515 	299.9999999999889 	0.999999999999731 	101324.9999999939
0.8045545545545539 	299.9999999999539 	1.000000000002258 	101324.9999999938
0.8070570570570563 	299.9999999999687 	1.000000000001422 	101324.9999999939
0.8095595595595589 	299.9999999999654 	1.00000000000022 	101324.9999999941
0.8120620620620614 	299.99999999998 	0.9999999999996143 	101324.999999994
0.8145645645645638 	300.000000000007 	0.9999999999991891 	101324.9999999941
0.8170670670670666 	300.0000000000255 	1.000000000002648 	101324.9999999941
0.8195695695695689 	300.0000000000038 	1.000000000004811 	101324.9999999936
0.8220720720720714 	299.9999999999593 	0.9999999999948295 	101324.9999999932
0.8245745745745739 	299.9999999999711 	0.999999999999635 	101324.9999999932
0.8270770770770765 	299.9999999999787 	1.000000000002397 	101324.9999999932
0.8295795795795788 	299.9999999999798 	1.000000000001847 	101324.9999999929
0.8320820820820815 	300.0000000000049 	1.000000000001307 	101324.999999993
0.834584584584584 	300.0000000000027 	1.000000000003708 	101324.9999999935
0.8370870870870865 	299.9999999999704 	1.000000000005183 	101324.9999999935
0.8395895895895891 	299.9999999999505 	0.9999999999994326 	101324.9999999932
0.8420920920920915 	299.9999999999828 	1.000000000000369 	101324.9999999932
0.844594594594594 	299.9999999999776 	1.000000000000668 	101324.9999999928
0.8470970970970964 	299.9999999999712 	1.000000000000331 	101324.9999999926
0.8495995995995991 	300.0000000000045 	1.00000000000053 	101324.9999999925
0.8521021021021015 	299.999999999993 	1.000000000001281 	101324.999999993
0.8546046046046039 	299.9999999999728 	1.000000000001449 	101324.9999999938
0.8571071071071066 	299.9999999999931 	1.000000000003851 	101324.9999999939
0.8596096096096089 	299.9999999999908 	1.00000000000395 	101324.9999999936
0.8621121121121116 	299.9999999999787 	0.9999999999939436 	101324.9999999926
0.8646146146146139 	300.0000000000068 	0.9999999999983543 	101324.9999999921
0.8671171171171166 	299.9999999999862 	0.9999999999999214 	101324.9999999923
0.8696196196196189 	299.9999999999552 	0.9999999999993738 	101324.9999999928
0.8721221221221216 	299.999999999982 	0.9999999999997535 	101324.9999999929
0.874624624624624 	300.0000000000056 	1.000000000000269 	101324.9999999928
0.8771271271271264 	299.9999999999999 	1.000000000000135 	101324.9999999927
0.879629629629629 	299.9999999999939 	1.000000000002989 	101324.999999993
0.8821321321321317 	299.9999999999861 	1.000000000003654 	101324.9999999929
0.8846346346346339 	299.999999999965 	0.9999999999943672 	101324.9999999931
0.8871371371371364 	299.9999999999692 	0.9999999999992066 	101324.9999999932
0.8896396396396391 	299.9999999999716 	1.000000000001332 	101324.9999999932
0.8921421421421414 	299.999999999974 	1.000000000001381 	101324.9999999931
0.8946446446446441 	299.9999999999839 	1.000000000001475 	101324.9999999927
0.8971471471471464 	299.9999999999936 	1.000000000003026 	101324.9999999925
0.8996496496496489 	299.9999999999969 	1.000000000002909 	101324.9999999924
0.9021521521521517 	299.9999999999948 	0.9999999999978657 	101324.9999999924
0.9046546546546541 	299.9999999999997 	1.000000000000452 	101324.9999999924
0.9071571571571564 	299.9999999999791 	1.000000000001793 	101324.9999999923
0.9096596596596589 	299.9999999999655 	1.000000000001384 	101324.9999999924
0.9121621621621616 	299.99999999999 	1.000000000001233 	101324.9999999925
0.9146646646646639 	299.999999999977 	1.000000000001522 	101324.9999999924
0.9171671671671666 	299.999999999962 	1.000000000000975 	101324.9999999924
0.9196696696696689 	299.9999999999828 	1.000000000004141 	101324.9999999925
0.9221721721721714 	299.9999999999783 	1.00000000000403 	101324.9999999929
0.9246746746746741 	299.9999999999556 	0.999999999994896 	101324.9999999928
0.9271771771771765 	299.9999999999737 	1.000000000000922 	101324.9999999931
0.9296796796796791 	299.9999999999842 	1.000000000004002 	101324.9999999935
0.9321821821821816 	299.9999999999756 	1.000000000003794 	101324.9999999934
0.9346846846846838 	299.999999999973 	1.000000000003667 	101324.9999999933
0.9371871871871866 	300.0000000000045 	1.000000000002956 	101324.9999999926
0.9396896896896891 	300.0000000000036 	1.000000000001265 	101324.9999999923
0.9421921921921914 	299.9999999999947 	1.000000000004183 	101324.9999999925
0.9446946946946939 	299.9999999999895 	1.000000000004172 	101324.9999999922
0.9471971971971965 	299.9999999999731 	0.9999999999955611 	101324.9999999918
0.9496996996996991 	299.999999999967 	1.00000000000035 	101324.9999999918
0.9522022022022016 	299.9999999999853 	1.000000000001469 	101324.9999999922
0.9547047047047038 	299.9999999999999 	1.00000000000085 	101324.9999999925
0.9572072072072064 	299.9999999999898 	1.000000000000923 	101324.9999999928
0.9597097097097093 	299.9999999999724 	1.000000000003751 	101324.9999999927
0.9622122122122114 	299.9999999999687 	1.000000000004219 	101324.9999999923
0.964714714714714 	299.9999999999592 	1.000000000000248 	101324.9999999923
0.9672172172172167 	299.9999999999527 	1.000000000002511 	101324.9999999923
0.969719719719719 	299.9999999999742 	1.000000000002628 	101324.9999999924
0.9722222222222214 	299.9999999999806 	1.000000000002069 	101324.9999999921
0.9747247247247239 	299.999999999981 	1.000000000002057 	101324.9999999921
0.9772272272272267 	299.9999999999991 	1.000000000002454 	101324.9999999919
0.9797297297297292 	299.9999999999862 	1.000000000002409 	101324.9999999919
0.9822322322322313 	299.9999999999807 	1.000000000005795 	101324.9999999918
0.9847347347347344 	299.9999999999766 	1.000000000004952 	101324.9999999916
0.9872372372372363 	299.9999999999499 	0.9999999999959681 	101324.9999999918
0.9897397397397389 	299.9999999999537 	1.000000000000043 	101324.9999999917
0.9922422422422417 	299.9999999999549 	1.000000000001654 	101324.9999999914
0.9947447447447441 	299.9999999999777 	1.00000000000166 	101324.9999999915
0.9972472472472468 	299.9999999999841 	1.000000000002162 	101324.9999999918
0.999749749749749 	299.9999999999793 	1.000000000002073 	101324.9999999921
1.002252252252252 	299.9999999999819 	1.000000000001578 	101324.9999999921
1.004754754754754 	299.9999999999978 	1.000000000005458 	101324.9999999919
1.007257257257256 	299.9999999999889 	1.000000000004922 	101324.9999999921
1.009759759759759 	299.9999999999802 	0.9999999999966999 	101324.9999999923
1.012262262262261 	299.9999999999817 	1.000000000001465 	101324.9999999924
1.014764764764764 	299.9999999999673 	1.000000000002496 	101324.9999999925
1.017267267267267 	299.9999999999573 	1.000000000001168 	101324.9999999923
1.019769769769769 	299.9999999999782 	1.000000000001052 	101324.999999992
1.022272272272272 	299.9999999999931 	1.000000000004079 	101324.9999999918
1.024774774774774 	299.9999999999958 	1.000000000004593 	101324.9999999919
1.027277277277277 	299.9999999999922 	1.000000000001102 	101324.999999992
1.029779779779779 	300.0000000000052 	1.000000000003591 	101324.9999999919
1.032282282282282 	300.0000000000078 	1.000000000004825 	101324.9999999919
1.034784784784784 	300.0000000000061 	1.000000000005293 	101324.999999992
1.037287287287286 	299.9999999999935 	1.000000000005006 	101324.9999999924
1.039789789789789 	299.9999999999914 	1.000000000004022 	101324.9999999926
1.042292292292291 	300.0000000000127 	1.000000000003222 	101324.9999999923
1.044794794794794 	300.0000000000256 	1.000000000007109 	101324.9999999914
1.047297297297296 	300.000000000024 	1.000000000005772 	101324.9999999915
1.049799799799799 	300.0000000000074 	0.9999999999982341 	101324.999999992
1.052302302302302 	299.9999999999927 	1.000000000003498 	101324.9999999921
1.054804804804804 	299.999999999972 	1.000000000005493 	101324.9999999919
1.057307307307306 	299.9999999999537 	1.000000000004693 	101324.9999999917
1.059809809809809 	299.9999999999687 	1.000000000003898 	101324.9999999917
1.062312312312312 	299.9999999999741 	1.00000000000338 	101324.999999992
1.064814814814814 	299.9999999999752 	1.000000000003266 	101324.9999999921
1.067317317317317 	299.9999999999628 	1.000000000008235 	101324.9999999921
1.069819819819819 	299.9999999999545 	1.0000000000069 	101324.9999999921
1.072322322322321 	299.9999999999877 	0.9999999999987299 	101324.9999999921
1.074824824824824 	300.0000000000156 	1.000000000002571 	101324.9999999918
1.077327327327327 	300.0000000000211 	1.000000000003416 	101324.9999999916
1.079829829829829 	300.0000000000242 	1.000000000003264 	101324.9999999916
1.082332332332332 	300.0000000000074 	1.000000000004094 	101324.9999999918
1.084834834834834 	299.9999999999829 	1.000000000008921 	101324.9999999916
1.087337337337337 	299.9999999999552 	1.000000000006616 	101324.9999999912
1.089839839839839 	299.9999999999441 	0.9999999999980642 	101324.999999991
1.092342342342342 	299.9999999999651 	1.000000000001849 	101324.9999999908
1.094844844844844 	299.9999999999708 	1.000000000007625 	101324.9999999909
1.097347347347347 	299.9999999999549 	1.00000000000532 	101324.9999999914
1.099849849849849 	299.9999999999457 	0.9999999999977276 	101324.9999999916
1.102352352352352 	299.9999999999659 	1.000000000002425 	101324.9999999915
1.104854854854854 	299.9999999999884 	1.000000000004051 	101324.9999999916
1.107357357357357 	299.999999999978 	1.000000000004234 	101324.9999999919
1.109859859859859 	299.9999999999658 	1.00000000000413 	101324.9999999921
1.112362362362362 	299.9999999999966 	1.000000000008343 	101324.9999999919
1.114864864864865 	300.0000000000008 	1.000000000006183 	101324.9999999914
1.117367367367367 	299.9999999999746 	0.9999999999984325 	101324.9999999912
1.119869869869869 	299.9999999999524 	1.000000000003072 	101324.9999999913
1.122372372372372 	299.9999999999679 	1.000000000004759 	101324.9999999915
1.124874874874874 	299.999999999972 	1.000000000003616 	101324.9999999913
1.127377377377377 	299.9999999999695 	1.000000000003034 	101324.9999999912
1.129879879879879 	299.9999999999922 	1.00000000000381 	101324.9999999914
1.132382382382382 	300.0000000000199 	1.000000000004505 	101324.9999999916
1.134884884884884 	300.0000000000137 	1.000000000009625 	101324.999999992
1.137387387387387 	300.0000000000078 	1.000000000006971 	101324.999999992
1.139889889889889 	299.9999999999746 	0.9999999999988097 	101324.9999999915
1.142392392392392 	299.9999999999637 	1.000000000003108 	101324.9999999911
1.144894894894894 	299.9999999999951 	1.000000000004557 	101324.999999991
1.147397397397397 	299.9999999999947 	1.000000000004027 	101324.9999999911
1.149899899899899 	299.999999999969 	1.000000000004556 	101324.9999999912
1.152402402402402 	299.9999999999548 	1.000000000005808 	101324.9999999914
1.154904904904904 	299.9999999999707 	1.000000000005974 	101324.9999999918
1.157407407407407 	299.9999999999739 	1.000000000009891 	101324.9999999918
1.159909909909909 	299.9999999999569 	1.000000000006456 	101324.9999999913
1.162412412412412 	299.9999999999518 	0.9999999999989664 	101324.9999999909
1.164914914914914 	299.9999999999685 	1.000000000003434 	101324.9999999911
1.167417417417417 	299.9999999999668 	1.000000000005274 	101324.9999999912
1.169919919919919 	299.9999999999893 	1.000000000005824 	101324.9999999914
1.172422422422422 	300.0000000000168 	1.000000000006515 	101324.9999999916
1.174924924924925 	300.0000000000045 	1.000000000011243 	101324.9999999916
1.177427427427427 	299.9999999999798 	1.000000000007923 	101324.9999999913
1.179929929929929 	299.9999999999924 	1.000000000000582 	101324.9999999911
1.182432432432432 	300.00000000002 	1.000000000004625 	101324.9999999912
1.184934934934934 	300.0000000000061 	1.000000000005798 	101324.9999999909
1.187437437437437 	299.9999999999866 	1.00000000000518 	101324.9999999906
1.189939939939939 	299.9999999999816 	1.00000000000503 	101324.9999999909
1.192442442442442 	299.9999999999613 	1.000000000005396 	101324.9999999909
1.194944944944944 	299.9999999999528 	1.000000000005484 	101324.9999999907
1.197447447447447 	299.9999999999871 	1.000000000010539 	101324.9999999909
1.199949949949949 	300.0000000000097 	1.000000000007678 	101324.9999999912
1.202452452452452 	299.9999999999803 	1.000000000001863 	101324.9999999916
1.204954954954955 	299.9999999999644 	1.000000000007416 	101324.9999999918
1.207457457457457 	299.9999999999766 	1.000000000008327 	101324.9999999918
1.20995995995996 	299.9999999999825 	1.000000000006887 	101324.9999999916
1.212462462462462 	299.9999999999902 	1.000000000006358 	101324.9999999914
1.214964964964964 	299.9999999999898 	1.000000000006114 	101324.999999991
1.217467467467467 	299.9999999999897 	1.000000000005975 	101324.999999991
1.219969969969969 	299.999999999972 	1.000000000010987 	101324.9999999912
1.222472472472472 	299.9999999999883 	1.000000000007975 	101324.9999999912
1.224974974974975 	300.0000000000182 	1.00000000000236 	101324.9999999913
1.227477477477477 	299.9999999999966 	1.000000000006543 	101324.9999999916
1.229979979979979 	299.9999999999839 	1.000000000007452 	101324.9999999917
1.232482482482482 	299.9999999999695 	1.000000000007151 	101324.9999999914
1.234984984984984 	299.9999999999663 	1.000000000006516 	101324.9999999912
1.237487487487487 	299.9999999999824 	1.000000000011127 	101324.999999991
1.239989989989989 	299.9999999999896 	1.000000000007413 	101324.9999999911
1.242492492492492 	300.0000000000043 	1.000000000001265 	101324.9999999912
1.244994994994994 	299.9999999999878 	1.000000000006113 	101324.9999999914
1.247497497497497 	299.9999999999911 	1.000000000007981 	101324.9999999916
1.249999999999999 	299.9999999999336 	1.000000000008014 	101324.9999999916
