-1.25 	300.007790181347 	1 	101372.5528258148
-1.247497497497497 	300.0078745064511 	1.107248217267787 	101335.6239529892
-1.244994994994995 	300.0112041945684 	1.08808506490818 	101339.9587949784
-1.242492492492492 	300.0106310523652 	0.9722104500716773 	101338.3380422614
-1.23998998998999 	300.0082091440416 	1.07198611606027 	101334.8279602992
-1.237487487487487 	300.0081529945527 	1.026966408578928 	101334.5406270792
-1.234984984984985 	300.0054342501734 	1.005318084331862 	101331.4751913967
-1.232482482482482 	300.0024602067527 	1.013042794997372 	101327.8905605534
-1.22997997997998 	299.999143240824 	0.9934199873005073 	101324.0135609871
-1.227477477477477 	299.9955559289033 	0.9890193057382524 	101319.7387311395
-1.224974974974975 	299.9918161186737 	0.9766711146453351 	101315.3265059705
-1.222472472472472 	299.9883546916263 	0.9660211855230416 	101311.2350592623
-1.21996996996997 	299.9858697539711 	0.9595808546200386 	101308.2961773397
-1.217467467467467 	299.9847662224468 	0.9562153469266658 	101306.9921745795
-1.214964964964965 	299.984363679774 	0.9544587063966651 	101306.5162169317
-1.212462462462462 	299.9833685721258 	0.9513041809581999 	101305.3396458939
-1.20995995995996 	299.981066113425 	0.9447888165603495 	101302.6185910567
-1.207457457457457 	299.9778390428405 	0.9358842790002242 	101298.8045366309
-1.204954954954955 	299.9748779938931 	0.9277998857264377 	101295.3045548972
-1.202452452452452 	299.9734925296268 	0.9240342560713752 	101293.6676634408
-1.19994994994995 	299.9743140546438 	0.9262405973264425 	101294.6391965163
-1.197447447447447 	299.9768678728963 	0.9332016941582935 	101297.6566045039
-1.194944944944945 	299.9799995395071 	0.94191788349187 	101301.357269945
-1.192442442442442 	299.9827509148985 	0.9497745755859596 	101304.6096436438
-1.18993993993994 	299.9847976175715 	0.9557846475373095 	101307.0288613864
-1.187437437437437 	299.9863473150342 	0.9604349486449593 	101308.8604768422
-1.184934934934935 	299.9878239234238 	0.9648159657322528 	101310.6061056547
-1.182432432432432 	299.9895079120163 	0.969707761957092 	101312.5967265608
-1.17992992992993 	299.991461755332 	0.9754209771791851 	101314.9061308335
-1.177427427427427 	299.9938419481041 	0.982456557300188 	101317.7198676182
-1.174924924924925 	299.9969976747277 	0.9916408126203791 	101321.4504798293
-1.172422422422422 	300.0010130709009 	1.003073755252731 	101326.1972149497
-1.16991991991992 	300.005353785266 	1.015321985194537 	101331.328922069
-1.167417417417417 	300.0091498918307 	1.026070780148798 	101335.8171843434
-1.164914914914915 	300.0117386647025 	1.033539544553402 	101338.8779268056
-1.162412412412412 	300.0130510843946 	1.037578166648416 	101340.429537411
-1.15990990990991 	300.0137287562221 	1.039924726662426 	101341.2309541307
-1.157407407407407 	300.0147876063294 	1.043256642602749 	101342.4830041803
-1.154904904904904 	300.0169240516509 	1.049402502922386 	101345.0086072176
-1.152402402402403 	300.020021294707 	1.058054514406114 	101348.6705597554
-1.1498998998999 	300.0232211578343 	1.066909456088237 	101352.4542697235
-1.147397397397397 	300.025416328191 	1.072990569829571 	101355.049785838
-1.144894894894895 	300.0258773997346 	1.074348440775246 	101355.5941202571
-1.142392392392392 	300.0246756442566 	1.071141499844747 	101354.1733953769
-1.13988988988989 	300.022535688572 	1.065221450085744 	101351.6439159993
-1.137387387387387 	300.0202010505394 	1.058569241579343 	101348.883519159
-1.134884884884885 	300.017991791443 	1.052170707962687 	101346.2715518328
-1.132382382382382 	300.0159337481308 	1.046222899373314 	101343.8382118545
-1.12987987987988 	300.0140662606078 	1.040851078731312 	101341.6299789862
-1.127377377377377 	300.01247742919 	1.03622330977541 	101339.7516367274
-1.124874874874875 	300.0110815387204 	1.032019663346945 	101338.1012981046
-1.122372372372372 	300.0094432464526 	1.027037076988204 	101336.1642981303
-1.11986986986987 	300.0069431910462 	1.019676150870664 	101333.2088239984
-1.117367367367367 	300.0032863272141 	1.009240905606065 	101328.885546614
-1.114864864864865 	299.9989057360432 	0.9969231277255944 	101323.706771534
-1.112362362362362 	299.994792198963 	0.985347096680201 	101318.8439215337
-1.10985985985986 	299.9918463121454 	0.9768926798444775 	101315.3612385931
-1.107357357357357 	299.99027059308 	0.972085853466768 	101313.4986166893
-1.104854854854855 	299.9894127764309 	0.969190246459908 	101312.4846271947
-1.102352352352353 	299.9881833526152 	0.9653395910126894 	101311.0310911655
-1.09984984984985 	299.9858225669632 	0.9585457315181998 	101308.2408836829
-1.097347347347347 	299.9824500819805 	0.9491022796517714 	101304.2545619844
-1.094844844844845 	299.978930147665 	0.9392689583358957 	101300.0937717969
-1.092342342342342 	299.9762354696118 	0.9316610375747659 	101296.9088632002
-1.08983983983984 	299.9749042930922 	0.9278014339484867 	101295.3352801149
-1.087337337337337 	299.9749345898852 	0.9277767453235441 	101295.3716264679
-1.084834834834835 	299.9760193499812 	0.9307906212103552 	101296.6535516769
-1.082332332332332 	299.9778006033936 	0.9358335192612879 	101298.7582221777
-1.07982982982983 	299.9799470428193 	0.9419219499711088 	101301.2953636016
-1.077327327327327 	299.9820975904836 	0.9480151277194739 	101303.837308895
-1.074824824824825 	299.9838866575003 	0.9531340687905656 	101305.9520803364
-1.072322322322323 	299.98515147729 	0.9568824271661143 	101307.4472174207
-1.06981981981982 	299.9861238926737 	0.9599164577931739 	101308.5966113544
-1.067317317317317 	299.9873869761312 	0.9638185947105601 	101310.0896160602
-1.064814814814815 	299.9895854971058 	0.9703079732966944 	101312.6883098386
-1.062312312312312 	299.9930263583278 	0.9801606703129877 	101316.755715444
-1.05980980980981 	299.9973862930275 	0.9924625566524066 	101321.909758563
-1.057307307307307 	300.0017834653519 	1.004844848853894 	101327.1080415651
-1.054804804804805 	300.0052729252204 	1.014800473974476 	101331.2335660432
-1.052302302302302 	300.0074527833427 	1.021264223556716 	101333.8107863189
-1.0497997997998 	300.0087214726619 	1.025276536014123 	101335.3107119765
-1.047297297297297 	300.0099736964599 	1.029187435672263 	101336.7912191523
-1.044794794794795 	300.011962275007 	1.034996609500555 	101339.1421875832
-1.042292292292292 	300.0148213777892 	1.043103839578348 	101342.5224724625
-1.03978978978979 	300.0180905879584 	1.052331267544182 	101346.3878562761
-1.037287287287287 	300.0211181447967 	1.060926259204122 	101349.9676099173
-1.034784784784785 	300.0234208215807 	1.067509900563634 	101352.6904090698
-1.032282282282283 	300.0247518851465 	1.071323717594675 	101354.2643902087
-1.02977977977978 	300.0249976111334 	1.072021388424071 	101354.5542509611
-1.027277277277277 	300.0241375269438 	1.069589260903287 	101353.5372501127
-1.024774774774775 	300.0223505124507 	1.064585047096582 	101351.4249529401
-1.022272272272272 	300.0201086926721 	1.058333487660702 	101348.7744130313
-1.01976976976977 	300.0180617117302 	1.052585062806848 	101346.3540976543
-1.017267267267267 	300.0166856762374 	1.04857674632741 	101344.7270384434
-1.014764764764765 	300.0159125056365 	1.046089459690735 	101343.8128311473
-1.012262262262262 	300.0150809646235 	1.043357970664105 	101342.8295652897
-1.00975975975976 	300.0133402115873 	1.03814884428931 	101340.7714643816
-1.007257257257257 	300.0102601124738 	1.029354435203278 	101337.1300810937
-1.004754754754755 	300.0061896644446 	1.017910635350307 	101332.3178323552
-1.002252252252252 	300.00205549578 	1.006265482491651 	101327.4301605225
-0.9997497497497498 	299.9987392681148 	0.9967635924077418 	101323.5096449191
-0.9972472472472473 	299.9965235225844 	0.9901920497148499 	101320.89021769
-0.9947447447447449 	299.9950063080953 	0.9855280924088945 	101319.0965908665
-0.9922422422422421 	299.9934718055564 	0.9808768440769634 	101317.2826856681
-0.9897397397397399 	299.9913645809231 	0.9747204287760378 	101314.7917497022
-0.9872372372372376 	299.98853966503 	0.9666226916610504 	101311.4524776164
-0.9847347347347346 	299.9852259311922 	0.9571761715692838 	101307.535440125
-0.9822322322322323 	299.9818409385701 	0.9475307987185431 	101303.5342577024
-0.9797297297297296 	299.9788286556435 	0.9389493910225075 	101299.9737290099
-0.9772272272272275 	299.9765891572445 	0.9325813035348514 	101297.3265908925
-0.9747247247247248 	299.9754451817563 	0.9293335186609432 	101295.9745032612
-0.9722222222222224 	299.9755625499448 	0.9296371143023504 	101296.1138841524
-0.9697197197197196 	299.9768213402048 	0.9331073926024249 	101297.6013225238
-0.9672172172172175 	299.9787360578681 	0.9383882643419944 	101299.8639140793
-0.9647147147147147 	299.9805934920095 	0.9435508960888781 	101302.059371519
-0.9622122122122124 	299.9818155077113 	0.9470664354230441 	101303.5038750079
-0.9597097097097099 	299.9823433087407 	0.9488048507870135 	101304.1278060954
-0.9572072072072073 	299.9827365621903 	0.9502639476734892 	101304.5928975096
-0.9547047047047047 	299.9838407500078 	0.9536797874713612 	101305.8982492028
-0.9522022022022023 	299.9862242399345 	0.9605511790816872 	101308.7151957485
-0.9496996996996998 	299.9897940147632 	0.9706395433503052 	101312.9345976636
-0.9471971971971973 	299.9938753603195 	0.9821619299473522 	101317.7592374255
-0.9446946946946947 	299.9976621984287 	0.9929560969644076 	101322.2359504722
-0.9421921921921923 	300.000677298345 	1.001700128647373 	101325.8003304056
-0.93968968968969 	300.0029385815744 	1.008385856414894 	101328.473738315
-0.9371871871871872 	300.0048038632085 	1.013944543839081 	101330.6790372563
-0.9346846846846848 	300.0066930164329 	1.019524039542181 	101332.9123239147
-0.9321821821821823 	300.0089020993133 	1.025972105059063 	101335.5240611486
-0.9296796796796799 	300.0115669163104 	1.033689681802992 	101338.6747395822
-0.9271771771771771 	300.0146773565024 	1.042632795367872 	101342.3520739809
-0.9246746746746748 	300.0180405550129 	1.052217702715217 	101346.328612304
-0.9221721721721724 	300.0212202437561 	1.061196660658645 	101350.088455498
-0.9196696696696698 	300.0235910284624 	1.067855200462883 	101352.8916454093
-0.9171671671671672 	300.0246048062228 	1.070743655180757 	101354.090061942
-0.9146646646646649 	300.0241521487317 	1.069610450025646 	101353.5544513892
-0.9121621621621623 	300.0227226294473 	1.065786544745014 	101351.8647300004
-0.9096596596596597 	300.021161710109 	1.061515843900972 	101350.0194661433
-0.9071571571571573 	300.0201353313776 	1.058566124661962 	101348.805957029
-0.9046546546546547 	300.019706943658 	1.057120417380716 	101348.2993482023
-0.9021521521521524 	300.019335531393 	1.055762682029229 	101347.8597860259
-0.8996496496496498 	300.018277050535 	1.052529405558623 	101346.6082933138
-0.8971471471471473 	300.0160904985761 	1.046241883805322 	101344.0234676507
-0.894644644644645 	300.0129006138851 	1.037213789499643 	101340.2521114921
-0.892142142142142 	300.0092765372988 	1.026956290764334 	101335.9674220578
-0.8896396396396397 	300.0058670364681 	1.017221391449603 	101331.9364393812
-0.8871371371371374 	300.0030594930522 	1.009087458359598 	101328.6171489302
-0.8846346346346349 	300.0008590255508 	1.002611935425509 	101326.0157575037
-0.8821321321321324 	299.9989974350837 	0.9970921657334576 	101323.814981192
-0.8796296296296297 	299.9971303892136 	0.9915796231430685 	101321.6078110442
-0.8771271271271271 	299.9949712736795 	0.9852536392414988 	101319.0554500576
-0.8746246246246248 	299.9923245469722 	0.9775525219902269 	101315.926741375
-0.8721221221221224 	299.9891051958792 	0.9682623829039304 	101312.1211839539
-0.8696196196196196 	299.9854246335785 	0.9577464853345823 	101307.7705024584
-0.8671171171171175 	299.981690636685 	0.9471741155630984 	101303.3568106764
-0.8646146146146148 	299.9785653168371 	0.9383643196582572 	101299.6625460025
-0.8621121121121121 	299.9766961968239 	0.9330528507528307 	101297.4532646752
-0.8596096096096097 	299.9763452738591 	0.9319214174503734 	101297.0390240755
-0.857107107107107 	299.977190843131 	0.9340916495439904 	101298.0382127868
-0.8546046046046049 	299.9784827394615 	0.9375588372129433 	101299.564810375
-0.8521021021021022 	299.9794853582534 	0.9403510951482076 	101300.7498326178
-0.8495995995995997 	299.9798963362389 	0.9416376368071734 	101301.2355359336
-0.8470970970970974 	299.9799683093358 	0.9420688984645524 	101301.3208792893
-0.8445945945945946 	299.9802919233551 	0.9432127933323662 	101301.7038794037
-0.8420920920920922 	299.9814150640434 	0.9465446237269978 	101303.031085658
-0.8395895895895897 	299.9835489498851 	0.9526622521262358 	101305.5528719197
-0.8370870870870872 	299.9865244959978 	0.9611375218574605 	101309.0700312062
-0.8345845845845846 	299.9899497195623 	0.9709053462909639 	101313.1188406394
-0.8320820820820823 	299.9933998081811 	0.9807748682739192 	101317.1971847579
-0.8295795795795798 	299.9965297418113 	0.9897644682705836 	101320.8973162999
-0.8270770770770772 	299.9991290164165 	0.9972885277636759 	101323.970112846
-0.8245745745745746 	300.0011883811136 	1.003347159182685 	101326.4046683284
-0.8220720720720721 	300.0029651729819 	1.00867189787779 	101328.5052533973
-0.8195695695695699 	300.0049381207775 	1.014566974195456 	101330.8376142526
-0.817067067067067 	300.0075835089094 	1.022293477326409 	101333.9650079552
-0.8145645645645651 	300.0110600878506 	1.032236238996613 	101338.0752939183
-0.8120620620620621 	300.0150153191282 	1.04341314736911 	101342.7516113255
-0.8095595595595597 	300.0186950248207 	1.053784979061276 	101347.1024388034
-0.8070570570570572 	300.0213322899686 	1.061291234449409 	101350.2208535797
-0.8045545545545546 	300.0225757844536 	1.064984110788074 	101351.6911844129
-0.8020520520520523 	300.0226723536234 	1.065505939289931 	101351.8051172755
-0.7995495495495494 	300.022271415123 	1.06457570154851 	101351.3312654329
-0.7970470470470474 	300.0219903038033 	1.063837800833869 	101350.9991189158
-0.7945445445445446 	300.0220351939925 	1.063862173956587 	101351.0522980083
-0.7920420420420423 	300.0221288256127 	1.063937410049709 	101351.1626448497
-0.7895395395395397 	300.0217548441871 	1.062704406025686 	101350.7199398113
-0.7870370370370371 	300.0205188840073 	1.0591079644074 	101349.2589522205
-0.7845345345345348 	300.0183751862162 	1.052998233210761 	101346.7247987735
-0.7820320320320323 	300.0155890071848 	1.045066759226042 	101343.4306409262
-0.7795295295295296 	300.0125390517182 	1.036348125145135 	101339.8245799718
-0.7770270270270272 	300.0095487667739 	1.027764050863044 	101336.2891422026
-0.7745245245245247 	300.0068384481524 	1.01996039938935 	101333.08477021
-0.7720220220220222 	300.0045384317024 	1.01330343575131 	101330.3656308767
-0.7695195195195199 	300.0026575517716 	1.007786094982023 	101328.1419638896
-0.767017017017017 	300.0010024323626 	1.00284092894063 	101326.1853422261
-0.7645145145145147 	299.9991647420758 	0.9973407712800864 	101324.0129274504
-0.7620120120120122 	299.9966748145269 	0.9900296484297475 	101321.0694254285
-0.7595095095095097 	299.9932804269974 	0.9802630987839825 	101317.0568660031
-0.7570070070070072 	299.9891710297429 	0.9685860310637289 	101312.1991634772
-0.7545045045045048 	299.9849635773729 	0.9566833382149431 	101307.225572978
-0.7520020020020022 	299.9814284312266 	0.946650065736373 	101303.0468726983
-0.7494994994994997 	299.9791223366806 	0.9400079765395584 	101300.3209356924
-0.7469969969969972 	299.9781458650444 	0.9370519915165428 	101299.1666958577
-0.7444944944944945 	299.9781539367583 	0.9368681888319126 	101299.176494581
-0.7419919919919924 	299.9785846525626 	0.9379342431384265 	101299.6853082889
-0.7394894894894897 	299.9789462639785 	0.9389016248894362 	101300.1125849956
-0.7369869869869872 	299.9790196165793 	0.9391506606929465 	101300.1992413289
-0.7344844844844846 	299.9789012596972 	0.9389286655689674 	101300.0593593657
-0.7319819819819822 	299.978916597698 	0.9391232518425436 	101300.0779015179
-0.7294794794794797 	299.9794681012622 	0.9408394048201549 	101300.729969418
-0.7269769769769773 	299.9808714173197 	0.9449411219122555 	101302.3881624572
-0.7244744744744747 	299.9832207473858 	0.9516772458819577 	101305.1648378135
-0.721971971971972 	299.9863209253685 	0.9604912853642026 	101308.8292819211
-0.7194694694694695 	299.9897160602833 	0.970121443785129 	101312.8426198351
-0.7169669669669674 	299.9928522251691 	0.9790602040861397 	101316.5499619108
-0.7144644644644647 	299.9953395617727 	0.9862668694021121 	101319.4903285665
-0.711961961961962 	299.9971862023438 	0.991781617813025 	101321.6734482347
-0.7094594594594597 	299.9988360739632 	0.9968015935696239 	101323.6238321096
-0.7069569569569573 	300.0009295881773 	1.003032412048974 	101326.0986609814
-0.7044544544544545 	300.0039044878037 	1.011626209546229 	101329.6156080639
-0.7019519519519523 	300.0076903626263 	1.022380974633139 	101334.0913495444
-0.6994494494494495 	300.0117180836046 	1.033774294393538 	101338.8533360336
-0.6969469469469471 	300.0152542125175 	1.04384087020383 	101343.0343166895
-0.6944444444444446 	300.0178246244173 	1.051291743228463 	101346.0734957354
-0.6919419419419421 	300.0194393801083 	1.056115986038384 	101347.9828375421
-0.6894394394394396 	300.0204860507424 	1.059310814686958 	101349.2204201215
-0.6869369369369374 	300.0213986381191 	1.06202114638605 	101350.2994729969
-0.6844344344344344 	300.022358664972 	1.064745565626259 	101351.434646213
-0.6819319319319321 	300.0232194770965 	1.067115522916736 	101352.4524800237
-0.6794294294294296 	300.0236534958596 	1.068264653480232 	101352.9655451993
-0.6769269269269272 	300.0233729227319 	1.067409485782896 	101352.6332008489
-0.6744244244244245 	300.0222672346803 	1.06423719442439 	101351.3263453004
-0.6719219219219222 	300.0204173551095 	1.058950239467627 	101349.1395108308
-0.6694194194194195 	300.0180187970045 	1.052089600562891 	101346.3035386586
-0.6669169169169172 	300.0153155159099 	1.044354508694389 	101343.1073143132
-0.6644144144144146 	300.0125742509444 	1.036510308364995 	101339.8662334995
-0.661911911911912 	300.0100602806448 	1.029301184531373 	101336.8939156029
-0.6594094094094097 	300.0079701446244 	1.023256830956739 	101334.4227588282
-0.656906906906907 	300.0063266341236 	1.018414765524227 	101332.4796391151
-0.6544044044044046 	300.0049063338258 	1.014142681338696 	101330.8005411587
-0.6519019019019021 	300.0032824629444 	1.00926749406138 	101328.8808017026
-0.6493993993993996 	300.0009970195447 	1.002547182931372 	101326.1789510172
-0.6468968968968971 	299.9977884828294 	0.9932856944965035 	101322.3859582753
-0.6443943943943946 	299.993754762831 	0.9817690084991877 	101317.6175455625
-0.6418918918918921 	299.9893576195059 	0.9692749567472468 	101312.4196177058
-0.6393893893893897 	299.985260708415 	0.9576339666461662 	101307.5767568589
-0.6368868868868871 	299.9820789883066 	0.9485413500189176 	101303.8157500517
-0.6343843843843846 	299.9801450094872 	0.9429134804595808 	101301.5296511108
-0.6318818818818821 	299.9793846173339 	0.9405507257414401 	101300.6308304439
-0.6293793793793795 	299.979362130638 	0.9402698625138528 	101300.6043592264
-0.6268768768768773 	299.9794943984598 	0.9404889108091714 	101300.7604705322
-0.6243743743743745 	299.979341478972 	0.9400184280639481 	101300.5793315249
-0.6218718718718721 	299.9788316762364 	0.9386649881898287 	101299.9770445967
-0.6193693693693696 	299.9782931678957 	0.9373039148298293 	101299.3406729618
-0.6168668668668671 	299.9782548969773 	0.9373549652986005 	101299.2960552931
-0.6143643643643645 	299.9791418804678 	0.9399539666452545 	101300.3444932792
-0.6118618618618621 	299.9810274186733 	0.9452983314210696 	101302.5724315174
-0.6093593593593596 	299.9835964194714 	0.952550692951126 	101305.6089079867
-0.6068568568568571 	299.9863392597917 	0.9603401544792992 	101308.8510428688
-0.6043543543543546 	299.9888344655208 	0.9675226464913884 	101311.8005237492
-0.6018518518518521 	299.9909556062659 	0.9737400904091758 	101314.3080440005
-0.5993493493493496 	299.9928935856585 	0.9794869158463628 	101316.5988712289
-0.5968468468468471 	299.9950019856751 	0.985704792043436 	101319.0912216008
-0.5943443443443446 	299.9975743549563 	0.9931821908678647 	101322.1321952378
-0.591841841841842 	300.0006774959739 	1.002100826556209 	101325.800565144
-0.5893393393393397 	300.0041206903147 	1.011949554448066 	101329.8711696151
-0.5868368368368371 	300.0075652747365 	1.021813356764502 	101333.9435860887
-0.5843343343343346 	300.0107018445458 	1.030849911558979 	101337.6518951164
-0.5818318318318321 	300.013395498042 	1.038682373299387 	101340.8366826466
-0.5793293293293297 	300.0157223807569 	1.045497371059955 	101343.5878777252
-0.5768268268268271 	300.0178786816506 	1.051801418156629 	101346.1373892683
-0.5743243243243245 	300.0200152621757 	1.057977800190491 	101348.6636418424
-0.5718218218218221 	300.0220939655007 	1.06390201300993 	101351.1215487842
-0.5693193193193196 	300.0238511442975 	1.068846124754422 	101353.1993019116
-0.5668168168168171 	300.0248953738919 	1.071744995250149 	101354.4340457388
-0.5643143143143147 	300.0248939323363 	1.071698621464477 	101354.4314952309
-0.5618118118118121 	300.0237470452659 	1.068455920556638 	101353.0757482496
-0.5593093093093094 	300.0216755096233 	1.06262811933642 	101350.6270200137
-0.5568068068068072 	300.0191474679723 	1.055499183137827 	101347.6380233873
-0.5543043043043046 	300.0166900583031 	1.048520895035752 	101344.7324297022
-0.551801801801802 	300.0146850114061 	1.042750609429016 	101342.361739013
-0.5492992992992995 	300.0132365474241 	1.038487368132015 	101340.6491140271
-0.5467967967967969 	300.0121639175203 	1.035248184162093 	101339.3809235944
-0.5442942942942947 	300.0111105291591 	1.032060168221852 	101338.1355170766
-0.5417917917917919 	300.0097064437508 	1.027902520650756 	101336.4755130844
-0.5392892892892895 	300.0077066899649 	1.022088380665926 	101334.1113325944
-0.536786786786787 	300.0050536454135 	1.014442199823576 	101330.974776009
-0.5342842842842846 	300.0018548991278 	1.005248206806495 	101327.1931869793
-0.531781781781782 	299.9983092244674 	0.9950532216182543 	101323.0015462814
-0.5292792792792794 	299.9946285000512 	0.9844549814874751 	101318.6503211591
-0.526776776776777 	299.9909939003072 	0.9739788593551548 	101314.3538090784
-0.5242742742742745 	299.9875554899988 	0.964068194367383 	101310.2892452546
-0.521771771771772 	299.984454459173 	0.9551385344744876 	101306.6236261034
-0.5192692692692695 	299.9818392696003 	0.9476158960857696 	101303.5323897168
-0.516766766766767 	299.9798542061613 	0.9419038207473316 	101301.1859171193
-0.5142642642642645 	299.9786011270074 	0.9382812740132633 	101299.7047673701
-0.511761761761762 	299.9780961376317 	0.9367861823388118 	101299.1078868181
-0.5092592592592596 	299.9782470781615 	0.9371585990624836 	101299.2866068424
-0.506756756756757 	299.9788726252751 	0.938889984820695 	101300.0256822904
-0.5042542542542544 	299.9797532249569 	0.9413740233569837 	101301.066339727
-0.5017517517517521 	299.9807068503559 	0.9441051980716268 	101302.1935177561
-0.4992492492492494 	299.9816469689854 	0.9468397693842435 	101303.304762382
-0.496746746746747 	299.9826022906857 	0.9496519456549584 	101304.4339241816
-0.4942442442442445 	299.9836928472021 	0.9528692302555761 	101305.7230112831
-0.4917417417417421 	299.9850745684717 	0.956919312039789 	101307.3561883529
-0.4892392392392395 	299.9868745428965 	0.9621528690958914 	101309.4838072009
-0.486736736736737 	299.9891431577861 	0.9687098801360339 	101312.1654609733
-0.4842342342342345 	299.9918379649536 	0.9764737665408438 	101315.3509163905
-0.481731731731732 	299.9948414987684 	0.9851198912624934 	101318.9014891981
-0.4792292292292296 	299.9980031565143 	0.9942287748573502 	101322.6390356992
-0.4767267267267268 	300.0011851986939 	1.003413929750476 	101326.4008021916
-0.4742242242242246 	300.0042965712854 	1.012415458925679 	101330.0791734306
-0.471721721721722 	300.0073034549349 	1.021130214242004 	101333.634030602
-0.4692192192192195 	300.0102157937756 	1.029576754511567 	101337.0772641065
-0.4667167167167169 	300.0130589883869 	1.03781657106316 	101340.4387867606
-0.4642142142142145 	300.0158413686565 	1.045865053235785 	101343.7284811607
-0.461711711711712 	300.0185302704282 	1.05362463398128 	101346.9077972355
-0.4592092092092094 	300.0210437937837 	1.060860826968756 	101349.8797400559
-0.456706706706707 	300.0232589251737 	1.067225580877842 	101352.4989986717
-0.4542042042042045 	300.0250337566358 	1.072317779755792 	101354.597664199
-0.451701701701702 	300.0262351889659 	1.075761597680035 	101356.0183300526
-0.4491991991991995 	300.0267656632493 	1.077281173780937 	101356.6455840247
-0.4466966966966969 	300.0265822640325 	1.076753208504351 	101356.4281103086
-0.4441941941941945 	300.025701392836 	1.074230507085799 	101355.387034688
-0.441691691691692 	300.0242032231512 	1.069935886312968 	101353.6158872999
-0.4391891891891895 	300.0222128073399 	1.064224288602713 	101351.2624501731
-0.436686686686687 	300.0198813574985 	1.057527334358221 	101348.5057664208
-0.4341841841841846 	300.0173672914489 	1.050297635415841 	101345.5332033969
-0.431681681681682 	300.014818580185 	1.042959153743978 	101342.5197282208
-0.4291791791791794 	300.0123598369426 	1.035870318684202 	101339.6126778798
-0.426676676676677 	300.0100851848964 	1.02930314106529 	101336.9233296429
-0.4241741741741744 	300.0080563856547 	1.023437338561519 	101334.5246928057
-0.421671671671672 	300.0063050396747 	1.018366209356509 	101332.4541148427
-0.4191691691691694 	300.0048374633071 	1.014110273937151 	101330.719050889
-0.4166666666666669 	300.0036408770655 	1.010634794468459 	101329.3043817854
-0.4141641641641645 	300.0026897644121 	1.007867906682215 	101328.1799328257
-0.411661661661662 	300.0019515936504 	1.005717028648977 	101327.307237938
-0.4091591591591594 	300.0013914398377 	1.004082193126144 	101326.6450042043
-0.406656656656657 	300.0009753462225 	1.002865804003453 	101326.153084786
-0.4041541541541545 	300.0006724796859 	1.001978947715745 	101325.795026503
-0.401651651651652 	300.000456267794 	1.001344776892206 	101325.5394143045
-0.3991491491491494 	300.0003047641262 	1.000899655380066 	101325.3603020461
-0.396646646646647 	300.0002004857149 	1.000592766444506 	101325.2370209294
-0.3941441441441444 	300.0001299395036 	1.000384799229998 	101325.1536189472
-0.3916416416416419 	300.0000830022982 	1.000246195810136 	101325.0981283056
-0.3891391391391395 	300.0000522727672 	1.000155298543902 	101325.0617988178
-0.3866366366366368 	300.000032466428 	1.000096611999935 	101325.0383830589
-0.3841341341341344 	300.0000198928762 	1.000059292723668 	101325.0235181227
-0.381631631631632 	300.0000120277818 	1.000035908854598 	101325.0142197816
-0.3791291291291294 	300.0000071782842 	1.000021465880399 	101325.0084864861
-0.3766266266266269 	300.0000042297418 	1.000012669353864 	101325.0050005704
-0.3741241241241244 	300.0000024613494 	1.000007384572583 	101325.0029098761
-0.371621621621622 	300.0000014147939 	1.000004251704551 	101325.0016726099
-0.3691191191191194 	300.000000803499 	1.000002418619399 	101325.0009498985
-0.366616616616617 	300.0000004509616 	1.00000135963917 	101325.0005331084
-0.3641141141141143 	300.0000002501138 	1.000000755492559 	101325.0002957315
-0.3616116116116119 	300.0000001371421 	1.00000041502657 	101325.0001621835
-0.3591091091091095 	300.0000000743842 	1.000000225443408 	101325.0000879477
-0.356606606606607 	300.0000000398766 	1.00000012111437 	101325.000047165
-0.3541041041041044 	300.0000000211625 	1.000000064364279 	101325.0000250182
-0.3516016016016019 	300.0000000111227 	1.000000033842294 	101325.0000131278
-0.3490990990990994 	300.0000000057822 	1.000000017609213 	101325.0000068149
-0.346596596596597 	300.0000000030109 	1.000000009075904 	101325.0000034995
-0.3440940940940944 	300.0000000015589 	1.000000004622274 	101325.000001777
-0.3415915915915919 	300.0000000007997 	1.00000000233441 	101325.0000008913
-0.3390890890890895 	300.000000000368 	1.00000000117131 	101325.0000004407
-0.3365865865865869 	300.0000000001938 	1.000000000584281 	101325.0000002134
-0.3340840840840844 	300.0000000000906 	1.000000000288592 	101325.0000000997
-0.3315815815815819 	300.0000000000651 	1.000000000140669 	101325.0000000432
-0.3290790790790794 	300.0000000000464 	1.000000000067483 	101325.0000000163
-0.3265765765765769 	299.9999999999571 	1.000000000033841 	101325.0000000027
-0.3240740740740744 	299.9999999999873 	1.00000000001894 	101324.999999996
-0.3215715715715718 	300.000000000004 	1.000000000011322 	101324.9999999935
-0.3190690690690695 	299.9999999999483 	1.000000000007252 	101324.9999999922
-0.3165665665665668 	299.9999999999868 	1.000000000005197 	101324.999999992
-0.3140640640640644 	299.9999999999964 	1.000000000004404 	101324.9999999915
-0.311561561561562 	299.9999999999479 	1.000000000005612 	101324.9999999911
-0.3090590590590593 	299.9999999999889 	1.000000000004946 	101324.9999999912
-0.3065565565565568 	299.9999999999997 	1.000000000018701 	101324.9999999913
-0.3040540540540545 	299.9999999999947 	0.9999999999997716 	101324.9999999906
-0.3015515515515518 	300.0000000000154 	0.9999999999993926 	101324.9999999905
-0.2990490490490494 	299.9999999999578 	1.000000000004223 	101324.9999999906
-0.2965465465465469 	299.9999999999803 	1.000000000002737 	101324.9999999905
-0.2940440440440444 	300.0000000000094 	1.000000000000917 	101324.9999999906
-0.2915415415415418 	300.0000000000187 	1.000000000001473 	101324.9999999905
-0.2890390390390395 	300.0000000000194 	1.000000000002872 	101324.9999999904
-0.2865365365365368 	299.9999999999859 	1.000000000003933 	101324.9999999901
-0.2840340340340343 	299.999999999989 	1.00000000001215 	101324.9999999901
-0.2815315315315318 	299.9999999999652 	1.00000000000348 	101324.9999999906
-0.2790290290290295 	299.9999999999434 	1.000000000003402 	101324.999999991
-0.2765265265265269 	299.999999999985 	1.000000000004829 	101324.9999999909
-0.2740240240240244 	300.0000000000266 	1.000000000003384 	101324.9999999906
-0.2715215215215219 	300.0000000000305 	1.000000000003207 	101324.9999999907
-0.2690190190190194 	299.9999999999615 	1.000000000004306 	101324.9999999904
-0.2665165165165169 	299.9999999999742 	1.00000000000601 	101324.9999999907
-0.2640140140140144 	299.9999999999635 	1.000000000006156 	101324.99999999
-0.2615115115115119 	299.9999999999828 	1.000000000012614 	101324.9999999896
-0.2590090090090094 	299.9999999999305 	1.000000000001459 	101324.9999999892
-0.2565065065065068 	299.9999999999766 	1.000000000001152 	101324.9999999896
-0.2540040040040044 	299.9999999999953 	1.000000000003958 	101324.99999999
-0.2515015015015019 	300.0000000000343 	1.000000000004824 	101324.9999999902
-0.2489989989989994 	300.0000000000498 	1.000000000004773 	101324.9999999906
-0.2464964964964968 	300.0000000000116 	1.000000000003059 	101324.9999999899
-0.2439939939939944 	300.0000000000041 	1.000000000008498 	101324.9999999902
-0.2414914914914919 	299.9999999999698 	0.9999999999980235 	101324.9999999902
-0.2389889889889893 	299.9999999999737 	0.9999999999989445 	101324.9999999899
-0.2364864864864869 	300.0000000000117 	1.000000000002401 	101324.9999999891
-0.2339839839839843 	299.9999999999545 	1.000000000011308 	101324.999999989
-0.2314814814814819 	299.9999999999607 	1.000000000001927 	101324.9999999894
-0.2289789789789792 	299.9999999999224 	1.000000000003066 	101324.9999999899
-0.2264764764764769 	299.9999999999218 	1.000000000004874 	101324.9999999905
-0.2239739739739743 	299.999999999944 	1.000000000002566 	101324.9999999905
-0.2214714714714718 	299.999999999923 	1.000000000002246 	101324.9999999907
-0.2189689689689693 	299.9999999999368 	1.000000000002435 	101324.9999999908
-0.2164664664664669 	299.9999999999682 	1.000000000010008 	101324.9999999899
-0.2139639639639643 	299.999999999929 	1.000000000000035 	101324.9999999898
-0.2114614614614618 	299.9999999999421 	1.000000000002391 	101324.9999999902
-0.2089589589589593 	299.9999999999922 	1.000000000005736 	101324.9999999906
-0.2064564564564568 	299.9999999999962 	1.000000000004599 	101324.9999999906
-0.2039539539539543 	299.9999999999159 	1.000000000002992 	101324.99999999
-0.2014514514514518 	299.9999999999208 	1.000000000000568 	101324.9999999901
-0.1989489489489494 	299.9999999999538 	1.000000000006917 	101324.9999999895
-0.1964464464464468 	299.9999999999938 	0.9999999999972344 	101324.999999989
-0.1939439439439443 	299.9999999999965 	0.9999999999990399 	101324.999999989
-0.1914414414414418 	299.999999999939 	1.000000000002869 	101324.999999989
-0.1889389389389393 	299.9999999999657 	1.000000000003369 	101324.9999999891
-0.1864364364364368 	300.0000000000272 	1.000000000003951 	101324.9999999892
-0.1839339339339343 	299.9999999999891 	1.000000000004672 	101324.9999999895
-0.1814314314314318 	299.9999999999846 	1.000000000004472 	101324.9999999896
-0.1789289289289293 	299.9999999999138 	1.000000000003883 	101324.9999999894
-0.1764264264264268 	299.9999999999404 	1.000000000003645 	101324.9999999893
-0.1739239239239243 	299.9999999999014 	1.000000000003438 	101324.9999999892
-0.1714214214214218 	299.9999999999546 	1.00000000000332 	101324.9999999894
-0.1689189189189193 	299.9999999999389 	1.000000000002506 	101324.9999999896
-0.1664164164164168 	299.999999999979 	1.000000000002204 	101324.9999999891
-0.1639139139139143 	300.0000000000005 	1.000000000003486 	101324.9999999893
-0.1614114114114118 	300.0000000000205 	1.000000000002791 	101324.99999999
-0.1589089089089093 	300.0000000000148 	1.000000000018632 	101324.9999999899
-0.1564064064064068 	299.9999999999824 	0.9999999999971668 	101324.99999999
-0.1539039039039043 	299.9999999999897 	1.000000000006216 	101324.9999999899
-0.1514014014014018 	300.0000000000152 	1.000000000000355 	101324.9999999902
-0.1488988988988993 	300.0000000000022 	1.000000000007882 	101324.9999999897
-0.1463963963963968 	299.9999999999967 	0.9999999999992875 	101324.9999999898
-0.1438938938938943 	299.9999999999657 	1.000000000000311 	101324.9999999901
-0.1413913913913918 	299.9999999999209 	1.000000000003787 	101324.9999999903
-0.1388888888888893 	299.9999999999495 	1.00000000000569 	101324.9999999907
-0.1363863863863868 	299.9999999999178 	1.000000000005796 	101324.9999999909
-0.1338838838838843 	299.9999999998873 	1.000000000004928 	101324.999999991
-0.1313813813813818 	299.9999999999617 	1.000000000004349 	101324.9999999908
-0.1288788788788793 	299.9999999999416 	1.000000000003728 	101324.9999999913
-0.1263763763763768 	299.9999999999652 	1.000000000004661 	101324.9999999911
-0.1238738738738743 	299.999999999939 	1.000000000004171 	101324.9999999908
-0.1213713713713717 	299.9999999999616 	1.000000000004288 	101324.9999999901
-0.1188688688688693 	300.0000000000126 	1.000000000003915 	101324.99999999
-0.1163663663663668 	299.999999999919 	1.000000000002194 	101324.9999999896
-0.1138638638638643 	299.9999999999553 	1.000000000009454 	101324.9999999894
-0.1113613613613618 	299.9999999999795 	0.9999999999973292 	101324.9999999889
-0.1088588588588592 	299.9999999999803 	1.000000000006104 	101324.9999999891
-0.1063563563563568 	299.9999999999668 	0.9999999999978036 	101324.9999999891
-0.1038538538538543 	299.9999999999733 	0.9999999999993912 	101324.9999999891
-0.1013513513513517 	299.9999999999972 	1.000000000002101 	101324.9999999893
-0.09884884884884926 	299.9999999999734 	1.000000000002891 	101324.9999999899
-0.09634634634634676 	299.999999999916 	1.000000000002509 	101324.9999999898
-0.09384384384384425 	299.9999999998791 	1.000000000002148 	101324.9999999902
-0.09134134134134177 	299.9999999999818 	1.000000000002115 	101324.9999999902
-0.08883883883883925 	300.0000000000034 	1.000000000002148 	101324.9999999901
-0.08633633633633674 	299.9999999999497 	1.00000000000069 	101324.9999999895
-0.08383383383383426 	299.9999999999876 	1.000000000000365 	101324.9999999905
-0.08133133133133173 	299.9999999999746 	1.000000000000715 	101324.9999999905
-0.07882882882882926 	299.9999999999073 	1.000000000001425 	101324.999999991
-0.07632632632632676 	299.9999999999398 	1.000000000001402 	101324.999999991
-0.07382382382382424 	299.9999999998961 	1.000000000000409 	101324.9999999905
-0.07132132132132173 	299.9999999999557 	1.000000000000835 	101324.99999999
-0.06881881881881925 	299.999999999945 	1.000000000001997 	101324.9999999903
-0.06631631631631671 	299.9999999998854 	1.000000000003208 	101324.9999999899
-0.06381381381381425 	299.9999999999217 	1.000000000002531 	101324.9999999894
-0.06131131131131173 	299.9999999999436 	1.000000000002452 	101324.9999999893
-0.05880880880880923 	299.9999999999482 	1.000000000002299 	101324.9999999893
-0.05630630630630672 	299.9999999999453 	1.000000000001891 	101324.9999999893
-0.05380380380380424 	300.0000000000146 	1.000000000002798 	101324.9999999897
-0.05130130130130173 	300.0000000000109 	1.000000000003369 	101324.9999999903
-0.04879879879879922 	299.9999999999222 	1.000000000002701 	101324.9999999901
-0.04629629629629672 	299.9999999999067 	1.000000000001171 	101324.9999999904
-0.04379379379379422 	299.9999999999208 	0.999999999999332 	101324.9999999908
-0.04129129129129173 	299.9999999999336 	0.9999999999988146 	101324.99999999
-0.03878878878878922 	299.9999999999921 	1.000000000000085 	101324.9999999895
-0.03628628628628671 	299.999999999976 	1.000000000002163 	101324.9999999894
-0.03378378378378422 	299.9999999999115 	1.000000000003849 	101324.9999999897
-0.03128128128128172 	299.9999999999264 	1.00000000000396 	101324.9999999899
-0.02877877877877922 	299.9999999999898 	1.000000000004432 	101324.9999999889
-0.0262762762762767 	299.9999999999071 	1.000000000004277 	101324.999999988
-0.02377377377377422 	299.9999999999563 	1.000000000002821 	101324.9999999883
-0.0212712712712717 	299.9999999998906 	1.000000000001223 	101324.9999999887
-0.01876876876876921 	299.9999999999446 	1.000000000001129 	101324.9999999889
-0.01626626626626671 	299.9999999999831 	1.000000000001517 	101324.9999999894
-0.0137637637637642 	299.9999999999447 	1.000000000001884 	101324.9999999905
-0.0112612612612617 	299.9999999999699 	1.000000000001667 	101324.9999999901
-0.008758758758759198 	299.9999999999641 	1.000000000001515 	101324.9999999895
-0.006256256256256697 	299.9999999999152 	1.000000000001363 	101324.9999999896
-0.003753753753754195 	299.9999999999191 	1.000000000000785 	101324.9999999892
-0.001251251251251693 	299.9999999999184 	1.00000000000004 	101324.9999999893
0.00125125125125081 	299.9999999999043 	0.9999999999995959 	101324.9999999894
0.003753753753753312 	299.9999999999109 	1.00000000000002 	101324.9999999895
0.006256256256255817 	299.9999999999018 	1.000000000001217 	101324.9999999892
0.008758758758758317 	299.9999999999204 	1.000000000001174 	101324.9999999889
0.01126126126126082 	299.9999999999578 	1.000000000001239 	101324.9999999887
0.01376376376376332 	299.9999999999353 	1.000000000001387 	101324.9999999888
0.01626626626626582 	299.9999999999713 	1.000000000000194 	101324.9999999899
0.01876876876876833 	299.9999999999699 	0.9999999999994412 	101324.9999999905
0.02127127127127083 	299.9999999999171 	0.9999999999992086 	101324.9999999907
0.02377377377377332 	299.9999999999696 	0.9999999999981106 	101324.9999999905
0.02627627627627583 	299.9999999999156 	0.9999999999971169 	101324.99999999
0.02877877877877833 	299.9999999999597 	0.9999999999970954 	101324.9999999893
0.03128128128128083 	299.9999999999574 	0.999999999998361 	101324.9999999895
0.03378378378378333 	299.999999999914 	0.9999999999989914 	101324.9999999897
0.03628628628628584 	299.999999999936 	0.9999999999996693 	101324.9999999894
0.03878878878878834 	299.9999999999895 	0.9999999999992448 	101324.9999999893
0.04129129129129084 	299.9999999999474 	0.9999999999990308 	101324.9999999894
0.04379379379379333 	299.999999999944 	0.9999999999995707 	101324.9999999894
0.04629629629629585 	299.9999999999208 	1.000000000000069 	101324.9999999886
0.04879879879879834 	299.9999999998996 	1.000000000000027 	101324.9999999888
0.05130130130130085 	299.9999999999838 	1.000000000000081 	101324.999999989
0.05380380380380335 	300.0000000000172 	1.000000000000423 	101324.9999999888
0.05630630630630584 	299.9999999999853 	1.000000000000409 	101324.9999999884
0.05880880880880836 	299.9999999999365 	0.9999999999997266 	101324.9999999887
0.06131131131131085 	299.9999999999478 	0.9999999999994427 	101324.999999989
0.06381381381381336 	299.9999999999578 	0.999999999999477 	101324.9999999888
0.06631631631631586 	299.9999999999111 	0.999999999999566 	101324.999999989
0.06881881881881835 	299.9999999999291 	0.9999999999998171 	101324.9999999893
0.07132132132132088 	299.9999999999732 	0.9999999999990651 	101324.9999999894
0.07382382382382337 	299.9999999999164 	0.9999999999981418 	101324.9999999895
0.07632632632632587 	299.9999999999364 	0.9999999999973389 	101324.9999999895
0.07882882882882837 	299.9999999999383 	0.9999999999975465 	101324.9999999905
0.08133133133133086 	299.9999999999499 	0.9999999999977485 	101324.9999999902
0.08383383383383337 	299.9999999999732 	0.999999999997718 	101324.9999999897
0.08633633633633589 	299.9999999999142 	0.9999999999976864 	101324.9999999896
0.08883883883883838 	299.9999999999778 	0.9999999999982684 	101324.9999999902
0.09134134134134086 	299.9999999999749 	0.9999999999990269 	101324.9999999902
0.09384384384384339 	299.9999999999076 	0.9999999999988428 	101324.9999999895
0.09634634634634588 	299.9999999999364 	0.9999999999985152 	101324.9999999889
0.09884884884884838 	299.9999999999612 	0.9999999999984862 	101324.9999999886
0.1013513513513509 	300.000000000021 	0.9999999999990995 	101324.9999999887
0.1038538538538534 	299.9999999999859 	0.9999999999988987 	101324.9999999891
0.1063563563563559 	299.9999999999902 	0.9999999999991628 	101324.9999999898
0.1088588588588584 	300.0000000000218 	1.000000000000103 	101324.9999999888
0.1113613613613609 	299.9999999999661 	1.000000000001287 	101324.9999999884
0.1138638638638634 	299.9999999999202 	1.000000000001444 	101324.999999989
0.1163663663663659 	299.9999999999264 	1.000000000000953 	101324.9999999896
0.1188688688688684 	299.9999999999453 	1.00000000000041 	101324.9999999904
0.1213713713713709 	299.9999999999874 	0.9999999999994225 	101324.9999999901
0.1238738738738734 	299.9999999999368 	0.9999999999991329 	101324.9999999896
0.1263763763763759 	299.9999999999696 	0.9999999999997898 	101324.9999999896
0.1288788788788784 	299.9999999999777 	1.000000000000192 	101324.9999999895
0.1313813813813809 	299.9999999999686 	1.000000000000139 	101324.9999999895
0.1338838838838834 	299.9999999999756 	0.9999999999986846 	101324.9999999897
0.1363863863863859 	300.0000000000039 	0.9999999999977597 	101324.9999999901
0.1388888888888884 	300.0000000000381 	0.9999999999972242 	101324.9999999897
0.1413913913913909 	300.0000000000164 	0.9999999999989027 	101324.9999999892
0.1438938938938934 	299.9999999999962 	0.9999999999998527 	101324.9999999892
0.1463963963963959 	299.9999999999563 	0.9999999999997937 	101324.9999999895
0.1488988988988985 	299.9999999999119 	0.9999999999992714 	101324.9999999893
0.1514014014014009 	299.9999999999492 	0.9999999999982329 	101324.99999999
0.1539039039039035 	299.9999999999516 	0.9999999999971789 	101324.9999999904
0.1564064064064059 	299.9999999999285 	1.000000000004079 	101324.9999999904
0.1589089089089084 	299.9999999999536 	0.9999999999927608 	101324.9999999904
0.1614114114114109 	299.9999999999533 	0.9999999999952289 	101324.9999999901
0.1639139139139134 	299.999999999918 	0.9999999999984254 	101324.9999999903
0.166416416416416 	299.9999999999532 	0.9999999999977244 	101324.9999999895
0.1689189189189185 	300.0000000000272 	0.9999999999971796 	101324.9999999897
0.1714214214214209 	300.0000000000165 	0.9999999999972536 	101324.9999999902
0.1739239239239235 	299.9999999999912 	0.999999999997545 	101324.9999999899
0.1764264264264259 	299.9999999999677 	0.9999999999963817 	101324.9999999894
0.1789289289289284 	300.0000000000061 	1.000000000002855 	101324.9999999889
0.181431431431431 	299.9999999999853 	0.9999999999927349 	101324.9999999888
0.1839339339339334 	299.9999999999824 	0.9999999999950722 	101324.9999999893
0.186436436436436 	299.9999999999424 	0.9999999999969637 	101324.9999999897
0.1889389389389385 	299.9999999999711 	0.9999999999968197 	101324.9999999898
0.191441441441441 	299.9999999999687 	0.9999999999972011 	101324.9999999899
0.1939439439439434 	299.9999999999343 	0.9999999999966512 	101324.9999999896
0.196446446446446 	299.9999999999264 	1.00000000000208 	101324.9999999896
0.1989489489489485 	299.9999999999561 	0.999999999991162 	101324.9999999894
0.2014514514514509 	299.9999999999798 	0.9999999999948407 	101324.9999999888
0.2039539539539535 	299.9999999999797 	0.9999999999993074 	101324.9999999891
0.2064564564564559 	299.9999999999511 	0.99999999999921 	101324.9999999895
0.2089589589589585 	299.999999999969 	0.9999999999983172 	101324.9999999894
0.211461461461461 	299.9999999999446 	0.9999999999970165 	101324.9999999894
0.2139639639639635 	299.9999999999706 	0.9999999999965352 	101324.9999999894
0.2164664664664659 	300.0000000000128 	0.9999999999966838 	101324.9999999893
0.2189689689689684 	300.0000000000136 	1.000000000003275 	101324.9999999887
0.221471471471471 	300.0000000000102 	0.9999999999937309 	101324.9999999889
0.2239739739739735 	299.9999999999653 	0.999999999995993 	101324.9999999891
0.226476476476476 	299.9999999999763 	0.9999999999981528 	101324.9999999895
0.2289789789789785 	299.9999999999974 	0.9999999999972463 	101324.9999999897
0.231481481481481 	299.999999999985 	0.9999999999965115 	101324.9999999894
0.2339839839839835 	299.9999999999694 	0.9999999999974198 	101324.999999989
0.236486486486486 	300.000000000008 	0.9999999999987725 	101324.9999999885
0.2389889889889885 	300 	0.9999999999988601 	101324.9999999884
0.241491491491491 	299.9999999999314 	1.00000000000333 	101324.9999999884
0.2439939939939935 	299.9999999999652 	0.9999999999927819 	101324.9999999886
0.246496496496496 	299.9999999999856 	0.9999999999944733 	101324.9999999892
0.2489989989989985 	300.0000000000419 	0.9999999999968177 	101324.9999999893
0.251501501501501 	300.0000000000406 	0.9999999999971106 	101324.9999999895
0.2540040040040035 	300.0000000000084 	0.999999999997904 	101324.9999999899
0.256506506506506 	300.0000000000264 	0.9999999999984235 	101324.9999999899
0.2590090090090086 	299.999999999938 	1.000000000003035 	101324.99999999
0.261511511511511 	299.9999999999838 	0.999999999991895 	101324.9999999899
0.2640140140140135 	299.9999999999793 	0.9999999999941147 	101324.9999999899
0.2665165165165161 	299.9999999999328 	0.9999999999973277 	101324.9999999896
0.2690190190190185 	299.9999999999827 	0.9999999999982425 	101324.9999999895
0.271521521521521 	300.0000000000282 	0.999999999997312 	101324.999999989
0.2740240240240235 	300.0000000000322 	0.9999999999956449 	101324.9999999887
0.276526526526526 	300.0000000000248 	0.9999999999950611 	101324.9999999888
0.2790290290290286 	299.9999999999611 	0.9999999999954579 	101324.9999999889
0.281531531531531 	299.9999999999284 	1.000000000002393 	101324.999999989
0.2840340340340335 	299.999999999962 	0.9999999999938477 	101324.9999999894
0.2865365365365361 	299.9999999999687 	0.9999999999973458 	101324.9999999893
0.2890390390390385 	300.000000000004 	0.9999999999997289 	101324.9999999889
0.291541541541541 	300.0000000000179 	0.9999999999989334 	101324.9999999884
0.2940440440440436 	300.0000000000126 	0.9999999999980682 	101324.9999999885
0.296546546546546 	300.0000000000113 	0.9999999999975526 	101324.9999999886
0.2990490490490486 	299.9999999999635 	0.9999999999976513 	101324.9999999889
0.3015515515515511 	300.0000000000018 	0.9999999999979101 	101324.9999999896
0.3040540540540535 	300.0000000000024 	1.000000000008093 	101324.9999999898
0.3065565565565562 	300.0000000000068 	0.9999999999869724 	101324.9999999894
0.3090590590590585 	300.0000000000017 	0.9999999999911315 	101324.9999999897
0.3115615615615611 	299.9999999999553 	0.9999999999962584 	101324.9999999895
0.3140640640640635 	300.0000000000014 	0.9999999999970889 	101324.9999999896
0.316566566566566 	299.9999999999952 	0.9999999999972118 	101324.9999999895
0.3190690690690687 	299.9999999999426 	0.9999999999978424 	101324.9999999901
0.3215715715715711 	299.9999999999869 	0.9999999999993527 	101324.9999999904
0.3240740740740735 	299.9999999999916 	0.9999999999995209 	101324.99999999
0.326576576576576 	299.9999999999348 	0.9999999999989561 	101324.9999999893
0.3290790790790786 	300.0000000000006 	0.9999999999983079 	101324.9999999889
0.3315815815815811 	300.0000000000236 	0.9999999999978443 	101324.9999999891
0.3340840840840836 	300.0000000000108 	0.9999999999980148 	101324.9999999892
0.3365865865865861 	300.0000000000343 	0.9999999999980815 	101324.9999999892
0.3390890890890886 	300.0000000000513 	0.9999999999981718 	101324.9999999889
0.3415915915915911 	300.0000000000241 	0.9999999999981728 	101324.9999999887
0.3440940940940935 	299.9999999999429 	1.000000000002676 	101324.9999999886
0.3465965965965962 	299.9999999999966 	0.9999999999931964 	101324.9999999887
0.3490990990990985 	300.0000000000151 	0.9999999999954711 	101324.9999999895
0.3516016016016011 	300.0000000000186 	0.9999999999983119 	101324.9999999895
0.3541041041041035 	300.0000000000051 	0.999999999997836 	101324.9999999892
0.3566066066066061 	299.9999999999299 	0.9999999999979647 	101324.9999999893
0.3591091091091085 	299.9999999999366 	0.9999999999986735 	101324.999999989
0.3616116116116112 	299.9999999999587 	0.9999999999991105 	101324.999999989
0.3641141141141137 	299.9999999999407 	0.9999999999999879 	101324.999999989
0.3666166166166161 	299.9999999999008 	1.000000000010216 	101324.9999999889
0.3691191191191185 	299.9999999999813 	0.999999999991148 	101324.9999999883
0.371621621621621 	299.9999999999987 	0.9999999999958797 	101324.9999999883
0.3741241241241237 	300.0000000000241 	1.000000000000785 	101324.9999999886
0.3766266266266261 	300.0000000000164 	0.9999999999994367 	101324.999999989
0.3791291291291286 	299.9999999999962 	0.9999999999986391 	101324.9999999892
0.3816316316316311 	299.9999999999458 	0.9999999999988891 	101324.9999999893
0.3841341341341336 	299.9999999999797 	0.9999999999991646 	101324.9999999896
0.3866366366366362 	299.9999999999752 	0.9999999999991696 	101324.9999999894
0.3891391391391387 	299.9999999999582 	0.9999999999987053 	101324.9999999895
0.391641641641641 	299.9999999999937 	0.9999999999981417 	101324.9999999897
0.3941441441441436 	300.000000000002 	0.9999999999986986 	101324.9999999894
0.3966466466466462 	299.9999999999998 	1.000000000000054 	101324.9999999897
0.3991491491491486 	299.9999999999792 	0.9999999999997433 	101324.9999999902
0.4016516516516512 	299.9999999999396 	0.9999999999997025 	101324.9999999901
0.4041541541541536 	299.9999999999583 	1.000000000000419 	101324.9999999908
0.4066566566566561 	299.9999999999623 	1.000000000005044 	101324.9999999905
0.4091591591591587 	300.0000000000036 	0.9999999999947183 	101324.9999999902
0.4116616616616612 	300.0000000000244 	0.999999999996621 	101324.9999999903
0.4141641641641635 	300.0000000000408 	1.000000000000022 	101324.9999999896
0.4166666666666662 	300.0000000000239 	1.000000000000021 	101324.9999999891
0.4191691691691687 	299.9999999999484 	0.9999999999999298 	101324.9999999892
0.421671671671671 	299.9999999999771 	1.000000000000378 	101324.9999999895
0.4241741741741737 	299.9999999999649 	1.00000000000121 	101324.9999999901
0.4266766766766761 	299.999999999932 	1.000000000003143 	101324.9999999901
0.4291791791791785 	299.999999999979 	1.000000000012015 	101324.9999999902
0.4316816816816812 	299.9999999999819 	0.999999999993568 	101324.99999999
0.4341841841841836 	299.9999999999972 	0.9999999999980667 	101324.9999999894
0.4366866866866862 	299.9999999999607 	1.000000000002216 	101324.9999999894
0.4391891891891885 	299.999999999998 	1.000000000001114 	101324.9999999894
0.4416916916916913 	300.0000000000088 	1.000000000000506 	101324.9999999895
0.4441941941941936 	299.9999999999909 	1.00000000000069 	101324.9999999896
0.4466966966966961 	299.9999999999219 	1.000000000000172 	101324.99999999
0.4491991991991987 	299.9999999999633 	1.000000000000535 	101324.9999999901
0.4517017017017012 	299.9999999999559 	1.000000000001125 	101324.9999999894
0.4542042042042035 	299.9999999999883 	1.000000000001031 	101324.999999989
0.4567067067067062 	300.0000000000042 	0.9999999999999954 	101324.9999999888
0.4592092092092087 	299.9999999999296 	1.000000000000378 	101324.9999999891
0.4617117117117112 	299.9999999999693 	1.00000000000082 	101324.9999999897
0.4642142142142137 	299.9999999999425 	1.000000000001434 	101324.9999999899
0.4667167167167162 	299.9999999999805 	1.000000000000782 	101324.9999999898
0.4692192192192187 	299.999999999949 	1.000000000000682 	101324.9999999896
0.4717217217217212 	299.9999999999914 	1.000000000000535 	101324.9999999892
0.4742242242242236 	299.9999999999603 	0.9999999999995933 	101324.9999999887
0.4767267267267262 	299.9999999999426 	0.999999999998564 	101324.9999999886
0.4792292292292287 	299.9999999999963 	0.9999999999988849 	101324.9999999891
0.4817317317317312 	300.0000000000216 	1.000000000001237 	101324.9999999892
0.4842342342342336 	300.0000000000138 	1.000000000002993 	101324.9999999888
0.4867367367367362 	299.9999999999868 	1.000000000004106 	101324.9999999884
0.4892392392392387 	300.0000000000095 	1.000000000003924 	101324.999999988
0.4917417417417412 	300.0000000000399 	1.000000000003174 	101324.9999999877
0.4942442442442437 	299.9999999999798 	1.000000000002792 	101324.9999999878
0.4967467467467462 	299.9999999999266 	1.000000000005009 	101324.9999999882
0.4992492492492487 	299.999999999886 	0.9999999999956846 	101324.9999999883
0.5017517517517511 	299.9999999999126 	0.9999999999981759 	101324.9999999887
0.5042542542542537 	299.9999999999718 	1.000000000001722 	101324.9999999893
0.5067567567567562 	299.9999999999668 	1.000000000002873 	101324.9999999891
0.5092592592592589 	299.9999999999518 	1.000000000003175 	101324.9999999886
0.5117617617617611 	299.9999999999734 	1.00000000000354 	101324.9999999885
0.5142642642642637 	300.0000000000072 	1.000000000002285 	101324.9999999885
0.5167667667667663 	299.9999999999939 	1.000000000002991 	101324.9999999888
0.5192692692692688 	299.9999999999257 	1.000000000010886 	101324.9999999892
0.5217717717717714 	299.999999999947 	0.9999999999934809 	101324.9999999895
0.5242742742742736 	299.9999999999488 	0.99999999999846 	101324.9999999891
0.5267767767767763 	299.9999999999409 	1.000000000002921 	101324.9999999887
0.5292792792792789 	299.9999999999359 	1.000000000001621 	101324.9999999886
0.5317817817817813 	299.999999999915 	1.000000000000512 	101324.9999999885
0.5342842842842837 	299.9999999999677 	1.000000000000583 	101324.9999999886
0.5367867867867864 	299.9999999999737 	1.000000000001326 	101324.9999999886
0.5392892892892888 	299.9999999999337 	1.000000000001548 	101324.9999999883
0.5417917917917912 	299.9999999999487 	1.000000000001149 	101324.9999999878
0.5442942942942938 	299.9999999999408 	1.000000000000962 	101324.9999999876
0.5467967967967964 	299.9999999999603 	1.000000000000962 	101324.9999999876
0.5492992992992988 	299.9999999999568 	1.000000000000429 	101324.9999999879
0.5518018018018012 	299.9999999999443 	1.000000000000621 	101324.9999999878
0.5543043043043039 	299.9999999999822 	1.000000000000367 	101324.9999999877
0.5568068068068063 	299.9999999999773 	1.00000000000094 	101324.9999999873
0.5593093093093087 	299.9999999999369 	1.000000000004344 	101324.9999999874
0.5618118118118114 	299.9999999999257 	0.9999999999968534 	101324.9999999876
0.5643143143143137 	299.9999999999048 	1.000000000000635 	101324.999999988
0.5668168168168163 	299.9999999999438 	1.000000000003394 	101324.9999999885
0.5693193193193188 	300.0000000000007 	1.000000000003592 	101324.9999999889
0.5718218218218213 	300.0000000000318 	1.000000000002431 	101324.9999999891
0.5743243243243239 	300.0000000000345 	1.00000000000152 	101324.9999999886
0.5768268268268262 	300.0000000000174 	1.000000000000613 	101324.9999999887
0.5793293293293288 	299.9999999999688 	1.000000000003236 	101324.9999999887
0.5818318318318314 	299.9999999999412 	1.000000000010137 	101324.9999999884
0.5843343343343338 	299.9999999999898 	0.9999999999930751 	101324.9999999881
0.5868368368368363 	299.9999999999812 	0.9999999999974875 	101324.9999999878
0.5893393393393387 	299.9999999999326 	1.000000000002002 	101324.9999999874
0.5918418418418413 	299.9999999999473 	1.000000000001228 	101324.9999999869
0.5943443443443439 	299.999999999991 	1.000000000000773 	101324.9999999866
0.5968468468468463 	300.0000000000146 	1.000000000001941 	101324.9999999869
0.5993493493493487 	300.0000000000461 	1.000000000003741 	101324.9999999873
0.6018518518518514 	300.0000000000269 	1.000000000003468 	101324.9999999876
0.6043543543543537 	300.0000000000189 	1.000000000003347 	101324.9999999877
0.6068568568568564 	300.0000000000018 	1.000000000003568 	101324.9999999878
0.6093593593593587 	299.9999999999363 	1.000000000003726 	101324.9999999874
0.6118618618618614 	299.999999999917 	1.00000000000287 	101324.9999999867
0.6143643643643638 	299.9999999999904 	1.000000000001648 	101324.9999999866
0.6168668668668662 	299.9999999999919 	1.00000000000112 	101324.9999999868
0.6193693693693688 	299.9999999999705 	1.000000000002838 	101324.9999999871
0.6218718718718714 	299.9999999999865 	1.000000000006237 	101324.9999999868
0.6243743743743737 	299.9999999999715 	0.99999999999914 	101324.9999999868
0.6268768768768762 	299.9999999999505 	1.000000000002378 	101324.9999999873
0.629379379379379 	299.9999999999678 	1.000000000005139 	101324.9999999876
0.6318818818818812 	299.9999999999835 	1.000000000004633 	101324.9999999876
0.6343843843843838 	300.0000000000158 	1.000000000004612 	101324.9999999875
0.6368868868868864 	300.0000000000023 	1.000000000004853 	101324.9999999872
0.6393893893893888 	299.9999999999467 	1.000000000004044 	101324.9999999868
0.6418918918918912 	299.9999999999723 	1.00000000000658 	101324.999999987
0.6443943943943939 	299.9999999999596 	1.000000000011579 	101324.9999999868
0.6468968968968963 	299.9999999999622 	0.9999999999942439 	101324.9999999869
0.6493993993993988 	299.9999999999635 	0.9999999999984512 	101324.9999999873
0.6519019019019012 	299.9999999999782 	1.000000000003028 	101324.9999999876
0.6544044044044038 	299.9999999999343 	1.000000000001935 	101324.9999999879
0.6569069069069065 	299.9999999999264 	1.000000000001248 	101324.9999999878
0.6594094094094087 	299.9999999999536 	1.000000000001905 	101324.9999999877
0.6619119119119113 	299.9999999999673 	1.000000000003148 	101324.9999999876
0.664414414414414 	299.9999999999887 	1.000000000004357 	101324.9999999875
0.6669169169169162 	299.9999999999947 	1.000000000004918 	101324.9999999869
0.6694194194194188 	299.9999999999775 	1.000000000004948 	101324.9999999864
0.6719219219219214 	299.9999999999383 	1.000000000004794 	101324.9999999864
0.674424424424424 	299.9999999999578 	1.000000000004408 	101324.9999999871
0.6769269269269262 	299.9999999999321 	1.000000000004601 	101324.9999999873
0.679429429429429 	299.9999999999953 	1.000000000004746 	101324.9999999876
0.6819319319319311 	300.0000000000134 	1.000000000006056 	101324.9999999874
0.6844344344344341 	300.0000000000249 	1.000000000008992 	101324.9999999873
0.686936936936936 	300.0000000000233 	1.000000000001625 	101324.9999999878
0.6894394394394392 	300.0000000000193 	1.000000000004094 	101324.9999999879
0.6919419419419413 	300.000000000008 	1.000000000006485 	101324.9999999879
0.694444444444444 	299.9999999999548 	1.00000000000598 	101324.9999999881
0.6969469469469463 	299.9999999999139 	1.000000000005163 	101324.999999988
0.6994494494494489 	299.9999999999125 	1.000000000004615 	101324.9999999878
0.7019519519519515 	299.9999999999504 	1.000000000003982 	101324.9999999873
0.7044544544544538 	299.9999999999403 	1.000000000007179 	101324.9999999872
0.7069569569569564 	299.9999999999832 	1.000000000011261 	101324.9999999873
0.7094594594594589 	299.9999999999716 	0.9999999999946768 	101324.9999999874
0.7119619619619615 	299.9999999999282 	0.9999999999998151 	101324.9999999872
0.7144644644644638 	299.9999999999452 	1.000000000005253 	101324.9999999868
0.7169669669669665 	299.9999999999331 	1.000000000004751 	101324.9999999864
0.7194694694694688 	299.9999999999933 	1.000000000003389 	101324.999999986
0.7219719719719715 	300.0000000000011 	1.000000000003577 	101324.999999986
0.7244744744744737 	300.0000000000008 	1.00000000000356 	101324.9999999863
0.7269769769769764 	299.9999999999955 	1.000000000006835 	101324.9999999864
0.7294794794794791 	299.9999999999931 	1.000000000010911 	101324.9999999864
0.7319819819819813 	299.9999999999781 	0.999999999996389 	101324.9999999865
0.7344844844844839 	299.9999999999176 	1.000000000002335 	101324.9999999867
0.7369869869869864 	299.9999999999167 	1.000000000006622 	101324.9999999868
0.739489489489489 	299.9999999999397 	1.00000000000526 	101324.9999999868
0.7419919919919914 	299.9999999999373 	1.000000000003061 	101324.9999999866
0.7444944944944939 	299.9999999999463 	1.000000000004215 	101324.9999999862
0.7469969969969963 	299.9999999999611 	1.000000000006122 	101324.9999999862
0.7494994994994989 	299.9999999999354 	1.000000000003029 	101324.9999999864
0.7520020020020015 	299.9999999999438 	1.000000000009979 	101324.9999999863
0.7545045045045039 	299.9999999999454 	0.999999999997562 	101324.9999999865
0.7570070070070062 	299.9999999999355 	1.000000000002823 	101324.9999999869
0.7595095095095092 	299.9999999999415 	1.000000000006532 	101324.9999999872
0.7620120120120112 	299.9999999999833 	1.000000000005391 	101324.9999999874
0.7645145145145138 	299.9999999999849 	1.000000000004561 	101324.9999999873
0.7670170170170165 	299.9999999999458 	1.000000000007537 	101324.9999999873
0.7695195195195191 	299.9999999999146 	1.000000000010361 	101324.999999987
0.7720220220220213 	299.999999999928 	0.999999999996074 	101324.9999999867
0.7745245245245239 	299.9999999999177 	1.000000000001727 	101324.9999999873
0.7770270270270263 	299.9999999999205 	1.000000000006464 	101324.9999999877
0.779529529529529 	299.9999999999499 	1.000000000005967 	101324.9999999874
0.7820320320320313 	299.9999999999518 	1.000000000004445 	101324.9999999869
0.784534534534534 	299.999999999987 	1.000000000004507 	101324.9999999866
0.7870370370370364 	299.9999999999869 	1.000000000005509 	101324.9999999869
0.7895395395395389 	299.9999999999717 	1.000000000005945 	101324.9999999865
0.7920420420420413 	299.9999999999732 	1.000000000005801 	101324.9999999862
0.794544544544544 	299.9999999999735 	1.00000000000963 	101324.9999999866
0.7970470470470463 	300.0000000000042 	1.000000000012665 	101324.9999999868
0.799549549549549 	300.0000000000073 	0.9999999999975093 	101324.9999999867
0.8020520520520515 	299.9999999999846 	1.000000000001758 	101324.999999987
0.8045545545545539 	299.9999999999393 	1.00000000000605 	101324.9999999873
0.8070570570570563 	299.9999999999446 	1.000000000005961 	101324.9999999871
0.8095595595595589 	299.9999999999398 	1.000000000004992 	101324.9999999872
0.8120620620620614 	299.9999999999513 	1.000000000005386 	101324.9999999874
0.8145645645645638 	300.0000000000055 	1.000000000006172 	101324.9999999877
0.8170670670670666 	300.0000000000311 	1.000000000010473 	101324.9999999876
0.8195695695695689 	300.0000000000094 	1.000000000012591 	101324.9999999874
0.8220720720720714 	299.9999999999525 	0.9999999999975806 	101324.9999999871
0.8245745745745739 	299.9999999999466 	1.00000000000245 	101324.9999999873
0.8270770770770765 	299.9999999999571 	1.000000000006735 	101324.9999999876
0.8295795795795788 	299.999999999959 	1.000000000005946 	101324.9999999873
0.8320820820820815 	299.9999999999966 	1.00000000000447 	101324.9999999874
0.834584584584584 	300.0000000000001 	1.000000000006392 	101324.9999999878
0.8370870870870865 	299.9999999999636 	1.00000000000782 	101324.9999999875
0.8395895895895891 	299.9999999999289 	1.000000000000884 	101324.999999987
0.8420920920920915 	299.9999999999529 	1.000000000003462 	101324.9999999869
0.844594594594594 	299.9999999999486 	1.000000000005429 	101324.9999999869
0.8470970970970964 	299.9999999999463 	1.000000000005095 	101324.9999999872
0.8495995995995991 	299.9999999999895 	1.000000000005217 	101324.9999999873
0.8521021021021015 	299.9999999999872 	1.000000000005951 	101324.9999999874
0.8546046046046039 	299.9999999999683 	1.000000000005662 	101324.9999999874
0.8571071071071066 	299.9999999999863 	1.000000000009643 	101324.9999999872
0.8596096096096089 	299.9999999999733 	1.000000000011415 	101324.9999999871
0.8621121121121116 	299.9999999999578 	0.9999999999972309 	101324.9999999871
0.8646146146146139 	299.9999999999976 	1.000000000002489 	101324.9999999872
0.8671171171171166 	299.9999999999749 	1.00000000000777 	101324.9999999872
0.8696196196196189 	299.9999999999322 	1.00000000000793 	101324.9999999877
0.8721221221221216 	299.9999999999623 	1.000000000006387 	101324.9999999882
0.874624624624624 	299.9999999999943 	1.000000000005096 	101324.999999988
0.8771271271271264 	299.9999999999933 	1.000000000004085 	101324.9999999873
0.879629629629629 	299.9999999999944 	1.00000000000806 	101324.9999999868
0.8821321321321317 	299.9999999999792 	1.000000000010115 	101324.9999999866
0.8846346346346339 	299.9999999999413 	0.9999999999967533 	101324.9999999868
0.8871371371371364 	299.9999999999408 	1.000000000001936 	101324.9999999866
0.8896396396396391 	299.9999999999474 	1.000000000005575 	101324.9999999864
0.8921421421421414 	299.99999999995 	1.000000000004984 	101324.9999999868
0.8946446446446441 	299.9999999999667 	1.00000000000491 	101324.9999999874
0.8971471471471464 	299.9999999999879 	1.000000000007877 	101324.9999999873
0.8996496496496489 	299.9999999999856 	1.000000000009317 	101324.999999987
0.9021521521521517 	299.9999999999813 	1.000000000002367 	101324.999999987
0.9046546546546541 	299.9999999999919 	1.00000000000424 	101324.9999999871
0.9071571571571564 	299.999999999966 	1.000000000005173 	101324.9999999872
0.9096596596596589 	299.9999999999415 	1.000000000004255 	101324.9999999874
0.9121621621621616 	299.9999999999762 	1.000000000004355 	101324.9999999877
0.9146646646646639 	299.9999999999705 	1.000000000006015 	101324.999999988
0.9171671671671666 	299.9999999999448 	1.000000000006889 	101324.9999999874
0.9196696696696689 	299.9999999999708 	1.000000000011908 	101324.999999987
0.9221721721721714 	299.9999999999736 	1.000000000012812 	101324.9999999868
0.9246746746746741 	299.999999999933 	0.9999999999994251 	101324.9999999866
0.9271771771771765 	299.9999999999471 	1.000000000004958 	101324.9999999868
0.9296796796796791 	299.99999999997 	1.00000000000861 	101324.9999999874
0.9321821821821816 	299.999999999958 	1.000000000007684 	101324.9999999877
0.9346846846846838 	299.9999999999471 	1.000000000007145 	101324.9999999872
0.9371871871871866 	299.9999999999848 	1.000000000006994 	101324.9999999864
0.9396896896896891 	299.9999999999947 	1.00000000000668 	101324.9999999862
0.9421921921921914 	299.9999999999897 	1.000000000011708 	101324.9999999865
0.9446946946946939 	299.9999999999807 	1.000000000012483 	101324.9999999868
0.9471971971971965 	299.9999999999525 	0.9999999999990786 	101324.999999987
0.9496996996996991 	299.9999999999437 	1.00000000000394 	101324.9999999873
0.9522022022022016 	299.9999999999674 	1.000000000007393 	101324.9999999872
0.9547047047047038 	299.9999999999897 	1.000000000006949 	101324.9999999872
0.9572072072072064 	299.9999999999841 	1.000000000006529 	101324.9999999874
0.9597097097097093 	299.9999999999699 	1.000000000009081 	101324.9999999875
0.9622122122122114 	299.999999999958 	1.00000000000975 	101324.9999999875
0.964714714714714 	299.9999999999407 	1.000000000003597 	101324.9999999875
0.9672172172172167 	299.9999999999301 	1.000000000005364 	101324.9999999872
0.969719719719719 	299.9999999999581 	1.000000000006377 	101324.9999999873
0.9722222222222214 	299.9999999999725 	1.000000000005529 	101324.9999999876
0.9747247247247239 	299.9999999999723 	1.000000000005276 	101324.9999999873
0.9772272272272267 	299.9999999999961 	1.000000000006435 	101324.9999999868
0.9797297297297292 	299.9999999999861 	1.000000000006362 	101324.9999999872
0.9822322322322313 	299.9999999999784 	1.000000000011389 	101324.9999999876
0.9847347347347344 	299.9999999999716 	1.000000000012374 	101324.999999988
0.9872372372372363 	299.999999999936 	1.000000000000561 	101324.999999988
0.9897397397397389 	299.9999999999295 	1.00000000000577 	101324.9999999879
0.9922422422422417 	299.9999999999258 	1.0000000000087 	101324.9999999873
0.9947447447447441 	299.9999999999547 	1.000000000006774 	101324.9999999867
0.9972472472472468 	299.9999999999661 	1.000000000004466 	101324.9999999867
0.999749749749749 	299.9999999999602 	1.000000000004306 	101324.9999999868
1.002252252252252 	299.9999999999649 	1.000000000005973 	101324.9999999871
1.004754754754754 	299.9999999999854 	1.000000000012782 	101324.9999999875
1.007257257257256 	299.9999999999761 	1.000000000012255 	101324.9999999874
1.009759759759759 	299.9999999999637 	0.9999999999991502 	101324.9999999871
1.012262262262261 	299.9999999999662 	1.000000000003736 	101324.999999987
1.014764764764764 	299.9999999999407 	1.000000000006659 	101324.999999987
1.017267267267267 	299.9999999999187 	1.000000000006193 	101324.999999987
1.019769769769769 	299.9999999999501 	1.000000000006557 	101324.999999987
1.022272272272272 	299.9999999999768 	1.000000000010056 	101324.9999999871
1.024774774774774 	299.9999999999866 	1.00000000000979 	101324.9999999869
1.027277277277277 	299.999999999986 	1.000000000003576 	101324.9999999868
1.029779779779779 	300.000000000008 	1.000000000006431 	101324.9999999871
1.032282282282282 	300.0000000000133 	1.000000000009474 	101324.9999999876
1.034784784784784 	300.0000000000098 	1.000000000009814 	101324.9999999878
1.037287287287286 	299.9999999999879 	1.000000000008639 	101324.9999999875
1.039789789789789 	299.9999999999788 	1.000000000007934 	101324.9999999872
1.042292292292291 	300.0000000000073 	1.000000000007219 	101324.9999999869
1.044794794794794 	300.0000000000337 	1.000000000012694 	101324.9999999868
1.047297297297296 	300.0000000000485 	1.000000000011909 	101324.999999987
1.049799799799799 	300.0000000000253 	1.000000000000376 	101324.9999999873
1.052302302302302 	299.9999999999915 	1.000000000006243 	101324.9999999875
1.054804804804804 	299.9999999999505 	1.000000000009789 	101324.9999999874
1.057307307307306 	299.9999999999243 	1.000000000008882 	101324.9999999873
1.059809809809809 	299.9999999999483 	1.000000000008384 	101324.9999999874
1.062312312312312 	299.9999999999527 	1.000000000007421 	101324.9999999874
1.064814814814814 	299.9999999999515 	1.000000000005547 	101324.999999987
1.067317317317317 	299.9999999999303 	1.000000000011244 	101324.9999999867
1.069819819819819 	299.9999999999167 	1.000000000010896 	101324.9999999868
1.072322322322321 	299.9999999999671 	1.000000000000429 	101324.9999999872
1.074824824824824 	300.0000000000155 	1.00000000000639 	101324.9999999872
1.077327327327327 	300.000000000036 	1.000000000010269 	101324.9999999872
1.079829829829829 	300.0000000000492 	1.000000000009954 	101324.9999999872
1.082332332332332 	300.000000000018 	1.000000000008402 	101324.9999999869
1.084834834834834 	299.9999999999781 	1.000000000012918 	101324.9999999868
1.087337337337337 	299.9999999999382 	1.000000000010183 	101324.999999987
1.089839839839839 	299.999999999913 	0.9999999999990642 	101324.9999999869
1.092342342342342 	299.9999999999398 	1.000000000004931 	101324.9999999866
1.094844844844844 	299.9999999999458 	1.000000000014493 	101324.9999999867
1.097347347347347 	299.9999999999262 	1.000000000012155 	101324.9999999868
1.099849849849849 	299.9999999999159 	1.000000000000814 	101324.9999999868
1.102352352352352 	299.9999999999421 	1.000000000006708 	101324.9999999869
1.104854854854854 	299.9999999999662 	1.000000000010497 	101324.9999999872
1.107357357357357 	299.9999999999545 	1.000000000009865 	101324.9999999874
1.109859859859859 	299.9999999999453 	1.000000000009069 	101324.9999999875
1.112362362362362 	299.9999999999936 	1.000000000015424 	101324.9999999875
1.114864864864865 	300.0000000000076 	1.000000000012999 	101324.9999999872
1.117367367367367 	299.9999999999694 	1.000000000000617 	101324.9999999868
1.119869869869869 	299.9999999999305 	1.000000000004286 	101324.9999999862
1.122372372372372 	299.9999999999479 	1.00000000000661 	101324.9999999858
1.124874874874874 	299.9999999999557 	1.000000000006108 	101324.999999986
1.127377377377377 	299.9999999999498 	1.000000000005919 	101324.9999999865
1.129879879879879 	299.999999999979 	1.000000000006345 	101324.9999999867
1.132382382382382 	300.0000000000269 	1.000000000006854 	101324.9999999868
1.134884884884884 	300.000000000024 	1.000000000014116 	101324.9999999869
1.137387387387387 	300.0000000000164 	1.000000000011515 	101324.999999987
1.139889889889889 	299.9999999999708 	0.9999999999998013 	101324.999999987
1.142392392392392 	299.9999999999437 	1.000000000005059 	101324.999999987
1.144894894894894 	299.9999999999882 	1.000000000008773 	101324.9999999869
1.147397397397397 	299.999999999995 	1.000000000008848 	101324.9999999869
1.149899899899899 	299.9999999999559 	1.000000000008546 	101324.999999987
1.152402402402402 	299.9999999999314 	1.000000000008177 	101324.9999999871
1.154904904904904 	299.9999999999492 	1.000000000007234 	101324.9999999872
1.157407407407407 	299.9999999999513 	1.000000000013545 	101324.9999999872
1.159909909909909 	299.9999999999292 	1.000000000011069 	101324.9999999873
1.162412412412412 	299.9999999999233 	1.000000000000346 	101324.9999999868
1.164914914914914 	299.9999999999473 	1.000000000005252 	101324.9999999865
1.167417417417417 	299.9999999999465 	1.000000000008395 	101324.9999999865
1.169919919919919 	299.9999999999815 	1.00000000000824 	101324.9999999866
1.172422422422422 	300.0000000000247 	1.000000000007219 	101324.9999999866
1.174924924924925 	300.0000000000132 	1.00000000001342 	101324.9999999864
1.177427427427427 	299.99999999998 	1.000000000010539 	101324.9999999864
1.179929929929929 	299.9999999999959 	1.000000000000106 	101324.9999999866
1.182432432432432 	300.0000000000377 	1.000000000005753 	101324.9999999866
1.184934934934934 	300.0000000000186 	1.000000000009434 	101324.9999999866
1.187437437437437 	299.9999999999802 	1.000000000009267 	101324.9999999866
1.189939939939939 	299.9999999999604 	1.000000000008802 	101324.9999999866
1.192442442442442 	299.9999999999368 	1.000000000008894 	101324.9999999867
1.194944944944944 	299.999999999925 	1.000000000008739 	101324.9999999866
1.197447447447447 	299.9999999999745 	1.000000000015498 	101324.9999999866
1.199949949949949 	300.0000000000143 	1.000000000011986 	101324.999999987
1.202452452452452 	299.9999999999753 	1.00000000000124 	101324.9999999872
1.204954954954955 	299.9999999999515 	1.000000000006169 	101324.9999999867
1.207457457457457 	299.9999999999636 	1.000000000008832 	101324.9999999863
1.20995995995996 	299.9999999999716 	1.000000000007573 	101324.9999999862
1.212462462462462 	299.9999999999803 	1.000000000006909 	101324.9999999859
1.214964964964964 	299.9999999999838 	1.000000000007597 	101324.9999999859
1.217467467467467 	299.9999999999915 	1.000000000007426 	101324.9999999862
1.219969969969969 	299.9999999999673 	1.000000000013932 	101324.9999999863
1.222472472472472 	299.9999999999847 	1.000000000009975 	101324.9999999861
1.224974974974975 	300.0000000000213 	0.9999999999999432 	101324.9999999861
1.227477477477477 	299.999999999996 	1.000000000005382 	101324.9999999861
1.229979979979979 	299.9999999999825 	1.000000000008156 	101324.9999999863
1.232482482482482 	299.9999999999541 	1.000000000007292 	101324.9999999862
1.234984984984984 	299.9999999999444 	1.000000000006101 	101324.9999999861
1.237487487487487 	299.9999999999713 	1.000000000012447 	101324.9999999859
1.239989989989989 	299.9999999999847 	1.000000000008536 	101324.9999999857
1.242492492492492 	300.000000000008 	0.9999999999994605 	101324.9999999859
1.244994994994994 	299.9999999999849 	1.000000000005649 	101324.9999999862
1.247497497497497 	299.9999999999902 	1.000000000008929 	101324.9999999863
1.249999999999999 	299.9999999999383 	1.000000000008269 	101324.9999999864
