-1.25 	300 	0.103485305211645 	101282.7836037249
-1.247497497497497 	299.963462236718 	0.1025793056591992 	101283.147685431
-1.244994994994995 	299.9648939580048 	0.1015396184295358 	101283.5229234908
-1.242492492492492 	299.9652344414314 	0.1007884266977127 	101283.905738681
-1.23998998998999 	299.9655644515922 	0.09973208230421501 	101284.2965693715
-1.237487487487487 	299.9659012670606 	0.09879538218367732 	101284.6946703837
-1.234984984984985 	299.9662440510791 	0.09780029596204526 	101285.0998030622
-1.232482482482482 	299.9665933202587 	0.09678498751657651 	101285.5126004438
-1.22997997997998 	299.9669487405532 	0.09575399720383512 	101285.9326690726
-1.227477477477477 	299.9673103653477 	0.09470864808579527 	101286.3600721158
-1.224974974974975 	299.9676780986702 	0.09364546771283051 	101286.794695903
-1.222472472472472 	299.9680513595115 	0.09256293669809833 	101287.2358537621
-1.21996996996997 	299.9684306047873 	0.0914600013129758 	101287.6840854694
-1.217467467467467 	299.9688160064015 	0.09034073806240045 	101288.1395940941
-1.214964964964965 	299.9692070235788 	0.08921320499972461 	101288.6017421356
-1.212462462462462 	299.9696034049668 	0.08806770341257253 	101289.0702316857
-1.20995995995996 	299.9700053895774 	0.0869025291386569 	101289.5453448824
-1.207457457457457 	299.9704130011186 	0.08571771830590896 	101290.0271098974
-1.204954954954955 	299.9708262735418 	0.08451703364853283 	101290.5155669496
-1.202452452452452 	299.9712452266232 	0.08330814975708443 	101291.0107404015
-1.19994994994995 	299.9716689694733 	0.08208234372775949 	101291.5115762341
-1.197447447447447 	299.9720977825519 	0.08083860030430655 	101292.0184058777
-1.194944944944945 	299.9725321429393 	0.07957724147111843 	101292.5317933556
-1.192442442442442 	299.9729713309478 	0.07830250184628812 	101293.0508885011
-1.18993993993994 	299.9734153767694 	0.07702078637225365 	101293.5757282812
-1.187437437437437 	299.9738642547179 	0.07572322455910599 	101294.1062813404
-1.184934934934935 	299.974317736043 	0.07440880096572641 	101294.6422770168
-1.182432432432432 	299.974776519798 	0.073078743306453 	101295.1845413186
-1.17992992992993 	299.97524033784 	0.07173482652029102 	101295.732757419
-1.177427427427427 	299.9757080563014 	0.07038011227123257 	101296.2855869356
-1.174924924924925 	299.976180171093 	0.06901092130540393 	101296.8436149245
-1.172422422422422 	299.9766570625351 	0.06762919772954835 	101297.4072890109
-1.16991991991992 	299.977137980453 	0.06623602154125607 	101297.9757232527
-1.167417417417417 	299.9776231676526 	0.06483103858414671 	101298.5492072186
-1.164914914914915 	299.9781127127842 	0.0634147872165044 	101299.1278473862
-1.162412412412412 	299.9786054100563 	0.06198688946928255 	101299.710216822
-1.15990990990991 	299.9791020835499 	0.06054845468500124 	101300.297286298
-1.157407407407407 	299.9796041233871 	0.05909660145073663 	101300.890696542
-1.154904904904904 	299.9801095425541 	0.05763230512475619 	101301.4881009762
-1.152402402402403 	299.9806169555791 	0.05615830026845112 	101302.0878679303
-1.1498998998999 	299.9811284374509 	0.054673018952784 	101302.6924532762
-1.147397397397397 	299.9816448879438 	0.05317771927554077 	101303.302917618
-1.144894894894895 	299.9821644270529 	0.05167531807553804 	101303.9170334318
-1.142392392392392 	299.9826856730064 	0.05016670463742626 	101304.5331651293
-1.13988988988989 	299.9832098296108 	0.04864564801314462 	101305.1527340409
-1.137387387387387 	299.9837390181119 	0.0471118777917737 	101305.7782459646
-1.134884884884885 	299.9842720452955 	0.04557308846820396 	101306.4082941837
-1.132382382382382 	299.9848059353811 	0.04402791014405018 	101307.0393659568
-1.12987987987988 	299.9853414559131 	0.04247366324143644 	101307.6723705233
-1.127377377377377 	299.9858806683054 	0.04090730461834396 	101308.309744743
-1.124874874874875 	299.9864232454178 	0.03933108845317235 	101308.9511011763
-1.122372372372372 	299.986969437268 	0.03775216780492771 	101309.5967347196
-1.11986986986987 	299.9875182994356 	0.03616711558194635 	101310.2455297293
-1.117367367367367 	299.9880674203142 	0.0345751956367811 	101310.8946343458
-1.114864864864865 	299.9886171176801 	0.0329774453983653 	101311.5444232503
-1.112362362362362 	299.9891688890911 	0.03137813560375147 	101312.1966679977
-1.10985985985986 	299.9897234063002 	0.02977616848494363 	101312.852164325
-1.107357357357357 	299.9902829168846 	0.02815815972548947 	101313.5135663653
-1.104854854854855 	299.9908467856401 	0.02652460329356338 	101314.180122123
-1.102352352352353 	299.9914114037086 	0.0248832562774385 	101314.8475637146
-1.09984984984985 	299.9919739096933 	0.02325103831510251 	101315.5125092157
-1.097347347347347 	299.9925333194994 	0.02163617030660238 	101316.1737995729
-1.094844844844845 	299.993090887862 	0.02002024854653675 	101316.8329197927
-1.092342342342342 	299.9936526353744 	0.01839064625706216 	101317.4969852876
-1.08983983983984 	299.9942220998756 	0.01673951064483433 	101318.1701772453
-1.087337337337337 	299.9947981277905 	0.01507096863087543 	101318.8511290843
-1.084834834834835 	299.9953767681167 	0.0133999334407191 	101319.5351694817
-1.082332332332332 	299.9959537205677 	0.01173121557565165 	101320.2172159943
-1.07982982982983 	299.9965261546222 	0.01007079583506646 	101320.8939233387
-1.077327327327327 	299.9970946190403 	0.008422410827771535 	101321.5659407813
-1.074824824824825 	299.9976594787609 	0.006785646517110052 	101322.2337013924
-1.072322322322323 	299.9982223119671 	0.005154520143541413 	101322.8990718814
-1.06981981981982 	299.9987871171176 	0.003517086673864008 	101323.5667786897
-1.067317317317317 	299.9993572357195 	0.0018657486230835 	101324.2407715423
-1.064814814814815 	299.9999330797378 	0.0007871984261545993 	101324.921534647
-1.062312312312312 	300.000511220167 	0.00147346369496563 	101325.6050131763
-1.05980980980981 	300.0010886113836 	0.00314571185607393 	101326.2876082771
-1.057307307307307 	300.0016645933119 	0.004814277666447477 	101326.9685404851
-1.054804804804805 	300.0022393304066 	0.006479285828914711 	101327.6480043263
-1.052302302302302 	300.0028130247584 	0.00814126635903192 	101328.3262387337
-1.0497997997998 	300.0033858046894 	0.009800581506941347 	101329.0033954973
-1.047297297297297 	300.0039577207185 	0.01145737940819588 	101329.6795340236
-1.044794794794795 	300.0045287641138 	0.01311163950407982 	101330.3546438184
-1.042292292292292 	300.0050988863661 	0.01476322572589979 	101331.0286679324
-1.03978978978979 	300.0056680150796 	0.0164119311518428 	101331.7015208563
-1.037287287287287 	300.00623606443 	0.01805750755721633 	101332.3731005212
-1.034784784784785 	300.0068029405647 	0.01969968261687571 	101333.04329568
-1.032282282282283 	300.0073685445444 	0.02133817214177661 	101333.7119901533
-1.02977977977978 	300.0079327755374 	0.0229726858362948 	101334.3790652215
-1.027277277277277 	300.0084955330836 	0.02460292911127256 	101335.0444009103
-1.024774774774775 	300.0090567158669 	0.02622860667101174 	101335.7078766963
-1.022272272272272 	300.0096162206925 	0.0278494234195108 	101336.3693718897
-1.01976976976977 	300.0101739443812 	0.02946508308868161 	101337.0287657969
-1.017267267267267 	300.0107297862545 	0.03107529017403896 	101337.6859378867
-1.014764764764765 	300.011283646651 	0.03267975058818046 	101338.3407679037
-1.012262262262262 	300.0118354230337 	0.03427817017061718 	101338.993135941
-1.00975975975976 	300.0123850113676 	0.03587025613991263 	101339.6429225103
-1.007257257257257 	300.0129323109737 	0.0374557171831015 	101340.2900084976
-1.004754754754755 	300.0134772254052 	0.03903426213575513 	101340.9342752099
-1.002252252252252 	300.0140196570431 	0.04060560136142964 	101341.5756044591
-0.9997497497497498 	300.0145595026435 	0.04216944708023852 	101342.213878558
-0.9972472472472473 	300.015096657868 	0.04372551218821618 	101342.8489804184
-0.9947447447447449 	300.0156310250911 	0.04527351135626074 	101343.4807935624
-0.9922422422422421 	300.0161625136652 	0.04681316102930978 	101344.1092020676
-0.9897397397397399 	300.0166910307877 	0.04834417833575193 	101344.7340906188
-0.9872372372372376 	300.0172164743478 	0.04986628245905389 	101345.3553444919
-0.9847347347347346 	300.0177387383216 	0.05137919449289138 	101345.9728496341
-0.9822322322322323 	300.0182577239971 	0.05288263642826137 	101346.5864927488
-0.9797297297297296 	300.0187733445912 	0.05437633256284556 	101347.1961612136
-0.9772272272272275 	300.0192855170054 	0.05586000948276284 	101347.8017431588
-0.9747247247247248 	300.0197941490404 	0.05733339459036384 	101348.4031274866
-0.9722222222222224 	300.0202991367401 	0.05879621749585302 	101349.0002037895
-0.9697197197197196 	300.0208003743983 	0.06024821046990564 	101349.5928625115
-0.9672172172172175 	300.0212977673661 	0.06168910699594778 	101350.1809949399
-0.9647147147147147 	300.0217912352548 	0.06311864271306607 	101350.764493144
-0.9622122122122124 	300.0222807027465 	0.0645365558540575 	101351.3432501286
-0.9597097097097099 	300.0227660865723 	0.06594258630349964 	101351.9171597112
-0.9572072072072073 	300.023247289504 	0.06733647611955673 	101352.4861164745
-0.9547047047047047 	300.0237242073988 	0.06871796957243162 	101353.0500159581
-0.9522022022022023 	300.0241967407291 	0.07008681278071938 	101353.6087545665
-0.9496996996996998 	300.0246648035238 	0.07144275475536785 	101354.1622296569
-0.9471971971971973 	300.0251283226132 	0.07278554681016031 	101354.7103396705
-0.9446946946946947 	300.0255872285586 	0.07411494186056071 	101355.2529838342
-0.9421921921921923 	300.0260414463238 	0.0754306961620089 	101355.7900623524
-0.93968968968969 	300.0264908897917 	0.07673256874320915 	101356.3214767382
-0.9371871871871872 	300.0269354641431 	0.07802032044042373 	101356.8471295064
-0.9346846846846848 	300.0273750734796 	0.07929371525780858 	101357.3669241906
-0.9321821821821823 	300.0278096275889 	0.08055251995923543 	101357.8807654626
-0.9296796796796799 	300.0282390454531 	0.08179650332634431 	101358.3885588804
-0.9271771771771771 	300.0286632549326 	0.08302543740285247 	101358.8902112412
-0.9246746746746748 	300.0290821899351 	0.08423909729612794 	101359.3856307734
-0.9221721721721724 	300.0294957858101 	0.08543726036239216 	101359.8747265698
-0.9196696696696698 	300.0299039747674 	0.08661970712628059 	101360.357408807
-0.9171671671671672 	300.0303066845707 	0.08778622092534442 	101360.8335890677
-0.9146646646646649 	300.0307038384475 	0.08893658769663236 	101361.3031798426
-0.9121621621621623 	300.0310953575937 	0.09007059669995875 	101361.7660948315
-0.9096596596596597 	300.0314811643374 	0.0911880401609719 	101362.2222493808
-0.9071571571571573 	300.0318611825812 	0.0922887133267693 	101362.671559824
-0.9046546546546547 	300.032235338587 	0.09337241459111993 	101363.1139435656
-0.9021521521521524 	300.0326035613786 	0.0944389450400482 	101363.549319568
-0.8996496496496498 	300.0329657823607 	0.09548810868157302 	101363.977607723
-0.8971471471471473 	300.0333219348499 	0.09651971288710869 	101364.398729051
-0.894644644644645 	300.0336719542925 	0.09753356872064259 	101364.8126066075
-0.892142142142142 	300.03401577786 	0.09852949091172131 	101365.2191647475
-0.8896396396396397 	300.034353343293 	0.09950729683928503 	101365.6183285984
-0.8871371371371374 	300.0346845895988 	0.1004668068095546 	101366.0100249086
-0.8846346346346349 	300.0350094570604 	0.1014078447103302 	101366.3941817609
-0.8821321321321324 	300.0353278861855 	0.1023302371505525 	101366.770728067
-0.8796296296296297 	300.0356398190988 	0.1032338145458949 	101367.1395946237
-0.8771271271271271 	300.0359451992662 	0.1041184119503731 	101367.5007141532
-0.8746246246246248 	300.0362439708479 	0.1049838670642698 	101367.8540201504
-0.8721221221221224 	300.0365360789801 	0.1058300205506909 	101368.1994474968
-0.8696196196196196 	300.0368214705209 	0.1066567180722853 	101368.5369332535
-0.8671171171171175 	300.0371000934555 	0.1074638081491865 	101368.8664155433
-0.8646146146146148 	300.037371896015 	0.1082511416664903 	101369.1878332664
-0.8621121121121121 	300.0376368283769 	0.1090185737935278 	101369.5011272235
-0.8596096096096097 	300.0378948419248 	0.109765963129261 	101369.8062398173
-0.857107107107107 	300.038145888479 	0.1104931712622462 	101370.1031143079
-0.8546046046046049 	300.0383899219323 	0.1112000642174696 	101370.3916957764
-0.8521021021021022 	300.0386268978938 	0.1118865130393117 	101370.6719318255
-0.8495995995995997 	300.0388567732473 	0.1125523928819416 	101370.9437714624
-0.8470970970970974 	300.039079505528 	0.1131975811977241 	101371.2071643352
-0.8445945945945946 	300.0392950535525 	0.1138219586059507 	101371.4620617212
-0.8420920920920922 	300.0395033782469 	0.1144254111725692 	101371.7084172036
-0.8395895895895897 	300.0397044410423 	0.1150078280910587 	101371.9461854468
-0.8370870870870872 	300.0398982042916 	0.1155691003491928 	101372.1753217296
-0.8345845845845846 	300.0400846325904 	0.1161091254801575 	101372.3957840881
-0.8320820820820823 	300.0402636927917 	0.1166278068239541 	101372.6075334481
-0.8295795795795798 	300.040435351544 	0.1171250470448847 	101372.8105300907
-0.8270770770770772 	300.0405995750904 	0.1176007506290372 	101373.0047342099
-0.8245745745745746 	300.0407563339568 	0.1180548316366107 	101373.1901109013
-0.8220720720720721 	300.0409056010794 	0.1184872092527271 	101373.3666280903
-0.8195695695695699 	300.0410473466375 	0.1188977990191726 	101373.5342505084
-0.817067067067067 	300.0411815423358 	0.1192865214728621 	101373.6929446561
-0.8145645645645651 	300.0413081670789 	0.1196533124399596 	101373.842685613
-0.8120620620620621 	300.041427199656 	0.1199981075773049 	101373.9834480944
-0.8095595595595597 	300.0415386124036 	0.1203208318400834 	101374.1151995059
-0.8070570570570572 	300.0416423830713 	0.1206214235641189 	101374.2379136254
-0.8045545545545546 	300.0417385001438 	0.1208998419362818 	101374.3515765459
-0.8020520520520523 	300.0418269457882 	0.1211560336698115 	101374.4561672844
-0.7995495495495494 	300.0419076932031 	0.1213899306494425 	101374.5516540858
-0.7970470470470474 	300.041980728379 	0.1216014931496122 	101374.638020447
-0.7945445445445446 	300.0420460505078 	0.1217907064686512 	101374.7152653908
-0.7920420420420423 	300.0421036437053 	0.1219575258214703 	101374.7833700121
-0.7895395395395397 	300.042153480722 	0.1221018881121325 	101374.8423022105
-0.7870370370370371 	300.0421955591423 	0.1222237824499522 	101374.892059033
-0.7845345345345348 	300.0422298920362 	0.1223232275988388 	101374.9326559435
-0.7820320320320323 	300.0422564632609 	0.1224001821890339 	101374.9640738455
-0.7795295295295296 	300.0422752418489 	0.1224545798895922 	101374.986276143
-0.7770270270270272 	300.0422862373588 	0.1224864402166851 	101374.9992741342
-0.7745245245245247 	300.0422894802037 	0.1224958198109369 	101375.0031031858
-0.7720220220220222 	300.0422849506135 	0.1224826733996755 	101374.9977404994
-0.7695195195195199 	300.0422726054155 	0.1224469171453293 	101374.9831360371
-0.767017017017017 	300.0422524686251 	0.1223886056145846 	101374.95931691
-0.7645145145145147 	300.04222459775 	0.1223078605735254 	101374.9263511103
-0.7620120120120122 	300.0421889766564 	0.1222046466610963 	101374.8842198098
-0.7595095095095097 	300.0421455430845 	0.1220788393768421 	101374.832849451
-0.7570070070070072 	300.0420943231672 	0.1219305070464633 	101374.7722710124
-0.7545045045045048 	300.0420354139664 	0.1217598594816206 	101374.7025992274
-0.7520020020020022 	300.0419688161297 	0.1215668948879983 	101374.6238348573
-0.7494994994994997 	300.0418944305397 	0.1213514106792531 	101374.5358604199
-0.7469969969969972 	300.0418122608376 	0.1211134383969388 	101374.4386805545
-0.7444944944944945 	300.0417224565915 	0.1208533139966138 	101374.332472404
-0.7419919919919924 	300.041625075847 	0.1205711589774107 	101374.2173044592
-0.7394894894894897 	300.0415199797504 	0.1202666766819301 	101374.0930123537
-0.7369869869869872 	300.0414070944148 	0.1199397358817662 	101373.9595085579
-0.7344844844844846 	300.0412866062281 	0.1195907734709711 	101373.8170137573
-0.7319819819819822 	300.0411587018012 	0.1192202005144584 	101373.6657486495
-0.7294794794794797 	300.0410232532077 	0.1188277324792414 	101373.505562257
-0.7269769769769773 	300.0408800308261 	0.1184128898987624 	101373.3361829953
-0.7244744744744747 	300.0407291527382 	0.1179759809620972 	101373.1577504782
-0.721971971971972 	300.0405709927915 	0.1175178542199156 	101372.970706475
-0.7194694694694695 	300.040405607208 	0.1170386178595227 	101372.7751172018
-0.7169669669669674 	300.040232614854 	0.1165374225028448 	101372.5705324989
-0.7144644644644647 	300.0400518313926 	0.1160139081397112 	101372.3567349772
-0.711961961961962 	300.0398636898925 	0.1154691047195183 	101372.1342370395
-0.7094594594594597 	300.0396686812359 	0.1149041179523054 	101371.9036185184
-0.7069569569569573 	300.0394665861705 	0.1143184185611306 	101371.6646192047
-0.7044544544544545 	300.0392567543374 	0.1137105499068269 	101371.4164701421
-0.7019519519519523 	300.039039156688 	0.1130805352772823 	101371.1591381621
-0.6994494494494495 	300.0388146234772 	0.1124303423391464 	101370.8936058967
-0.6969469469469471 	300.0385837388845 	0.1117612897212841 	101370.620563716
-0.6944444444444446 	300.0383459225632 	0.1110719870266492 	101370.339324531
-0.6919419419419421 	300.0381001758458 	0.1103601541165826 	101370.0487070246
-0.6894394394394396 	300.0378466153346 	0.1096261785393646 	101369.7488498456
-0.6869369369369374 	300.0375865819785 	0.1088732612057326 	101369.441338752
-0.6844344344344344 	300.0373209271111 	0.1081033468640598 	101369.1271802405
-0.6819319319319321 	300.0370487277919 	0.1073141869488741 	101368.805282829
-0.6794294294294296 	300.0367683739098 	0.1065020217240163 	101368.4737432814
-0.6769269269269272 	300.0364798268399 	0.1056669181947395 	101368.1325172563
-0.6744244244244245 	300.0361850282214 	0.1048136051112661 	101367.783900669
-0.6719219219219222 	300.035885618838 	0.1039459443176755 	101367.4298320815
-0.6694194194194195 	300.0355807143021 	0.1030616853667588 	101367.0692635934
-0.6669169169169172 	300.0352677434515 	0.1021546375964976 	101366.6991551066
-0.6644144144144146 	300.0349456496016 	0.1012224218733694 	101366.3182597099
-0.661911911911912 	300.0346165862858 	0.1002704360239658 	101365.9291261272
-0.6594094094094097 	300.0342837402851 	0.09930642868301548 	101365.5355225747
-0.656906906906907 	300.03394755485 	0.09833132291550523 	101365.1379710338
-0.6544044044044046 	300.0336048453428 	0.09733721984304518 	101364.7327040559
-0.6519019019019021 	300.0332522130292 	0.09631588540659719 	101364.3157037887
-0.6493993993993996 	300.0328901468889 	0.09526876742129592 	101363.8875508426
-0.6468968968968971 	300.0325230631836 	0.0942069151148498 	101363.4534680666
-0.6443943943943946 	300.0321548228375 	0.09313980001450607 	101363.0180184158
-0.6418918918918921 	300.0317843719777 	0.09206459205294608 	101362.5799521458
-0.6393893893893897 	300.0314063679832 	0.09096789543607105 	101362.1329511704
-0.6368868868868871 	300.0310165469415 	0.08983922355828096 	101361.6719769614
-0.6343843843843846 	300.0306164817258 	0.08868280542053625 	101361.1988939683
-0.6318818818818821 	300.0302126729067 	0.08751512932093805 	101360.7213906739
-0.6293793793793795 	300.0298104780656 	0.08634959078738352 	101360.2457991073
-0.6268768768768773 	300.0294086637838 	0.08518283008226686 	101359.7706551257
-0.6243743743743745 	300.0289999525568 	0.08399646115251291 	101359.2874391017
-0.6218718718718721 	300.0285777597273 	0.08277355952334832 	101358.7882194858
-0.6193693693693696 	300.0281423973337 	0.08151512813143764 	101358.2733285534
-0.6168668668668671 	300.027701444611 	0.08024110055138277 	101357.7518911568
-0.6143643643643645 	300.0272637612425 	0.07897409435271528 	101357.2343509935
-0.6118618618618621 	300.0268315998989 	0.07771963136934026 	101356.7233399095
-0.6093593593593596 	300.02639819018 	0.07646005599907552 	101356.2108480108
-0.6068568568568571 	300.0259529329682 	0.07516796976056281 	101355.6843435225
-0.6043543543543546 	300.0254900525407 	0.07382862610406077 	101355.1370027829
-0.6018518518518521 	300.0250137325698 	0.07245317108117366 	101354.5737788455
-0.5993493493493496 	300.0245354926424 	0.07107174397343298 	101354.0082946774
-0.5968468468468471 	300.0240656862265 	0.06971131142957468 	101353.45278806
-0.5943443443443446 	300.0236055830907 	0.06837500626994773 	101352.9087531615
-0.591841841841842 	300.0231459964079 	0.06703854824912404 	101352.3653225016
-0.5893393393393397 	300.0226734880523 	0.06566656684749583 	101351.8066076263
-0.5868368368368371 	300.0221797631996 	0.06423735506329678 	101351.2228072152
-0.5843343343343346 	300.0216677380644 	0.06275885928218723 	101350.6173773376
-0.5818318318318321 	300.0211501293555 	0.06126492555226364 	101350.0053580286
-0.5793293293293297 	300.0206415040677 	0.05979425289451891 	101349.403970564
-0.5768268268268271 	300.0201490339094 	0.05836584250703863 	101348.8216869829
-0.5743243243243245 	300.0196678379942 	0.05696653373618688 	101348.2527285413
-0.5718218218218221 	300.0191836436171 	0.05555803976836943 	101347.6802162666
-0.5693193193193196 	300.0186809762564 	0.05409887350614126 	101347.0858565044
-0.5668168168168171 	300.0181520446947 	0.0525682284080796 	101346.4604452019
-0.5643143143143147 	300.0176013542317 	0.05097840689047557 	101345.8093174352
-0.5618118118118121 	300.0170436164817 	0.04936922665175063 	101345.1498718266
-0.5593093093093094 	300.0164962482401 	0.04778784134542768 	101344.5026995639
-0.5568068068068072 	300.0159705808668 	0.04626497676489486 	101343.8811912147
-0.5543043043043046 	300.015466281938 	0.04479969781268178 	101343.2849450305
-0.551801801801802 	300.0149714767579 	0.04335957869485404 	101342.6999150203
-0.5492992992992995 	300.0144681112955 	0.04189523308035357 	101342.1047539945
-0.5467967967967969 	300.0139398392892 	0.04036190319066343 	101341.4801399239
-0.5442942942942947 	300.0133789797713 	0.0387385929045953 	101340.8169994608
-0.5417917917917919 	300.0127897798241 	0.03703707906540862 	101340.120362406
-0.5392892892892895 	300.012186872795 	0.03529773062771416 	101339.4075353291
-0.536786786786787 	300.0115897865285 	0.03357448168446774 	101338.7016066177
-0.5342842842842846 	300.0110158702196 	0.03191539552846446 	101338.0230840653
-0.531781781781782 	300.0104744020051 	0.03034628334457293 	101337.3829297275
-0.5292792792792794 	300.0099637422221 	0.02886265256200479 	101336.7791970345
-0.526776776776777 	300.0094720761288 	0.02743159911483167 	101336.1979115688
-0.5242742742742745 	300.0089810581182 	0.0260017934917167 	101335.6173809258
-0.521771771771772 	300.0084708556165 	0.02451757200767688 	101335.0141588014
-0.5192692692692695 	300.0079251075438 	0.02293292402851398 	101334.3689065532
-0.516766766766767 	300.0073346831045 	0.02122215121590245 	101333.6708353894
-0.5142642642642645 	300.006699588836 	0.01938530892336871 	101332.9199605104
-0.511761761761762 	300.0060288484189 	0.01744790624794908 	101332.1269564106
-0.5092592592592596 	300.0053385949836 	0.01545555960841524 	101331.3109007369
-0.506756756756757 	300.0046489547326 	0.01346525215108373 	101330.4955892058
-0.5042542542542544 	300.0039805186062 	0.01153552245587411 	101329.7053638293
-0.5017517517517521 	300.0033513710756 	0.00971816636425391 	101328.9616016652
-0.4992492492492494 	300.0027753594642 	0.008053113325318734 	101328.2806693084
-0.496746746746747 	300.0022614606553 	0.006566434959096662 	101327.6731750799
-0.4942442442442445 	300.0018139117052 	0.005270624261599271 	101327.1441240168
-0.4917417417417421 	300.0014328378577 	0.004166337868812593 	101326.693660748
-0.4892392392392395 	300.001115146598 	0.003244926660116132 	101326.31812677
-0.486736736736737 	300.0008554987214 	0.002491208312420813 	101326.0112083366
-0.4842342342342345 	300.0006472208902 	0.001886088229376847 	101325.7650152495
-0.481731731731732 	300.0004830784811 	0.001408788917922169 	101325.5709940755
-0.4792292292292296 	300.0003558708518 	0.001038577471434321 	101325.4206326014
-0.4767267267267268 	300.0002588485131 	0.000755978482641542 	101325.3059518395
-0.4742242242242246 	300.0001859679109 	0.0005435222948289093 	101325.2198073485
-0.471721721721722 	300.0001320141898 	0.0003861126673488491 	101325.1560349728
-0.4692192192192195 	300.0000926269266 	0.0002711082129517816 	101325.1094802243
-0.4667167167167169 	300.0000642573631 	0.0001882082809591324 	101325.0759484631
-0.4642142142142145 	300.0000440866905 	0.0001292201825486274 	101325.0521074892
-0.461711711711712 	300.0000299233959 	8.776854459034782e-05 	101325.035367187
-0.4592092092092094 	300.0000200977803 	5.899010685218738e-05 	101325.0237539044
-0.456706706706707 	300.0000133607177 	3.924281185414156e-05 	101325.0157911019
-0.4542042042042045 	300.0000087932707 	2.584548989771348e-05 	101325.0103928816
-0.451701701701702 	300.0000057308636 	1.685586966900341e-05 	101325.0067733493
-0.4491991991991995 	300.0000036993444 	1.088809709871526e-05 	101325.0043722778
-0.4466966966966969 	300.000002365649 	6.967484457095974e-06 	101325.0027959998
-0.4441941941941945 	300.0000014990011 	4.417805677952044e-06 	101325.0017716399
-0.441691691691692 	300.0000009412612 	2.776036774553048e-06 	101325.0011125065
-0.4391891891891895 	300.0000005858965 	1.729043340048864e-06 	101325.0006924596
-0.436686686686687 	300.0000003615122 	1.067643502080276e-06 	101325.0004272909
-0.4341841841841846 	300.000000221207 	6.536550010251299e-07 	101325.0002614321
-0.431681681681682 	300.0000001341643 	3.968740390957301e-07 	101325.000158623
-0.4291791791791794 	300.0000000806704 	2.389925888878937e-07 	101325.0000954567
-0.426676676676677 	300.0000000481217 	1.427691150846034e-07 	101325.0000569819
-0.4241741741741744 	300.0000000285207 	8.461037551306015e-08 	101325.0000337452
-0.421671671671672 	300.0000000167905 	4.975921327585967e-08 	101325.0000198277
-0.4191691691691694 	300.000000009847 	2.903711150800782e-08 	101325.0000115598
-0.4166666666666669 	300.0000000057341 	1.682145456650601e-08 	101325.0000066872
-0.4141641641641645 	300.0000000031761 	9.670369540375945e-09 	101325.0000038383
-0.411661661661662 	300.0000000018615 	5.521218248515566e-09 	101325.0000021852
-0.4091591591591594 	300.0000000010524 	3.127730648419288e-09 	101325.0000012331
-0.406656656656657 	300.0000000005134 	1.761577863748666e-09 	101325.0000006889
-0.4041541541541545 	300.0000000003448 	9.818220368610208e-10 	101325.0000003802
-0.401651651651652 	300.0000000000895 	5.466338646620451e-10 	101325.0000002061
-0.3991491491491494 	300.0000000000924 	2.974168451642356e-10 	101325.0000001088
-0.396646646646647 	300.0000000000048 	1.660475752166267e-10 	101325.0000000548
-0.3941441441441444 	300.000000000001 	8.640992456852134e-11 	101325.0000000252
-0.3916416416416419 	299.9999999999329 	4.991549447687768e-11 	101325.000000009
-0.3891391391391395 	299.9999999999581 	2.395503575399652e-11 	101325.0000000002
-0.3866366366366368 	299.9999999999536 	1.481970792147006e-11 	101324.9999999955
-0.3841341341341344 	299.9999999999998 	6.288881321212004e-12 	101324.9999999929
-0.381631631631632 	299.9999999999447 	4.278429036203129e-12 	101324.9999999915
-0.3791291291291294 	300.0000000000065 	1.765926962158714e-12 	101324.9999999907
-0.3766266266266269 	300.0000000000268 	1.369034408703261e-12 	101324.9999999905
-0.3741241241241244 	300.0000000000279 	1.879683519478196e-12 	101324.9999999904
-0.371621621621622 	300.0000000000139 	6.169091624859514e-13 	101324.9999999901
-0.3691191191191194 	300.0000000000047 	2.103031081240469e-12 	101324.9999999899
-0.366616616616617 	300.0000000000091 	1.987416068281424e-12 	101324.9999999897
-0.3641141141141143 	299.9999999999615 	1.89913246253809e-12 	101324.9999999898
-0.3616116116116119 	299.9999999999415 	1.297179391308696e-12 	101324.9999999897
-0.3591091091091095 	299.9999999999837 	1.014735750615884e-12 	101324.9999999897
-0.356606606606607 	299.9999999999781 	5.75546704493703e-13 	101324.99999999
-0.3541041041041044 	299.9999999999739 	1.08464401525704e-12 	101324.9999999901
-0.3516016016016019 	300.0000000000009 	2.775026211335989e-12 	101324.9999999901
-0.3490990990990994 	299.9999999999812 	2.101451809109455e-12 	101324.9999999898
-0.346596596596597 	300.0000000000507 	4.260803341698153e-12 	101324.9999999901
-0.3440940940940944 	300.0000000000636 	1.442160406512317e-12 	101324.9999999903
-0.3415915915915919 	300.0000000000208 	3.409804778679573e-12 	101324.9999999905
-0.3390890890890895 	299.9999999999774 	1.153043656633674e-12 	101324.9999999907
-0.3365865865865869 	300.0000000000269 	2.22564990209747e-12 	101324.9999999908
-0.3340840840840844 	300.0000000000078 	7.905903939653003e-13 	101324.9999999908
-0.3315815815815819 	300.0000000000285 	2.123428860900319e-12 	101324.9999999909
-0.3290790790790794 	300.0000000000163 	1.136227753417483e-12 	101324.9999999909
-0.3265765765765769 	299.9999999999144 	2.697477144365561e-12 	101324.9999999911
-0.3240740740740744 	299.9999999999954 	1.776275507398654e-12 	101324.9999999908
-0.3215715715715718 	300.0000000000069 	5.23527430879086e-12 	101324.9999999905
-0.3190690690690695 	299.9999999999154 	2.905176670402412e-12 	101324.9999999907
-0.3165665665665668 	299.9999999999885 	5.644877076437735e-12 	101324.9999999905
-0.3140640640640644 	300.0000000000045 	2.044060308955056e-12 	101324.9999999904
-0.311561561561562 	299.9999999999143 	5.387321294054912e-12 	101324.9999999905
-0.3090590590590593 	299.9999999999922 	1.332579769776997e-12 	101324.9999999903
-0.3065565565565568 	300.0000000000024 	6.20077931012799e-12 	101324.9999999906
-0.3040540540540545 	300.0000000000247 	2.011258208162808e-12 	101324.9999999909
-0.3015515515515518 	300.0000000000412 	6.179734914914097e-12 	101324.9999999911
-0.2990490490490494 	299.9999999999377 	1.369445642229756e-12 	101324.9999999911
-0.2965465465465469 	299.9999999999837 	4.168663315897237e-12 	101324.9999999913
-0.2940440440440444 	300.0000000000018 	1.891693045646864e-12 	101324.9999999913
-0.2915415415415418 	300.0000000000016 	3.144333710045726e-12 	101324.9999999912
-0.2890390390390395 	300.0000000000042 	2.940943919653735e-12 	101324.9999999912
-0.2865365365365368 	299.9999999999779 	2.314045196125249e-12 	101324.9999999908
-0.2840340340340343 	300.0000000000013 	3.37128027895745e-12 	101324.9999999907
-0.2815315315315318 	299.999999999916 	1.962520449839138e-12 	101324.9999999904
-0.2790290290290295 	299.9999999999504 	3.069820908393666e-12 	101324.9999999905
-0.2765265265265269 	300.0000000000141 	2.430321004223952e-12 	101324.9999999905
-0.2740240240240244 	300.0000000000363 	2.740323031631059e-12 	101324.9999999907
-0.2715215215215219 	300.0000000000177 	2.928654304552847e-12 	101324.9999999907
-0.2690190190190194 	299.9999999999353 	2.304173929480626e-12 	101324.9999999906
-0.2665165165165169 	299.999999999997 	3.041259392455928e-12 	101324.9999999907
-0.2640140140140144 	299.9999999999594 	1.856771803245672e-12 	101324.9999999903
-0.2615115115115119 	299.9999999999984 	3.416063994425481e-12 	101324.9999999903
-0.2590090090090094 	299.9999999999251 	1.772869035055473e-12 	101324.9999999901
-0.2565065065065068 	299.9999999999949 	2.686462954406681e-12 	101324.9999999898
-0.2540040040040044 	299.9999999999993 	2.696013632416824e-12 	101324.9999999897
-0.2515015015015019 	300.0000000000468 	2.232559173968374e-12 	101324.9999999897
-0.2489989989989994 	300.0000000000524 	5.086852978996338e-12 	101324.99999999
-0.2464964964964968 	299.99999999999 	2.347716395858816e-12 	101324.9999999904
-0.2439939939939944 	299.9999999999974 	6.312487711525171e-12 	101324.9999999907
-0.2414914914914919 	299.9999999999702 	2.136456372553183e-12 	101324.9999999907
-0.2389889889889893 	300.000000000006 	6.765910468280979e-12 	101324.9999999907
-0.2364864864864869 	300.0000000000251 	2.319745947200892e-12 	101324.9999999906
-0.2339839839839843 	299.9999999999103 	6.711294035325548e-12 	101324.9999999908
-0.2314814814814819 	299.9999999999799 	2.314065722199278e-12 	101324.9999999905
-0.2289789789789792 	299.9999999999116 	6.372358311238886e-12 	101324.9999999904
-0.2264764764764769 	299.9999999999379 	3.17838636215597e-12 	101324.9999999904
-0.2239739739739743 	299.9999999999526 	5.402782642684974e-12 	101324.9999999903
-0.2214714714714718 	299.9999999999264 	4.181680048557614e-12 	101324.9999999903
-0.2189689689689693 	299.9999999999638 	3.904316231043639e-12 	101324.9999999901
-0.2164664664664669 	299.999999999979 	4.632509381979549e-12 	101324.9999999901
-0.2139639639639643 	299.9999999999162 	3.201380989717976e-12 	101324.99999999
-0.2114614614614618 	299.9999999999652 	3.960903589867629e-12 	101324.9999999904
-0.2089589589589593 	299.9999999999953 	3.536632757085553e-12 	101324.9999999906
-0.2064564564564568 	299.9999999999935 	3.253905054524267e-12 	101324.9999999908
-0.2039539539539543 	299.9999999998936 	3.989377106949226e-12 	101324.9999999909
-0.2014514514514518 	299.9999999999405 	2.354678027566795e-12 	101324.9999999905
-0.1989489489489494 	299.9999999999741 	5.104645244928526e-12 	101324.9999999904
-0.1964464464464468 	299.9999999999989 	2.398833283128087e-12 	101324.9999999908
-0.1939439439439443 	299.9999999999838 	6.03169946930272e-12 	101324.999999991
-0.1914414414414418 	299.9999999999072 	3.135911223189235e-12 	101324.9999999911
-0.1889389389389393 	300.0000000000073 	4.6493699819286e-12 	101324.9999999909
-0.1864364364364368 	300.0000000000475 	3.21752581402895e-12 	101324.9999999912
-0.1839339339339343 	299.9999999999688 	5.39440560469254e-12 	101324.9999999913
-0.1814314314314318 	299.9999999999943 	3.283454431752328e-12 	101324.9999999913
-0.1789289289289293 	299.9999999998917 	5.558828847416155e-12 	101324.9999999911
-0.1764264264264268 	299.9999999999719 	2.134109463612966e-12 	101324.9999999909
-0.1739239239239243 	299.9999999998815 	5.955268321883595e-12 	101324.9999999907
-0.1714214214214218 	299.9999999999873 	1.381863396956726e-12 	101324.9999999904
-0.1689189189189193 	299.9999999999442 	7.332195600433669e-12 	101324.9999999903
-0.1664164164164168 	300.0000000000066 	5.699393317188732e-13 	101324.9999999901
-0.1639139139139143 	299.9999999999861 	8.753792446987675e-12 	101324.9999999897
-0.1614114114114118 	300.0000000000363 	1.766134871761472e-12 	101324.9999999894
-0.1589089089089093 	300.0000000000023 	1.016334002895252e-11 	101324.9999999894
-0.1564064064064068 	299.9999999999881 	2.773637132515857e-12 	101324.9999999895
-0.1539039039039043 	299.9999999999932 	1.0280935225739e-11 	101324.9999999896
-0.1514014014014018 	300.000000000029 	2.618202271397334e-12 	101324.9999999893
-0.1488988988988993 	299.9999999999898 	9.760388053549175e-12 	101324.9999999893
-0.1463963963963968 	300.0000000000036 	1.338446087266451e-12 	101324.9999999891
-0.1438938938938943 	299.9999999999425 	8.193670581045921e-12 	101324.9999999893
-0.1413913913913918 	299.9999999999091 	8.284357559747066e-13 	101324.9999999896
-0.1388888888888893 	299.9999999999768 	5.562518441042597e-12 	101324.9999999896
-0.1363863863863868 	299.9999999998731 	9.205186088449625e-13 	101324.99999999
-0.1338838838838843 	299.9999999999084 	3.610468135774902e-12 	101324.99999999
-0.1313813813813818 	299.9999999999947 	4.301930646777035e-13 	101324.9999999902
-0.1288788788788793 	299.9999999999641 	2.931117380400638e-12 	101324.9999999901
-0.1263763763763768 	299.9999999999663 	1.518792598582131e-12 	101324.9999999901
-0.1238738738738743 	299.9999999999135 	2.329928403680603e-12 	101324.9999999902
-0.1213713713713717 	299.9999999999731 	2.619137553735398e-12 	101324.9999999901
-0.1188688688688693 	300.0000000000067 	3.032439343470725e-12 	101324.9999999901
-0.1163663663663668 	299.9999999998891 	2.709695263829202e-12 	101324.9999999901
-0.1138638638638643 	299.9999999999876 	3.628603106498905e-12 	101324.9999999903
-0.1113613613613618 	299.9999999999831 	2.863515910483381e-12 	101324.9999999903
-0.1088588588588592 	299.9999999999715 	4.048327216307648e-12 	101324.9999999907
-0.1063563563563568 	299.9999999999421 	2.840082579093689e-12 	101324.9999999906
-0.1038538538538543 	299.9999999999687 	2.678970183179791e-12 	101324.9999999907
-0.1013513513513517 	300.0000000000175 	2.293183793733637e-12 	101324.9999999908
-0.09884884884884926 	299.9999999999247 	2.792278664825492e-12 	101324.9999999907
-0.09634634634634676 	299.9999999998805 	1.141010137338665e-12 	101324.9999999905
-0.09384384384384425 	299.9999999999185 	1.486877734931436e-12 	101324.9999999905
-0.09134134134134177 	300.0000000000302 	1.231559985028411e-12 	101324.9999999908
-0.08883883883883925 	300.0000000000101 	1.429763225170341e-12 	101324.9999999906
-0.08633633633633674 	299.9999999999445 	1.242687480207334e-13 	101324.9999999903
-0.08383383383383426 	300.0000000000124 	8.071346559356045e-13 	101324.9999999902
-0.08133133133133173 	299.9999999999592 	1.552912574966219e-13 	101324.99999999
-0.07882882882882926 	299.9999999998715 	7.286139008724877e-13 	101324.9999999898
-0.07632632632632676 	299.9999999999516 	6.226309791315424e-13 	101324.9999999896
-0.07382382382382424 	299.9999999998789 	1.425263296939468e-12 	101324.9999999896
-0.07132132132132173 	300.000000000013 	1.284018543756328e-12 	101324.9999999891
-0.06881881881881925 	299.9999999999558 	1.941123441105095e-12 	101324.9999999891
-0.06631631631631671 	299.9999999998777 	1.594053822515311e-12 	101324.9999999891
-0.06381381381381425 	299.9999999999504 	1.599966952465108e-12 	101324.9999999889
-0.06131131131131173 	299.9999999999549 	1.324040419876666e-12 	101324.999999989
-0.05880880880880923 	299.9999999998971 	1.357514954456469e-12 	101324.9999999893
-0.05630630630630672 	299.9999999999621 	1.243183988681188e-12 	101324.9999999894
-0.05380380380380424 	300.0000000000157 	1.188783599116093e-12 	101324.9999999896
-0.05130130130130173 	300.0000000000145 	1.227254948887666e-12 	101324.9999999894
-0.04879879879879922 	299.9999999999316 	1.462623043718708e-12 	101324.9999999895
-0.04629629629629672 	299.9999999999157 	9.278735037099012e-13 	101324.9999999896
-0.04379379379379422 	299.9999999998994 	1.006480042752229e-12 	101324.9999999899
-0.04129129129129173 	299.9999999999772 	5.892918296723107e-13 	101324.9999999901
-0.03878878878878922 	299.999999999983 	1.613092807157057e-12 	101324.99999999
-0.03628628628628671 	299.9999999999816 	9.327339013593969e-13 	101324.99999999
-0.03378378378378422 	299.9999999999101 	1.231311124985869e-12 	101324.9999999898
-0.03128128128128172 	299.999999999959 	4.415277523883248e-13 	101324.9999999901
-0.02877877877877922 	299.9999999999591 	1.785282525992573e-12 	101324.9999999904
-0.0262762762762767 	299.9999999998871 	8.500048630519486e-13 	101324.9999999903
-0.02377377377377422 	300.0000000000246 	1.206371539908221e-12 	101324.9999999903
-0.0212712712712717 	299.9999999998868 	1.286976068233789e-12 	101324.99999999
-0.01876876876876921 	299.9999999999533 	6.734052110009704e-13 	101324.9999999899
-0.01626626626626671 	300.0000000000163 	9.020099131463927e-13 	101324.9999999895
-0.0137637637637642 	299.9999999999582 	5.415863573620375e-13 	101324.9999999893
-0.0112612612612617 	300.0000000000209 	3.333606609223909e-13 	101324.9999999892
-0.008758758758759198 	299.9999999999977 	8.689239914763327e-13 	101324.9999999891
-0.006256256256256697 	299.9999999998651 	7.340706007555955e-13 	101324.999999989
-0.003753753753754195 	299.9999999999491 	1.321628302414057e-12 	101324.9999999891
-0.001251251251251693 	299.9999999999191 	1.177945714334267e-12 	101324.9999999892
0.00125125125125081 	299.9999999999501 	1.54080041818923e-12 	101324.9999999896
0.003753753753753312 	299.9999999999541 	4.524262449189084e-13 	101324.9999999899
0.006256256256255817 	299.9999999998712 	9.600831090592492e-13 	101324.99999999
0.008758758758758317 	299.9999999999923 	2.154308038810895e-13 	101324.9999999902
0.01126126126126082 	300.0000000000049 	3.095027964695479e-14 	101324.9999999904
0.01376376376376332 	299.9999999999628 	2.192363530382197e-13 	101324.9999999907
0.01626626626626582 	300.0000000000094 	5.029087008726292e-13 	101324.9999999908
0.01876876876876833 	299.9999999999517 	9.661606309873479e-13 	101324.9999999908
0.02127127127127083 	299.9999999999618 	1.89380386817501e-12 	101324.9999999911
0.02377377377377332 	299.9999999999969 	2.304860229315075e-12 	101324.9999999908
0.02627627627627583 	299.9999999998873 	1.848367014760431e-12 	101324.9999999908
0.02877877877877833 	300.0000000000103 	2.060881868487855e-12 	101324.9999999907
0.03128128128128083 	299.9999999999436 	1.454780402591279e-12 	101324.9999999905
0.03378378378378333 	299.999999999887 	1.68184522978287e-12 	101324.9999999903
0.03628628628628584 	299.9999999999674 	1.016129657372865e-12 	101324.9999999905
0.03878878878878834 	299.9999999999765 	5.64749832714209e-13 	101324.9999999906
0.04129129129129084 	299.9999999999757 	2.965483174319814e-13 	101324.9999999906
0.04379379379379333 	299.9999999999415 	4.411096917641493e-13 	101324.9999999902
0.04629629629629585 	299.9999999998706 	7.187992529561641e-13 	101324.9999999901
0.04879879879879834 	299.9999999999545 	1.388347157877161e-12 	101324.99999999
0.05130130130130085 	300.0000000000167 	1.25112213867278e-12 	101324.9999999901
0.05380380380380335 	300.0000000000244 	1.45172130308817e-12 	101324.9999999901
0.05630630630630584 	299.999999999993 	1.121393739775661e-12 	101324.9999999898
0.05880880880880836 	299.9999999999126 	1.242722247479057e-12 	101324.9999999899
0.06131131131131085 	299.9999999999623 	1.056838022736107e-12 	101324.9999999903
0.06381381381381336 	299.9999999999581 	1.043848247518614e-12 	101324.9999999905
0.06631631631631586 	299.9999999998747 	3.510018636304016e-13 	101324.9999999904
0.06881881881881835 	299.9999999999514 	2.482117220249664e-13 	101324.9999999904
0.07132132132132088 	299.9999999999832 	4.961414564834838e-13 	101324.9999999905
0.07382382382382337 	299.9999999998866 	4.538424449820927e-13 	101324.9999999904
0.07632632632632587 	299.9999999999642 	2.082703355274513e-13 	101324.9999999901
0.07882882882882837 	299.999999999929 	2.092395350474207e-13 	101324.9999999899
0.08133133133133086 	299.9999999999765 	2.617517304913152e-13 	101324.99999999
0.08383383383383337 	299.9999999999823 	1.077618718124337e-12 	101324.9999999901
0.08633633633633589 	299.9999999998906 	1.539477522994039e-12 	101324.9999999902
0.08883883883883838 	300.000000000006 	2.075695295053417e-12 	101324.9999999902
0.09134134134134086 	299.9999999999757 	1.339327053423801e-12 	101324.9999999902
0.09384384384384339 	299.9999999998766 	1.780463158425987e-12 	101324.9999999901
0.09634634634634588 	299.999999999957 	1.783667762274346e-12 	101324.9999999902
0.09884884884884838 	299.9999999999693 	1.779680151033879e-12 	101324.9999999902
0.1013513513513509 	300.0000000000242 	2.163620371692732e-12 	101324.9999999901
0.1038538538538534 	299.9999999999509 	1.477071112229454e-12 	101324.9999999899
0.1063563563563559 	300.0000000000027 	1.257619247738827e-12 	101324.9999999896
0.1088588588588584 	300.0000000000347 	6.457021232427024e-13 	101324.9999999893
0.1113613613613609 	299.9999999999101 	6.507397235053784e-13 	101324.9999999896
0.1138638638638634 	299.999999999938 	1.028311785225809e-12 	101324.9999999898
0.1163663663663659 	299.9999999999412 	1.230165783370566e-12 	101324.9999999896
0.1188688688688684 	299.9999999999778 	1.484505712285179e-12 	101324.9999999897
0.1213713713713709 	299.9999999999976 	8.487478668721425e-13 	101324.9999999898
0.1238738738738734 	299.9999999999176 	1.303021445681301e-12 	101324.9999999896
0.1263763763763759 	299.9999999999829 	1.712612855275365e-12 	101324.9999999895
0.1288788788788784 	299.999999999983 	1.538906143441522e-12 	101324.9999999895
0.1313813813813809 	299.9999999999782 	1.46817898741739e-12 	101324.9999999893
0.1338838838838834 	299.9999999999733 	1.559261798069975e-12 	101324.9999999896
0.1363863863863859 	300.0000000000156 	7.130122229387907e-13 	101324.9999999896
0.1388888888888884 	300.0000000000472 	1.19335391991327e-12 	101324.9999999897
0.1413913913913909 	300.0000000000078 	1.601001207664174e-13 	101324.9999999897
0.1438938938938934 	299.9999999999891 	1.330014336732939e-12 	101324.9999999896
0.1463963963963959 	299.9999999999532 	4.689332253510134e-13 	101324.9999999898
0.1488988988988985 	299.9999999998957 	2.075936669153726e-12 	101324.9999999897
0.1514014014014009 	299.9999999999649 	3.524616749762753e-13 	101324.9999999898
0.1539039039039035 	299.9999999999607 	2.028436590956441e-12 	101324.9999999899
0.1564064064064059 	299.9999999999196 	7.072905062170487e-13 	101324.9999999897
0.1589089089089084 	299.9999999999691 	2.551276106687442e-12 	101324.9999999897
0.1614114114114109 	299.9999999999645 	4.785661835609802e-13 	101324.9999999897
0.1639139139139134 	299.9999999999 	2.209571517545132e-12 	101324.9999999899
0.166416416416416 	300.0000000000039 	1.194501816688509e-12 	101324.9999999897
0.1689189189189185 	300.0000000000421 	8.963511365626924e-13 	101324.9999999894
0.1714214214214209 	300.0000000000045 	1.45483169539361e-12 	101324.9999999893
0.1739239239239235 	299.9999999999891 	6.227804132221437e-13 	101324.9999999896
0.1764264264264259 	299.9999999999702 	2.648932423333e-12 	101324.9999999896
0.1789289289289284 	300.0000000000014 	5.683151400510501e-13 	101324.9999999896
0.181431431431431 	299.9999999999591 	1.653336403309215e-12 	101324.9999999894
0.1839339339339334 	299.9999999999627 	2.713563062806296e-13 	101324.9999999894
0.186436436436436 	299.9999999999148 	1.401214238599093e-12 	101324.9999999893
0.1889389389389385 	299.9999999999763 	1.257308658829637e-12 	101324.9999999891
0.191441441441441 	299.99999999997 	1.398104009118869e-12 	101324.9999999891
0.1939439439439434 	299.9999999999052 	3.112791748269529e-12 	101324.999999989
0.196446446446446 	299.9999999999326 	2.25286238197916e-12 	101324.9999999889
0.1989489489489485 	299.9999999999554 	4.480896048260777e-12 	101324.999999989
0.2014514514514509 	299.9999999999764 	2.5674193072674e-12 	101324.9999999892
0.2039539539539535 	299.9999999999893 	3.780210811369849e-12 	101324.9999999895
0.2064564564564559 	299.9999999999501 	3.021514779126374e-12 	101324.9999999895
0.2089589589589585 	299.9999999999837 	3.617178770940163e-12 	101324.9999999893
0.211461461461461 	299.9999999999214 	4.093611063535285e-12 	101324.9999999895
0.2139639639639635 	299.9999999999716 	3.639738458045894e-12 	101324.9999999897
0.2164664664664659 	299.9999999999997 	4.252144238938056e-12 	101324.9999999896
0.2189689689689684 	299.9999999999972 	2.043140322706489e-12 	101324.9999999895
0.221471471471471 	299.9999999999934 	4.061763961798381e-12 	101324.9999999895
0.2239739739739735 	299.9999999999435 	2.093069322226493e-12 	101324.999999989
0.226476476476476 	299.9999999999725 	3.604733889872075e-12 	101324.9999999891
0.2289789789789785 	299.9999999999932 	2.75498483304221e-12 	101324.9999999888
0.231481481481481 	299.9999999999826 	3.160322518280733e-12 	101324.9999999888
0.2339839839839835 	299.9999999999774 	4.007242675635323e-12 	101324.9999999888
0.236486486486486 	300.0000000000263 	3.062166227081621e-12 	101324.999999989
0.2389889889889885 	300.000000000001 	4.338436086814875e-12 	101324.999999989
0.241491491491491 	299.9999999999098 	2.377325878501564e-12 	101324.9999999892
0.2439939939939935 	299.9999999999825 	4.84277744782678e-12 	101324.9999999896
0.246496496496496 	299.9999999999913 	1.798159046100716e-12 	101324.9999999896
0.2489989989989985 	300.0000000000457 	2.600787512854933e-12 	101324.9999999898
0.251501501501501 	300.0000000000393 	1.208091902447255e-12 	101324.99999999
0.2540040040040035 	299.9999999999901 	5.203853023409452e-13 	101324.9999999904
0.256506506506506 	300.0000000000309 	7.689744409719363e-13 	101324.9999999903
0.2590090090090086 	299.9999999999019 	1.737067590664812e-12 	101324.9999999902
0.261511511511511 	300.0000000000054 	1.276109565190307e-12 	101324.99999999
0.2640140140140135 	299.999999999993 	1.641324733019392e-12 	101324.9999999896
0.2665165165165161 	299.999999999918 	6.698445696689607e-13 	101324.9999999894
0.2690190190190185 	300.0000000000107 	6.980243583072027e-13 	101324.9999999894
0.271521521521521 	300.0000000000223 	3.770606324082456e-13 	101324.9999999891
0.2740240240240235 	300.0000000000222 	2.186450404145534e-13 	101324.9999999888
0.276526526526526 	300.0000000000122 	5.485725202681922e-13 	101324.9999999892
0.2790290290290286 	299.9999999999339 	9.136828179075792e-13 	101324.9999999893
0.281531531531531 	299.9999999999137 	5.886820769956143e-13 	101324.9999999891
0.2840340340340335 	299.999999999984 	1.804620554026139e-12 	101324.9999999889
0.2865365365365361 	299.9999999999547 	5.696874515977995e-13 	101324.9999999889
0.2890390390390385 	299.9999999999927 	1.274647142592121e-12 	101324.9999999892
0.291541541541541 	299.9999999999938 	1.194886844090821e-12 	101324.9999999891
0.2940440440440436 	299.9999999999889 	9.226164467730985e-13 	101324.999999989
0.296546546546546 	299.9999999999922 	2.485175980197966e-12 	101324.9999999889
0.2990490490490486 	299.9999999999255 	8.024455653970055e-13 	101324.9999999889
0.3015515515515511 	300.0000000000394 	4.219131580121175e-12 	101324.9999999888
0.3040540540540535 	299.9999999999957 	2.218013692967016e-12 	101324.9999999888
0.3065565565565562 	299.999999999997 	4.481551775534895e-12 	101324.9999999888
0.3090590590590585 	299.9999999999871 	2.3235413005854e-12 	101324.9999999884
0.3115615615615611 	299.9999999999294 	3.678707173512375e-12 	101324.9999999888
0.3140640640640635 	300.0000000000032 	1.470312672887721e-12 	101324.9999999887
0.316566566566566 	299.9999999999868 	2.440334354437673e-12 	101324.9999999888
0.3190690690690687 	299.9999999999401 	1.659042710456567e-12 	101324.9999999889
0.3215715715715711 	300.0000000000064 	1.951241914097659e-12 	101324.999999989
0.3240740740740735 	299.9999999999894 	1.857882992336942e-12 	101324.9999999893
0.326576576576576 	299.9999999998836 	9.088662001680234e-13 	101324.9999999895
0.3290790790790786 	300.0000000000099 	1.123173189993709e-12 	101324.99999999
0.3315815815815811 	300.0000000000437 	5.565232675443004e-13 	101324.9999999901
0.3340840840840836 	299.9999999999847 	8.056159113011851e-13 	101324.9999999904
0.3365865865865861 	300.0000000000633 	1.364506233352418e-12 	101324.9999999902
0.3390890890890886 	300.0000000000549 	1.090922631119533e-12 	101324.99999999
0.3415915915915911 	300.0000000000029 	8.034848629712104e-13 	101324.9999999898
0.3440940940940935 	299.9999999999479 	1.276834944537668e-12 	101324.9999999899
0.3465965965965962 	300.0000000000437 	1.046829906910744e-12 	101324.9999999897
0.3490990990990985 	300.0000000000323 	7.941754727520251e-13 	101324.9999999896
0.3516016016016011 	299.9999999999806 	2.144499983000111e-13 	101324.9999999898
0.3541041041041035 	300.0000000000068 	4.456483997507848e-13 	101324.9999999899
0.3566066066066061 	299.9999999999505 	1.25199620148867e-12 	101324.9999999899
0.3591091091091085 	299.9999999999081 	1.202993590840427e-12 	101324.9999999897
0.3616116116116112 	299.9999999999348 	1.538762063384536e-12 	101324.9999999897
0.3641141141141137 	299.9999999999239 	1.953774796038855e-12 	101324.9999999898
0.3666166166166161 	299.9999999999104 	3.022273503627172e-12 	101324.9999999899
0.3691191191191185 	300.0000000000438 	1.70065036799256e-12 	101324.9999999899
0.371621621621621 	300.0000000000177 	3.880091602394731e-12 	101324.9999999896
0.3741241241241237 	300.0000000000517 	8.399657084375137e-13 	101324.9999999893
0.3766266266266261 	300.0000000000309 	3.201203739942595e-12 	101324.9999999889
0.3791291291291286 	299.9999999999785 	8.601551336066596e-13 	101324.9999999886
0.3816316316316311 	299.9999999999077 	2.175048919717621e-12 	101324.9999999887
0.3841341341341336 	300.0000000000146 	1.929584192482687e-12 	101324.9999999891
0.3866366366366362 	299.9999999999984 	7.292279512650165e-13 	101324.9999999891
0.3891391391391387 	299.9999999999535 	2.345899470543985e-12 	101324.9999999893
0.391641641641641 	299.9999999999959 	2.550045393743742e-13 	101324.9999999898
0.3941441441441436 	300.0000000000119 	1.358332386251282e-12 	101324.9999999901
0.3966466466466462 	300.0000000000007 	9.00705774836955e-13 	101324.9999999899
0.3991491491491486 	299.9999999999383 	7.489465451105063e-13 	101324.9999999898
0.4016516516516512 	299.9999999999078 	1.658762468698846e-12 	101324.9999999898
0.4041541541541536 	299.999999999939 	5.852142175356086e-13 	101324.9999999897
0.4066566566566561 	299.9999999999372 	1.602177605971077e-12 	101324.9999999895
0.4091591591591587 	299.9999999999795 	3.90657507972253e-13 	101324.9999999893
0.4116616616616612 	299.9999999999945 	1.81380915929184e-12 	101324.9999999891
0.4141641641641635 	300.0000000000517 	1.46818174083515e-12 	101324.9999999889
0.4166666666666662 	299.9999999999944 	1.825172130845412e-12 	101324.9999999887
0.4191691691691687 	299.9999999999344 	2.392257631829607e-12 	101324.9999999888
0.421671671671671 	300.000000000011 	1.285578556939757e-12 	101324.9999999891
0.4241741741741737 	299.9999999999692 	3.039094797979821e-12 	101324.9999999893
0.4266766766766761 	299.9999999999478 	2.510238883235094e-12 	101324.9999999892
0.4291791791791785 	300.000000000025 	3.516685956132817e-12 	101324.9999999894
0.4316816816816812 	300.0000000000167 	2.976602152887671e-12 	101324.9999999896
0.4341841841841836 	299.9999999999844 	3.55047509907173e-12 	101324.9999999895
0.4366866866866862 	299.9999999999053 	1.432949836510343e-12 	101324.9999999893
0.4391891891891885 	299.9999999999866 	2.825012104148205e-12 	101324.9999999894
0.4416916916916913 	299.9999999999842 	1.067617612285191e-12 	101324.9999999893
0.4441941941941936 	299.9999999999873 	1.929637456522466e-12 	101324.9999999892
0.4466966966966961 	299.9999999999066 	1.143052971268264e-12 	101324.9999999894
0.4491991991991987 	299.999999999976 	8.042780709605763e-13 	101324.9999999895
0.4517017017017012 	299.9999999999744 	1.335849413746652e-12 	101324.9999999894
0.4542042042042035 	299.9999999999947 	4.576010026385052e-13 	101324.9999999896
0.4567067067067062 	299.9999999999948 	1.314968662914666e-13 	101324.9999999898
0.4592092092092087 	299.9999999999172 	6.469706466756116e-13 	101324.9999999897
0.4617117117117112 	300.0000000000256 	1.291504420296262e-12 	101324.9999999899
0.4642142142142137 	299.9999999999655 	1.488040290122253e-12 	101324.99999999
0.4667167167167162 	299.9999999999905 	1.373809058573117e-12 	101324.9999999899
0.4692192192192187 	299.9999999999512 	1.411283595665203e-12 	101324.99999999
0.4717217217217212 	300.000000000013 	1.181301433654773e-12 	101324.9999999903
0.4742242242242236 	299.9999999999559 	1.293881938358035e-12 	101324.9999999904
0.4767267267267262 	299.999999999962 	8.876536121430883e-13 	101324.9999999905
0.4792292292292287 	300.0000000000194 	7.751316377361369e-13 	101324.9999999904
0.4817317317317312 	300.0000000000362 	1.204416229861879e-12 	101324.9999999905
0.4842342342342336 	299.9999999999861 	6.340644879940314e-13 	101324.9999999903
0.4867367367367362 	299.9999999999519 	1.309256042298178e-12 	101324.9999999903
0.4892392392392387 	300.0000000000308 	6.439840982728095e-13 	101324.9999999903
0.4917417417417412 	300.0000000000055 	2.182557587062357e-12 	101324.9999999901
0.4942442442442437 	299.9999999998967 	1.366712415017802e-12 	101324.9999999898
0.4967467467467462 	299.99999999992 	2.286163504205034e-12 	101324.9999999895
0.4992492492492487 	299.9999999999092 	5.737925703331356e-13 	101324.9999999894
0.5017517517517511 	299.9999999999472 	3.901724681422549e-13 	101324.9999999893
0.5042542542542537 	299.9999999999536 	7.02342269327045e-13 	101324.9999999893
0.5067567567567562 	299.9999999999342 	7.716117252828566e-13 	101324.9999999892
0.5092592592592589 	299.9999999999712 	5.322267262820837e-13 	101324.9999999893
0.5117617617617611 	299.9999999999576 	1.897276125582151e-12 	101324.9999999894
0.5142642642642637 	299.9999999999868 	1.309709131328579e-12 	101324.9999999894
0.5167667667667663 	299.9999999999702 	3.505730143052631e-12 	101324.9999999892
0.5192692692692688 	299.9999999999125 	1.761573257814823e-12 	101324.9999999895
0.5217717717717714 	299.9999999999355 	5.447395388937509e-12 	101324.9999999896
0.5242742742742736 	299.99999999994 	1.424381341118691e-12 	101324.9999999896
0.5267767767767763 	299.999999999954 	5.048999438162337e-12 	101324.9999999897
0.5292792792792789 	299.9999999999325 	1.701495781463912e-12 	101324.9999999894
0.5317817817817813 	299.9999999998981 	3.880595421047894e-12 	101324.9999999893
0.5342842842842837 	300.0000000000168 	1.67894228462199e-12 	101324.9999999894
0.5367867867867864 	300.0000000000056 	3.330701163348649e-12 	101324.9999999893
0.5392892892892888 	299.9999999999571 	1.735655235515586e-12 	101324.9999999894
0.5417917917917912 	300.0000000000054 	3.146917105065398e-12 	101324.9999999891
0.5442942942942938 	299.9999999999804 	1.655710704479739e-12 	101324.9999999893
0.5467967967967964 	299.9999999999334 	2.53901422995378e-12 	101324.9999999897
0.5492992992992988 	299.9999999999299 	1.272290484108993e-12 	101324.9999999899
0.5518018018018012 	299.9999999999339 	2.274533094839244e-12 	101324.9999999898
0.5543043043043039 	300.0000000000181 	1.617090994387511e-12 	101324.9999999899
0.5568068068068063 	299.9999999999873 	2.987507364915367e-12 	101324.9999999898
0.5593093093093087 	299.9999999998994 	2.053106308485105e-12 	101324.9999999897
0.5618118118118114 	299.9999999999571 	2.966811756088193e-12 	101324.9999999899
0.5643143143143137 	299.9999999999416 	1.401453290978899e-12 	101324.9999999901
0.5668168168168163 	299.9999999999923 	1.722534184723518e-12 	101324.9999999904
0.5693193193193188 	300.0000000000334 	1.569208442601256e-12 	101324.9999999907
0.5718218218218213 	300.0000000000287 	1.222137951098537e-12 	101324.9999999907
0.5743243243243239 	300.0000000000127 	2.185662624248187e-12 	101324.9999999905
0.5768268268268262 	300.0000000000068 	1.870241629229524e-12 	101324.9999999902
0.5793293293293288 	299.9999999999359 	3.527312288087732e-12 	101324.9999999899
0.5818318318318314 	299.9999999999071 	1.91766929282367e-12 	101324.9999999897
0.5843343343343338 	299.9999999999777 	5.644641299178404e-12 	101324.9999999895
0.5868368368368363 	299.9999999999725 	1.952113337328464e-12 	101324.9999999894
0.5893393393393387 	299.9999999999435 	4.847178453026458e-12 	101324.9999999897
0.5918418418418413 	299.9999999999357 	2.167820129772221e-12 	101324.99999999
0.5943443443443439 	300.0000000000163 	3.993877630815362e-12 	101324.9999999902
0.5968468468468463 	300.0000000000152 	1.91485033065516e-12 	101324.9999999903
0.5993493493493487 	300.000000000039 	3.14848793401286e-12 	101324.9999999903
0.6018518518518514 	299.9999999999793 	1.296575413071558e-12 	101324.9999999902
0.6043543543543537 	299.9999999999924 	2.589893058808116e-12 	101324.9999999901
0.6068568568568564 	299.999999999979 	1.404410743432911e-12 	101324.9999999899
0.6093593593593587 	299.9999999999241 	3.261702128671681e-12 	101324.9999999899
0.6118618618618614 	299.9999999999183 	3.00322397278381e-12 	101324.99999999
0.6143643643643638 	300.00000000002 	4.261272345783455e-12 	101324.9999999903
0.6168668668668662 	299.9999999999887 	2.538743585149964e-12 	101324.9999999901
0.6193693693693688 	299.9999999999559 	3.9748425924536e-12 	101324.9999999902
0.6218718718718714 	299.999999999966 	1.559872437160702e-12 	101324.9999999903
0.6243743743743737 	299.9999999999312 	2.812881778166814e-12 	101324.9999999903
0.6268768768768762 	299.9999999999199 	1.055074916062552e-12 	101324.9999999904
0.629379379379379 	299.9999999999526 	1.359733526475426e-12 	101324.9999999904
0.6318818818818812 	299.9999999999816 	1.139178523157442e-12 	101324.9999999904
0.6343843843843838 	300.0000000000206 	1.528393063622547e-12 	101324.9999999905
0.6368868868868864 	299.9999999999836 	2.433272205911056e-12 	101324.9999999904
0.6393893893893888 	299.9999999999183 	1.547355049901921e-12 	101324.9999999906
0.6418918918918912 	300.0000000000019 	4.536800493662267e-12 	101324.9999999907
0.6443943943943939 	299.9999999999742 	2.587160844446536e-12 	101324.9999999907
0.6468968968968963 	299.9999999999843 	4.948405716152779e-12 	101324.9999999907
0.6493993993993988 	299.9999999999748 	2.078654822578255e-12 	101324.9999999906
0.6519019019019012 	299.9999999999744 	4.297561277100567e-12 	101324.9999999908
0.6544044044044038 	299.9999999998967 	2.164955303381942e-12 	101324.9999999908
0.6569069069069065 	299.9999999999454 	3.557720452889666e-12 	101324.9999999908
0.6594094094094087 	299.9999999999608 	1.5607948930486e-12 	101324.9999999909
0.6619119119119113 	299.9999999999523 	4.520228105794707e-12 	101324.9999999907
0.664414414414414 	300.0000000000053 	2.65351648247306e-12 	101324.9999999905
0.6669169169169162 	300.0000000000214 	3.917869618644951e-12 	101324.9999999906
0.6694194194194188 	299.9999999999832 	2.011400123875135e-12 	101324.9999999908
0.6719219219219214 	299.9999999999116 	3.361825663090295e-12 	101324.999999991
0.674424424424424 	299.9999999999698 	2.30962614583222e-12 	101324.9999999912
0.6769269269269262 	299.9999999999145 	3.418236545998239e-12 	101324.9999999913
0.679429429429429 	300.0000000000023 	2.907342298015362e-12 	101324.9999999912
0.6819319319319311 	299.9999999999775 	3.383886903338147e-12 	101324.9999999914
0.6844344344344341 	299.9999999999907 	2.14758083571644e-12 	101324.9999999914
0.686936936936936 	299.9999999999845 	2.630033908478603e-12 	101324.9999999914
0.6894394394394392 	299.9999999999779 	1.857736992520885e-12 	101324.9999999912
0.6919419419419413 	299.9999999999845 	1.793951346866087e-12 	101324.999999991
0.694444444444444 	299.99999999993 	2.182612469004205e-12 	101324.999999991
0.6969469469469463 	299.9999999999209 	2.334091158259938e-12 	101324.999999991
0.6994494494494489 	299.9999999999135 	3.328774885129492e-12 	101324.9999999909
0.7019519519519515 	299.99999999998 	2.991276504533486e-12 	101324.9999999908
0.7044544544544538 	299.9999999999477 	4.647553724115331e-12 	101324.9999999907
0.7069569569569564 	299.9999999999981 	3.023428150496441e-12 	101324.9999999909
0.7094594594594589 	299.9999999999659 	4.993660974848762e-12 	101324.9999999908
0.7119619619619615 	299.999999999908 	2.947725778536653e-12 	101324.9999999907
0.7144644644644638 	299.999999999944 	4.691218134338178e-12 	101324.9999999906
0.7169669669669665 	299.9999999999111 	3.525157948935451e-12 	101324.9999999905
0.7194694694694688 	299.9999999999958 	3.820014130642564e-12 	101324.9999999904
0.7219719719719715 	299.9999999999897 	2.211060858775548e-12 	101324.9999999904
0.7244744744744737 	300.0000000000052 	2.525677952479327e-12 	101324.9999999904
0.7269769769769764 	299.9999999999946 	2.452044783492292e-12 	101324.9999999902
0.7294794794794791 	299.9999999999883 	1.279630682054033e-12 	101324.9999999901
0.7319819819819813 	299.9999999999829 	2.612909923955551e-12 	101324.9999999901
0.7344844844844839 	299.9999999999192 	2.02129878225433e-12 	101324.9999999904
0.7369869869869864 	299.9999999999401 	3.531865967350415e-12 	101324.9999999907
0.739489489489489 	299.9999999999313 	3.146363050483444e-12 	101324.9999999907
0.7419919919919914 	299.9999999999218 	2.912586492590875e-12 	101324.9999999907
0.7444944944944939 	299.9999999999762 	3.729229635211521e-12 	101324.9999999908
0.7469969969969963 	299.9999999999678 	2.317486324541842e-12 	101324.9999999909
0.7494994994994989 	299.9999999999391 	4.133084955854095e-12 	101324.9999999909
0.7520020020020015 	299.9999999999721 	2.1067121833308e-12 	101324.9999999907
0.7545045045045039 	299.999999999967 	4.748642373095447e-12 	101324.9999999908
0.7570070070070062 	299.9999999999364 	2.341123028111558e-12 	101324.9999999909
0.7595095095095092 	299.9999999999287 	4.115581257635044e-12 	101324.9999999914
0.7620120120120112 	300.0000000000084 	3.450786709103146e-12 	101324.9999999916
0.7645145145145138 	299.9999999999841 	3.970867083875955e-12 	101324.9999999917
0.7670170170170165 	299.9999999999234 	4.167135506168445e-12 	101324.9999999917
0.7695195195195191 	299.9999999999246 	3.001683655482263e-12 	101324.9999999914
0.7720220220220213 	299.9999999999289 	4.69962591518545e-12 	101324.9999999912
0.7745245245245239 	299.9999999999208 	3.535308384945605e-12 	101324.9999999912
0.7770270270270263 	299.9999999999642 	5.792293027409308e-12 	101324.9999999912
0.779529529529529 	299.9999999999829 	5.287314049592588e-12 	101324.999999991
0.7820320320320313 	299.9999999999695 	6.314553856363978e-12 	101324.9999999911
0.784534534534534 	300.0000000000003 	6.236092897646337e-12 	101324.9999999912
0.7870370370370364 	299.999999999991 	5.84903827417152e-12 	101324.9999999915
0.7895395395395389 	299.9999999999768 	6.609452745407363e-12 	101324.9999999916
0.7920420420420413 	299.9999999999691 	5.004620546819237e-12 	101324.9999999915
0.794544544544544 	299.9999999999621 	6.344524919175697e-12 	101324.9999999916
0.7970470470470463 	299.9999999999954 	4.248583223493244e-12 	101324.9999999917
0.799549549549549 	299.9999999999829 	6.761060562099631e-12 	101324.9999999919
0.8020520520520515 	299.9999999999856 	4.156207696515326e-12 	101324.9999999921
0.8045545545545539 	299.9999999999436 	6.103528236934682e-12 	101324.9999999921
0.8070570570570563 	299.9999999999762 	5.279454658582585e-12 	101324.9999999919
0.8095595595595589 	299.9999999999494 	5.952437225453268e-12 	101324.9999999918
0.8120620620620614 	299.9999999999334 	5.991379090980461e-12 	101324.9999999917
0.8145645645645638 	300.0000000000001 	5.800114958767121e-12 	101324.9999999918
0.8170670670670666 	299.9999999999924 	6.003774252319715e-12 	101324.9999999918
0.8195695695695689 	299.9999999999718 	4.289547600247979e-12 	101324.9999999919
0.8220720720720714 	299.999999999939 	6.037632835617875e-12 	101324.9999999918
0.8245745745745739 	299.9999999999889 	3.66160955857503e-12 	101324.9999999917
0.8270770770770765 	299.9999999999667 	5.105443631562374e-12 	101324.9999999917
0.8295795795795788 	299.9999999999446 	4.137407074701316e-12 	101324.9999999919
0.8320820820820815 	300.0000000000107 	5.125162247018735e-12 	101324.999999992
0.834584584584584 	300.0000000000061 	4.89582225698259e-12 	101324.9999999919
0.8370870870870865 	299.9999999999711 	5.507080529697733e-12 	101324.9999999918
0.8395895895895891 	299.999999999926 	6.642477034229238e-12 	101324.9999999917
0.8420920920920915 	299.9999999999373 	6.258287314834978e-12 	101324.9999999916
0.844594594594594 	299.9999999999343 	6.321098436447078e-12 	101324.9999999915
0.8470970970970964 	299.9999999999548 	6.652763576005844e-12 	101324.9999999915
0.8495995995995991 	299.9999999999913 	6.163407983406284e-12 	101324.9999999916
0.8521021021021015 	299.9999999999799 	6.121451860424802e-12 	101324.9999999917
0.8546046046046039 	299.9999999999717 	4.444867936910539e-12 	101324.9999999917
0.8571071071071066 	300.0000000000007 	4.955872538869448e-12 	101324.9999999917
0.8596096096096089 	299.9999999999624 	2.782082392045119e-12 	101324.999999992
0.8621121121121116 	299.9999999999276 	5.6558354352143e-12 	101324.9999999921
0.8646146146146139 	299.999999999994 	4.150022575520843e-12 	101324.9999999922
0.8671171171171166 	299.9999999999707 	5.510495312191014e-12 	101324.999999992
0.8696196196196189 	299.9999999999424 	4.914737625783385e-12 	101324.999999992
0.8721221221221216 	299.9999999999823 	5.665789139127387e-12 	101324.999999992
0.874624624624624 	300.0000000000018 	6.115734180302082e-12 	101324.9999999919
0.8771271271271264 	299.9999999999994 	6.510245457358261e-12 	101324.999999992
0.879629629629629 	300.0000000000065 	7.546139780674744e-12 	101324.9999999923
0.8821321321321317 	299.9999999999793 	6.151660090326215e-12 	101324.9999999927
0.8846346346346339 	299.9999999999186 	7.884000182192554e-12 	101324.9999999927
0.8871371371371364 	299.9999999999558 	5.557594502297503e-12 	101324.9999999927
0.8896396396396391 	299.9999999999649 	6.932091562646178e-12 	101324.9999999927
0.8921421421421414 	299.9999999999686 	5.962070700004895e-12 	101324.9999999924
0.8946446446446441 	299.9999999999829 	6.943776169986602e-12 	101324.9999999922
0.8971471471471464 	300.0000000000005 	6.411274849695906e-12 	101324.999999992
0.8996496496496489 	299.9999999999806 	6.173151358805235e-12 	101324.9999999919
0.9021521521521517 	299.9999999999679 	6.187957919455245e-12 	101324.999999992
0.9046546546546541 	299.9999999999993 	4.784330807341042e-12 	101324.9999999921
0.9071571571571564 	299.9999999999556 	4.710975452622778e-12 	101324.9999999922
0.9096596596596589 	299.9999999999501 	4.886318313901981e-12 	101324.9999999922
0.9121621621621616 	300.000000000006 	5.01004136501208e-12 	101324.9999999922
0.9146646646646639 	299.999999999975 	5.135995303114213e-12 	101324.9999999923
0.9171671671671666 	299.999999999944 	4.684549505205137e-12 	101324.9999999923
0.9196696696696689 	299.9999999999973 	5.154348862552909e-12 	101324.9999999925
0.9221721721721714 	299.9999999999919 	3.663523763396411e-12 	101324.9999999925
0.9246746746746741 	299.9999999999322 	5.949796902418116e-12 	101324.9999999922
0.9271771771771765 	299.9999999999498 	4.362927517636565e-12 	101324.9999999921
0.9296796796796791 	299.9999999999895 	6.306681580775858e-12 	101324.9999999922
0.9321821821821816 	299.9999999999624 	4.91250371410706e-12 	101324.9999999923
0.9346846846846838 	299.999999999946 	5.532733966683481e-12 	101324.9999999922
0.9371871871871866 	300.0000000000104 	4.623737897249592e-12 	101324.9999999921
0.9396896896896891 	300.000000000007 	4.853240558742942e-12 	101324.9999999923
0.9421921921921914 	300.0000000000037 	5.246104363462474e-12 	101324.9999999923
0.9446946946946939 	299.999999999971 	4.385710815722002e-12 	101324.9999999923
0.9471971971971965 	299.999999999927 	5.769021521185787e-12 	101324.9999999923
0.9496996996996991 	299.9999999999611 	3.699111401833231e-12 	101324.9999999923
0.9522022022022016 	299.999999999979 	4.730291047670038e-12 	101324.9999999924
0.9547047047047038 	299.9999999999804 	3.575332707503593e-12 	101324.9999999924
0.9572072072072064 	299.9999999999611 	4.185220962994169e-12 	101324.9999999923
0.9597097097097093 	299.9999999999593 	3.454436420396139e-12 	101324.9999999922
0.9622122122122114 	299.9999999999519 	3.003588280149438e-12 	101324.9999999921
0.964714714714714 	299.9999999999444 	3.625250330159318e-12 	101324.9999999919
0.9672172172172167 	299.9999999999534 	3.158584218458119e-12 	101324.999999992
0.969719719719719 	299.9999999999883 	3.981570492569894e-12 	101324.9999999921
0.9722222222222214 	299.999999999976 	3.988516117313829e-12 	101324.9999999921
0.9747247247247239 	299.999999999968 	4.40570280047523e-12 	101324.9999999921
0.9772272272272267 	300.0000000000031 	5.283112003725046e-12 	101324.9999999922
0.9797297297297292 	299.9999999999833 	5.03230721926671e-12 	101324.9999999922
0.9822322322322313 	299.9999999999828 	5.552438480790853e-12 	101324.9999999923
0.9847347347347344 	299.9999999999794 	3.838067280049919e-12 	101324.9999999925
0.9872372372372363 	299.9999999999305 	5.999141372042432e-12 	101324.9999999926
0.9897397397397389 	299.9999999999575 	4.262575181005724e-12 	101324.9999999925
0.9922422422422417 	299.9999999999472 	5.827550152679513e-12 	101324.9999999926
0.9947447447447441 	299.9999999999533 	4.841307544091921e-12 	101324.9999999925
0.9972472472472468 	299.9999999999716 	5.781031836043303e-12 	101324.9999999925
0.999749749749749 	299.9999999999624 	4.83431396116768e-12 	101324.9999999925
1.002252252252252 	299.9999999999711 	5.345997666468308e-12 	101324.9999999926
1.004754754754754 	299.9999999999924 	5.656661247368166e-12 	101324.9999999927
1.007257257257256 	299.9999999999645 	4.705727270801173e-12 	101324.9999999929
1.009759759759759 	299.999999999952 	5.890142659474509e-12 	101324.9999999928
1.012262262262261 	299.9999999999556 	4.016198749400144e-12 	101324.9999999928
1.014764764764764 	299.9999999999264 	5.325154625272255e-12 	101324.9999999928
1.017267267267267 	299.9999999999184 	5.017742618506172e-12 	101324.9999999928
1.019769769769769 	299.9999999999667 	6.103109887648e-12 	101324.9999999926
1.022272272272272 	299.9999999999789 	5.25959243233602e-12 	101324.9999999927
1.024774774774774 	299.9999999999786 	4.84195108593327e-12 	101324.9999999929
1.027277277277277 	299.9999999999761 	5.049433481528796e-12 	101324.9999999928
1.029779779779779 	300.0000000000086 	4.521947314958694e-12 	101324.9999999928
1.032282282282282 	300.0000000000094 	5.221886318985331e-12 	101324.9999999927
1.034784784784784 	300.0000000000018 	4.809814254948051e-12 	101324.9999999926
1.037287287287286 	299.9999999999721 	4.991586054314403e-12 	101324.9999999925
1.039789789789789 	299.9999999999737 	4.865445597870709e-12 	101324.9999999925
1.042292292292291 	300.0000000000052 	5.09896365867046e-12 	101324.9999999926
1.044794794794794 	300.0000000000198 	5.245629153934435e-12 	101324.9999999926
1.047297297297296 	300.0000000000366 	3.871813704673747e-12 	101324.9999999927
1.049799799799799 	299.9999999999959 	5.06093959093498e-12 	101324.9999999927
1.052302302302302 	299.9999999999553 	3.952960440653518e-12 	101324.9999999926
1.054804804804804 	299.9999999999328 	5.897115375776209e-12 	101324.9999999926
1.057307307307306 	299.999999999922 	5.031512829224441e-12 	101324.9999999925
1.059809809809809 	299.9999999999579 	5.81665949868655e-12 	101324.9999999925
1.062312312312312 	299.9999999999571 	5.187608160665639e-12 	101324.9999999925
1.064814814814814 	299.9999999999567 	5.634715111865243e-12 	101324.9999999925
1.067317317317317 	299.9999999999277 	5.318392894246378e-12 	101324.9999999925
1.069819819819819 	299.9999999999246 	4.665142322508602e-12 	101324.9999999928
1.072322322322321 	299.9999999999908 	5.420973844118041e-12 	101324.9999999931
1.074824824824824 	300.000000000013 	3.932149041477122e-12 	101324.9999999931
1.077327327327327 	300.0000000000298 	5.014085681238114e-12 	101324.999999993
1.079829829829829 	300.0000000000415 	4.146056333253183e-12 	101324.999999993
1.082332332332332 	300.0000000000061 	4.795572969349076e-12 	101324.9999999928
1.084834834834834 	299.9999999999784 	5.02590966504212e-12 	101324.9999999927
1.087337337337337 	299.9999999999398 	5.416890771479527e-12 	101324.9999999928
1.089839839839839 	299.9999999999217 	6.832261068052049e-12 	101324.9999999928
1.092342342342342 	299.9999999999649 	5.693192690998045e-12 	101324.9999999928
1.094844844844844 	299.9999999999676 	6.570520730817353e-12 	101324.9999999926
1.097347347347347 	299.999999999933 	5.041409454983524e-12 	101324.9999999923
1.099849849849849 	299.9999999999171 	7.42904893721612e-12 	101324.9999999923
1.102352352352352 	299.9999999999559 	5.918188628050358e-12 	101324.9999999924
1.104854854854854 	299.9999999999828 	8.115948595760366e-12 	101324.9999999926
1.107357357357357 	299.9999999999586 	6.772895878222623e-12 	101324.9999999927
1.109859859859859 	299.9999999999466 	8.014209857996205e-12 	101324.9999999926
1.112362362362362 	300.0000000000181 	6.530962262473879e-12 	101324.9999999924
1.114864864864865 	300.0000000000191 	6.3375485890926e-12 	101324.9999999925
1.117367367367367 	299.9999999999608 	7.115944487521816e-12 	101324.9999999925
1.119869869869869 	299.9999999999214 	6.848234466743054e-12 	101324.9999999925
1.122372372372372 	299.9999999999593 	8.287289772832381e-12 	101324.9999999925
1.124874874874874 	299.9999999999536 	7.38100830444598e-12 	101324.9999999923
1.127377377377377 	299.9999999999676 	7.987066020293463e-12 	101324.9999999923
1.129879879879879 	300.0000000000246 	7.344472204214095e-12 	101324.9999999922
1.132382382382382 	300.0000000000339 	7.729414301896077e-12 	101324.9999999919
1.134884884884884 	300.0000000000053 	7.215574476967316e-12 	101324.9999999917
1.137387387387387 	300.0000000000125 	6.76398451759833e-12 	101324.9999999914
1.139889889889889 	299.9999999999523 	7.301994345029311e-12 	101324.9999999914
1.142392392392392 	299.9999999999418 	6.357140476137877e-12 	101324.9999999917
1.144894894894894 	300.0000000000141 	7.683488901966807e-12 	101324.9999999921
1.147397397397397 	299.9999999999976 	7.061829274523795e-12 	101324.9999999921
1.149899899899899 	299.9999999999352 	8.077628614861321e-12 	101324.9999999919
1.152402402402402 	299.9999999999179 	7.549654886517386e-12 	101324.9999999919
1.154904904904904 	299.9999999999532 	8.019149719280148e-12 	101324.9999999919
1.157407407407407 	299.9999999999537 	7.549012981972088e-12 	101324.9999999921
1.159909909909909 	299.9999999999267 	8.077677606384876e-12 	101324.999999992
1.162412412412412 	299.9999999999205 	9.580540172065292e-12 	101324.9999999919
1.164914914914914 	299.9999999999506 	8.85557076509908e-12 	101324.9999999919
1.167417417417417 	299.9999999999593 	1.038764360880261e-11 	101324.9999999917
1.169919919919919 	300.0000000000077 	9.304274807970864e-12 	101324.9999999916
1.172422422422422 	300.0000000000364 	9.547338664934367e-12 	101324.9999999918
1.174924924924925 	299.9999999999883 	8.317128115315297e-12 	101324.999999992
1.177427427427427 	299.9999999999586 	8.319008387512316e-12 	101324.9999999921
1.179929929929929 	300.0000000000063 	8.834089504731816e-12 	101324.9999999919
1.182432432432432 	300.0000000000347 	7.716405923766893e-12 	101324.9999999918
1.184934934934934 	300.0000000000043 	8.610420089318395e-12 	101324.9999999919
1.187437437437437 	299.9999999999712 	7.673162744220335e-12 	101324.999999992
1.189939939939939 	299.9999999999538 	8.041395156172027e-12 	101324.9999999922
1.192442442442442 	299.9999999999218 	6.670757785867019e-12 	101324.9999999923
1.194944944944944 	299.9999999999395 	7.182109818919586e-12 	101324.9999999925
1.197447447447447 	300.0000000000027 	6.811776803514899e-12 	101324.9999999926
1.199949949949949 	300.000000000009 	7.240251627834229e-12 	101324.9999999926
1.202452452452452 	299.9999999999492 	8.281950965019764e-12 	101324.9999999923
1.204954954954955 	299.9999999999436 	7.569664542411298e-12 	101324.9999999922
1.207457457457457 	299.9999999999794 	8.679708074974945e-12 	101324.9999999923
1.20995995995996 	299.999999999976 	7.945841413406048e-12 	101324.9999999923
1.212462462462462 	299.9999999999839 	8.787463338001566e-12 	101324.9999999923
1.214964964964964 	299.9999999999862 	8.221666941162605e-12 	101324.9999999921
1.217467467467467 	299.9999999999779 	9.392510656571416e-12 	101324.9999999918
1.219969969969969 	299.9999999999603 	9.057428602903146e-12 	101324.9999999916
1.222472472472472 	300.0000000000169 	9.563142893549955e-12 	101324.9999999915
1.224974974974975 	300.0000000000409 	9.79891297687891e-12 	101324.9999999916
1.227477477477477 	299.9999999999877 	8.466605111491965e-12 	101324.9999999918
1.229979979979979 	299.9999999999744 	9.33879438411094e-12 	101324.9999999919
1.232482482482482 	299.9999999999491 	8.288261246715045e-12 	101324.999999992
1.234984984984984 	299.9999999999476 	8.950502097203022e-12 	101324.9999999921
1.237487487487487 	299.9999999999733 	7.76150144952503e-12 	101324.9999999923
1.239989989989989 	299.9999999999811 	8.114474322871269e-12 	101324.9999999925
1.242492492492492 	300.0000000000152 	8.105019433613158e-12 	101324.9999999925
1.244994994994994 	299.9999999999866 	6.858601063151664e-12 	101324.9999999926
1.247497497497497 	299.9999999999846 	7.658633329716078e-12 	101324.9999999928
1.249999999999999 	300 	7.096565287049715e-12 	101324.9999999928
