-1.25 	338.5256621387885 	0.002551641500893769 	101325.0037699112
-1.247497497497497 	300.1530366387227 	0.002526820993976983 	101324.9919331419
-1.244994994994995 	300.0002717749471 	0.002489472154363966 	101325.0022812296
-1.242492492492492 	299.99999479693 	0.00244433745826105 	101324.9935139521
-1.23998998998999 	300.0000010281823 	0.002384132276617158 	101325.0011793183
-1.237487487487487 	299.9999955726756 	0.002312071003036228 	101324.9948049553
-1.234984984984985 	300.0000004074587 	0.002230084071921175 	101325.0004526149
-1.232482482482482 	299.9999964042679 	0.002140511306798134 	101324.9957812489
-1.22997997997998 	299.9999999442456 	0.002045182158501555 	101324.9999102762
-1.227477477477477 	299.9999969906746 	0.001945789596857555 	101324.9964679843
-1.224974974974975 	299.9999996280347 	0.001843837362600101 	101324.9995411958
-1.222472472472472 	299.9999974662405 	0.00174067228242637 	101324.997025024
-1.21996996996997 	299.9999995038513 	0.00163730648088004 	101324.9993991831
-1.217467467467467 	299.9999979008105 	0.001534968007168435 	101324.9975342034
-1.214964964964965 	299.9999995034443 	0.001434116585892694 	101324.9994013354
-1.212462462462462 	299.9999982473053 	0.001335857400244678 	101324.9979399312
-1.20995995995996 	299.9999995256922 	0.00124041658530602 	101324.9994305216
-1.207457457457457 	299.9999984935088 	0.001148421352048526 	101324.9982281295
-1.204954954954955 	299.9999995632634 	0.001060254949827017 	101324.9994773032
-1.202452452452452 	299.9999987072081 	0.0009760100546172663 	101324.9984776858
-1.19994994994995 	299.9999996613969 	0.0008960499095525269 	101324.9995949466
-1.197447447447447 	299.9999989357909 	0.0008204788820697236 	101324.9987474405
-1.194944944944945 	299.9999998028389 	0.0007490305330883294 	101324.9997634049
-1.192442442442442 	299.9999991572599 	0.0006824138960385833 	101324.9990073182
-1.18993993993994 	299.9999999511848 	0.0006196023909888974 	101324.9999397521
-1.187437437437437 	299.9999993786892 	0.0005615365950069572 	101324.9992678538
-1.184934934934935 	300.0000001250824 	0.0005072723700431981 	101325.0001455092
-1.182432432432432 	299.9999996023465 	0.0004572202669436964 	101324.9995310726
-1.17992992992993 	300.0000002789348 	0.0004108399655170758 	101325.0003280641
-1.177427427427427 	299.999999777772 	0.0003684223932058541 	101324.9997381223
-1.174924924924925 	300.0000003869619 	0.0003290030969759879 	101325.0004563731
-1.172422422422422 	299.9999999469558 	0.0002936432577118579 	101324.9999371915
-1.16991991991992 	300.0000005365329 	0.0002604924262267008 	101325.0006331035
-1.167417417417417 	300.000000191652 	0.0002312348544307712 	101325.000229511
-1.164914914914915 	300.0000007804025 	0.0002037065016454724 	101325.0009215474
-1.162412412412412 	300.0000004763681 	0.0001797017914413873 	101325.0005625567
-1.15990990990991 	300.000000962072 	0.0001570348517621069 	101325.0011363531
-1.157407407407407 	300.0000006651923 	0.000137665428171035 	101325.0007866702
-1.154904904904904 	300.000001078801 	0.0001191205671754277 	101325.0012745341
-1.152402402402403 	300.0000008352138 	0.0001036632674612237 	101325.0009877175
-1.1498998998999 	300.0000012200775 	8.85331005693549e-05 	101325.0014416408
-1.147397397397397 	300.000001059434 	7.656736316922363e-05 	101325.0012525251
-1.144894894894895 	300.0000014072359 	6.420741110528979e-05 	101325.0016627841
-1.142392392392392 	300.0000012925499 	5.518352319964046e-05 	101325.0015282235
-1.13988988988989 	300.0000016118562 	4.480238665552098e-05 	101325.0019052956
-1.137387387387387 	300.0000016946393 	3.709154712891175e-05 	101325.0020036129
-1.134884884884885 	300.0000017084658 	2.769453248518653e-05 	101325.0020188708
-1.132382382382382 	300.0000019848856 	2.139306173246354e-05 	101325.0023460748
-1.12987987987988 	300.0000017677177 	1.336540076362333e-05 	101325.0020892732
-1.127377377377377 	300.0000021637786 	9.137561830268727e-06 	101325.0025582613
-1.124874874874875 	300.0000019371029 	7.672609018877125e-06 	101325.0022902144
-1.122372372372372 	300.0000022992767 	5.599475178808042e-06 	101325.0027182242
-1.11986986986987 	300.0000023239668 	6.883600001239187e-06 	101325.0027465387
-1.117367367367367 	300.0000024261822 	7.024345210661945e-06 	101325.0028670654
-1.114864864864865 	300.0000025250203 	7.3172592710858e-06 	101325.0029842259
-1.112362362362362 	300.0000026326895 	7.626729715614757e-06 	101325.0031123484
-1.10985985985986 	300.0000027389679 	7.93209799700383e-06 	101325.0032387747
-1.107357357357357 	300.0000028336563 	8.209568193497791e-06 	101325.0033507403
-1.104854854854855 	300.0000029245264 	8.476185561496082e-06 	101325.0034573704
-1.102352352352353 	300.0000030246116 	8.763141330882985e-06 	101325.0035746128
-1.09984984984985 	300.0000031328445 	9.070005305207111e-06 	101325.0037018268
-1.097347347347347 	300.0000032367787 	9.368622884888627e-06 	101325.0038246315
-1.094844844844845 	300.0000033303955 	9.644026083121348e-06 	101325.0039358524
-1.092342342342342 	300.000003420992 	9.911915753576897e-06 	101325.0040437612
-1.08983983983984 	300.0000035177526 	1.019326122447905e-05 	101325.004158861
-1.087337337337337 	300.0000036195514 	1.048525985811297e-05 	101325.0042795245
-1.084834834834835 	300.0000037175037 	1.076719424471641e-05 	101325.0043951834
-1.082332332332332 	300.0000038080549 	1.103119290248984e-05 	101325.0045016909
-1.07982982982983 	300.0000038989197 	1.129652566921589e-05 	101325.0046083172
-1.077327327327327 	300.0000040002714 	1.158888299772881e-05 	101325.0047275105
-1.074824824824825 	300.0000041125473 	1.190951920880169e-05 	101325.004860154
-1.072322322322323 	300.0000042242912 	1.222908260531573e-05 	101325.0049926655
-1.06981981981982 	300.0000043222924 	1.251312264239932e-05 	101325.0051090154
-1.067317317317317 	300.0000044038206 	1.275349172398663e-05 	101325.0052056639
-1.064814814814815 	300.0000044781352 	1.297296142735645e-05 	101325.0052934941
-1.062312312312312 	300.0000045565019 	1.320137032778122e-05 	101325.0053860655
-1.05980980980981 	300.0000046431113 	1.345121993404073e-05 	101325.0054885252
-1.057307307307307 	300.0000047344088 	1.371435718510022e-05 	101325.0055965636
-1.054804804804805 	300.000004825511 	1.397838129837032e-05 	101325.0057041503
-1.052302302302302 	300.0000049167534 	1.424348736942133e-05 	101325.0058117729
-1.0497997997998 	300.0000050122716 	1.451896573378866e-05 	101325.0059246119
-1.047297297297297 	300.0000051120913 	1.480438514942785e-05 	101325.0060428025
-1.044794794794795 	300.0000052091647 	1.508189507690715e-05 	101325.0061578804
-1.042292292292292 	300.0000052949441 	1.532935147701628e-05 	101325.0062594182
-1.03978978978979 	300.0000053667042 	1.554047408081704e-05 	101325.006344152
-1.037287287287287 	300.0000054318113 	1.573501192212878e-05 	101325.0064209677
-1.034784784784785 	300.0000055032795 	1.594560033099865e-05 	101325.0065054379
-1.032282282282283 	300.0000055871457 	1.618690473347766e-05 	101325.0066047468
-1.02977977977978 	300.0000056761581 	1.644103473801835e-05 	101325.0067101341
-1.027277277277277 	300.0000057586728 	1.66787182126119e-05 	101325.0068076735
-1.024774774774775 	300.0000058307931 	1.688913764956295e-05 	101325.0068926835
-1.022272272272272 	300.0000058980851 	1.708687459102608e-05 	101325.0069720243
-1.01976976976977 	300.0000059700476 	1.729717828240938e-05 	101325.0070572294
-1.017267267267267 	300.0000060521104 	1.753286511445538e-05 	101325.0071546854
-1.014764764764765 	300.0000061383623 	1.777699489815871e-05 	101325.0072569418
-1.012262262262262 	300.0000062145505 	1.799405656667787e-05 	101325.0073467609
-1.00975975975976 	300.0000062742112 	1.816967201905888e-05 	101325.007416598
-1.007257257257257 	300.0000063282172 	1.833136547084075e-05 	101325.0074799311
-1.004754754754755 	300.0000063913866 	1.851527749312734e-05 	101325.0075548936
-1.002252252252252 	300.0000064627368 	1.871907806330468e-05 	101325.0076402951
-0.9997497497497498 	300.0000065277005 	1.890676087835288e-05 	101325.007717962
-0.9972472472472473 	300.0000065790991 	1.905963658597398e-05 	101325.0077784839
-0.9947447447447449 	300.0000066276077 	1.920319656755072e-05 	101325.0078345936
-0.9922422422422421 	300.0000066876954 	1.937416061577277e-05 	101325.0079044219
-0.9897397397397399 	300.000006758704 	1.957416224518796e-05 	101325.0079883639
-0.9872372372372376 	300.0000068271573 	1.977196682154683e-05 	101325.008070548
-0.9847347347347346 	300.0000068856135 	1.994729042489698e-05 	101325.0081411183
-0.9822322322322323 	300.0000069415564 	2.011368337883725e-05 	101325.0082076215
-0.9797297297297296 	300.0000070040115 	2.02901892363503e-05 	101325.0082804193
-0.9772272272272275 	300.000007067513 	2.046440108536507e-05 	101325.0083538943
-0.9747247247247248 	300.0000071161918 	2.060063310047913e-05 	101325.0084104873
-0.9722222222222224 	300.0000071431181 	2.068435427118788e-05 	101325.0084427177
-0.9697197197197196 	300.0000071606644 	2.074619000809879e-05 	101325.0084648186
-0.9672172172172175 	300.0000071892976 	2.083628140890598e-05 	101325.008500128
-0.9647147147147147 	300.0000072389844 	2.097888462066694e-05 	101325.0085596236
-0.9622122122122124 	300.0000073016724 	2.115330466392463e-05 	101325.0086335191
-0.9597097097097099 	300.000007359674 	2.131460597016537e-05 	101325.0087011643
-0.9572072072072073 	300.0000074007274 	2.143214539995268e-05 	101325.0087486069
-0.9547047047047047 	300.0000074277168 	2.151352960086175e-05 	101325.0087796036
-0.9522022022022023 	300.0000074542596 	2.159271758256891e-05 	101325.008810519
-0.9496996996996998 	300.0000074890222 	2.168962672339347e-05 	101325.0088514659
-0.9471971971971973 	300.0000075232285 	2.178130820837567e-05 	101325.008891851
-0.9446946946946947 	300.0000075385638 	2.182417873272464e-05 	101325.0089099603
-0.9421921921921923 	300.0000075320621 	2.181469220281695e-05 	101325.0089021029
-0.93968968968969 	300.000007529319 	2.181943116993398e-05 	101325.0088985662
-0.9371871871871872 	300.0000075644156 	2.192229000987753e-05 	101325.0089398251
-0.9346846846846848 	300.0000076408177 	2.212785130870377e-05 	101325.0090302341
-0.9321821821821823 	300.0000077166766 	2.232788727199494e-05 	101325.0091203658
-0.9296796796796799 	300.0000077386611 	2.238889636777077e-05 	101325.00914702
-0.9271771771771771 	300.0000076969133 	2.228932558514149e-05 	101325.0090982215
-0.9246746746746748 	300.0000076441479 	2.216446814763688e-05 	101325.0090359557
-0.9221721721721724 	300.000007651849 	2.219473716404832e-05 	101325.00904478
-0.9196696696696698 	300.0000077410123 	2.243076935727349e-05 	101325.0091499657
-0.9171671671671672 	300.0000078542119 	2.272384525431424e-05 	101325.0092839437
-0.9146646646646649 	300.0000079001859 	2.28399471704628e-05 	101325.0093387297
-0.9121621621621623 	300.000007833409 	2.266436536703817e-05 	101325.0092602275
-0.9096596596596597 	300.0000076992687 	2.23155205161689e-05 	101325.0091017542
-0.9071571571571573 	300.0000076013541 	2.206134282817624e-05 	101325.008985595
-0.9046546546546547 	300.000007618056 	2.210499480803738e-05 	101325.0090048178
-0.9021521521521524 	300.0000077385871 	2.241888826330766e-05 	101325.0091472071
-0.8996496496496498 	300.0000078706459 	2.276333010873624e-05 	101325.009303732
-0.8971471471471473 	300.0000079123938 	2.287249418875833e-05 	101325.0093538017
-0.894644644644645 	300.0000078302239 	2.265830817578562e-05 	101325.0092572425
-0.892142142142142 	300.0000076845303 	2.22780270275929e-05 	101325.0090850581
-0.8896396396396397 	300.0000075851121 	2.202018004010274e-05 	101325.0089670341
-0.8871371371371374 	300.0000076130585 	2.209876674949834e-05 	101325.0089994554
-0.8846346346346349 	300.0000077638109 	2.250092476191496e-05 	101325.0091773446
-0.8821321321321324 	300.0000079468164 	2.298561331251422e-05 	101325.0093939454
-0.8796296296296297 	300.0000080403742 	2.322618784888181e-05 	101325.0095053418
-0.8771271271271271 	300.0000079616899 	2.300034728930389e-05 	101325.0094132785
-0.8746246246246248 	300.0000077148927 	2.232079155140501e-05 	101325.0091221105
-0.8721221221221224 	300.0000073933549 	2.144038203059797e-05 	101325.0087419284
-0.8696196196196196 	300.0000071344456 	2.073468847495557e-05 	101325.0084351049
-0.8671171171171175 	300.000007058686 	2.05359672852273e-05 	101325.0083443247
-0.8646146146146148 	300.0000072219551 	2.099694254045049e-05 	101325.0085361607
-0.8621121121121121 	300.0000075916618 	2.202639013212993e-05 	101325.0089724436
-0.8596096096096097 	300.0000080568899 	2.332021687215979e-05 	101325.0095223747
-0.857107107107107 	300.0000084716928 	2.447339305941982e-05 	101325.0100135281
-0.8546046046046049 	300.0000087022887 	2.510808695682114e-05 	101325.0102874569
-0.8521021021021022 	300.0000086571268 	2.496386954269416e-05 	101325.0102356853
-0.8495995995995997 	300.0000083014116 	2.394075701073809e-05 	101325.0098167999
-0.8470970970970974 	300.0000076580005 	2.210148534389875e-05 	101325.0090575574
-0.8445945945945946 	300.000006796056 	1.963894591089138e-05 	101325.0080394326
-0.8420920920920922 	300.0000058104081 	1.681884025555172e-05 	101325.0068745055
-0.8395895895895897 	300.0000047978638 	1.391387880905695e-05 	101325.0056773619
-0.8370870870870872 	300.0000038374591 	1.114940190468018e-05 	101325.0045415141
-0.8345845845845846 	300.0000029809306 	8.676309020891946e-06 	101325.0035282691
-0.8320820820820823 	300.0000022538983 	6.571575343505175e-06 	101325.0026680878
-0.8295795795795798 	300.0000016619139 	4.853680211990829e-06 	101325.001967562
-0.8270770770770772 	300.000001196949 	3.50133022112778e-06 	101325.001417219
-0.8245745745745746 	300.0000008431495 	2.470309673155812e-06 	101325.0009984346
-0.8220720720720721 	300.0000005816232 	1.706651670739409e-06 	101325.0006888
-0.8195695695695699 	300.0000003933137 	1.155763162183349e-06 	101325.0004658129
-0.817067067067067 	300.0000002609325 	7.679412061896867e-07 	101325.0003090843
-0.8145645645645651 	300.0000001699786 	5.010491489059354e-07 	101325.0002013946
-0.8120620620620621 	300.0000001088542 	3.212566620694178e-07 	101325.0001289575
-0.8095595595595597 	300.0000000685503 	2.02552587608977e-07 	101325.0000812013
-0.8070570570570572 	300.0000000424311 	1.256608478652473e-07 	101325.0000503108
-0.8045545545545546 	300.0000000258636 	7.675250954908444e-08 	101325.0000306891
-0.8020520520520523 	300.0000000155607 	4.61757674136585e-08 	101325.0000184394
-0.7995495495495494 	300.0000000092351 	2.738082016782374e-08 	101325.000010918
-0.7970470470470474 	300.0000000053827 	1.600436694408871e-08 	101325.0000063731
-0.7945445445445446 	300.0000000031025 	9.230667489615915e-09 	101325.0000036688
-0.7920420420420423 	300.0000000017721 	5.249647999305907e-09 	101325.0000020829
-0.7895395395395397 	300.0000000009992 	2.950956634911695e-09 	101325.0000011663
-0.7870370370370371 	300.0000000005509 	1.634503183641216e-09 	101325.0000006437
-0.7845345345345348 	300.0000000002783 	8.981245250561686e-10 	101325.0000003497
-0.7820320320320323 	300.0000000001426 	4.843531456766426e-10 	101325.0000001865
-0.7795295295295296 	300.0000000000336 	2.625815037432067e-10 	101325.0000000971
-0.7770270270270272 	299.9999999999829 	1.366063417804343e-10 	101325.0000000487
-0.7745245245245247 	299.9999999999588 	7.4317169759663e-11 	101325.0000000228
-0.7720220220220222 	299.9999999999706 	3.625097448338527e-11 	101325.0000000093
-0.7695195195195199 	299.9999999999696 	2.089006177208986e-11 	101325.0000000022
-0.767017017017017 	299.9999999999892 	8.223319177304694e-12 	101324.9999999988
-0.7645145145145147 	300.0000000000099 	7.068985084717443e-12 	101324.9999999972
-0.7620120120120122 	300.0000000000113 	4.718152917319275e-12 	101324.9999999962
-0.7595095095095097 	299.9999999999511 	5.728405539991116e-12 	101324.9999999958
-0.7570070070070072 	299.999999999957 	6.038019172003865e-12 	101324.9999999956
-0.7545045045045048 	299.9999999999939 	5.669686179916722e-12 	101324.9999999954
-0.7520020020020022 	299.9999999999735 	5.605528246382611e-12 	101324.9999999953
-0.7494994994994997 	299.999999999968 	3.804433913175142e-12 	101324.9999999952
-0.7469969969969972 	299.9999999999965 	3.6585658174668e-12 	101324.9999999953
-0.7444944944944945 	299.9999999999899 	2.15181989110126e-12 	101324.9999999952
-0.7419919919919924 	299.999999999994 	2.647342879013848e-12 	101324.9999999954
-0.7394894894894897 	299.9999999999691 	1.356350815929474e-12 	101324.9999999955
-0.7369869869869872 	299.9999999999931 	1.795021914898226e-12 	101324.9999999956
-0.7344844844844846 	299.9999999999753 	2.147581015287405e-12 	101324.9999999954
-0.7319819819819822 	300.0000000000024 	9.803642007207062e-13 	101324.9999999953
-0.7294794794794797 	299.9999999999946 	2.216813847098959e-12 	101324.9999999952
-0.7269769769769773 	300.0000000000091 	8.537084484518738e-13 	101324.9999999952
-0.7244744744744747 	300.0000000000149 	1.117837008045584e-12 	101324.9999999951
-0.721971971971972 	299.9999999999665 	8.353519207999349e-13 	101324.999999995
-0.7194694694694695 	299.9999999999872 	7.526630942403861e-13 	101324.9999999951
-0.7169669669669674 	299.9999999999554 	3.675025112508132e-13 	101324.9999999952
-0.7144644644644647 	299.9999999999828 	9.608912477202924e-14 	101324.9999999952
-0.711961961961962 	300.0000000000063 	1.181428839582291e-13 	101324.999999995
-0.7094594594594597 	300.0000000000116 	1.21027275410419e-12 	101324.9999999952
-0.7069569569569573 	300.0000000000172 	8.368925002885862e-13 	101324.9999999954
-0.7044544544544545 	300.0000000000188 	8.715675193910058e-13 	101324.9999999955
-0.7019519519519523 	300.0000000000036 	6.303043510294447e-13 	101324.9999999956
-0.6994494494494495 	299.9999999999504 	2.448045095152435e-13 	101324.9999999957
-0.6969469469469471 	299.9999999999616 	8.481369847387426e-13 	101324.9999999958
-0.6944444444444446 	299.9999999999774 	5.661434885389834e-13 	101324.9999999959
-0.6919419419419421 	300.0000000000228 	6.791001041991001e-13 	101324.999999996
-0.6894394394394396 	299.9999999999959 	4.830244801834097e-13 	101324.999999996
-0.6869369369369374 	300.0000000000065 	1.173321564714669e-12 	101324.999999996
-0.6844344344344344 	300.0000000000144 	1.018903049935469e-12 	101324.9999999961
-0.6819319319319321 	299.9999999999734 	2.194115070366736e-12 	101324.9999999961
-0.6794294294294296 	299.9999999999614 	2.378666653862888e-12 	101324.9999999961
-0.6769269269269272 	299.9999999999422 	2.738706811647682e-12 	101324.9999999958
-0.6744244244244245 	299.9999999999749 	2.484693578623789e-12 	101324.9999999959
-0.6719219219219222 	299.9999999999682 	2.067322937498841e-12 	101324.9999999957
-0.6694194194194195 	299.9999999999986 	2.212985509252758e-12 	101324.9999999954
-0.6669169169169172 	300.0000000000125 	1.526699937972085e-12 	101324.9999999951
-0.6644144144144146 	299.999999999976 	1.993404176023316e-12 	101324.999999995
-0.661911911911912 	299.9999999999759 	1.454104358053392e-12 	101324.9999999948
-0.6594094094094097 	299.9999999999839 	2.050451337887995e-12 	101324.9999999949
-0.656906906906907 	299.9999999999561 	1.169201782762461e-12 	101324.999999995
-0.6544044044044046 	299.9999999999621 	2.449687132404813e-12 	101324.999999995
-0.6519019019019021 	299.9999999999885 	9.663050328017998e-13 	101324.9999999951
-0.6493993993993996 	300.0000000000162 	3.129890883852182e-12 	101324.9999999951
-0.6468968968968971 	300.0000000000232 	1.428058864041372e-12 	101324.9999999951
-0.6443943943943946 	299.9999999999991 	3.837385628622418e-12 	101324.999999995
-0.6418918918918921 	299.9999999999959 	1.667501165107945e-12 	101324.9999999949
-0.6393893893893897 	299.9999999999978 	2.666326054612986e-12 	101324.999999995
-0.6368868868868871 	299.9999999999862 	1.895936641847201e-12 	101324.9999999952
-0.6343843843843846 	299.9999999999935 	2.154549386519157e-12 	101324.9999999953
-0.6318818818818821 	299.9999999999661 	1.436666917094966e-12 	101324.9999999953
-0.6293793793793795 	300.0000000000024 	8.588426313827339e-13 	101324.9999999952
-0.6268768768768773 	300.000000000017 	9.888092137478384e-13 	101324.9999999951
-0.6243743743743745 	299.999999999985 	4.565603613431262e-13 	101324.9999999952
-0.6218718718718721 	300.0000000000034 	1.897278919854615e-12 	101324.9999999951
-0.6193693693693696 	299.9999999999565 	1.194836615570742e-12 	101324.9999999952
-0.6168668668668671 	299.9999999999841 	2.35881195689979e-12 	101324.9999999953
-0.6143643643643645 	300.0000000000099 	1.649647803697561e-12 	101324.9999999951
-0.6118618618618621 	299.9999999999884 	2.317943983270039e-12 	101324.9999999953
-0.6093593593593596 	299.9999999999916 	1.79751816335106e-12 	101324.9999999955
-0.6068568568568571 	299.9999999999918 	1.758794597358553e-12 	101324.9999999954
-0.6043543543543546 	299.9999999999681 	1.171613648674019e-12 	101324.9999999952
-0.6018518518518521 	299.9999999999749 	1.470760584256769e-12 	101324.9999999951
-0.5993493493493496 	299.9999999999608 	1.13340068735066e-12 	101324.9999999949
-0.5968468468468471 	299.9999999999679 	1.8103337397253e-12 	101324.9999999947
-0.5943443443443446 	299.9999999999945 	8.824075261910652e-13 	101324.9999999948
-0.591841841841842 	299.9999999999721 	2.223978111769487e-12 	101324.9999999947
-0.5893393393393397 	299.9999999999611 	9.593289840375297e-13 	101324.9999999947
-0.5868368368368371 	299.9999999999961 	2.603291258628831e-12 	101324.9999999949
-0.5843343343343346 	300.0000000000026 	1.933288348557836e-12 	101324.999999995
-0.5818318318318321 	300.0000000000215 	2.719830893500593e-12 	101324.9999999952
-0.5793293293293297 	299.9999999999916 	1.98539793123336e-12 	101324.9999999953
-0.5768268268268271 	300.0000000000045 	1.881650785856351e-12 	101324.9999999955
-0.5743243243243245 	300.0000000000141 	1.031557555891261e-12 	101324.9999999955
-0.5718218218218221 	300.0000000000122 	9.596617185500807e-13 	101324.9999999955
-0.5693193193193196 	300.0000000000304 	8.502108796412413e-13 	101324.9999999954
-0.5668168168168171 	299.9999999999895 	3.828182360420582e-13 	101324.9999999953
-0.5643143143143147 	299.9999999999622 	1.257513724533085e-12 	101324.9999999953
-0.5618118118118121 	300.0000000000084 	4.523044415063024e-13 	101324.9999999952
-0.5593093093093094 	300.0000000000231 	1.128556026172938e-12 	101324.999999995
-0.5568068068068072 	300.0000000000113 	8.875430206699258e-13 	101324.9999999952
-0.5543043043043046 	300.0000000000109 	1.04824707940671e-12 	101324.9999999952
-0.551801801801802 	299.9999999999675 	6.456180932458479e-13 	101324.999999995
-0.5492992992992995 	299.999999999998 	1.1377195485711e-12 	101324.999999995
-0.5467967967967969 	300.0000000000082 	7.215186547635314e-13 	101324.999999995
-0.5442942942942947 	300.0000000000039 	3.255649510959754e-13 	101324.9999999951
-0.5417917917917919 	299.9999999999711 	1.280470431812429e-12 	101324.999999995
-0.5392892892892895 	299.999999999953 	6.638804433543557e-13 	101324.9999999948
-0.536786786786787 	299.9999999999678 	1.401852251014897e-12 	101324.9999999949
-0.5342842842842846 	299.9999999999733 	8.960712540135372e-13 	101324.9999999946
-0.531781781781782 	299.9999999999551 	2.19004460967295e-12 	101324.9999999946
-0.5292792792792794 	299.999999999949 	2.131686023305825e-12 	101324.9999999947
-0.526776776776777 	299.9999999999346 	2.218676781852118e-12 	101324.9999999948
-0.5242742742742745 	299.9999999999831 	3.884776819045197e-12 	101324.9999999947
-0.521771771771772 	300.0000000000111 	3.774367838331845e-12 	101324.9999999948
-0.5192692692692695 	299.9999999999717 	4.733714405920689e-12 	101324.9999999949
-0.516766766766767 	300.0000000000031 	3.664984674661746e-12 	101324.999999995
-0.5142642642642645 	299.9999999999833 	4.068279101489842e-12 	101324.9999999951
-0.511761761761762 	299.9999999999674 	3.417684665292085e-12 	101324.999999995
-0.5092592592592596 	299.9999999999806 	3.061113129572542e-12 	101324.999999995
-0.506756756756757 	299.9999999999587 	1.678138655124604e-12 	101324.9999999949
-0.5042542542542544 	299.9999999999914 	3.233016208128389e-12 	101324.9999999949
-0.5017517517517521 	300.0000000000155 	8.499913751698223e-13 	101324.9999999948
-0.4992492492492494 	300.0000000000185 	1.870854047341275e-12 	101324.9999999949
-0.496746746746747 	299.9999999999884 	1.010401927110102e-12 	101324.9999999951
-0.4942442442442445 	299.9999999999611 	1.477249371346886e-12 	101324.999999995
-0.4917417417417421 	299.9999999999599 	3.94561649822697e-13 	101324.9999999951
-0.4892392392392395 	299.9999999999685 	1.802526387725004e-12 	101324.9999999951
-0.486736736736737 	299.9999999999683 	4.614487092256816e-13 	101324.999999995
-0.4842342342342345 	299.9999999999446 	1.959831637783439e-12 	101324.9999999951
-0.481731731731732 	300.0000000000269 	1.385405494235181e-12 	101324.9999999952
-0.4792292292292296 	300.000000000015 	1.779559367059709e-12 	101324.9999999952
-0.4767267267267268 	299.9999999999728 	1.918446259719732e-12 	101324.9999999954
-0.4742242242242246 	299.9999999999997 	2.942181013346242e-12 	101324.9999999954
-0.471721721721722 	299.9999999999726 	1.62217610658819e-12 	101324.9999999953
-0.4692192192192195 	299.9999999999879 	2.293158656193507e-12 	101324.9999999951
-0.4667167167167169 	299.9999999999422 	1.197672915541867e-12 	101324.999999995
-0.4642142142142145 	299.9999999999978 	1.43296263177587e-12 	101324.9999999948
-0.461711711711712 	300.0000000000133 	1.273352036894373e-12 	101324.9999999949
-0.4592092092092094 	300.0000000000084 	7.057134100983884e-13 	101324.9999999948
-0.456706706706707 	300.0000000000346 	9.360600163382099e-13 	101324.9999999947
-0.4542042042042045 	299.9999999999584 	5.943585690640479e-13 	101324.9999999947
-0.451701701701702 	299.9999999999662 	2.390758203997404e-13 	101324.999999995
-0.4491991991991995 	299.9999999999723 	1.476021500883668e-12 	101324.999999995
-0.4466966966966969 	299.9999999999703 	1.166444736055103e-12 	101324.9999999948
-0.4441941941941945 	299.9999999999935 	3.149028958116234e-12 	101324.9999999946
-0.441691691691692 	299.9999999999702 	1.350999417270779e-12 	101324.9999999945
-0.4391891891891895 	299.9999999999884 	3.679736346899186e-12 	101324.9999999945
-0.436686686686687 	299.9999999999761 	1.130755426098099e-12 	101324.9999999945
-0.4341841841841846 	299.9999999999988 	4.114627625648789e-12 	101324.9999999944
-0.431681681681682 	299.9999999999691 	8.540757602241997e-13 	101324.9999999945
-0.4291791791791794 	299.9999999999518 	2.872320160709678e-12 	101324.9999999944
-0.426676676676677 	299.9999999999408 	1.15960827296082e-12 	101324.9999999944
-0.4241741741741744 	299.9999999999776 	2.921150589124012e-12 	101324.9999999945
-0.421671671671672 	300.0000000000015 	9.600466625325789e-13 	101324.9999999948
-0.4191691691691694 	300.0000000000303 	1.36525228612765e-12 	101324.9999999947
-0.4166666666666669 	300.0000000000362 	9.524569329880896e-13 	101324.9999999946
-0.4141641641641645 	299.9999999999594 	2.467472587616459e-13 	101324.9999999947
-0.411661661661662 	300.0000000000023 	1.112327163982295e-12 	101324.9999999946
-0.4091591591591594 	300.0000000000056 	1.779070185056522e-12 	101324.9999999946
-0.406656656656657 	299.99999999997 	2.611822916489516e-12 	101324.9999999947
-0.4041541541541545 	300.0000000000092 	1.420066495624689e-12 	101324.9999999948
-0.401651651651652 	299.9999999999486 	3.396303135611807e-12 	101324.9999999947
-0.3991491491491494 	300.0000000000032 	8.599620548603416e-13 	101324.9999999947
-0.396646646646647 	299.9999999999716 	3.664747622592744e-12 	101324.9999999946
-0.3941441441441444 	299.9999999999826 	2.095186019405253e-12 	101324.9999999945
-0.3916416416416419 	299.9999999999527 	2.626114361732904e-12 	101324.9999999946
-0.3891391391391395 	299.9999999999729 	1.866324704903902e-12 	101324.9999999946
-0.3866366366366368 	299.9999999999722 	1.461243968782062e-12 	101324.9999999944
-0.3841341341341344 	299.9999999999989 	9.582336888269715e-13 	101324.9999999946
-0.381631631631632 	299.9999999999696 	8.49038644215948e-13 	101324.9999999946
-0.3791291291291294 	300.0000000000023 	3.859085901682288e-13 	101324.9999999944
-0.3766266266266269 	300.0000000000125 	1.950838838797504e-13 	101324.9999999942
-0.3741241241241244 	300.0000000000148 	1.00429460412082e-12 	101324.9999999943
-0.371621621621622 	300.0000000000143 	6.045857733252349e-13 	101324.9999999942
-0.3691191191191194 	300.0000000000012 	2.518917940752159e-12 	101324.9999999941
-0.366616616616617 	300.000000000001 	1.132451872900392e-12 	101324.9999999942
-0.3641141141141143 	299.9999999999812 	2.829248192546193e-12 	101324.9999999942
-0.3616116116116119 	299.9999999999636 	1.171065265119471e-12 	101324.999999994
-0.3591091091091095 	299.9999999999889 	2.95907549774112e-12 	101324.9999999938
-0.356606606606607 	299.9999999999948 	2.518338492453145e-12 	101324.9999999941
-0.3541041041041044 	299.9999999999941 	2.274932931061075e-12 	101324.9999999942
-0.3516016016016019 	300.0000000000111 	2.275816793341965e-12 	101324.9999999943
-0.3490990990990994 	299.9999999999932 	1.14913509572575e-12 	101324.9999999942
-0.346596596596597 	300.0000000000211 	2.528505795084178e-12 	101324.999999994
-0.3440940940940944 	300.0000000000264 	8.048522100407647e-13 	101324.9999999941
-0.3415915915915919 	300.0000000000185 	3.143711275375383e-12 	101324.9999999942
-0.3390890890890895 	299.9999999999883 	1.877681021952131e-12 	101324.9999999941
-0.3365865865865869 	300.0000000000135 	2.72775614764513e-12 	101324.999999994
-0.3340840840840844 	299.9999999999968 	2.60045005144228e-12 	101324.9999999939
-0.3315815815815819 	300.0000000000131 	3.590817856786627e-12 	101324.9999999941
-0.3290790790790794 	300.0000000000131 	4.031638771955911e-12 	101324.9999999943
-0.3265765765765769 	299.9999999999543 	4.447892004262298e-12 	101324.9999999943
-0.3240740740740744 	300.0000000000023 	3.498546065073767e-12 	101324.9999999941
-0.3215715715715718 	300.0000000000097 	4.254191067091242e-12 	101324.9999999941
-0.3190690690690695 	299.9999999999589 	3.447062902344297e-12 	101324.9999999942
-0.3165665665665668 	299.9999999999935 	4.292723646126376e-12 	101324.999999994
-0.3140640640640644 	300.0000000000029 	2.487218991524799e-12 	101324.9999999941
-0.311561561561562 	299.9999999999512 	4.769699365533316e-12 	101324.9999999943
-0.3090590590590593 	299.9999999999941 	1.764121469002757e-12 	101324.9999999942
-0.3065565565565568 	300.0000000000023 	6.377375654694014e-12 	101324.9999999941
-0.3040540540540545 	299.9999999999982 	1.687080004093588e-12 	101324.9999999942
-0.3015515515515518 	300.0000000000192 	5.811426740976318e-12 	101324.9999999944
-0.2990490490490494 	299.999999999962 	3.870322035011006e-12 	101324.9999999944
-0.2965465465465469 	299.9999999999931 	5.836282499522973e-12 	101324.9999999944
-0.2940440440440444 	299.9999999999919 	4.610565144487612e-12 	101324.9999999945
-0.2915415415415418 	300.000000000005 	4.892153134619466e-12 	101324.9999999945
-0.2890390390390395 	300.0000000000058 	5.425893768433456e-12 	101324.9999999945
-0.2865365365365368 	299.9999999999828 	3.998107293493768e-12 	101324.9999999942
-0.2840340340340343 	299.9999999999967 	5.434627089546222e-12 	101324.9999999942
-0.2815315315315318 	299.9999999999513 	3.408971756794808e-12 	101324.999999994
-0.2790290290290295 	299.999999999979 	5.665997071242452e-12 	101324.9999999941
-0.2765265265265269 	300.0000000000066 	5.673298669830882e-12 	101324.9999999939
-0.2740240240240244 	300.0000000000122 	6.608500897009062e-12 	101324.9999999939
-0.2715215215215219 	300.0000000000113 	6.593942389289145e-12 	101324.9999999942
-0.2690190190190194 	299.9999999999606 	6.124045956373168e-12 	101324.9999999941
-0.2665165165165169 	299.9999999999981 	6.331767204763575e-12 	101324.9999999943
-0.2640140140140144 	299.9999999999829 	4.582701377923503e-12 	101324.999999994
-0.2615115115115119 	299.9999999999987 	5.580499867347197e-12 	101324.9999999941
-0.2590090090090094 	299.9999999999516 	3.382174081813634e-12 	101324.9999999941
-0.2565065065065068 	299.9999999999935 	4.036950569801386e-12 	101324.9999999941
-0.2540040040040044 	299.9999999999954 	3.906609434162433e-12 	101324.999999994
-0.2515015015015019 	300.0000000000217 	3.542734340613329e-12 	101324.999999994
-0.2489989989989994 	300.0000000000243 	5.265302180560653e-12 	101324.9999999939
-0.2464964964964968 	299.9999999999887 	3.719034424183106e-12 	101324.9999999939
-0.2439939939939944 	299.9999999999977 	6.866019896875664e-12 	101324.999999994
-0.2414914914914919 	299.9999999999808 	4.197844574387055e-12 	101324.9999999942
-0.2389889889889893 	299.999999999997 	8.01786580508525e-12 	101324.9999999944
-0.2364864864864869 	300.0000000000178 	5.740046025865439e-12 	101324.9999999946
-0.2339839839839843 	299.9999999999592 	8.753444818476562e-12 	101324.9999999944
-0.2314814814814819 	299.9999999999877 	4.997330532763951e-12 	101324.9999999941
-0.2289789789789792 	299.9999999999472 	7.785673052733788e-12 	101324.9999999942
-0.2264764764764769 	299.9999999999668 	5.137882096788969e-12 	101324.9999999941
-0.2239739739739743 	299.9999999999779 	5.93669507852427e-12 	101324.9999999942
-0.2214714714714718 	299.9999999999617 	5.430132681375763e-12 	101324.9999999944
-0.2189689689689693 	299.9999999999769 	4.748903997825837e-12 	101324.9999999944
-0.2164664664664669 	299.9999999999859 	6.458947705150163e-12 	101324.9999999943
-0.2139639639639643 	299.9999999999509 	4.668982460443228e-12 	101324.9999999943
-0.2114614614614618 	299.9999999999817 	6.174980106227189e-12 	101324.9999999939
-0.2089589589589593 	299.9999999999939 	5.810380027450998e-12 	101324.999999994
-0.2064564564564568 	299.9999999999937 	5.47792339558643e-12 	101324.9999999937
-0.2039539539539543 	299.9999999999436 	6.293021426405092e-12 	101324.9999999937
-0.2014514514514518 	299.9999999999621 	4.299768671219501e-12 	101324.9999999935
-0.1989489489489494 	299.9999999999794 	6.487357526024994e-12 	101324.9999999937
-0.1964464464464468 	299.9999999999959 	3.252404850381576e-12 	101324.9999999937
-0.1939439439439443 	299.9999999999978 	5.909647581108943e-12 	101324.9999999935
-0.1914414414414418 	299.9999999999503 	3.18366243358958e-12 	101324.9999999937
-0.1889389389389393 	300.0000000000042 	3.434382124383952e-12 	101324.9999999939
-0.1864364364364368 	300.0000000000293 	2.996691254373838e-12 	101324.9999999939
-0.1839339339339343 	299.9999999999886 	2.843147875238138e-12 	101324.9999999943
-0.1814314314314318 	299.999999999998 	2.854507272823026e-12 	101324.9999999943
-0.1789289289289293 	299.9999999999396 	3.463328217483582e-12 	101324.9999999944
-0.1764264264264268 	299.9999999999845 	2.616503353957795e-12 	101324.9999999943
-0.1739239239239243 	299.999999999939 	3.554404682404875e-12 	101324.9999999945
-0.1714214214214218 	299.9999999999892 	1.894552332541894e-12 	101324.9999999943
-0.1689189189189193 	299.9999999999672 	4.39526023331263e-12 	101324.9999999943
-0.1664164164164168 	299.9999999999971 	7.314425883681518e-13 	101324.9999999944
-0.1639139139139143 	299.9999999999901 	5.06904790164661e-12 	101324.9999999944
-0.1614114114114118 	300.0000000000159 	1.869729117029144e-12 	101324.9999999938
-0.1589089089089093 	299.9999999999981 	6.46427472408092e-12 	101324.9999999936
-0.1564064064064068 	299.9999999999882 	2.499552111849619e-12 	101324.9999999936
-0.1539039039039043 	299.9999999999947 	7.511275826314349e-12 	101324.9999999934
-0.1514014014014018 	300.0000000000114 	8.604083899918771e-13 	101324.9999999935
-0.1488988988988993 	299.9999999999966 	7.923871236300797e-12 	101324.9999999934
-0.1463963963963968 	300.0000000000023 	1.862941290390733e-12 	101324.9999999933
-0.1438938938938943 	299.9999999999741 	7.086466525262497e-12 	101324.9999999932
-0.1413913913913918 	299.9999999999558 	2.771994915903341e-12 	101324.9999999933
-0.1388888888888893 	299.9999999999852 	5.724506959682014e-12 	101324.9999999937
-0.1363863863863868 	299.9999999999335 	3.496327493228576e-12 	101324.9999999938
-0.1338838838838843 	299.9999999999447 	4.076492100139225e-12 	101324.9999999936
-0.1313813813813818 	299.9999999999941 	2.818114955779119e-12 	101324.9999999937
-0.1288788788788793 	299.9999999999712 	3.517279232331723e-12 	101324.9999999939
-0.1263763763763768 	299.9999999999773 	2.491041044048903e-12 	101324.9999999939
-0.1238738738738743 	299.9999999999541 	3.481964148626825e-12 	101324.999999994
-0.1213713713713717 	299.9999999999836 	1.498057955040178e-12 	101324.999999994
-0.1188688688688693 	300.0000000000055 	4.365722989248023e-12 	101324.9999999939
-0.1163663663663668 	299.9999999999422 	1.423357351562994e-12 	101324.9999999938
-0.1138638638638643 	299.9999999999967 	4.823991736046746e-12 	101324.9999999938
-0.1113613613613618 	299.9999999999962 	9.325978473169561e-13 	101324.9999999937
-0.1088588588588592 	299.9999999999895 	5.377298826675224e-12 	101324.9999999937
-0.1063563563563568 	299.9999999999652 	7.509680383076524e-13 	101324.9999999938
-0.1038538538538543 	299.99999999998 	4.10453349809745e-12 	101324.999999994
-0.1013513513513517 	300.0000000000098 	1.242631563614215e-12 	101324.9999999939
-0.09884884884884926 	299.9999999999601 	3.9115316483462e-12 	101324.9999999935
-0.09634634634634676 	299.9999999999304 	2.906297708344053e-12 	101324.9999999934
-0.09384384384384425 	299.9999999999528 	4.060747497838769e-12 	101324.9999999933
-0.09134134134134177 	300.0000000000144 	3.425682542841329e-12 	101324.9999999937
-0.08883883883883925 	300.0000000000059 	3.936921807537853e-12 	101324.9999999941
-0.08633633633633674 	299.9999999999662 	3.483796607809147e-12 	101324.9999999941
-0.08383383383383426 	300.000000000003 	2.741694407474042e-12 	101324.9999999941
-0.08133133133133173 	299.9999999999814 	3.284520578923029e-12 	101324.9999999943
-0.07882882882882926 	299.9999999999276 	2.66189832876882e-12 	101324.9999999946
-0.07632632632632676 	299.9999999999702 	2.843362996161191e-12 	101324.9999999944
-0.07382382382382424 	299.9999999999349 	2.207370474569964e-12 	101324.9999999944
-0.07132132132132173 	300.0000000000102 	1.325098162307366e-12 	101324.9999999945
-0.06881881881881925 	299.9999999999691 	1.59031734673436e-12 	101324.9999999943
-0.06631631631631671 	299.9999999999335 	9.574359063118429e-13 	101324.9999999944
-0.06381381381381425 	299.9999999999775 	6.538149825752375e-13 	101324.9999999945
-0.06131131131131173 	299.9999999999782 	6.662756995519798e-13 	101324.9999999946
-0.05880880880880923 	299.9999999999524 	9.434237694918532e-13 	101324.9999999946
-0.05630630630630672 	299.9999999999853 	1.1054020610159e-12 	101324.9999999947
-0.05380380380380424 	300.0000000000109 	1.687931837217212e-12 	101324.9999999946
-0.05130130130130173 	300.0000000000114 	2.098853772938385e-12 	101324.9999999945
-0.04879879879879922 	299.9999999999572 	2.242519272490011e-12 	101324.9999999946
-0.04629629629629672 	299.9999999999459 	1.423146549692967e-12 	101324.9999999943
-0.04379379379379422 	299.999999999954 	1.31662781316658e-12 	101324.999999994
-0.04129129129129173 	299.9999999999847 	8.568831792661841e-13 	101324.999999994
-0.03878878878878922 	299.9999999999914 	7.621395016049961e-13 	101324.999999994
-0.03628628628628671 	299.9999999999923 	6.022947335550295e-13 	101324.9999999943
-0.03378378378378422 	299.99999999995 	4.187315365901901e-13 	101324.9999999943
-0.03128128128128172 	299.9999999999783 	2.368580012892266e-14 	101324.9999999945
-0.02877877877877922 	299.9999999999772 	4.826261041790119e-13 	101324.9999999946
-0.0262762762762767 	299.9999999999366 	2.077179248875691e-13 	101324.9999999946
-0.02377377377377422 	300.0000000000121 	3.390839460791714e-13 	101324.9999999945
-0.0212712712712717 	299.9999999999354 	6.032079382355623e-13 	101324.9999999945
-0.01876876876876921 	299.9999999999775 	3.398552544027923e-13 	101324.9999999945
-0.01626626626626671 	300.0000000000079 	9.451375187811218e-13 	101324.9999999947
-0.0137637637637642 	299.9999999999799 	3.065174860081411e-13 	101324.9999999947
-0.0112612612612617 	300.0000000000072 	9.044780142216945e-13 	101324.9999999946
-0.008758758758759198 	299.9999999999945 	1.106864778944114e-12 	101324.9999999944
-0.006256256256256697 	299.9999999999265 	1.368067652506771e-12 	101324.9999999946
-0.003753753753754195 	299.9999999999678 	4.173284633054986e-13 	101324.9999999946
-0.001251251251251693 	299.9999999999536 	1.032144916867078e-12 	101324.9999999945
0.00125125125125081 	299.9999999999691 	1.175525905094213e-13 	101324.9999999944
0.003753753753753312 	299.9999999999739 	2.042417872854714e-13 	101324.9999999944
0.006256256256255817 	299.9999999999239 	1.162464302227793e-12 	101324.9999999943
0.008758758758758317 	299.9999999999947 	6.965818360654608e-13 	101324.9999999942
0.01126126126126082 	300.0000000000031 	9.511584702040939e-13 	101324.9999999941
0.01376376376376332 	299.9999999999795 	9.474402633343403e-13 	101324.9999999941
0.01626626626626582 	300.0000000000096 	1.365781978016812e-12 	101324.9999999942
0.01876876876876833 	299.9999999999697 	8.002508370965003e-13 	101324.9999999943
0.02127127127127083 	299.9999999999817 	7.236694820433945e-13 	101324.9999999944
0.02377377377377332 	299.9999999999968 	2.549181535579092e-14 	101324.9999999947
0.02627627627627583 	299.9999999999357 	4.986354839728388e-13 	101324.9999999948
0.02877877877877833 	300.0000000000027 	7.0816954190264e-13 	101324.9999999947
0.03128128128128083 	299.9999999999663 	8.066786218421489e-13 	101324.9999999949
0.03378378378378333 	299.9999999999372 	1.277207376931488e-12 	101324.9999999948
0.03628628628628584 	299.9999999999796 	1.279082105502525e-12 	101324.9999999951
0.03878878878878834 	299.9999999999906 	8.02789730947409e-13 	101324.9999999952
0.04129129129129084 	299.999999999984 	1.060296259819328e-12 	101324.9999999949
0.04379379379379333 	299.9999999999623 	1.833098136201599e-12 	101324.9999999952
0.04629629629629585 	299.9999999999302 	2.817837608474592e-12 	101324.9999999951
0.04879879879879834 	299.9999999999719 	3.644850576548513e-12 	101324.9999999948
0.05130130130130085 	300.0000000000097 	4.041987278617496e-12 	101324.9999999947
0.05380380380380335 	300.0000000000139 	4.046502023078209e-12 	101324.9999999946
0.05630630630630584 	299.9999999999983 	3.530836438526718e-12 	101324.9999999946
0.05880880880880836 	299.9999999999515 	3.621698200707538e-12 	101324.9999999947
0.06131131131131085 	299.9999999999796 	3.838693973858359e-12 	101324.9999999946
0.06381381381381336 	299.9999999999721 	4.062931003174164e-12 	101324.9999999945
0.06631631631631586 	299.9999999999324 	3.524712183686366e-12 	101324.999999995
0.06881881881881835 	299.9999999999746 	3.369108133759319e-12 	101324.9999999949
0.07132132132132088 	299.9999999999932 	2.552734877273922e-12 	101324.9999999948
0.07382382382382337 	299.9999999999376 	2.131016504130866e-12 	101324.9999999947
0.07632632632632587 	299.9999999999757 	2.014872435375341e-12 	101324.9999999947
0.07882882882882837 	299.9999999999637 	2.219538117736862e-12 	101324.9999999945
0.08133133133133086 	299.9999999999829 	2.565433063439e-12 	101324.9999999941
0.08383383383383337 	299.9999999999966 	1.909753135784779e-12 	101324.999999994
0.08633633633633589 	299.999999999944 	1.43705540751015e-12 	101324.9999999942
0.08883883883883838 	299.9999999999982 	1.828107520107976e-12 	101324.9999999942
0.09134134134134086 	299.9999999999847 	1.637993262014573e-12 	101324.9999999944
0.09384384384384339 	299.9999999999359 	2.4971033840622e-12 	101324.9999999945
0.09634634634634588 	299.9999999999822 	3.539993828877161e-12 	101324.9999999945
0.09884884884884838 	299.9999999999847 	4.353104000721821e-12 	101324.9999999946
0.1013513513513509 	300.000000000013 	4.698112196517087e-12 	101324.9999999946
0.1038538538538534 	299.9999999999717 	4.817232878385802e-12 	101324.9999999948
0.1063563563563559 	300.0000000000024 	4.842281895005648e-12 	101324.9999999942
0.1088588588588584 	300.0000000000116 	4.207621931495168e-12 	101324.9999999938
0.1113613613613609 	299.9999999999478 	4.5737295657715e-12 	101324.9999999939
0.1138638638638634 	299.9999999999623 	4.867621811016578e-12 	101324.9999999939
0.1163663663663659 	299.9999999999662 	4.540422418020189e-12 	101324.9999999942
0.1188688688688684 	299.999999999979 	3.995523994695875e-12 	101324.9999999943
0.1213713713713709 	299.9999999999982 	3.689765041498249e-12 	101324.9999999946
0.1238738738738734 	299.9999999999564 	3.048752296567759e-12 	101324.9999999946
0.1263763763763759 	299.9999999999906 	2.7302168063419e-12 	101324.9999999946
0.1288788788788784 	299.9999999999901 	2.186543373808586e-12 	101324.9999999945
0.1313813813813809 	299.9999999999867 	2.513982100986198e-12 	101324.9999999942
0.1338838838838834 	299.9999999999831 	2.329097248277504e-12 	101324.999999994
0.1363863863863859 	300.0000000000113 	2.435734465895747e-12 	101324.9999999938
0.1388888888888884 	300.0000000000295 	2.010454168393685e-12 	101324.9999999935
0.1413913913913909 	300.0000000000039 	2.358118525574214e-12 	101324.9999999936
0.1438938938938934 	299.9999999999941 	2.831951878915952e-12 	101324.9999999936
0.1463963963963959 	299.9999999999667 	2.302492793419186e-12 	101324.9999999936
0.1488988988988985 	299.9999999999457 	3.308968102614002e-12 	101324.9999999937
0.1514014014014009 	299.9999999999775 	2.223462285565392e-12 	101324.9999999939
0.1539039039039035 	299.999999999977 	4.043597019445292e-12 	101324.9999999939
0.1564064064064059 	299.9999999999586 	1.828842591495804e-12 	101324.9999999942
0.1589089089089084 	299.9999999999848 	4.703154952287105e-12 	101324.9999999942
0.1614114114114109 	299.9999999999814 	1.841451659451066e-12 	101324.9999999942
0.1639139139139134 	299.9999999999428 	4.111890732945383e-12 	101324.9999999944
0.166416416416416 	300.0000000000022 	3.513668561071002e-12 	101324.9999999943
0.1689189189189185 	300.000000000018 	3.998408673960641e-12 	101324.9999999941
0.1714214214214209 	300.0000000000057 	4.632925843315434e-12 	101324.999999994
0.1739239239239235 	299.9999999999908 	3.863745071589031e-12 	101324.9999999939
0.1764264264264259 	299.9999999999788 	5.949306376975605e-12 	101324.9999999939
0.1789289289289284 	300.0000000000026 	3.794737406476355e-12 	101324.9999999939
0.181431431431431 	299.9999999999757 	6.98235436392713e-12 	101324.9999999939
0.1839339339339334 	299.9999999999826 	5.532556214533251e-12 	101324.9999999938
0.186436436436436 	299.9999999999576 	6.828475055324127e-12 	101324.9999999936
0.1889389389389385 	299.999999999986 	6.241294764482825e-12 	101324.9999999938
0.191441441441441 	299.9999999999833 	5.794753586495164e-12 	101324.9999999939
0.1939439439439434 	299.9999999999472 	6.662900053532593e-12 	101324.9999999939
0.196446446446446 	299.9999999999688 	4.695476064994847e-12 	101324.9999999941
0.1989489489489485 	299.9999999999769 	6.790726357165295e-12 	101324.999999994
0.2014514514514509 	299.9999999999905 	4.248920873574356e-12 	101324.999999994
0.2039539539539535 	299.999999999997 	5.158134028215315e-12 	101324.9999999943
0.2064564564564559 	299.9999999999724 	4.249306310483985e-12 	101324.9999999943
0.2089589589589585 	299.9999999999923 	4.52924018172926e-12 	101324.9999999943
0.211461461461461 	299.9999999999573 	4.610898237438423e-12 	101324.9999999941
0.2139639639639635 	299.9999999999905 	4.28608030105623e-12 	101324.999999994
0.2164664664664659 	300.0000000000059 	4.974245761686139e-12 	101324.9999999937
0.2189689689689684 	300.0000000000048 	2.253059680617524e-12 	101324.9999999937
0.221471471471471 	300.0000000000008 	3.494175688886208e-12 	101324.9999999938
0.2239739739739735 	299.9999999999754 	1.432210407748177e-12 	101324.9999999939
0.226476476476476 	299.999999999991 	2.826774115100126e-12 	101324.9999999937
0.2289789789789785 	299.9999999999942 	1.889243275351099e-12 	101324.9999999941
0.231481481481481 	299.999999999981 	2.583156448238571e-12 	101324.9999999943
0.2339839839839835 	299.9999999999932 	3.46956797202311e-12 	101324.9999999946
0.236486486486486 	300.0000000000168 	2.853782926071805e-12 	101324.9999999946
0.2389889889889885 	300.000000000001 	4.692592929765332e-12 	101324.9999999945
0.241491491491491 	299.999999999946 	3.292558216081247e-12 	101324.9999999943
0.2439939939939935 	299.9999999999832 	6.446195313713391e-12 	101324.9999999942
0.246496496496496 	299.9999999999911 	4.350052277534175e-12 	101324.9999999938
0.2489989989989985 	300.0000000000221 	5.808462016361094e-12 	101324.9999999939
0.251501501501501 	300.000000000018 	4.619199401804557e-12 	101324.999999994
0.2540040040040035 	299.9999999999906 	4.276947822222966e-12 	101324.9999999936
0.256506506506506 	300.0000000000124 	4.392487914133897e-12 	101324.9999999937
0.2590090090090086 	299.9999999999448 	2.40917941093009e-12 	101324.9999999937
0.261511511511511 	300.0000000000032 	4.754626564132583e-12 	101324.9999999936
0.2640140140140135 	299.999999999997 	2.392138792464476e-12 	101324.9999999935
0.2665165165165161 	299.9999999999576 	4.62171192645751e-12 	101324.9999999936
0.2690190190190185 	300.0000000000048 	3.601987312774993e-12 	101324.9999999938
0.271521521521521 	300.0000000000059 	3.604561956518244e-12 	101324.9999999938
0.2740240240240235 	300.0000000000098 	3.436522000294828e-12 	101324.9999999938
0.276526526526526 	300.0000000000043 	2.683890241363435e-12 	101324.9999999941
0.2790290290290286 	299.9999999999633 	3.809327021155396e-12 	101324.9999999942
0.281531531531531 	299.9999999999515 	2.350077168254189e-12 	101324.9999999941
0.2840340340340335 	299.9999999999862 	4.420418182974427e-12 	101324.999999994
0.2865365365365361 	299.9999999999719 	2.87065344914199e-12 	101324.9999999938
0.2890390390390385 	299.999999999996 	4.213116366505412e-12 	101324.9999999938
0.291541541541541 	299.9999999999958 	3.577929547914438e-12 	101324.9999999937
0.2940440440440436 	299.9999999999956 	3.444644968595384e-12 	101324.9999999936
0.296546546546546 	299.9999999999922 	4.595762269237135e-12 	101324.9999999935
0.2990490490490486 	299.9999999999553 	3.027932277738938e-12 	101324.9999999937
0.3015515515515511 	300.000000000018 	5.45151948914031e-12 	101324.999999994
0.3040540540540535 	299.9999999999999 	1.596883724134161e-12 	101324.999999994
0.3065565565565562 	299.999999999992 	5.602074144836347e-12 	101324.9999999937
0.3090590590590585 	299.9999999999902 	1.418777205437107e-12 	101324.9999999934
0.3115615615615611 	299.9999999999553 	4.506547891496414e-12 	101324.9999999934
0.3140640640640635 	300.0000000000032 	2.258766319974379e-12 	101324.9999999932
0.316566566566566 	299.9999999999922 	3.697757943694566e-12 	101324.9999999932
0.3190690690690687 	299.9999999999615 	2.081334469994065e-12 	101324.9999999933
0.3215715715715711 	300.0000000000047 	3.358734489262657e-12 	101324.9999999936
0.3240740740740735 	299.9999999999949 	2.153743640219706e-12 	101324.9999999938
0.326576576576576 	299.999999999939 	3.134490097182363e-12 	101324.9999999936
0.3290790790790786 	300.0000000000005 	2.228380253564013e-12 	101324.9999999935
0.3315815815815811 	300.000000000023 	2.535712363901519e-12 	101324.9999999938
0.3340840840840836 	299.9999999999949 	1.7217940864432e-12 	101324.9999999939
0.3365865865865861 	300.0000000000356 	2.122809365277733e-12 	101324.9999999938
0.3390890890890886 	300.0000000000302 	4.757253903887006e-13 	101324.9999999938
0.3415915915915911 	299.9999999999947 	1.368311121037445e-12 	101324.9999999938
0.3440940940940935 	299.9999999999679 	7.877229985490136e-13 	101324.9999999938
0.3465965965965962 	300.0000000000231 	1.291701780545639e-12 	101324.999999994
0.3490990990990985 	300.0000000000181 	4.816910470453572e-13 	101324.999999994
0.3516016016016011 	299.999999999991 	1.145719478022713e-13 	101324.999999994
0.3541041041041035 	300.0000000000028 	2.908816873442727e-13 	101324.999999994
0.3566066066066061 	299.9999999999698 	2.760279076494948e-13 	101324.999999994
0.3591091091091085 	299.9999999999537 	1.295276925270085e-12 	101324.9999999941
0.3616116116116112 	299.9999999999632 	9.330144090461904e-13 	101324.9999999942
0.3641141141141137 	299.9999999999598 	1.847414026981894e-12 	101324.9999999944
0.3666166166166161 	299.9999999999563 	1.37490307198192e-12 	101324.9999999944
0.3691191191191185 	300.0000000000227 	3.164301393091854e-12 	101324.9999999944
0.371621621621621 	300.0000000000065 	1.267847720589242e-12 	101324.9999999944
0.3741241241241237 	300.0000000000352 	2.18980915649915e-12 	101324.9999999944
0.3766266266266261 	300.0000000000164 	8.630647597018834e-13 	101324.9999999941
0.3791291291291286 	299.9999999999878 	2.132351257951767e-12 	101324.9999999941
0.3816316316316311 	299.9999999999548 	9.212319824595489e-13 	101324.999999994
0.3841341341341336 	300.0000000000098 	2.012568611225182e-12 	101324.999999994
0.3866366366366362 	299.9999999999997 	8.238619628482464e-13 	101324.9999999941
0.3891391391391387 	299.9999999999711 	1.743756483137741e-12 	101324.9999999941
0.391641641641641 	299.9999999999997 	8.759696737251959e-13 	101324.9999999942
0.3941441441441436 	300.000000000006 	1.058907119020665e-12 	101324.9999999944
0.3966466466466462 	300.0000000000001 	4.717214941999125e-13 	101324.9999999944
0.3991491491491486 	299.9999999999694 	4.53730478179021e-13 	101324.9999999944
0.4016516516516512 	299.9999999999453 	1.325926930053608e-12 	101324.9999999946
0.4041541541541536 	299.9999999999672 	4.784232513915863e-13 	101324.9999999946
0.4066566566566561 	299.9999999999685 	1.238200644657739e-12 	101324.9999999946
0.4091591591591587 	299.9999999999943 	1.063978033377167e-12 	101324.9999999945
0.4116616616616612 	300.0000000000043 	1.382598639226551e-12 	101324.9999999945
0.4141641641641635 	300.0000000000294 	5.718541848524466e-13 	101324.9999999945
0.4166666666666662 	300 	9.843645179093646e-13 	101324.9999999946
0.4191691691691687 	299.9999999999634 	1.482889328754709e-12 	101324.9999999946
0.421671671671671 	300.000000000007 	1.170779706743099e-12 	101324.9999999947
0.4241741741741737 	299.9999999999874 	2.526456961318969e-12 	101324.9999999947
0.4266766766766761 	299.9999999999717 	1.662400779613159e-12 	101324.9999999946
0.4291791791791785 	300.0000000000122 	3.53847049738455e-12 	101324.9999999946
0.4316816816816812 	300.0000000000052 	1.943249561802097e-12 	101324.9999999947
0.4341841841841836 	299.9999999999868 	3.460639888213451e-12 	101324.9999999944
0.4366866866866862 	299.9999999999475 	8.280480098943939e-13 	101324.9999999944
0.4391891891891885 	299.9999999999912 	3.056656384046356e-12 	101324.9999999944
0.4416916916916913 	299.9999999999887 	2.002392833666401e-12 	101324.9999999945
0.4441941941941936 	299.9999999999917 	3.256131108139301e-12 	101324.9999999943
0.4466966966966961 	299.9999999999507 	2.429183168597535e-12 	101324.9999999943
0.4491991991991987 	299.9999999999869 	2.427290145915554e-12 	101324.9999999943
0.4517017017017012 	299.9999999999868 	2.582594677942879e-12 	101324.9999999942
0.4542042042042035 	299.9999999999906 	1.796606799735549e-12 	101324.9999999941
0.4567067067067062 	299.9999999999961 	2.616254048816317e-12 	101324.9999999938
0.4592092092092087 	299.9999999999553 	2.27744215182343e-12 	101324.9999999935
0.4617117117117112 	300.0000000000099 	2.609952584677426e-12 	101324.9999999935
0.4642142142142137 	299.9999999999791 	2.88739580130576e-12 	101324.9999999934
0.4667167167167162 	299.999999999997 	2.880042797621576e-12 	101324.9999999935
0.4692192192192187 	299.9999999999727 	2.985449936940546e-12 	101324.9999999936
0.4717217217217212 	300.0000000000049 	2.958200278377461e-12 	101324.9999999938
0.4742242242242236 	299.9999999999727 	3.335644508292106e-12 	101324.9999999937
0.4767267267267262 	299.999999999984 	3.109367702478992e-12 	101324.9999999939
0.4792292292292287 	300.000000000014 	3.408870948449993e-12 	101324.9999999942
0.4817317317317312 	300.000000000025 	3.400030256116706e-12 	101324.9999999943
0.4842342342342336 	299.9999999999899 	3.587334341611508e-12 	101324.9999999943
0.4867367367367362 	299.9999999999737 	3.599471230036452e-12 	101324.9999999943
0.4892392392392387 	300.0000000000175 	3.195190594449122e-12 	101324.9999999942
0.4917417417417412 	300.0000000000047 	4.053354633901784e-12 	101324.9999999942
0.4942442442442437 	299.9999999999469 	2.757387615887289e-12 	101324.9999999942
0.4967467467467462 	299.999999999958 	3.841728301114648e-12 	101324.9999999939
0.4992492492492487 	299.9999999999513 	1.96184286300214e-12 	101324.9999999941
0.5017517517517511 	299.9999999999779 	3.322785620550985e-12 	101324.9999999941
0.5042542542542537 	299.9999999999782 	1.839872765646835e-12 	101324.9999999943
0.5067567567567562 	299.999999999967 	1.834704788711443e-12 	101324.9999999944
0.5092592592592589 	299.9999999999773 	1.173411693558675e-12 	101324.9999999944
0.5117617617617611 	299.9999999999783 	7.052189142323659e-13 	101324.9999999945
0.5142642642642637 	299.9999999999968 	2.123473744609678e-12 	101324.9999999945
0.5167667667667663 	299.9999999999864 	1.545420177744939e-12 	101324.9999999944
0.5192692692692688 	299.999999999952 	3.497357977961682e-12 	101324.9999999944
0.5217717717717714 	299.9999999999648 	1.986943001881818e-12 	101324.9999999943
0.5242742742742736 	299.9999999999645 	4.197294108745942e-12 	101324.9999999942
0.5267767767767763 	299.9999999999783 	1.79864139521636e-12 	101324.9999999944
0.5292792792792789 	299.9999999999665 	4.808927007143213e-12 	101324.9999999946
0.5317817817817813 	299.9999999999451 	3.341382001789744e-12 	101324.9999999946
0.5342842842842837 	300.0000000000098 	4.122149124149451e-12 	101324.9999999945
0.5367867867867864 	300.0000000000007 	3.575527120508095e-12 	101324.9999999944
0.5392892892892888 	299.9999999999747 	3.459843794806858e-12 	101324.9999999943
0.5417917917917912 	300.0000000000028 	2.213766227529913e-12 	101324.9999999941
0.5442942942942938 	299.999999999991 	2.171489562681046e-12 	101324.999999994
0.5467967967967964 	299.9999999999691 	1.246239693956715e-12 	101324.9999999939
0.5492992992992988 	299.9999999999675 	1.259935018946869e-12 	101324.9999999939
0.5518018018018012 	299.9999999999645 	7.203926481934225e-13 	101324.9999999939
0.5543043043043039 	300.0000000000092 	1.488593877842524e-12 	101324.9999999941
0.5568068068068063 	299.999999999993 	1.232213432388418e-12 	101324.9999999942
0.5593093093093087 	299.9999999999472 	1.933287119673241e-12 	101324.9999999943
0.5618118118118114 	299.9999999999781 	7.306499751194841e-13 	101324.9999999947
0.5643143143143137 	299.9999999999686 	1.517614706432582e-12 	101324.999999995
0.5668168168168163 	299.9999999999978 	7.687303068649008e-13 	101324.9999999951
0.5693193193193188 	300.0000000000195 	1.539457168693858e-12 	101324.999999995
0.5718218218218213 	300.0000000000151 	1.920901426644032e-12 	101324.9999999948
0.5743243243243239 	300.0000000000048 	2.114580972065039e-12 	101324.9999999947
0.5768268268268262 	300.0000000000033 	3.400454990328389e-12 	101324.9999999947
0.5793293293293288 	299.9999999999673 	1.879751898627016e-12 	101324.9999999948
0.5818318318318314 	299.9999999999535 	4.222613905954869e-12 	101324.9999999948
0.5843343343343338 	299.9999999999912 	1.386495083076197e-12 	101324.9999999947
0.5868368368368363 	299.9999999999865 	3.243918113415319e-12 	101324.9999999945
0.5893393393393387 	299.9999999999683 	8.86325768394598e-13 	101324.9999999945
0.5918418418418413 	299.9999999999674 	2.435993011792577e-12 	101324.9999999945
0.5943443443443439 	300.0000000000091 	1.303870152154233e-12 	101324.9999999943
0.5968468468468463 	300.0000000000084 	2.686172885926986e-12 	101324.9999999941
0.5993493493493487 	300.0000000000215 	2.435652991644737e-12 	101324.999999994
0.6018518518518514 	299.999999999985 	2.544982935871531e-12 	101324.9999999941
0.6043543543543537 	299.9999999999982 	2.410079391390464e-12 	101324.9999999945
0.6068568568568564 	299.9999999999914 	3.635754356396325e-12 	101324.9999999945
0.6093593593593587 	299.9999999999612 	3.619957057139484e-12 	101324.9999999947
0.6118618618618614 	299.9999999999575 	3.589719566006778e-12 	101324.9999999949
0.6143643643643638 	300.0000000000098 	2.9737312417456e-12 	101324.9999999949
0.6168668668668662 	299.9999999999919 	3.789946701247853e-12 	101324.9999999951
0.6193693693693688 	299.9999999999754 	2.763488910589401e-12 	101324.9999999951
0.6218718718718714 	299.9999999999831 	4.398308951116733e-12 	101324.9999999951
0.6243743743743737 	299.9999999999631 	2.437020357979091e-12 	101324.9999999952
0.6268768768768762 	299.9999999999505 	3.381414466532135e-12 	101324.9999999951
0.629379379379379 	299.999999999972 	2.281719744899639e-12 	101324.9999999951
0.6318818818818812 	299.9999999999836 	3.256759904611989e-12 	101324.999999995
0.6343843843843838 	300.0000000000089 	2.937012520619842e-12 	101324.9999999949
0.6368868868868864 	299.9999999999896 	2.809103847634421e-12 	101324.9999999948
0.6393893893893888 	299.999999999955 	3.325857086015314e-12 	101324.9999999949
0.6418918918918912 	300.0000000000027 	1.787045433380493e-12 	101324.9999999951
0.6443943943943939 	299.999999999994 	4.363611464669359e-12 	101324.9999999952
0.6468968968968963 	299.9999999999916 	1.444087733853989e-12 	101324.999999995
0.6493993993993988 	299.9999999999863 	3.435596041638029e-12 	101324.999999995
0.6519019019019012 	299.9999999999828 	1.227134177169582e-12 	101324.9999999951
0.6544044044044038 	299.9999999999421 	3.089760524141387e-12 	101324.9999999952
0.6569069069069065 	299.9999999999737 	1.360114860657168e-12 	101324.9999999953
0.6594094094094087 	299.9999999999761 	3.000071599130276e-12 	101324.9999999952
0.6619119119119113 	299.999999999969 	1.982689261970862e-12 	101324.999999995
0.664414414414414 	300.0000000000002 	2.948873285864956e-12 	101324.999999995
0.6669169169169162 	300.0000000000093 	2.185840386811729e-12 	101324.9999999949
0.6694194194194188 	299.9999999999908 	2.803129035250559e-12 	101324.999999995
0.6719219219219214 	299.9999999999575 	2.17855710059446e-12 	101324.9999999951
0.674424424424424 	299.9999999999867 	2.60722341691834e-12 	101324.9999999952
0.6769269269269262 	299.9999999999508 	1.803525228485407e-12 	101324.9999999951
0.679429429429429 	300.0000000000035 	1.528682491797307e-12 	101324.999999995
0.6819319319319311 	299.9999999999823 	1.031241038362272e-12 	101324.9999999952
0.6844344344344341 	299.9999999999893 	1.781544422756655e-12 	101324.9999999953
0.686936936936936 	299.9999999999893 	7.805078956277284e-13 	101324.9999999952
0.6894394394394392 	299.9999999999955 	1.253930697862978e-12 	101324.9999999951
0.6919419419419413 	299.9999999999909 	8.810078414208477e-13 	101324.9999999949
0.694444444444444 	299.9999999999658 	1.121185823986799e-12 	101324.9999999948
0.6969469469469463 	299.9999999999575 	1.275328172399852e-12 	101324.9999999947
0.6994494494494489 	299.9999999999515 	8.879944914005069e-13 	101324.9999999946
0.7019519519519515 	299.9999999999874 	1.627910077122652e-12 	101324.9999999946
0.7044544544544538 	299.9999999999692 	1.092079532073402e-12 	101324.9999999945
0.7069569569569564 	299.9999999999934 	2.112012492829837e-12 	101324.9999999944
0.7094594594594589 	299.9999999999757 	1.025982461009071e-12 	101324.9999999944
0.7119619619619615 	299.9999999999445 	1.519199472369359e-12 	101324.9999999943
0.7144644644644638 	299.9999999999689 	5.050471188895046e-13 	101324.9999999942
0.7169669669669665 	299.9999999999529 	1.387452906028942e-12 	101324.9999999943
0.7194694694694688 	299.9999999999944 	8.882558368339606e-13 	101324.9999999944
0.7219719719719715 	299.9999999999938 	1.564503162504882e-12 	101324.9999999945
0.7244744744744737 	300.0000000000023 	1.500357403387186e-12 	101324.9999999946
0.7269769769769764 	299.9999999999979 	1.689635767863227e-12 	101324.9999999948
0.7294794794794791 	299.9999999999927 	2.631469221207886e-12 	101324.9999999951
0.7319819819819813 	299.9999999999874 	1.355876165485169e-12 	101324.9999999952
0.7344844844844839 	299.9999999999543 	2.474623151451584e-12 	101324.9999999952
0.7369869869869864 	299.9999999999749 	1.287785797841751e-12 	101324.9999999952
0.739489489489489 	299.9999999999671 	1.666448403996776e-12 	101324.9999999953
0.7419919919919914 	299.9999999999609 	1.827651013737748e-12 	101324.9999999951
0.7444944944944939 	299.9999999999881 	1.212260051315653e-12 	101324.999999995
0.7469969969969963 	299.999999999982 	2.697823350995107e-12 	101324.999999995
0.7494994994994989 	299.9999999999631 	1.856704597161499e-12 	101324.9999999947
0.7520020020020015 	299.9999999999804 	2.927102364776975e-12 	101324.9999999945
0.7545045045045039 	299.9999999999816 	1.338823464540309e-12 	101324.9999999945
0.7570070070070062 	299.9999999999655 	1.602172724800779e-12 	101324.9999999945
0.7595095095095092 	299.9999999999543 	4.389548156095255e-13 	101324.9999999945
0.7620120120120112 	299.9999999999985 	9.876289337076304e-13 	101324.9999999943
0.7645145145145138 	299.9999999999909 	1.128191499597794e-12 	101324.9999999943
0.7670170170170165 	299.9999999999618 	1.079360490265582e-12 	101324.9999999944
0.7695195195195191 	299.9999999999516 	2.014313472772471e-12 	101324.9999999945
0.7720220220220213 	299.9999999999588 	1.726268862137731e-12 	101324.9999999944
0.7745245245245239 	299.9999999999629 	1.340195881999999e-12 	101324.9999999945
0.7770270270270263 	299.9999999999844 	2.298831332492836e-12 	101324.9999999945
0.779529529529529 	299.9999999999892 	1.559875524912205e-12 	101324.9999999946
0.7820320320320313 	299.9999999999839 	2.51858140701586e-12 	101324.9999999947
0.784534534534534 	299.9999999999969 	2.114938217786104e-12 	101324.9999999947
0.7870370370370364 	299.9999999999941 	1.661955846347086e-12 	101324.9999999948
0.7895395395395389 	299.99999999999 	2.078147025845578e-12 	101324.9999999948
0.7920420420420413 	299.9999999999828 	1.064888272966251e-12 	101324.9999999948
0.794544544544544 	299.9999999999807 	2.600496649450193e-12 	101324.9999999948
0.7970470470470463 	300.0000000000015 	2.170133987108457e-12 	101324.9999999948
0.799549549549549 	299.9999999999898 	2.518964222461496e-12 	101324.9999999945
0.8020520520520515 	299.9999999999953 	1.371550274260966e-12 	101324.9999999941
0.8045545545545539 	299.9999999999712 	6.730024573295312e-13 	101324.999999994
0.8070570570570563 	299.9999999999882 	7.750268890508547e-13 	101324.9999999939
0.8095595595595589 	299.9999999999744 	6.193536227594773e-13 	101324.9999999939
0.8120620620620614 	299.9999999999611 	5.36744381388962e-13 	101324.9999999939
0.8145645645645638 	299.9999999999978 	1.234972145339484e-12 	101324.999999994
0.8170670670670666 	299.9999999999929 	1.859312242682039e-12 	101324.9999999943
0.8195695695695689 	299.9999999999823 	1.687497023998203e-12 	101324.9999999946
0.8220720720720714 	299.9999999999669 	3.667944595165425e-12 	101324.9999999948
0.8245745745745739 	300.0000000000004 	2.891711255984221e-12 	101324.999999995
0.8270770770770765 	299.9999999999839 	4.464046053343032e-12 	101324.999999995
0.8295795795795788 	299.9999999999695 	3.573536848296924e-12 	101324.9999999947
0.8320820820820815 	300.0000000000137 	3.644509117915287e-12 	101324.9999999945
0.834584584584584 	300.0000000000049 	3.072125277811626e-12 	101324.9999999945
0.8370870870870865 	299.9999999999827 	2.888642430175251e-12 	101324.9999999947
0.8395895895895891 	299.9999999999575 	2.860979978214514e-12 	101324.9999999947
0.8420920920920915 	299.9999999999606 	1.85568665799868e-12 	101324.9999999946
0.844594594594594 	299.9999999999565 	1.912394953858422e-12 	101324.9999999946
0.8470970970970964 	299.9999999999695 	1.764101688272258e-12 	101324.9999999946
0.8495995995995991 	299.9999999999894 	1.840112172337466e-12 	101324.9999999948
0.8521021021021015 	299.9999999999869 	2.079361063469285e-12 	101324.9999999949
0.8546046046046039 	299.9999999999885 	1.927928496858404e-12 	101324.999999995
0.8571071071071066 	299.9999999999996 	2.981313164557486e-12 	101324.999999995
0.8596096096096089 	299.9999999999752 	1.600030563138986e-12 	101324.9999999949
0.8621121121121116 	299.9999999999554 	3.279221754121165e-12 	101324.9999999949
0.8646146146146139 	299.9999999999938 	2.013456579498259e-12 	101324.999999995
0.8671171171171166 	299.9999999999871 	2.995302523422089e-12 	101324.999999995
0.8696196196196189 	299.9999999999739 	2.444059014309334e-12 	101324.999999995
0.8721221221221216 	299.9999999999804 	3.111386006427744e-12 	101324.9999999952
0.874624624624624 	299.9999999999986 	3.137197551375371e-12 	101324.9999999952
0.8771271271271264 	299.9999999999996 	3.097826500430156e-12 	101324.999999995
0.879629629629629 	300.000000000003 	3.761747753644666e-12 	101324.9999999948
0.8821321321321317 	299.9999999999914 	3.043946781180957e-12 	101324.9999999946
0.8846346346346339 	299.9999999999534 	5.156254597998639e-12 	101324.9999999944
0.8871371371371364 	299.999999999974 	3.833719014322013e-12 	101324.9999999943
0.8896396396396391 	299.9999999999742 	5.240042265628793e-12 	101324.9999999944
0.8921421421421414 	299.9999999999759 	4.618267630157101e-12 	101324.9999999944
0.8946446446446441 	299.9999999999876 	4.774833650497711e-12 	101324.9999999944
0.8971471471471464 	299.9999999999979 	4.568491547788092e-12 	101324.9999999947
0.8996496496496489 	299.9999999999837 	4.807290818825168e-12 	101324.9999999949
0.9021521521521517 	299.9999999999765 	5.603496523558486e-12 	101324.999999995
0.9046546546546541 	299.9999999999946 	4.576576303064222e-12 	101324.9999999952
0.9071571571571564 	299.9999999999699 	4.691422357068153e-12 	101324.9999999953
0.9096596596596589 	299.9999999999692 	4.596542205943291e-12 	101324.9999999952
0.9121621621621616 	300.0000000000023 	4.587598253546939e-12 	101324.9999999952
0.9146646646646639 	299.9999999999919 	4.254720853526761e-12 	101324.9999999952
0.9171671671671666 	299.999999999974 	3.916874528201594e-12 	101324.9999999952
0.9196696696696689 	300.000000000003 	4.330380889306522e-12 	101324.9999999953
0.9221721721721714 	300.0000000000033 	3.203453317528227e-12 	101324.9999999955
0.9246746746746741 	299.9999999999687 	4.726020960677466e-12 	101324.9999999956
0.9271771771771765 	299.9999999999709 	3.241017598132105e-12 	101324.9999999955
0.9296796796796791 	299.9999999999969 	4.163215917590872e-12 	101324.9999999953
0.9321821821821816 	299.9999999999807 	3.159188082031983e-12 	101324.9999999952
0.9346846846846838 	299.9999999999644 	4.195182953033887e-12 	101324.9999999951
0.9371871871871866 	300 	4.022465341054525e-12 	101324.9999999953
0.9396896896896891 	300.0000000000036 	3.993813046328325e-12 	101324.9999999954
0.9421921921921914 	300.0000000000034 	4.011985752558074e-12 	101324.9999999955
0.9446946946946939 	299.9999999999808 	3.110558462345463e-12 	101324.9999999956
0.9471971971971965 	299.999999999954 	4.522570079322639e-12 	101324.9999999955
0.9496996996996991 	299.9999999999779 	3.495782865582372e-12 	101324.9999999955
0.9522022022022016 	299.9999999999864 	4.717907025628103e-12 	101324.9999999956
0.9547047047047038 	299.9999999999844 	4.156475349059251e-12 	101324.9999999958
0.9572072072072064 	299.9999999999771 	4.639410993294685e-12 	101324.9999999958
0.9597097097097093 	299.9999999999795 	4.413321697003078e-12 	101324.9999999957
0.9622122122122114 	299.9999999999793 	4.246612891709794e-12 	101324.9999999957
0.964714714714714 	299.9999999999758 	5.043239787790954e-12 	101324.9999999958
0.9672172172172167 	299.9999999999766 	4.544254479691789e-12 	101324.9999999958
0.969719719719719 	299.9999999999937 	5.001995482279898e-12 	101324.9999999958
0.9722222222222214 	299.9999999999905 	4.59378598258375e-12 	101324.9999999957
0.9747247247247239 	299.999999999986 	4.947879714378414e-12 	101324.9999999957
0.9772272272272267 	300.0000000000003 	4.671676307732952e-12 	101324.9999999959
0.9797297297297292 	299.9999999999935 	4.287731347245225e-12 	101324.9999999961
0.9822322322322313 	299.9999999999956 	4.617060323616445e-12 	101324.999999996
0.9847347347347344 	299.9999999999935 	3.576230967303629e-12 	101324.9999999961
0.9872372372372363 	299.99999999997 	5.106901969067427e-12 	101324.999999996
0.9897397397397389 	299.9999999999845 	3.44319957990693e-12 	101324.9999999959
0.9922422422422417 	299.999999999976 	4.795928580893605e-12 	101324.999999996
0.9947447447447441 	299.9999999999756 	4.43896456075623e-12 	101324.9999999961
0.9972472472472468 	299.9999999999846 	5.298104302802497e-12 	101324.9999999962
0.999749749749749 	299.999999999979 	4.818999191368203e-12 	101324.999999996
1.002252252252252 	299.9999999999816 	5.356208684736594e-12 	101324.999999996
1.004754754754754 	299.9999999999902 	5.524588630352327e-12 	101324.9999999959
1.007257257257256 	299.9999999999763 	5.129205864843842e-12 	101324.9999999959
1.009759759759759 	299.9999999999729 	6.712229017931454e-12 	101324.9999999958
1.012262262262261 	299.9999999999762 	5.480321368390422e-12 	101324.9999999957
1.014764764764764 	299.9999999999598 	6.700052100671126e-12 	101324.9999999957
1.017267267267267 	299.9999999999555 	6.050256922046237e-12 	101324.999999996
1.019769769769769 	299.999999999986 	6.771006653490032e-12 	101324.9999999962
1.022272272272272 	299.9999999999893 	6.574769249268657e-12 	101324.9999999962
1.024774774774774 	299.9999999999851 	6.627042139791343e-12 	101324.9999999961
1.027277277277277 	299.9999999999851 	7.202753906328337e-12 	101324.999999996
1.029779779779779 	300.0000000000029 	6.415812380912736e-12 	101324.999999996
1.032282282282282 	300.0000000000008 	6.780590665665629e-12 	101324.999999996
1.034784784784784 	299.9999999999947 	6.314893002394642e-12 	101324.9999999961
1.037287287287286 	299.9999999999768 	6.57759460293395e-12 	101324.9999999961
1.039789789789789 	299.9999999999805 	6.77660460000673e-12 	101324.9999999961
1.042292292292291 	299.999999999999 	6.972248493511473e-12 	101324.9999999962
1.044794794794794 	300.0000000000086 	6.798947286386707e-12 	101324.9999999964
1.047297297297296 	300.0000000000227 	5.861409510623606e-12 	101324.9999999966
1.049799799799799 	299.9999999999949 	6.813588836591668e-12 	101324.9999999965
1.052302302302302 	299.9999999999727 	5.695585949761493e-12 	101324.9999999964
1.054804804804804 	299.9999999999641 	7.291658012219555e-12 	101324.9999999964
1.057307307307306 	299.9999999999566 	6.945262433783827e-12 	101324.9999999964
1.059809809809809 	299.9999999999754 	7.638116454831642e-12 	101324.9999999965
1.062312312312312 	299.9999999999714 	7.054704795565208e-12 	101324.9999999967
1.064814814814814 	299.9999999999683 	7.061061584730287e-12 	101324.9999999967
1.067317317317317 	299.9999999999578 	6.399755507823282e-12 	101324.9999999968
1.069819819819819 	299.9999999999599 	6.445799310518428e-12 	101324.9999999968
1.072322322322321 	299.9999999999955 	8.070713443290972e-12 	101324.9999999968
1.074824824824824 	300.0000000000058 	6.848802300459867e-12 	101324.9999999967
1.077327327327327 	300.0000000000161 	7.507396313010344e-12 	101324.9999999968
1.079829829829829 	300.0000000000216 	5.976648453675828e-12 	101324.9999999969
1.082332332332332 	300.0000000000012 	6.025373576907294e-12 	101324.9999999969
1.084834834834834 	299.9999999999875 	5.904141587470168e-12 	101324.999999997
1.087337337337337 	299.9999999999683 	6.310756529435116e-12 	101324.9999999971
1.089839839839839 	299.9999999999623 	7.584201537259436e-12 	101324.999999997
1.092342342342342 	299.9999999999853 	6.74646181606913e-12 	101324.999999997
1.094844844844844 	299.9999999999856 	7.203831257358998e-12 	101324.9999999971
1.097347347347347 	299.9999999999678 	6.27185709559577e-12 	101324.9999999971
1.099849849849849 	299.9999999999578 	8.293940990272351e-12 	101324.9999999972
1.102352352352352 	299.9999999999711 	6.909079896890336e-12 	101324.9999999974
1.104854854854854 	299.9999999999849 	8.43077008151912e-12 	101324.9999999975
1.107357357357357 	299.9999999999786 	7.41546286257174e-12 	101324.9999999975
1.109859859859859 	299.9999999999728 	8.578248147347692e-12 	101324.9999999975
1.112362362362362 	300.0000000000108 	7.631502339663772e-12 	101324.9999999973
1.114864864864865 	300.0000000000103 	7.360325766290062e-12 	101324.9999999972
1.117367367367367 	299.9999999999794 	7.726806257049595e-12 	101324.9999999971
1.119869869869869 	299.9999999999586 	6.527770505030027e-12 	101324.9999999973
1.122372372372372 	299.9999999999768 	7.853786572363706e-12 	101324.9999999974
1.124874874874874 	299.9999999999736 	7.655201946017433e-12 	101324.9999999974
1.127377377377377 	299.9999999999811 	8.792626519747302e-12 	101324.9999999976
1.129879879879879 	300.0000000000108 	8.412347987761383e-12 	101324.9999999976
1.132382382382382 	300.0000000000169 	8.662582175090351e-12 	101324.9999999975
1.134884884884884 	300.0000000000022 	8.297745393893133e-12 	101324.9999999976
1.137387387387387 	300.0000000000051 	8.310551896947193e-12 	101324.9999999976
1.139889889889889 	299.9999999999793 	9.132344191323941e-12 	101324.9999999977
1.142392392392392 	299.9999999999749 	8.094554298971508e-12 	101324.9999999978
1.144894894894894 	300.0000000000058 	8.737579802022042e-12 	101324.9999999978
1.147397397397397 	299.9999999999964 	7.649019924954787e-12 	101324.9999999976
1.149899899899899 	299.9999999999658 	8.153230438192862e-12 	101324.9999999974
1.152402402402402 	299.9999999999611 	7.788408050730863e-12 	101324.9999999974
1.154904904904904 	299.9999999999818 	8.684078353787485e-12 	101324.9999999975
1.157407407407407 	299.9999999999817 	8.557742902595932e-12 	101324.9999999976
1.159909909909909 	299.9999999999628 	9.140352004666397e-12 	101324.9999999977
1.162412412412412 	299.9999999999565 	1.046811627942057e-11 	101324.9999999978
1.164914914914914 	299.9999999999748 	9.645264701916966e-12 	101324.9999999977
1.167417417417417 	299.9999999999802 	1.111135141900745e-11 	101324.9999999976
1.169919919919919 	300.0000000000063 	1.042654697966951e-11 	101324.9999999979
1.172422422422422 	300.000000000022 	1.085630021008255e-11 	101324.999999998
1.174924924924925 	299.9999999999947 	9.899194693071257e-12 	101324.999999998
1.177427427427427 	299.9999999999799 	1.020573603456191e-11 	101324.999999998
1.179929929929929 	300.0000000000077 	1.054959880639924e-11 	101324.999999998
1.182432432432432 	300.0000000000216 	8.928390275791257e-12 	101324.9999999981
1.184934934934934 	300.0000000000017 	9.481418686874205e-12 	101324.9999999983
1.187437437437437 	299.999999999982 	8.710333737535915e-12 	101324.9999999985
1.189939939939939 	299.9999999999744 	9.289953894540983e-12 	101324.9999999986
1.192442442442442 	299.9999999999583 	8.75729309610803e-12 	101324.9999999986
1.194944944944944 	299.9999999999612 	9.794780431181552e-12 	101324.9999999988
1.197447447447447 	299.9999999999935 	9.219466538532681e-12 	101324.999999999
1.199949949949949 	300.0000000000035 	9.33220353718531e-12 	101324.999999999
1.202452452452452 	299.9999999999735 	1.025636090605805e-11 	101324.999999999
1.204954954954955 	299.9999999999701 	9.842940666016871e-12 	101324.9999999991
1.207457457457457 	299.9999999999857 	1.125598910816101e-11 	101324.9999999992
1.20995995995996 	299.9999999999835 	1.073461752948929e-11 	101324.9999999992
1.212462462462462 	299.9999999999909 	1.110156389349236e-11 	101324.9999999992
1.214964964964964 	299.9999999999911 	1.013411571458567e-11 	101324.9999999992
1.217467467467467 	299.999999999996 	1.068729113764088e-11 	101324.9999999993
1.219969969969969 	299.9999999999844 	9.840964874573254e-12 	101324.9999999992
1.222472472472472 	300.0000000000037 	1.029409104774698e-11 	101324.9999999992
1.224974974974975 	300.000000000024 	1.086666924991394e-11 	101324.999999999
1.227477477477477 	299.9999999999964 	9.688535495015001e-12 	101324.9999999988
1.229979979979979 	299.9999999999893 	1.085673559312455e-11 	101324.9999999988
1.232482482482482 	299.9999999999753 	1.017659729695225e-11 	101324.9999999989
1.234984984984984 	299.999999999975 	1.112040680785402e-11 	101324.9999999991
1.237487487487487 	299.9999999999879 	9.987208815579986e-12 	101324.9999999992
1.239989989989989 	299.9999999999894 	1.04385615272523e-11 	101324.9999999992
1.242492492492492 	300.0000000000076 	1.066678019939771e-11 	101324.9999999992
1.244994994994994 	299.9999999999867 	9.593328211779575e-12 	101324.9999999993
1.247497497497497 	299.9999999999909 	1.061598622518578e-11 	101324.9999999994
1.249999999999999 	300.0000000001206 	9.97585152712069e-12 	101324.9999999994
