-1.25 	300 	0.03047685363690954 	101312.5655056418
-1.247497497497497 	299.9890168288567 	0.02903744477502241 	101313.2217492606
-1.244994994994995 	299.9905790552048 	0.02710921641370376 	101313.8823325961
-1.242492492492492 	299.9911572555018 	0.02568531795700128 	101314.5461484294
-1.23998998998999 	299.9917157588677 	0.02397475384203789 	101315.2070988929
-1.237487487487487 	299.9922820707741 	0.02236851605502001 	101315.8765775599
-1.234984984984985 	299.9928529094119 	0.02072031641657035 	101316.5513809823
-1.232482482482482 	299.9934179063462 	0.01908060319491749 	101317.219279946
-1.22997997997998 	299.993980497571 	0.01745084876436408 	101317.8843423387
-1.227477477477477 	299.9945456914111 	0.0158152559464732 	101318.5524875384
-1.224974974974975 	299.9951127194191 	0.01416700159435624 	101319.2228024942
-1.222472472472472 	299.9956831518181 	0.01251066381426956 	101319.8971448315
-1.21996996996997 	299.9962609974386 	0.01083708887566696 	101320.5802570951
-1.217467467467467 	299.9968433238452 	0.009149235515429205 	101321.2686651426
-1.214964964964965 	299.9974222568424 	0.007478245189259537 	101321.9530590314
-1.212462462462462 	299.9979923909472 	0.005829350102377878 	101322.6270544961
-1.20995995995996 	299.9985553705155 	0.004195180127029297 	101323.2925984731
-1.207457457457457 	299.9991198217893 	0.002560379808693726 	101323.9598899742
-1.204954954954955 	299.9996894050876 	0.0009081312231936801 	101324.6332552377
-1.202452452452452 	300.0002645824448 	0.0008611010614345879 	101325.3132337227
-1.19994994994995 	300.0008420212424 	0.002425991728330908 	101325.9958843399
-1.197447447447447 	300.0014173009184 	0.004092753073082118 	101326.6759864942
-1.194944944944945 	300.0019914240059 	0.00575608167227351 	101327.3547250049
-1.192442442442442 	300.002564773829 	0.007417114926158723 	101328.0325526251
-1.18993993993994 	300.0031374830182 	0.009076249785854529 	101328.7096261805
-1.187437437437437 	300.003709545929 	0.01073348604922645 	101329.3859388537
-1.184934934934935 	300.0042808940833 	0.0123886378803694 	101330.0614095955
-1.182432432432432 	300.0048514348052 	0.01404144925467214 	101330.7359287307
-1.17992992992993 	300.0054210669788 	0.01569163865888099 	101331.4093770142
-1.177427427427427 	300.0059896871505 	0.01733891082418709 	101332.0816326714
-1.174924924924925 	300.0065571925901 	0.01898296374141013 	101332.7525735656
-1.172422422422422 	300.0071234811916 	0.02062349598265806 	101333.4220776613
-1.16991991991992 	300.0076884498024 	0.0222602071696153 	101334.0900229864
-1.167417417417417 	300.0082519933637 	0.02389279473859852 	101334.7562875144
-1.164914914914915 	300.0088140068782 	0.02552095619106679 	101335.4207491777
-1.162412412412412 	300.0093743884798 	0.02714439253679301 	101336.0832859911
-1.15990990990991 	300.0099330386465 	0.02876280623104293 	101336.7437761878
-1.157407407407407 	300.0104898565652 	0.03037589838265077 	101337.402098311
-1.154904904904904 	300.0110447375598 	0.03198337152356195 	101338.058131328
-1.152402402402403 	300.0115975751663 	0.03358493151210217 	101338.7117546446
-1.1498998998999 	300.0121482654092 	0.03518028393666599 	101339.3628481007
-1.147397397397397 	300.0126967085184 	0.03676913373836393 	101340.0112919758
-1.144894894894895 	300.0132428079683 	0.03835118921029788 	101340.6569670243
-1.142392392392392 	300.013786467443 	0.03992616116891021 	101341.2997545034
-1.13988988988989 	300.0143275886228 	0.04149375917402871 	101341.9395362109
-1.137387387387387 	300.0148660708563 	0.04305369420230497 	101342.5761945519
-1.134884884884885 	300.0154018124113 	0.04460568064958596 	101343.2096125006
-1.132382382382382 	300.015934712469 	0.04614943352460499 	101343.8396736144
-1.12987987987988 	300.0164646714138 	0.04768466824018654 	101344.4662620288
-1.127377377377377 	300.0169915912447 	0.04921110335056801 	101345.089262578
-1.124874874874875 	300.0175153753139 	0.05072845949994152 	101345.708560855
-1.122372372372372 	300.0180359277912 	0.05223645675588615 	101346.3240431083
-1.11986986986987 	300.0185531536354 	0.05373481795305325 	101346.9355962343
-1.117367367367367 	300.0190669581453 	0.05522326939652324 	101347.5431077722
-1.114864864864865 	300.0195772472958 	0.05670153726025621 	101348.1464660576
-1.112362362362362 	300.0200839276811 	0.05816934927590799 	101348.7455602839
-1.10985985985986 	300.0205869064226 	0.0596264368670604 	101349.3402804955
-1.107357357357357 	300.0210860915078 	0.06107253289718495 	101349.930517533
-1.104854854854855 	300.0215813912004 	0.06250737123376746 	101350.5161629503
-1.102352352352353 	300.0220727146079 	0.06393068898664112 	101351.0971091675
-1.09984984984985 	300.0225599716807 	0.06534222547045658 	101351.6732494631
-1.097347347347347 	300.0230430728498 	0.06674172075266356 	101352.2444780537
-1.094844844844845 	300.0235219295107 	0.06812891812999514 	101352.8106900885
-1.092342342342342 	300.0239964537821 	0.06950356389176453 	101353.3717815372
-1.08983983983984 	300.0244665585645 	0.07086540479007147 	101353.9276493131
-1.087337337337337 	300.0249321573802 	0.07221419047019295 	101354.4781911758
-1.084834834834835 	300.0253931646746 	0.07354967428778925 	101355.0233058904
-1.082332332332332 	300.0258494959367 	0.07487161041966175 	101355.5628933216
-1.07982982982983 	300.0263010672114 	0.07617975550442861 	101356.0968543015
-1.077327327327327 	300.0267477956356 	0.07747387034438664 	101356.6250907886
-1.074824824824825 	300.0271895992694 	0.07875371750122784 	101357.147505766
-1.072322322322323 	300.0276263970655 	0.08001906186175761 	101357.6640033488
-1.06981981981982 	300.0280581089967 	0.08126967180583643 	101358.1744887861
-1.067317317317317 	300.0284846556739 	0.08250531788223518 	101358.678868314
-1.064814814814815 	300.028905959143 	0.08372577331586298 	101359.1770494893
-1.062312312312312 	300.0293219421659 	0.08493081507759867 	101359.6689409432
-1.05980980980981 	300.0297325283006 	0.08612022238685652 	101360.1544523671
-1.057307307307307 	300.0301376424708 	0.08729377634889017 	101360.6334947517
-1.054804804804805 	300.0305372103044 	0.08845126209579182 	101361.1059800859
-1.052302302302302 	300.0309311585373 	0.08959246829132921 	101361.5718217344
-1.0497997997998 	300.0313194149361 	0.09071718523569604 	101362.0309343703
-1.047297297297297 	300.0317019084447 	0.09182520662435818 	101362.4832336579
-1.044794794794795 	300.0320785690803 	0.09291632989241988 	101362.9286366383
-1.042292292292292 	300.0324493272592 	0.09399035430267202 	101363.3670614103
-1.03978978978979 	300.032814114879 	0.09504708297529137 	101363.7984274818
-1.037287287287287 	300.0331728658638 	0.09608632312018955 	101364.2226560763
-1.034784784784785 	300.0335255145374 	0.09710788361496003 	101364.6396692055
-1.032282282282283 	300.0338719953945 	0.09811157707170205 	101365.0493901546
-1.02977977977978 	300.0342122444811 	0.09909721984737063 	101365.4517437493
-1.027277277277277 	300.034546200254 	0.100064630303534 	101365.8466559502
-1.024774774774775 	300.0348738023392 	0.1010136315882565 	101366.2340546043
-1.022272272272272 	300.0351949896351 	0.101944050668131 	101366.6138687587
-1.01976976976977 	300.035509701827 	0.1028557160434642 	101366.9860283373
-1.017267267267267 	300.0358178826368 	0.1037484605591655 	101367.3504652349
-1.014764764764765 	300.0361194773767 	0.1046221205898796 	101367.7071123325
-1.012262262262262 	300.0364144291389 	0.1054765347048038 	101368.0559036696
-1.00975975975976 	300.0367026811916 	0.1063115466781835 	101368.3967756507
-1.007257257257257 	300.0369841807692 	0.1071270042002494 	101368.7296657343
-1.004754754754755 	300.0372588802154 	0.1079227577067041 	101369.0545128499
-1.002252252252252 	300.0375267319102 	0.1086986618819009 	101369.3712579341
-0.9997497497497498 	300.0377876823135 	0.1094545737046786 	101369.6798421237
-0.9972472472472473 	300.0380416777524 	0.1101903531069281 	101369.9802081893
-0.9947447447447449 	300.0382886729845 	0.1109058654077355 	101370.2723014533
-0.9922422422422421 	300.0385286295291 	0.1116009788589594 	101370.5560676486
-0.9897397397397399 	300.0387615078141 	0.1122755652908978 	101370.8314544502
-0.9872372372372376 	300.0389872605851 	0.1129295020866505 	101371.0984120871
-0.9847347347347346 	300.0392058363081 	0.1135626690173308 	101371.3568909413
-0.9822322322322323 	300.039417192157 	0.1141749498501655 	101371.6068436539
-0.9797297297297296 	300.0396212990192 	0.1147662343630465 	101371.8482256548
-0.9772272272272275 	300.0398181302255 	0.1153364136913221 	101372.0809918314
-0.9747247247247248 	300.0400076506475 	0.1158853815737061 	101372.3050987468
-0.9722222222222224 	300.0401898154882 	0.1164130378316364 	101372.5205060759
-0.9697197197197196 	300.0403645773805 	0.1169192845341366 	101372.7271732305
-0.9672172172172175 	300.040531901099 	0.1174040276502003 	101372.9250615742
-0.9647147147147147 	300.0406917682869 	0.1178671803208533 	101373.1141363463
-0.9622122122122124 	300.0408441641561 	0.1183086567489026 	101373.2943621552
-0.9597097097097099 	300.0409890656859 	0.1187283732011451 	101373.4657042815
-0.9572072072072073 	300.0411264388798 	0.1191262536705884 	101373.6281322999
-0.9547047047047047 	300.0412562422997 	0.1195022242339556 	101373.7816159982
-0.9522022022022023 	300.0413784386699 	0.1198562128968096 	101373.9261252568
-0.9496996996996998 	300.0414930077242 	0.1201881572124763 	101374.0616349487
-0.9471971971971973 	300.0415999423095 	0.1204979981446313 	101374.188121441
-0.9446946946946947 	300.041699236778 	0.1207856751664359 	101374.3055593981
-0.9421921921921923 	300.0417908818496 	0.1210511353307157 	101374.4139270408
-0.93968968968969 	300.0418748589064 	0.1212943319506421 	101374.5132059292
-0.9371871871871872 	300.0419511385257 	0.121515216876642 	101374.603376069
-0.9346846846846848 	300.0420196908961 	0.1217137467797926 	101374.6844191772
-0.9321821821821823 	300.0420804952854 	0.1218898876958653 	101374.7563220073
-0.9296796796796799 	300.0421335397929 	0.1220436074910334 	101374.81907176
-0.9271771771771771 	300.0421788195016 	0.1221748742327788 	101374.8726546051
-0.9246746746746748 	300.0422163375063 	0.1222836636628204 	101374.9170605774
-0.9221721721721724 	300.0422461011053 	0.1223699598015063 	101374.9522839337
-0.9196696696696698 	300.0422681128243 	0.1224337468618294 	101374.9783181398
-0.9171671671671672 	300.0422823686768 	0.1224750083808868 	101374.9951556599
-0.9146646646646649 	300.0422888636871 	0.1224937377786659 	101375.0027938937
-0.9121621621621623 	300.0422875936565 	0.1224899356982112 	101375.0012344949
-0.9096596596596597 	300.042278547905 	0.122463594746813 	101374.9904735717
-0.9071571571571573 	300.0422617184089 	0.1224147095626266 	101374.9705072176
-0.9046546546546547 	300.0422371087338 	0.122343298063008 	101374.941343754
-0.9021521521521524 	300.0422047269755 	0.1222493845563188 	101374.9029959507
-0.8996496496496498 	300.0421645717073 	0.1221329725146519 	101374.8554632483
-0.8971471471471473 	300.0421166431151 	0.1219940713799478 	101374.7987458701
-0.894644644644645 	300.0420609615836 	0.1218327289541483 	101374.7328672791
-0.892142142142142 	300.0419975453773 	0.1216489856983716 	101374.6578478854
-0.8896396396396397 	300.0419263892371 	0.1214428387926369 	101374.5736802354
-0.8871371371371374 	300.0418475002318 	0.1212143151428201 	101374.4803716303
-0.8846346346346349 	300.0417609183927 	0.1209635055455618 	101374.3779683093
-0.8821321321321324 	300.0416666634194 	0.1206904572491797 	101374.2664927613
-0.8796296296296297 	300.0415647179603 	0.1203951496951723 	101374.1459239162
-0.8771271271271271 	300.0414551013909 	0.1200776435548859 	101374.016284291
-0.8746246246246248 	300.0413378803456 	0.1197380891667695 	101373.8776523206
-0.8721221221221224 	300.0412130703568 	0.119376528585259 	101373.7300462173
-0.8696196196196196 	300.0410806337979 	0.1189929068692723 	101373.573421376
-0.8671171171171175 	300.0409406071855 	0.1185873283373707 	101373.407820922
-0.8646146146146148 	300.0407930944886 	0.118160024934605 	101373.2333678547
-0.8621121121121121 	300.0406381046714 	0.1177110258207514 	101373.0500725574
-0.8596096096096097 	300.0404755644836 	0.1172402060515532 	101372.8578484858
-0.857107107107107 	300.0403055249259 	0.1167477105160174 	101372.6567562243
-0.8546046046046049 	300.0401281479925 	0.1162338985779661 	101372.4469871731
-0.8521021021021022 	300.039943446006 	0.1156988034201415 	101372.2285558413
-0.8495995995995997 	300.0397512835527 	0.1151421693877774 	101372.0013022358
-0.8470970970970974 	300.0395517030409 	0.114564136209906 	101371.7652766869
-0.8445945945945946 	300.0393449563034 	0.1139652662825381 	101371.5207769658
-0.8420920920920922 	300.039131104303 	0.113345690782765 	101371.2678749755
-0.8395895895895897 	300.0389099175992 	0.112704942798344 	101371.0062995795
-0.8370870870870872 	300.0386813538627 	0.1120429934471735 	101370.7360009434
-0.8345845845845846 	300.0384457740316 	0.1113606676155003 	101370.457405995
-0.8320820820820823 	300.0382034032551 	0.1106584491264306 	101370.1707808156
-0.8295795795795798 	300.0379539343065 	0.1099356715485544 	101369.8757618779
-0.8270770770770772 	300.0376970809643 	0.1091917761059508 	101369.5720110677
-0.8245745745745746 	300.0374332240175 	0.1084276792658 	101369.259979156
-0.8220720720720721 	300.0371629406641 	0.1076446619668366 	101368.9403484067
-0.8195695695695699 	300.0368860585314 	0.1068423089582542 	101368.6129145501
-0.817067067067067 	300.0366018825404 	0.1060191106924889 	101368.2768559147
-0.8145645645645651 	300.0363104287101 	0.1051752198413619 	101367.9321920924
-0.8120620620620621 	300.0360126597836 	0.1043128668146514 	101367.5800617015
-0.8095595595595597 	300.0357091011425 	0.1034331883862469 	101367.221085398
-0.8070570570570572 	300.0353989167496 	0.1025342428665592 	101366.8542741344
-0.8045545545545546 	300.0350811186831 	0.101613872240298 	101366.4784602406
-0.8020520520520523 	300.034756292499 	0.1006735792790591 	101366.0943372367
-0.7995495495495494 	300.0344260818617 	0.0997171836017727 	101365.7038487088
-0.7970470470470474 	300.0340908466222 	0.09874540500918336 	101365.3074189015
-0.7945445445445446 	300.0337489000115 	0.09775426833478831 	101364.9030526191
-0.7920420420420423 	300.0333988085295 	0.09674057700924842 	101364.4890560509
-0.7895395395395397 	300.0330417512541 	0.09570731052658812 	101364.0668251167
-0.7870370370370371 	300.0326803788085 	0.09466073807930693 	101363.6394938469
-0.7845345345345348 	300.0323152792739 	0.09360207615781228 	101363.2077555208
-0.7820320320320323 	300.0319438080608 	0.09252493345744014 	101362.7684818633
-0.7795295295295296 	300.0315633238578 	0.09142317159366706 	101362.3185514075
-0.7770270270270272 	300.0311749739271 	0.09029983226133063 	101361.8593233786
-0.7745245245245247 	300.0307829162671 	0.08916501550567331 	101361.3957147641
-0.7720220220220222 	300.0303893790287 	0.08802390637226867 	101360.9303574518
-0.7695195195195199 	300.0299914971359 	0.08686932880268305 	101360.4598610034
-0.767017017017017 	300.029584232082 	0.08568907541396539 	101359.9782685104
-0.7645145145145147 	300.0291664463602 	0.08448070524313939 	101359.4842390342
-0.7620120120120122 	300.0287430058062 	0.08325643288482694 	101358.9835288801
-0.7595095095095097 	300.0283199170792 	0.08203098495036062 	101358.4832385975
-0.7570070070070072 	300.0278975126782 	0.0808048701018384 	101357.9837563827
-0.7545045045045048 	300.0274693693519 	0.07956195695939826 	101357.4774847412
-0.7520020020020022 	300.0270287182726 	0.0782855638298879 	101356.9564231844
-0.7494994994994997 	300.0265759331356 	0.0769770275670129 	101356.4210192781
-0.7469969969969972 	300.0261190932026 	0.07565686401631987 	101355.880829001
-0.7444944944944945 	300.0256664838427 	0.07434581354782858 	101355.3456458173
-0.7419919919919924 	300.0252182095256 	0.07304380288763072 	101354.8155865425
-0.7394894894894897 	300.024765309523 	0.07172790414642542 	101354.2800524447
-0.7369869869869872 	300.0242976735921 	0.0703725423622189 	101353.727092269
-0.7344844844844846 	300.0238136497621 	0.06897389117744263 	101353.1547604473
-0.7319819819819822 	300.023322438143 	0.0675558061329922 	101352.5739403222
-0.7294794794794797 	300.0228367474398 	0.06615092183778291 	101351.9996568668
-0.7269769769769773 	300.0223619118266 	0.06477272345092282 	101351.4382092987
-0.7244744744744747 	300.0218908284392 	0.0634025717334335 	101350.8811920728
-0.721971971971972 	300.0214091080408 	0.0620030947757348 	101350.3115909385
-0.7194694694694695 	300.0209063964542 	0.06054758925348602 	101349.717169988
-0.7169669669669674 	300.0203849361888 	0.05904224253966554 	101349.1005901735
-0.7144644644644647 	300.0198586483554 	0.05752367261476213 	101348.4783160542
-0.711961961961962 	300.019343336557 	0.05603331957293377 	101347.8690299866
-0.7094594594594597 	300.0188452890434 	0.05458756018263151 	101347.2801577508
-0.7069569569569573 	300.0183564919727 	0.0531650431026401 	101346.7022153729
-0.7044544544544545 	300.0178596329603 	0.05171983948890154 	101346.1147312468
-0.7019519519519523 	300.0173393267399 	0.05021119874328007 	101345.4995204853
-0.6994494494494495 	300.0167921828065 	0.04863032361266016 	101344.8525846546
-0.6969469469469471 	300.0162293972429 	0.04700729078053307 	101344.187169653
-0.6944444444444446 	300.015670414263 	0.04539420958467643 	101343.5262666779
-0.6919419419419421 	300.0151317265847 	0.04383533523372347 	101342.8893692906
-0.6894394394394396 	300.0146175476559 	0.04234196523603925 	101342.2814490618
-0.6869369369369374 	300.0141174404174 	0.04088583959581892 	101341.6901570403
-0.6844344344344344 	300.0136116693832 	0.03941343040568814 	101341.0921568941
-0.6819319319319321 	300.0130810284288 	0.03787257911590111 	101340.4647454771
-0.6794294294294296 	300.0125161465534 	0.03623787721610536 	101339.7968527227
-0.6769269269269272 	300.0119220086376 	0.03452305543976143 	101339.0943824624
-0.6744244244244245 	300.0113158980675 	0.03277545628908945 	101338.3777749882
-0.6719219219219222 	300.0107200364361 	0.03105605579584823 	101337.673302777
-0.6694194194194195 	300.0101525005655 	0.02941465016769208 	101337.0023315301
-0.6669169169169172 	300.0096203455411 	0.02787079647049115 	101336.3731929961
-0.6644144144144146 	300.0091172755508 	0.0264071506886433 	101335.778434734
-0.661911911911912 	300.0086261131481 	0.02497601722448074 	101335.1977423613
-0.6594094094094097 	300.0081245037983 	0.02351503740656585 	101334.6046858036
-0.656906906906907 	300.0075915740242 	0.02196580965874325 	101333.9745908052
-0.6544044044044046 	300.0070135971194 	0.02028987222471153 	101333.2912358123
-0.6519019019019021 	300.0063874044931 	0.01847838066982202 	101332.5508833483
-0.6493993993993996 	300.0057210217878 	0.01655395770913291 	101331.7630297943
-0.6468968968968971 	300.0050316957178 	0.01456519413535569 	101330.9480707019
-0.6443943943943946 	300.0043420498256 	0.01257591674727526 	101330.1327547251
-0.6418918918918921 	300.0036755106214 	0.01065253770440247 	101329.3447760654
-0.6393893893893897 	300.0030524317947 	0.008853265961137526 	101328.6081937098
-0.6368868868868871 	300.0024879021291 	0.007221621905120281 	101327.940841054
-0.6343843843843846 	300.0019910609756 	0.005784222897823097 	101327.3535176145
-0.6318818818818821 	300.0015654230544 	0.004551573601864891 	101326.850374056
-0.6293793793793795 	300.0012098133442 	0.00352066046216617 	101326.4300173774
-0.6268768768768773 	300.0009195795263 	0.002678396550645635 	101326.0869451465
-0.6243743743743745 	300.0006877998225 	0.002005168956644478 	101325.8130138679
-0.6218718718718721 	300.000506510779 	0.001478020715723769 	101325.5987478126
-0.6193693693693696 	300.0003674894319 	0.001073211373248707 	101325.4343770667
-0.6168668668668671 	300.0002627687262 	0.0007680264991052373 	101325.3105816594
-0.6143643643643645 	300.0001852550247 	0.0005419371936039104 	101325.2189619012
-0.6118618618618621 	300.0001288360738 	0.0003772159085743577 	101325.1522764285
-0.6093593593593596 	300.0000884198819 	0.0002591034407980919 	101325.1045061274
-0.6068568568568571 	300.0000599057552 	0.0001756954455985065 	101325.0708038986
-0.6043543543543546 	300.0000400819548 	0.0001176541768594184 	101325.0473734255
-0.6018518518518521 	300.0000264936901 	7.78329733753406e-05 	101325.0313130492
-0.5993493493493496 	300.000017305733 	5.088279434950297e-05 	101325.0204536414
-0.5968468468468471 	300.0000111743905 	3.288220570514134e-05 	101325.0132069316
-0.5943443443443446 	300.0000071345706 	2.101146498805431e-05 	101325.0084322139
-0.591841841841842 	300.0000045053702 	1.327922126163982e-05 	101325.0053248224
-0.5893393393393397 	300.0000028146602 	8.302704782630232e-06 	101325.0033266112
-0.5868368368368371 	300.0000017400911 	5.13690121928235e-06 	101325.002056537
-0.5843343343343346 	300.0000010647677 	3.145701317244687e-06 	101325.0012583682
-0.5818318318318321 	300.0000006450218 	1.907047685462589e-06 	101325.0007622716
-0.5793293293293297 	300.0000003868688 	1.14478981414697e-06 	101325.0004572274
-0.5768268268268271 	300.0000002298387 	6.806016714478347e-07 	101325.0002716188
-0.5743243243243245 	300.0000001352732 	4.008207415003285e-07 	101325.0001598357
-0.5718218218218221 	300.0000000788755 	2.338681789266078e-07 	101325.0000931858
-0.5693193193193196 	300.000000045603 	1.352187208350713e-07 	101325.0000538339
-0.5668168168168171 	300.0000000260706 	7.748556248400559e-08 	101325.0000308217
-0.5643143143143147 	300.0000000147513 	4.401349294404144e-08 	101325.0000174905
-0.5618118118118121 	300.0000000083466 	2.478777753014281e-08 	101325.0000098389
-0.5593093093093094 	300.0000000046847 	1.384222745102924e-08 	101325.0000054868
-0.5568068068068072 	300.0000000025934 	7.668033515473152e-09 	101325.0000030329
-0.5543043043043046 	300.0000000014352 	4.212715009724973e-09 	101325.0000016612
-0.551801801801802 	300.0000000007232 	2.297505151402928e-09 	101325.000000901
-0.5492992992992995 	300.0000000004121 	1.241639669538485e-09 	101325.0000004831
-0.5467967967967969 	300.0000000002371 	6.674511735003e-10 	101325.000000255
-0.5442942942942947 	300.0000000001272 	3.54859951789955e-10 	101325.0000001315
-0.5417917917917919 	300.0000000000225 	1.893295720755142e-10 	101325.0000000654
-0.5392892892892895 	299.9999999999602 	9.773867471116506e-11 	101325.0000000301
-0.536786786786787 	299.9999999999674 	5.289463267377947e-11 	101325.0000000115
-0.5342842842842846 	299.999999999964 	2.524699803426376e-11 	101325.0000000016
-0.531781781781782 	299.9999999999328 	1.580583759367815e-11 	101324.9999999966
-0.5292792792792794 	299.9999999999254 	5.170022996121363e-12 	101324.9999999942
-0.526776776776777 	299.9999999999105 	6.887110285377927e-12 	101324.9999999932
-0.5242742742742745 	299.9999999999769 	3.350498776734601e-12 	101324.9999999925
-0.521771771771772 	300.0000000000242 	7.018160564806402e-12 	101324.9999999922
-0.5192692692692695 	299.9999999999597 	4.320019383828536e-12 	101324.999999992
-0.516766766766767 	300.0000000000038 	7.179521980335687e-12 	101324.9999999917
-0.5142642642642645 	299.9999999999775 	3.928565910421901e-12 	101324.9999999915
-0.511761761761762 	299.999999999953 	5.941895921828673e-12 	101324.9999999914
-0.5092592592592596 	299.9999999999681 	3.347636625928527e-12 	101324.9999999911
-0.506756756756757 	299.9999999999339 	4.888236988783388e-12 	101324.9999999908
-0.5042542542542544 	299.9999999999915 	2.232723534158098e-12 	101324.9999999908
-0.5017517517517521 	300.0000000000254 	4.540388255559394e-12 	101324.9999999909
-0.4992492492492494 	300.0000000000315 	1.604218942733707e-12 	101324.9999999913
-0.496746746746747 	299.9999999999863 	3.382891603247998e-12 	101324.9999999916
-0.4942442442442445 	299.9999999999458 	1.035110992510613e-12 	101324.9999999919
-0.4917417417417421 	299.9999999999428 	4.107433155635375e-12 	101324.9999999918
-0.4892392392392395 	299.9999999999571 	1.970883981075674e-12 	101324.9999999916
-0.486736736736737 	299.9999999999604 	4.61456914629235e-12 	101324.9999999915
-0.4842342342342345 	299.9999999999258 	2.178027188194362e-12 	101324.9999999916
-0.481731731731732 	300.0000000000297 	5.499865228909464e-12 	101324.9999999914
-0.4792292292292296 	300.0000000000188 	2.945345334046804e-12 	101324.9999999915
-0.4767267267267268 	299.9999999999455 	7.020725713708965e-12 	101324.9999999914
-0.4742242242242246 	299.9999999999886 	2.086165542674181e-12 	101324.9999999915
-0.471721721721722 	299.9999999999509 	5.734532509645083e-12 	101324.9999999917
-0.4692192192192195 	299.9999999999665 	1.859174784517894e-12 	101324.9999999918
-0.4667167167167169 	299.9999999999119 	4.154723349753824e-12 	101324.9999999917
-0.4642142142142145 	299.9999999999955 	1.32532783745032e-12 	101324.9999999918
-0.461711711711712 	300.0000000000149 	4.404934740389243e-12 	101324.999999992
-0.4592092092092094 	300.0000000000124 	2.42212235766344e-12 	101324.9999999922
-0.456706706706707 	300.0000000000488 	4.142029587385134e-12 	101324.9999999921
-0.4542042042042045 	299.9999999999383 	2.625400948546631e-12 	101324.9999999918
-0.451701701701702 	299.9999999999534 	4.131664856854433e-12 	101324.9999999917
-0.4491991991991995 	299.9999999999573 	2.485722839463442e-12 	101324.9999999916
-0.4466966966966969 	299.9999999999432 	4.599850571376405e-12 	101324.9999999917
-0.4441941941941945 	299.9999999999934 	2.230619770646934e-12 	101324.9999999914
-0.441691691691692 	299.9999999999566 	5.486089930911397e-12 	101324.9999999916
-0.4391891891891895 	299.9999999999846 	1.361902166730473e-12 	101324.9999999915
-0.436686686686687 	299.9999999999667 	5.713592774629405e-12 	101324.9999999915
-0.4341841841841846 	299.9999999999968 	1.822472696052966e-12 	101324.9999999915
-0.431681681681682 	299.9999999999503 	5.181899958127419e-12 	101324.9999999917
-0.4291791791791794 	299.9999999999093 	1.329288954951915e-12 	101324.9999999919
-0.426676676676677 	299.9999999999166 	4.428326290741663e-12 	101324.9999999918
-0.4241741741741744 	299.9999999999666 	1.749999531857617e-12 	101324.9999999916
-0.421671671671672 	300.0000000000031 	3.704705175641207e-12 	101324.9999999915
-0.4191691691691694 	300.000000000045 	1.810753731329854e-12 	101324.9999999914
-0.4166666666666669 	300.0000000000528 	3.951977903675705e-12 	101324.9999999913
-0.4141641641641645 	299.9999999999347 	2.631257882749894e-12 	101324.9999999912
-0.411661661661662 	300.0000000000043 	3.209533167659365e-12 	101324.9999999915
-0.4091591591591594 	300.0000000000063 	2.224728130242108e-12 	101324.9999999913
-0.406656656656657 	299.9999999999392 	3.601165080420912e-12 	101324.9999999912
-0.4041541541541545 	300.0000000000117 	1.679174349853711e-12 	101324.9999999915
-0.401651651651652 	299.9999999999227 	3.732890320489841e-12 	101324.9999999914
-0.3991491491491494 	300.0000000000003 	1.633762365293072e-12 	101324.9999999912
-0.396646646646647 	299.9999999999562 	3.967250301564486e-12 	101324.9999999913
-0.3941441441441444 	299.9999999999739 	2.468812895509923e-12 	101324.9999999911
-0.3916416416416419 	299.9999999999314 	3.986028917790377e-12 	101324.9999999909
-0.3891391391391395 	299.9999999999583 	1.16388521847029e-12 	101324.9999999908
-0.3866366366366368 	299.9999999999559 	3.256901513620444e-12 	101324.9999999909
-0.3841341341341344 	299.9999999999975 	1.488843823119914e-12 	101324.999999991
-0.381631631631632 	299.9999999999547 	2.526166176767972e-12 	101324.9999999911
-0.3791291291291294 	300.000000000004 	1.717827440746942e-12 	101324.9999999915
-0.3766266266266269 	300.0000000000188 	1.877008885913964e-12 	101324.9999999917
-0.3741241241241244 	300.0000000000207 	3.063147172063466e-12 	101324.9999999918
-0.371621621621622 	300.0000000000136 	1.753802570141583e-12 	101324.9999999917
-0.3691191191191194 	300.0000000000031 	4.581849698079097e-12 	101324.9999999918
-0.366616616616617 	300.0000000000089 	1.618698824807239e-12 	101324.999999992
-0.3641141141141143 	299.9999999999704 	4.095031165227764e-12 	101324.9999999922
-0.3616116116116119 	299.9999999999499 	2.094874494880971e-12 	101324.9999999921
-0.3591091091091095 	299.9999999999883 	2.971677890562373e-12 	101324.9999999923
-0.356606606606607 	299.9999999999856 	2.368219116601885e-12 	101324.9999999922
-0.3541041041041044 	299.9999999999835 	2.418935360591695e-12 	101324.9999999923
-0.3516016016016019 	300.0000000000031 	3.249126915166954e-12 	101324.9999999921
-0.3490990990990994 	299.9999999999852 	2.179992374187667e-12 	101324.9999999919
-0.346596596596597 	300.0000000000405 	4.617323626534618e-12 	101324.999999992
-0.3440940940940944 	300.0000000000491 	2.660736326843754e-12 	101324.9999999919
-0.3415915915915919 	300.0000000000192 	5.300242139916371e-12 	101324.9999999918
-0.3390890890890895 	299.9999999999806 	3.848715156820716e-12 	101324.9999999917
-0.3365865865865869 	300.0000000000209 	5.720300137299529e-12 	101324.9999999918
-0.3340840840840844 	300.0000000000032 	4.417728584578923e-12 	101324.9999999918
-0.3315815815815819 	300.0000000000254 	4.904962467655149e-12 	101324.9999999919
-0.3290790790790794 	300.0000000000152 	4.221370561114781e-12 	101324.9999999919
-0.3265765765765769 	299.9999999999324 	5.188861999966156e-12 	101324.9999999919
-0.3240740740740744 	299.999999999998 	3.573080302274637e-12 	101324.9999999921
-0.3215715715715718 	300.000000000008 	5.394777411722657e-12 	101324.9999999923
-0.3190690690690695 	299.9999999999293 	3.463127568091553e-12 	101324.9999999924
-0.3165665665665668 	299.9999999999895 	5.235421957725e-12 	101324.9999999922
-0.3140640640640644 	300.000000000001 	2.299788154072431e-12 	101324.9999999924
-0.311561561561562 	299.999999999928 	5.111241396541721e-12 	101324.9999999923
-0.3090590590590593 	299.999999999994 	1.257298414945718e-12 	101324.9999999922
-0.3065565565565568 	300.0000000000019 	5.921147472516633e-12 	101324.9999999922
-0.3040540540540545 	300.0000000000176 	1.300436367580811e-12 	101324.9999999919
-0.3015515515515518 	300.0000000000305 	6.223719288890853e-12 	101324.9999999917
-0.2990490490490494 	299.9999999999441 	1.832568938601031e-12 	101324.9999999914
-0.2965465465465469 	299.9999999999839 	4.292147866281575e-12 	101324.9999999915
-0.2940440440440444 	299.9999999999994 	2.75549839707862e-12 	101324.9999999914
-0.2915415415415418 	300.0000000000015 	4.029778789002092e-12 	101324.9999999913
-0.2890390390390395 	300.0000000000018 	3.902203378149136e-12 	101324.9999999916
-0.2865365365365368 	299.9999999999769 	2.953225465041037e-12 	101324.9999999914
-0.2840340340340343 	299.9999999999998 	3.870467387809926e-12 	101324.9999999914
-0.2815315315315318 	299.9999999999293 	2.011071314255356e-12 	101324.9999999913
-0.2790290290290295 	299.9999999999586 	3.195889453116372e-12 	101324.9999999913
-0.2765265265265269 	300.0000000000118 	2.36167259569171e-12 	101324.9999999915
-0.2740240240240244 	300.0000000000306 	3.296591335734348e-12 	101324.9999999918
-0.2715215215215219 	300.0000000000124 	3.783034475292519e-12 	101324.9999999917
-0.2690190190190194 	299.9999999999457 	3.231017599939212e-12 	101324.9999999914
-0.2665165165165169 	299.9999999999958 	3.891080886199251e-12 	101324.9999999913
-0.2640140140140144 	299.9999999999691 	2.361486290640147e-12 	101324.9999999913
-0.2615115115115119 	299.9999999999989 	3.786487008746196e-12 	101324.9999999913
-0.2590090090090094 	299.9999999999392 	1.553369120363469e-12 	101324.9999999918
-0.2565065065065068 	299.9999999999939 	2.698156513330611e-12 	101324.9999999917
-0.2540040040040044 	299.9999999999998 	2.622602530720888e-12 	101324.9999999919
-0.2515015015015019 	300.0000000000398 	2.108573421544568e-12 	101324.9999999918
-0.2489989989989994 	300.0000000000455 	4.444509973943595e-12 	101324.9999999915
-0.2464964964964968 	299.9999999999925 	2.220648092559214e-12 	101324.9999999917
-0.2439939939939944 	299.9999999999986 	5.543125917338278e-12 	101324.9999999917
-0.2414914914914919 	299.999999999974 	1.300424610646367e-12 	101324.9999999917
-0.2389889889889893 	300.0000000000025 	6.25954788817935e-12 	101324.9999999918
-0.2364864864864869 	300.0000000000209 	2.715421122979802e-12 	101324.9999999917
-0.2339839839839843 	299.9999999999285 	6.862875322383736e-12 	101324.9999999916
-0.2314814814814819 	299.9999999999821 	2.332877970628246e-12 	101324.9999999915
-0.2289789789789792 	299.999999999926 	5.490968205251519e-12 	101324.9999999916
-0.2264764764764769 	299.9999999999471 	2.708382195915786e-12 	101324.9999999917
-0.2239739739739743 	299.9999999999613 	3.674082534174163e-12 	101324.9999999916
-0.2214714714714718 	299.999999999941 	2.387903819018573e-12 	101324.9999999916
-0.2189689689689693 	299.9999999999733 	2.072786967441257e-12 	101324.9999999916
-0.2164664664664669 	299.9999999999818 	3.708790467576093e-12 	101324.9999999915
-0.2139639639639643 	299.9999999999344 	2.229742386268701e-12 	101324.9999999913
-0.2114614614614618 	299.9999999999737 	2.885761881072847e-12 	101324.9999999911
-0.2089589589589593 	299.9999999999927 	2.157990284499641e-12 	101324.9999999913
-0.2064564564564568 	299.9999999999927 	1.780167735461835e-12 	101324.9999999915
-0.2039539539539543 	299.9999999999153 	2.48667176503032e-12 	101324.9999999916
-0.2014514514514518 	299.9999999999512 	4.385679858806401e-13 	101324.9999999914
-0.1989489489489494 	299.9999999999782 	2.950181969846243e-12 	101324.9999999916
-0.1964464464464468 	299.9999999999956 	5.0822848014251e-13 	101324.9999999918
-0.1939439439439443 	299.9999999999843 	3.027834936554156e-12 	101324.999999992
-0.1914414414414418 	299.9999999999206 	6.771293071926987e-13 	101324.9999999921
-0.1889389389389393 	300.0000000000064 	2.161281433944351e-12 	101324.9999999921
-0.1864364364364368 	300.0000000000377 	1.20349187026305e-12 	101324.999999992
-0.1839339339339343 	299.999999999975 	2.514025602411684e-12 	101324.9999999918
-0.1814314314314318 	299.9999999999959 	1.962249953113477e-12 	101324.9999999914
-0.1789289289289293 	299.999999999911 	3.249455213375537e-12 	101324.9999999914
-0.1764264264264268 	299.9999999999799 	1.038682274375404e-12 	101324.9999999916
-0.1739239239239243 	299.9999999999043 	3.489210584072861e-12 	101324.9999999918
-0.1714214214214218 	299.9999999999861 	8.064314433364969e-13 	101324.9999999919
-0.1689189189189193 	299.9999999999579 	4.41104383829511e-12 	101324.999999992
-0.1664164164164168 	300.0000000000084 	2.387717243955985e-12 	101324.9999999922
-0.1639139139139143 	299.9999999999914 	5.211588735222219e-12 	101324.9999999923
-0.1614114114114118 	300.0000000000326 	3.626288115455337e-12 	101324.9999999922
-0.1589089089089093 	299.9999999999993 	6.775762356185091e-12 	101324.9999999926
-0.1564064064064068 	299.9999999999908 	5.307891453680072e-12 	101324.9999999925
-0.1539039039039043 	299.9999999999959 	6.840845719796868e-12 	101324.9999999925
-0.1514014014014018 	300.0000000000262 	3.952274649574753e-12 	101324.9999999924
-0.1488988988988993 	299.9999999999937 	6.648973925046638e-12 	101324.9999999922
-0.1463963963963968 	300.0000000000061 	3.339748693805819e-12 	101324.9999999922
-0.1438938938938943 	299.9999999999561 	5.362586749291047e-12 	101324.999999992
-0.1413913913913918 	299.9999999999274 	2.812407180727533e-12 	101324.9999999921
-0.1388888888888893 	299.9999999999808 	2.089383485247895e-12 	101324.999999992
-0.1363863863863868 	299.9999999998971 	1.995361641453952e-12 	101324.9999999923
-0.1338838838838843 	299.9999999999265 	1.079860871827486e-12 	101324.9999999927
-0.1313813813813818 	299.9999999999952 	9.751240558354253e-13 	101324.9999999929
-0.1288788788788793 	299.9999999999732 	2.227521049238882e-12 	101324.9999999929
-0.1263763763763768 	299.9999999999708 	2.240148021135656e-13 	101324.9999999927
-0.1238738738738743 	299.9999999999312 	3.862289775497378e-12 	101324.9999999927
-0.1213713713713717 	299.9999999999776 	8.690977647626574e-13 	101324.9999999926
-0.1188688688688693 	300.0000000000074 	5.702100718549456e-12 	101324.9999999924
-0.1163663663663668 	299.9999999999102 	1.062451328464997e-12 	101324.9999999919
-0.1138638638638643 	299.9999999999923 	5.431290775707077e-12 	101324.9999999919
-0.1113613613613618 	299.9999999999861 	1.087495266418715e-12 	101324.999999992
-0.1088588588588592 	299.9999999999792 	5.372102876393427e-12 	101324.9999999921
-0.1063563563563568 	299.9999999999512 	1.020866239949125e-12 	101324.9999999922
-0.1038538538538543 	299.9999999999761 	4.35569479455583e-12 	101324.9999999921
-0.1013513513513517 	300.0000000000171 	6.16057718445051e-13 	101324.9999999921
-0.09884884884884926 	299.9999999999375 	3.96484580445103e-12 	101324.9999999921
-0.09634634634634676 	299.9999999999033 	1.295705272917775e-12 	101324.9999999922
-0.09384384384384425 	299.9999999999327 	3.629780668051943e-12 	101324.9999999925
-0.09134134134134177 	300.0000000000226 	1.372023035626676e-12 	101324.9999999924
-0.08883883883883925 	300.0000000000068 	3.065709119940098e-12 	101324.9999999923
-0.08633633633633674 	299.9999999999551 	1.605313574246514e-12 	101324.9999999924
-0.08383383383383426 	300.0000000000073 	2.098015037045556e-12 	101324.9999999923
-0.08133133133133173 	299.999999999966 	2.492567742596106e-12 	101324.9999999921
-0.07882882882882926 	299.9999999998954 	2.920121738417099e-12 	101324.9999999917
-0.07632632632632676 	299.9999999999615 	3.099466359433188e-12 	101324.9999999918
-0.07382382382382424 	299.9999999999026 	3.574136685737072e-12 	101324.999999992
-0.07132132132132173 	300.0000000000147 	3.212691580504865e-12 	101324.9999999924
-0.06881881881881925 	299.9999999999677 	3.544729243642688e-12 	101324.9999999923
-0.06631631631631671 	299.9999999999039 	2.979166207906268e-12 	101324.9999999923
-0.06381381381381425 	299.9999999999624 	2.886093674432055e-12 	101324.9999999923
-0.06131131131131173 	299.9999999999646 	3.000683749183563e-12 	101324.9999999921
-0.05880880880880923 	299.9999999999152 	2.343424784736758e-12 	101324.9999999926
-0.05630630630630672 	299.9999999999682 	1.867145004368309e-12 	101324.9999999926
-0.05380380380380424 	300.0000000000161 	1.943795431705592e-12 	101324.9999999928
-0.05130130130130173 	300.0000000000124 	1.811969345164591e-12 	101324.9999999928
-0.04879879879879922 	299.9999999999438 	1.536491552292808e-12 	101324.9999999927
-0.04629629629629672 	299.9999999999348 	6.978289006645668e-13 	101324.9999999928
-0.04379379379379422 	299.9999999999168 	1.142432445192699e-12 	101324.9999999925
-0.04129129129129173 	299.9999999999842 	5.279416198476686e-13 	101324.9999999924
-0.03878878878878922 	299.9999999999877 	1.334163482479944e-12 	101324.9999999924
-0.03628628628628671 	299.999999999986 	1.442716504349963e-12 	101324.9999999923
-0.03378378378378422 	299.9999999999296 	1.826992714037962e-12 	101324.9999999922
-0.03128128128128172 	299.9999999999669 	1.298914353567663e-12 	101324.9999999921
-0.02877877877877922 	299.9999999999641 	2.491951384261507e-12 	101324.9999999921
-0.0262762762762767 	299.9999999999081 	2.037441557010908e-12 	101324.9999999918
-0.02377377377377422 	300.0000000000195 	2.478164695452268e-12 	101324.9999999916
-0.0212712712712717 	299.9999999999077 	2.344878459769557e-12 	101324.9999999915
-0.01876876876876921 	299.9999999999636 	2.039652985293942e-12 	101324.9999999915
-0.01626626626626671 	300.0000000000111 	1.807703544106539e-12 	101324.9999999915
-0.0137637637637642 	299.9999999999669 	1.06756500001412e-12 	101324.9999999914
-0.0112612612612617 	300.0000000000163 	8.525282677410344e-13 	101324.9999999916
-0.008758758758759198 	299.999999999998 	1.304190120152282e-12 	101324.9999999916
-0.006256256256256697 	299.9999999998903 	1.482912246624499e-12 	101324.9999999917
-0.003753753753754195 	299.9999999999579 	4.574376488715321e-13 	101324.9999999917
-0.001251251251251693 	299.9999999999353 	7.51094749283615e-13 	101324.9999999916
0.00125125125125081 	299.9999999999616 	2.458920006545074e-13 	101324.9999999917
0.003753753753753312 	299.9999999999615 	6.339652429182988e-13 	101324.9999999919
0.006256256256255817 	299.9999999998961 	2.405089515028814e-12 	101324.9999999921
0.008758758758758317 	299.9999999999892 	2.393989335648445e-12 	101324.9999999921
0.01126126126126082 	300.0000000000019 	2.190574204149722e-12 	101324.9999999923
0.01376376376376332 	299.9999999999714 	1.697021797381206e-12 	101324.9999999925
0.01626626626626582 	300.0000000000086 	6.833208279411105e-13 	101324.9999999925
0.01876876876876833 	299.9999999999574 	2.066481230458309e-13 	101324.9999999923
0.02127127127127083 	299.9999999999695 	1.028398105632071e-12 	101324.9999999925
0.02377377377377332 	299.9999999999965 	1.638041599775877e-12 	101324.9999999929
0.02627627627627583 	299.9999999999078 	1.103451586120186e-12 	101324.9999999929
0.02877877877877833 	300.0000000000104 	1.832071720868402e-12 	101324.9999999927
0.03128128128128083 	299.9999999999551 	1.214077453967738e-12 	101324.9999999924
0.03378378378378333 	299.9999999999071 	1.85304610590016e-12 	101324.9999999925
0.03628628628628584 	299.9999999999754 	2.483079247725194e-12 	101324.9999999924
0.03878878878878834 	299.9999999999816 	2.949242640090258e-12 	101324.9999999925
0.04129129129129084 	299.9999999999794 	3.057309133120417e-12 	101324.9999999927
0.04379379379379333 	299.999999999954 	2.82636091132439e-12 	101324.9999999924
0.04629629629629585 	299.9999999998948 	2.839391179418151e-12 	101324.9999999925
0.04879879879879834 	299.9999999999609 	3.649604894338861e-12 	101324.9999999925
0.05130130130130085 	300.000000000014 	3.053506668492797e-12 	101324.9999999922
0.05380380380380335 	300.0000000000201 	2.883321523180854e-12 	101324.9999999919
0.05630630630630584 	299.9999999999944 	2.38611583494598e-12 	101324.9999999914
0.05880880880880836 	299.9999999999276 	2.240021769444519e-12 	101324.9999999914
0.06131131131131085 	299.9999999999658 	2.182497604891597e-12 	101324.9999999915
0.06381381381381336 	299.9999999999652 	2.197751146858128e-12 	101324.9999999917
0.06631631631631586 	299.9999999998973 	2.077147594040529e-12 	101324.9999999916
0.06881881881881835 	299.9999999999625 	2.437856783144649e-12 	101324.9999999913
0.07132132132132088 	299.9999999999864 	1.690496141269343e-12 	101324.9999999912
0.07382382382382337 	299.9999999999076 	1.890733142477773e-12 	101324.9999999915
0.07632632632632587 	299.9999999999711 	1.646431704154688e-12 	101324.9999999915
0.07882882882882837 	299.9999999999404 	1.581598357464792e-12 	101324.9999999912
0.08133133133133086 	299.9999999999775 	1.897677036941313e-12 	101324.9999999914
0.08383383383383337 	299.9999999999851 	1.797363543780767e-12 	101324.9999999915
0.08633633633633589 	299.9999999999092 	2.790494042722665e-12 	101324.999999991
0.08883883883883838 	300.0000000000053 	3.417992671196265e-12 	101324.9999999911
0.09134134134134086 	299.9999999999781 	2.587887199434684e-12 	101324.9999999909
0.09384384384384339 	299.9999999999006 	3.534853218468755e-12 	101324.9999999913
0.09634634634634588 	299.9999999999673 	3.695621480475663e-12 	101324.9999999915
0.09884884884884838 	299.9999999999775 	4.006113807240273e-12 	101324.9999999915
0.1013513513513509 	300.0000000000186 	3.961089694750437e-12 	101324.9999999918
0.1038538538538534 	299.9999999999608 	3.968015508993339e-12 	101324.9999999918
0.1063563563563559 	300.000000000003 	4.105460845018227e-12 	101324.9999999916
0.1088588588588584 	300.0000000000256 	2.811904069974877e-12 	101324.9999999916
0.1113613613613609 	299.99999999993 	2.515710359640346e-12 	101324.9999999918
0.1138638638638634 	299.9999999999443 	2.251408184098646e-12 	101324.9999999917
0.1163663663663659 	299.9999999999496 	2.278631343149619e-12 	101324.9999999921
0.1188688688688684 	299.9999999999827 	1.577902019494873e-12 	101324.9999999923
0.1213713713713709 	300.0000000000002 	2.057753457212108e-13 	101324.9999999922
0.1238738738738734 	299.9999999999296 	5.504244831542633e-13 	101324.9999999919
0.1263763763763759 	299.9999999999845 	7.497224296295267e-13 	101324.9999999919
0.1288788788788784 	299.9999999999858 	1.822709824992061e-13 	101324.9999999919
0.1313813813813809 	299.9999999999804 	1.248699283497688e-12 	101324.9999999917
0.1338838838838834 	299.9999999999789 	1.846621924845196e-12 	101324.9999999916
0.1363863863863859 	300.0000000000142 	1.499814351406972e-12 	101324.9999999915
0.1388888888888884 	300.0000000000402 	1.913368501799836e-12 	101324.9999999913
0.1413913913913909 	300.000000000006 	1.260929648567832e-12 	101324.9999999915
0.1438938938938934 	299.9999999999927 	1.990041782669859e-12 	101324.9999999915
0.1463963963963959 	299.9999999999575 	1.546030381584399e-12 	101324.9999999917
0.1488988988988985 	299.9999999999156 	3.636328016294688e-12 	101324.9999999919
0.1514014014014009 	299.9999999999707 	3.252418046875102e-12 	101324.9999999917
0.1539039039039035 	299.9999999999672 	5.979062477110761e-12 	101324.9999999919
0.1564064064064059 	299.9999999999334 	3.69994095103382e-12 	101324.9999999921
0.1589089089089084 	299.9999999999777 	7.478026218458937e-12 	101324.9999999923
0.1614114114114109 	299.9999999999735 	4.457802480731982e-12 	101324.9999999921
0.1639139139139134 	299.9999999999172 	6.055982710156422e-12 	101324.9999999922
0.166416416416416 	300.0000000000056 	5.495986644025777e-12 	101324.9999999918
0.1689189189189185 	300.0000000000329 	5.160287418067844e-12 	101324.9999999918
0.1714214214214209 	300.0000000000065 	5.587391348397645e-12 	101324.9999999915
0.1739239239239235 	299.9999999999905 	3.675189802267239e-12 	101324.9999999914
0.1764264264264259 	299.999999999976 	5.055447726247748e-12 	101324.9999999912
0.1789289289289284 	299.9999999999996 	2.264030250399632e-12 	101324.9999999914
0.181431431431431 	299.999999999964 	4.899839330762571e-12 	101324.9999999914
0.1839339339339334 	299.9999999999689 	2.608597433324764e-12 	101324.9999999915
0.186436436436436 	299.9999999999322 	3.635353976974181e-12 	101324.9999999918
0.1889389389389385 	299.9999999999789 	2.680517813024783e-12 	101324.9999999917
0.191441441441441 	299.9999999999762 	2.211878621429706e-12 	101324.9999999924
0.1939439439439434 	299.9999999999263 	2.782879357344256e-12 	101324.9999999924
0.196446446446446 	299.9999999999482 	1.155006099003259e-12 	101324.9999999924
0.1989489489489485 	299.9999999999623 	3.562248237483264e-12 	101324.9999999924
0.2014514514514509 	299.9999999999833 	2.052321624259486e-12 	101324.9999999918
0.2039539539539535 	299.9999999999948 	3.832759350018661e-12 	101324.9999999919
0.2064564564564559 	299.999999999959 	2.820330833770957e-12 	101324.9999999918
0.2089589589589585 	299.999999999989 	3.583501941392206e-12 	101324.9999999916
0.211461461461461 	299.9999999999342 	4.073300386299356e-12 	101324.9999999915
0.2139639639639635 	299.9999999999774 	2.750367256786816e-12 	101324.9999999913
0.2164664664664659 	300.0000000000002 	3.456288270649545e-12 	101324.9999999914
0.2189689689689684 	300.0000000000001 	1.758408815715954e-12 	101324.9999999917
0.221471471471471 	299.9999999999941 	3.916973460270304e-12 	101324.9999999916
0.2239739739739735 	299.9999999999585 	2.018358108581833e-12 	101324.9999999916
0.226476476476476 	299.9999999999776 	3.419333184877392e-12 	101324.9999999921
0.2289789789789785 	299.9999999999956 	2.169914593964427e-12 	101324.9999999922
0.231481481481481 	299.9999999999893 	1.949087946457526e-12 	101324.9999999923
0.2339839839839835 	299.9999999999831 	2.808528201258274e-12 	101324.9999999918
0.236486486486486 	300.000000000024 	2.098816178010793e-12 	101324.9999999916
0.2389889889889885 	300.000000000003 	3.104908528059006e-12 	101324.9999999916
0.241491491491491 	299.9999999999284 	1.227084769506656e-12 	101324.9999999916
0.2439939939939935 	299.9999999999794 	4.552379216470722e-12 	101324.9999999916
0.246496496496496 	299.9999999999914 	2.369854205017087e-12 	101324.9999999914
0.2489989989989985 	300.000000000038 	3.985635023018402e-12 	101324.9999999914
0.251501501501501 	300.0000000000325 	2.599094354309581e-12 	101324.9999999914
0.2540040040040035 	299.9999999999938 	2.008426407025144e-12 	101324.9999999915
0.256506506506506 	300.0000000000268 	2.287377972064369e-12 	101324.9999999914
0.2590090090090086 	299.9999999999229 	5.672044635628606e-13 	101324.9999999915
0.261511511511511 	300.0000000000016 	2.676652845730296e-12 	101324.9999999915
0.2640140140140135 	299.9999999999937 	8.6760351990615e-13 	101324.9999999913
0.2665165165165161 	299.9999999999369 	2.544891379069826e-12 	101324.9999999916
0.2690190190190185 	300.0000000000051 	1.719209361494358e-12 	101324.9999999915
0.271521521521521 	300.0000000000186 	1.779063700903245e-12 	101324.9999999911
0.2740240240240235 	300.0000000000205 	1.335859051099367e-12 	101324.9999999911
0.276526526526526 	300.0000000000124 	3.916451762352511e-13 	101324.9999999913
0.2790290290290286 	299.9999999999474 	1.221362759036164e-12 	101324.9999999912
0.281531531531531 	299.9999999999314 	7.268693356647111e-13 	101324.9999999911
0.2840340340340335 	299.9999999999874 	1.702134571401524e-12 	101324.9999999911
0.2865365365365361 	299.9999999999663 	6.975857583605784e-13 	101324.9999999911
0.2890390390390385 	299.9999999999963 	2.29178228714507e-12 	101324.9999999911
0.291541541541541 	299.9999999999969 	2.493457200717941e-12 	101324.999999991
0.2940440440440436 	299.9999999999937 	1.694221080340255e-12 	101324.9999999913
0.296546546546546 	299.9999999999952 	2.523548426417342e-12 	101324.9999999913
0.2990490490490486 	299.9999999999399 	1.169276161067025e-12 	101324.9999999916
0.3015515515515511 	300.0000000000288 	3.326611079420199e-12 	101324.9999999914
0.3040540540540535 	299.999999999999 	2.615959947611931e-12 	101324.9999999912
0.3065565565565562 	300.0000000000014 	3.65558758439183e-12 	101324.9999999912
0.3090590590590585 	299.9999999999922 	2.397112957604516e-12 	101324.9999999909
0.3115615615615611 	299.9999999999437 	3.153494357648569e-12 	101324.999999991
0.3140640640640635 	300.0000000000036 	1.281572424032793e-12 	101324.9999999907
0.316566566566566 	299.9999999999921 	1.951632823544876e-12 	101324.9999999908
0.3190690690690687 	299.9999999999517 	1.283202515839329e-12 	101324.9999999907
0.3215715715715711 	300.0000000000072 	1.954361584877015e-12 	101324.9999999908
0.3240740740740735 	299.999999999992 	1.047094139364091e-12 	101324.9999999909
0.326576576576576 	299.9999999999039 	1.264631084137517e-12 	101324.9999999911
0.3290790790790786 	300.0000000000068 	6.457668130766685e-13 	101324.9999999912
0.3315815815815811 	300.0000000000319 	9.213078282800211e-13 	101324.9999999913
0.3340840840840836 	299.999999999987 	3.52402025185999e-13 	101324.9999999916
0.3365865865865861 	300.0000000000489 	1.401308353659705e-12 	101324.9999999917
0.3390890890890886 	300.0000000000447 	7.818612844379702e-13 	101324.9999999916
0.3415915915915911 	300.0000000000016 	8.768572962205253e-13 	101324.9999999917
0.3440940940940935 	299.9999999999581 	1.213854084096244e-12 	101324.9999999918
0.3465965965965962 	300.0000000000369 	1.020178006892902e-12 	101324.9999999917
0.3490990990990985 	300.0000000000281 	8.40148963293363e-13 	101324.9999999916
0.3516016016016011 	299.999999999986 	1.354756956769006e-13 	101324.9999999915
0.3541041041041035 	300.0000000000037 	4.713697038401076e-13 	101324.9999999913
0.3566066066066061 	299.9999999999621 	1.021372997211639e-12 	101324.9999999912
0.3591091091091085 	299.9999999999263 	6.187654503408424e-13 	101324.999999991
0.3616116116116112 	299.999999999948 	1.69051098714629e-12 	101324.9999999911
0.3641141141141137 	299.9999999999396 	1.990620074390947e-12 	101324.9999999909
0.3666166166166161 	299.9999999999258 	2.041723120063555e-12 	101324.9999999908
0.3691191191191185 	300.0000000000333 	3.64915413485005e-12 	101324.9999999906
0.371621621621621 	300.0000000000113 	1.490328130801569e-12 	101324.9999999905
0.3741241241241237 	300.0000000000413 	2.305188055954329e-12 	101324.9999999903
0.3766266266266261 	300.0000000000246 	8.709157122666274e-13 	101324.9999999903
0.3791291291291286 	299.9999999999847 	2.621367083218625e-12 	101324.9999999905
0.3816316316316311 	299.9999999999264 	1.125738050649444e-12 	101324.9999999905
0.3841341341341336 	300.0000000000103 	3.00333908872465e-12 	101324.9999999904
0.3866366366366362 	299.9999999999963 	1.263429219041931e-12 	101324.9999999904
0.3891391391391387 	299.9999999999612 	3.003120174545387e-12 	101324.9999999904
0.391641641641641 	299.9999999999954 	1.716206278346276e-12 	101324.9999999904
0.3941441441441436 	300.0000000000089 	2.133909731533785e-12 	101324.9999999905
0.3966466466466462 	299.9999999999984 	3.190467308174925e-13 	101324.9999999905
0.3991491491491486 	299.9999999999481 	1.479125450524454e-12 	101324.9999999903
0.4016516516516512 	299.9999999999242 	5.184388027055976e-13 	101324.9999999902
0.4041541541541536 	299.999999999951 	1.619818616077671e-12 	101324.9999999905
0.4066566566566561 	299.9999999999495 	6.615398272732597e-13 	101324.9999999907
0.4091591591591587 	299.9999999999839 	9.356162174220658e-13 	101324.9999999906
0.4116616616616612 	299.9999999999962 	1.623852617068091e-12 	101324.9999999907
0.4141641641641635 	300.0000000000408 	1.021892191025639e-12 	101324.9999999908
0.4166666666666662 	299.9999999999961 	1.235230787066077e-12 	101324.9999999908
0.4191691691691687 	299.9999999999463 	1.967699405756606e-12 	101324.9999999911
0.421671671671671 	300.0000000000084 	1.187237565668043e-12 	101324.9999999912
0.4241741741741737 	299.9999999999753 	3.022577299495722e-12 	101324.9999999913
0.4266766766766761 	299.9999999999571 	2.177245350590635e-12 	101324.9999999913
0.4291791791791785 	300.000000000021 	3.916660867591467e-12 	101324.9999999915
0.4316816816816812 	300.0000000000148 	1.958420898143453e-12 	101324.9999999915
0.4341841841841836 	299.9999999999878 	3.797235419624081e-12 	101324.9999999912
0.4366866866866862 	299.9999999999249 	1.274511762600595e-12 	101324.9999999911
0.4391891891891885 	299.9999999999908 	2.11781239028433e-12 	101324.9999999909
0.4416916916916913 	299.9999999999874 	1.219756307609016e-12 	101324.9999999907
0.4441941941941936 	299.9999999999896 	2.353553410106274e-12 	101324.9999999905
0.4466966966966961 	299.9999999999225 	1.252563006529436e-12 	101324.9999999905
0.4491991991991987 	299.9999999999798 	1.765922169454644e-12 	101324.9999999904
0.4517017017017012 	299.9999999999812 	1.184118017829901e-12 	101324.9999999903
0.4542042042042035 	299.9999999999945 	1.159698379292959e-12 	101324.9999999903
0.4567067067067062 	299.9999999999961 	1.328129667356604e-12 	101324.9999999905
0.4592092092092087 	299.9999999999315 	1.315553199576946e-12 	101324.9999999907
0.4617117117117112 	300.0000000000229 	9.896394297121677e-13 	101324.9999999909
0.4642142142142137 	299.9999999999703 	5.199876244559154e-13 	101324.9999999911
0.4667167167167162 	299.999999999991 	3.991791816534653e-13 	101324.9999999909
0.4692192192192187 	299.9999999999598 	5.875192618935011e-13 	101324.999999991
0.4717217217217212 	300.000000000007 	4.700865432913536e-13 	101324.9999999909
0.4742242242242236 	299.9999999999619 	6.115039205376509e-13 	101324.9999999907
0.4767267267267262 	299.9999999999658 	3.281474922628943e-13 	101324.9999999905
0.4792292292292287 	300.0000000000177 	2.84098806025478e-13 	101324.9999999908
0.4817317317317312 	300.0000000000309 	6.213149384181622e-13 	101324.999999991
0.4842342342342336 	299.999999999987 	5.15153745193569e-13 	101324.9999999911
0.4867367367367362 	299.9999999999607 	1.427449578115279e-12 	101324.9999999913
0.4892392392392387 	300.0000000000271 	1.037384709250211e-12 	101324.9999999916
0.4917417417417412 	300.0000000000046 	2.163982217221932e-12 	101324.9999999915
0.4942442442442437 	299.9999999999161 	9.237980011525211e-13 	101324.9999999916
0.4967467467467462 	299.9999999999374 	2.077192074094976e-12 	101324.9999999917
0.4992492492492487 	299.9999999999273 	6.106980653108891e-13 	101324.9999999915
0.5017517517517511 	299.9999999999579 	1.064945261536862e-12 	101324.999999991
0.5042542542542537 	299.9999999999635 	6.544352656841344e-13 	101324.9999999911
0.5067567567567562 	299.9999999999466 	1.249782377501434e-12 	101324.9999999909
0.5092592592592589 	299.9999999999761 	1.780910338538427e-12 	101324.9999999909
0.5117617617617611 	299.9999999999656 	1.375393795315784e-12 	101324.9999999908
0.5142642642642637 	299.9999999999887 	2.919835691948535e-12 	101324.9999999909
0.5167667667667663 	299.9999999999752 	1.521708488430361e-12 	101324.999999991
0.5192692692692688 	299.9999999999278 	4.123489376350422e-12 	101324.9999999912
0.5217717717717714 	299.9999999999471 	2.473821951139104e-12 	101324.9999999911
0.5242742742742736 	299.9999999999481 	3.559828787520118e-12 	101324.9999999913
0.5267767767767763 	299.9999999999619 	2.198929779578319e-12 	101324.9999999913
0.5292792792792789 	299.9999999999442 	1.776782704662844e-12 	101324.9999999914
0.5317817817817813 	299.999999999917 	1.995825076712356e-12 	101324.9999999915
0.5342842842842837 	300.0000000000131 	1.152731547866283e-12 	101324.9999999915
0.5367867867867864 	300.0000000000031 	1.301822254389098e-12 	101324.9999999915
0.5392892892892888 	299.999999999966 	8.068547535978186e-13 	101324.9999999915
0.5417917917917912 	300.0000000000068 	5.903341916098509e-13 	101324.9999999915
0.5442942942942938 	299.9999999999858 	1.662185180802529e-12 	101324.9999999916
0.5467967967967964 	299.9999999999473 	9.77950007690172e-13 	101324.9999999914
0.5492992992992988 	299.9999999999437 	1.787394529172206e-12 	101324.9999999912
0.5518018018018012 	299.9999999999455 	8.792488787407286e-13 	101324.9999999913
0.5543043043043039 	300.0000000000146 	1.882221947981333e-12 	101324.9999999914
0.5568068068068063 	299.9999999999888 	1.652724742397084e-12 	101324.9999999914
0.5593093093093087 	299.9999999999187 	2.501667612450439e-12 	101324.9999999914
0.5618118118118114 	299.9999999999648 	7.665846391716184e-13 	101324.9999999913
0.5643143143143137 	299.9999999999505 	1.251086228135391e-12 	101324.9999999913
0.5668168168168163 	299.9999999999923 	2.891122255660015e-13 	101324.9999999913
0.5693193193193188 	300.0000000000278 	5.52519624177064e-13 	101324.9999999911
0.5718218218218213 	300.0000000000236 	1.26420267514498e-12 	101324.999999991
0.5743243243243239 	300.0000000000097 	1.060469638706658e-12 	101324.9999999907
0.5768268268268262 	300.0000000000035 	2.543074495502663e-12 	101324.9999999909
0.5793293293293288 	299.9999999999438 	2.145216027899827e-12 	101324.9999999912
0.5818318318318314 	299.9999999999255 	2.757121220950124e-12 	101324.9999999914
0.5843343343343338 	299.9999999999844 	3.585911792489415e-12 	101324.9999999914
0.5868368368368363 	299.9999999999805 	2.205239671308582e-12 	101324.9999999917
0.5893393393393387 	299.9999999999551 	2.423985140045664e-12 	101324.999999992
0.5918418418418413 	299.999999999949 	1.719175905291845e-12 	101324.9999999922
0.5943443443443439 	300.000000000015 	1.836469238819295e-12 	101324.9999999923
0.5968468468468463 	300.0000000000117 	1.151277554441908e-12 	101324.999999992
0.5993493493493487 	300.0000000000297 	1.078063379717223e-12 	101324.9999999919
0.6018518518518514 	299.9999999999832 	1.39397921493972e-12 	101324.9999999917
0.6043543543543537 	299.9999999999943 	5.89828788665563e-13 	101324.9999999916
0.6068568568568564 	299.9999999999836 	1.246539621908609e-12 	101324.9999999918
0.6093593593593587 	299.9999999999407 	6.95459827793186e-13 	101324.9999999918
0.6118618618618614 	299.9999999999353 	9.799742490998806e-13 	101324.9999999919
0.6143643643643638 	300.0000000000186 	1.699150861938121e-12 	101324.9999999923
0.6168668668668662 	299.9999999999934 	1.557276692348852e-12 	101324.9999999925
0.6193693693693688 	299.9999999999642 	1.653570266292349e-12 	101324.9999999923
0.6218718718718714 	299.9999999999739 	1.392108150135923e-12 	101324.9999999921
0.6243743743743737 	299.9999999999466 	1.469109123796932e-12 	101324.9999999919
0.6268768768768762 	299.9999999999352 	1.049591243804562e-12 	101324.9999999917
0.629379379379379 	299.9999999999619 	5.75763212871309e-13 	101324.9999999918
0.6318818818818812 	299.9999999999859 	1.227792497836796e-12 	101324.9999999917
0.6343843843843838 	300.0000000000165 	1.797369289016328e-12 	101324.9999999916
0.6368868868868864 	299.9999999999861 	1.666937669429479e-12 	101324.9999999915
0.6393893893893888 	299.9999999999333 	3.191948813876706e-12 	101324.9999999914
0.6418918918918912 	299.9999999999994 	2.613248766440619e-12 	101324.9999999913
0.6443943943943939 	299.9999999999776 	3.267297567072029e-12 	101324.9999999914
0.6468968968968963 	299.9999999999862 	3.760407955627479e-12 	101324.9999999915
0.6493993993993988 	299.9999999999768 	2.224621104231066e-12 	101324.9999999915
0.6519019019019012 	299.999999999979 	3.586034258925858e-12 	101324.9999999916
0.6544044044044038 	299.9999999999143 	1.656000013753567e-12 	101324.9999999919
0.6569069069069065 	299.9999999999537 	2.987273252147928e-12 	101324.999999992
0.6594094094094087 	299.9999999999673 	1.725182198582046e-12 	101324.999999992
0.6619119119119113 	299.9999999999599 	2.195627367021171e-12 	101324.9999999921
0.664414414414414 	300.0000000000013 	1.246031117471729e-12 	101324.9999999922
0.6669169169169162 	300.0000000000147 	1.766658127484814e-12 	101324.9999999921
0.6694194194194188 	299.9999999999831 	8.776673163942667e-13 	101324.9999999923
0.6719219219219214 	299.999999999928 	1.468130563393822e-12 	101324.9999999923
0.674424424424424 	299.9999999999764 	6.036282074777417e-13 	101324.9999999922
0.6769269269269262 	299.9999999999304 	1.558157075920962e-12 	101324.9999999923
0.679429429429429 	300.0000000000032 	1.257986403561354e-12 	101324.9999999926
0.6819319319319311 	299.9999999999795 	2.152836082308205e-12 	101324.9999999923
0.6844344344344341 	299.9999999999923 	1.467890289526878e-12 	101324.9999999922
0.686936936936936 	299.9999999999881 	1.662743504513456e-12 	101324.9999999923
0.6894394394394392 	299.9999999999843 	9.278996573007227e-13 	101324.9999999923
0.6919419419419413 	299.9999999999874 	1.012443115921159e-12 	101324.9999999924
0.694444444444444 	299.9999999999451 	8.829312018351783e-13 	101324.9999999924
0.6969469469469463 	299.9999999999339 	4.910263426628586e-13 	101324.9999999924
0.6994494494494489 	299.9999999999283 	1.279475627717288e-12 	101324.9999999922
0.7019519519519515 	299.9999999999856 	1.509820386213128e-12 	101324.9999999922
0.7044544544544538 	299.999999999959 	2.141534410637057e-12 	101324.9999999921
0.7069569569569564 	299.9999999999952 	1.419434965575528e-12 	101324.999999992
0.7094594594594589 	299.9999999999678 	2.123006592828356e-12 	101324.999999992
0.7119619619619615 	299.9999999999196 	1.080559178701064e-12 	101324.9999999922
0.7144644644644638 	299.9999999999504 	2.489470069840526e-12 	101324.9999999926
0.7169669669669665 	299.9999999999253 	1.806576579439457e-12 	101324.9999999929
0.7194694694694688 	299.9999999999951 	2.689634948374057e-12 	101324.999999993
0.7219719719719715 	299.9999999999936 	1.471636401591566e-12 	101324.9999999931
0.7244744744744737 	300.0000000000023 	1.221870009494602e-12 	101324.9999999932
0.7269769769769764 	299.9999999999941 	1.234344359084943e-12 	101324.9999999933
0.7294794794794791 	299.9999999999879 	9.379380103826186e-13 	101324.9999999932
0.7319819819819813 	299.9999999999867 	1.065830834735901e-12 	101324.999999993
0.7344844844844839 	299.9999999999345 	6.600120609269425e-13 	101324.9999999929
0.7369869869869864 	299.9999999999529 	2.622749731334038e-13 	101324.9999999927
0.739489489489489 	299.9999999999437 	4.658067309290866e-13 	101324.9999999925
0.7419919919919914 	299.9999999999354 	1.238999826659205e-12 	101324.9999999925
0.7444944944944939 	299.9999999999775 	2.520710304902786e-12 	101324.9999999927
0.7469969969969963 	299.999999999973 	1.494228912631346e-12 	101324.9999999927
0.7494994994994989 	299.9999999999494 	2.831200949351378e-12 	101324.9999999926
0.7520020020020015 	299.9999999999764 	1.427505480564483e-12 	101324.9999999928
0.7545045045045039 	299.9999999999744 	2.912363796198947e-12 	101324.9999999929
0.7570070070070062 	299.9999999999487 	7.947352297900869e-13 	101324.999999993
0.7595095095095092 	299.999999999936 	1.414613118566076e-12 	101324.999999993
0.7620120120120112 	300.0000000000031 	1.173228421525839e-12 	101324.9999999929
0.7645145145145138 	299.9999999999868 	1.597517740713116e-12 	101324.9999999929
0.7670170170170165 	299.9999999999352 	1.923812730674848e-12 	101324.9999999929
0.7695195195195191 	299.9999999999349 	1.478789232969558e-12 	101324.9999999932
0.7720220220220213 	299.9999999999403 	2.66804421599553e-12 	101324.9999999933
0.7745245245245239 	299.9999999999387 	8.201597812493637e-13 	101324.9999999932
0.7770270270270263 	299.9999999999732 	2.225674480973084e-12 	101324.9999999931
0.779529529529529 	299.9999999999849 	1.649439274508916e-12 	101324.9999999931
0.7820320320320313 	299.9999999999762 	2.475355164107765e-12 	101324.9999999931
0.784534534534534 	299.9999999999989 	2.270640413094689e-12 	101324.9999999931
0.7870370370370364 	299.9999999999944 	1.543738678740325e-12 	101324.9999999932
0.7895395395395389 	299.9999999999804 	2.454886485239638e-12 	101324.9999999933
0.7920420420420413 	299.9999999999723 	1.776211794197421e-12 	101324.9999999932
0.794544544544544 	299.9999999999711 	2.715963591595964e-12 	101324.9999999933
0.7970470470470463 	299.9999999999984 	2.321962455295682e-12 	101324.9999999934
0.799549549549549 	299.999999999986 	3.113619063168399e-12 	101324.9999999934
0.8020520520520515 	299.9999999999925 	1.720839548931707e-12 	101324.9999999934
0.8045545545545539 	299.9999999999542 	4.029837881146115e-12 	101324.9999999936
0.8070570570570563 	299.9999999999848 	3.472435938265977e-12 	101324.9999999935
0.8095595595595589 	299.9999999999623 	4.145796891419706e-12 	101324.9999999937
0.8120620620620614 	299.9999999999433 	3.976123669301303e-12 	101324.9999999936
0.8145645645645638 	299.9999999999972 	3.506686895055015e-12 	101324.9999999934
0.8170670670670666 	299.9999999999893 	3.908671036990407e-12 	101324.9999999934
0.8195695695695689 	299.9999999999777 	2.825242969157793e-12 	101324.9999999935
0.8220720720720714 	299.9999999999524 	3.924523292030649e-12 	101324.9999999935
0.8245745745745739 	299.999999999994 	1.807799333332962e-12 	101324.9999999935
0.8270770770770765 	299.9999999999755 	3.019460190200745e-12 	101324.9999999934
0.8295795795795788 	299.9999999999532 	2.56216936681037e-12 	101324.9999999931
0.8320820820820815 	300.0000000000134 	3.389207342520832e-12 	101324.9999999933
0.834584584584584 	300.0000000000055 	2.750410241188171e-12 	101324.9999999934
0.8370870870870865 	299.9999999999783 	2.679943399964483e-12 	101324.9999999933
0.8395895895895891 	299.9999999999379 	2.902552144738602e-12 	101324.9999999933
0.8420920920920915 	299.9999999999442 	2.59479705107231e-12 	101324.9999999934
0.844594594594594 	299.9999999999417 	3.1395867738388e-12 	101324.9999999932
0.8470970970970964 	299.9999999999624 	2.840888104410653e-12 	101324.9999999929
0.8495995995995991 	299.9999999999905 	2.090074212889292e-12 	101324.9999999931
0.8521021021021015 	299.9999999999829 	2.220253609870138e-12 	101324.9999999934
0.8546046046046039 	299.9999999999797 	1.748255035486405e-12 	101324.9999999933
0.8571071071071066 	299.9999999999993 	3.438666194451524e-12 	101324.9999999931
0.8596096096096089 	299.9999999999646 	2.028601497968942e-12 	101324.9999999932
0.8621121121121116 	299.999999999938 	2.745046259316442e-12 	101324.9999999932
0.8646146146146139 	299.9999999999928 	7.710977267729269e-13 	101324.9999999931
0.8671171171171166 	299.9999999999755 	1.29481119563948e-12 	101324.9999999931
0.8696196196196189 	299.9999999999553 	5.38646110366617e-13 	101324.9999999931
0.8721221221221216 	299.9999999999825 	1.239382552478812e-12 	101324.9999999933
0.874624624624624 	300.0000000000012 	1.682520727955535e-12 	101324.9999999932
0.8771271271271264 	299.9999999999988 	2.020753713725149e-12 	101324.9999999934
0.879629629629629 	300.0000000000059 	3.099099796575764e-12 	101324.9999999937
0.8821321321321317 	299.9999999999851 	2.212281267393883e-12 	101324.999999994
0.8846346346346339 	299.9999999999314 	4.079448766810431e-12 	101324.9999999939
0.8871371371371364 	299.9999999999606 	2.539688492069105e-12 	101324.9999999938
0.8896396396396391 	299.9999999999676 	3.870469022386821e-12 	101324.9999999938
0.8921421421421414 	299.9999999999721 	2.812786424353919e-12 	101324.9999999938
0.8946446446446441 	299.9999999999847 	3.526450031768621e-12 	101324.9999999937
0.8971471471471464 	299.9999999999987 	2.728999393437359e-12 	101324.9999999937
0.8996496496496489 	299.9999999999788 	2.408309767589714e-12 	101324.9999999936
0.9021521521521517 	299.9999999999696 	3.353869774619074e-12 	101324.9999999936
0.9046546546546541 	299.999999999999 	3.236216225275347e-12 	101324.9999999937
0.9071571571571564 	299.99999999996 	3.567286515005731e-12 	101324.9999999937
0.9096596596596589 	299.9999999999597 	3.366297274749478e-12 	101324.9999999937
0.9121621621621616 	300.0000000000069 	3.189175468054252e-12 	101324.9999999935
0.9146646646646639 	299.999999999982 	3.473696444385003e-12 	101324.9999999937
0.9171671671671666 	299.9999999999533 	3.839023437438828e-12 	101324.9999999939
0.9196696696696689 	299.999999999999 	4.745160783704995e-12 	101324.9999999941
0.9221721721721714 	299.9999999999953 	3.390992065487938e-12 	101324.999999994
0.9246746746746741 	299.999999999943 	5.222714937584738e-12 	101324.9999999939
0.9271771771771765 	299.9999999999562 	3.381455792532801e-12 	101324.9999999939
0.9296796796796791 	299.999999999992 	4.991630002676995e-12 	101324.9999999939
0.9321821821821816 	299.9999999999698 	3.870933056909617e-12 	101324.9999999943
0.9346846846846838 	299.9999999999544 	4.568827947363077e-12 	101324.9999999945
0.9371871871871866 	300.000000000009 	3.713463037454602e-12 	101324.9999999946
0.9396896896896891 	300.0000000000081 	3.893688057413647e-12 	101324.9999999948
0.9421921921921914 	300.0000000000054 	4.088508347253826e-12 	101324.9999999947
0.9446946946946939 	299.9999999999751 	3.06776844955524e-12 	101324.9999999945
0.9471971971971965 	299.9999999999376 	4.657390107286969e-12 	101324.9999999944
0.9496996996996991 	299.9999999999673 	2.830644949465137e-12 	101324.9999999944
0.9522022022022016 	299.999999999979 	4.171271075777433e-12 	101324.9999999944
0.9547047047047038 	299.9999999999799 	3.74896891278363e-12 	101324.9999999942
0.9572072072072064 	299.9999999999691 	4.821952751994257e-12 	101324.9999999941
0.9597097097097093 	299.9999999999685 	4.54708550196615e-12 	101324.9999999939
0.9622122122122114 	299.9999999999611 	4.05406590660813e-12 	101324.9999999938
0.964714714714714 	299.9999999999593 	4.877740192145874e-12 	101324.9999999938
0.9672172172172167 	299.9999999999639 	4.62747550005417e-12 	101324.9999999937
0.969719719719719 	299.9999999999905 	5.47296796221933e-12 	101324.9999999937
0.9722222222222214 	299.9999999999789 	5.321648154448042e-12 	101324.9999999938
0.9747247247247239 	299.9999999999707 	5.938050506108478e-12 	101324.9999999938
0.9772272272272267 	300.0000000000001 	6.374134491395398e-12 	101324.9999999936
0.9797297297297292 	299.9999999999832 	6.345678388728998e-12 	101324.9999999936
0.9822322322322313 	299.9999999999865 	7.304661723285373e-12 	101324.9999999935
0.9847347347347344 	299.9999999999866 	5.887467000276144e-12 	101324.9999999936
0.9872372372372363 	299.9999999999471 	7.570639396317707e-12 	101324.9999999936
0.9897397397397389 	299.9999999999675 	5.60118204136774e-12 	101324.9999999936
0.9922422422422417 	299.9999999999561 	7.353354728005541e-12 	101324.9999999936
0.9947447447447441 	299.9999999999583 	6.383284402436933e-12 	101324.9999999936
0.9972472472472468 	299.9999999999745 	7.318294564598405e-12 	101324.9999999936
0.999749749749749 	299.9999999999692 	6.562790825675495e-12 	101324.9999999935
1.002252252252252 	299.9999999999766 	6.73414784986465e-12 	101324.9999999935
1.004754754754754 	299.9999999999899 	6.947003095945923e-12 	101324.9999999934
1.007257257257256 	299.9999999999683 	6.664478691410366e-12 	101324.9999999935
1.009759759759759 	299.9999999999587 	8.345693236462623e-12 	101324.9999999935
1.012262262262261 	299.9999999999605 	7.172210710359928e-12 	101324.9999999936
1.014764764764764 	299.999999999938 	8.818685664084303e-12 	101324.9999999938
1.017267267267267 	299.999999999932 	7.962053949126807e-12 	101324.9999999939
1.019769769769769 	299.9999999999716 	8.79569157353896e-12 	101324.9999999937
1.022272272272272 	299.9999999999806 	8.276961028387607e-12 	101324.9999999935
1.024774774774774 	299.9999999999787 	8.594994197208431e-12 	101324.9999999934
1.027277277277277 	299.9999999999773 	9.752035546162199e-12 	101324.9999999932
1.029779779779779 	300.0000000000053 	8.709825002555792e-12 	101324.999999993
1.032282282282282 	300.000000000006 	8.582166358195573e-12 	101324.9999999928
1.034784784784784 	299.9999999999979 	8.237267212744691e-12 	101324.9999999927
1.037287287287286 	299.9999999999727 	8.866830336436388e-12 	101324.9999999927
1.039789789789789 	299.9999999999765 	8.570579467436227e-12 	101324.9999999929
1.042292292292291 	300.0000000000041 	8.045087187185898e-12 	101324.9999999929
1.044794794794794 	300.0000000000143 	7.498332291976875e-12 	101324.9999999929
1.047297297297296 	300.0000000000284 	6.575769274667418e-12 	101324.9999999933
1.049799799799799 	299.9999999999936 	7.519004272116967e-12 	101324.9999999935
1.052302302302302 	299.999999999962 	5.202419542638963e-12 	101324.9999999933
1.054804804804804 	299.9999999999434 	6.112952709082947e-12 	101324.9999999932
1.057307307307306 	299.9999999999357 	5.452444095726876e-12 	101324.9999999933
1.059809809809809 	299.9999999999689 	6.69171005655842e-12 	101324.9999999935
1.062312312312312 	299.9999999999665 	6.47568208584884e-12 	101324.9999999937
1.064814814814814 	299.9999999999616 	6.638953231693066e-12 	101324.9999999937
1.067317317317317 	299.9999999999361 	5.887392541156282e-12 	101324.9999999933
1.069819819819819 	299.9999999999375 	5.653797390316753e-12 	101324.9999999931
1.072322322322321 	299.9999999999948 	7.356789004904278e-12 	101324.999999993
1.074824824824824 	300.0000000000107 	6.326567555134014e-12 	101324.999999993
1.077327327327327 	300.0000000000244 	7.706901124521455e-12 	101324.9999999928
1.079829829829829 	300.0000000000353 	6.827544128618102e-12 	101324.9999999927
1.082332332332332 	300.000000000004 	7.269060392154728e-12 	101324.9999999927
1.084834834834834 	299.9999999999832 	7.081842596562312e-12 	101324.9999999926
1.087337337337337 	299.9999999999523 	6.991154481709095e-12 	101324.9999999927
1.089839839839839 	299.9999999999347 	8.11327717830182e-12 	101324.9999999928
1.092342342342342 	299.999999999969 	6.999623069438793e-12 	101324.9999999929
1.094844844844844 	299.999999999972 	7.647046870006679e-12 	101324.999999993
1.097347347347347 	299.9999999999434 	6.066786207332491e-12 	101324.9999999928
1.099849849849849 	299.9999999999288 	7.900036687957798e-12 	101324.9999999928
1.102352352352352 	299.9999999999602 	5.863156324753818e-12 	101324.9999999928
1.104854854854854 	299.9999999999803 	7.258246697456853e-12 	101324.9999999928
1.107357357357357 	299.9999999999627 	5.821422399367499e-12 	101324.999999993
1.109859859859859 	299.999999999958 	7.22723997529925e-12 	101324.9999999932
1.112362362362362 	300.0000000000146 	6.766874307334336e-12 	101324.9999999936
1.114864864864865 	300.0000000000147 	7.263710989687595e-12 	101324.9999999936
1.117367367367367 	299.9999999999677 	7.870722361293427e-12 	101324.9999999935
1.119869869869869 	299.9999999999345 	6.787684647394532e-12 	101324.9999999937
1.122372372372372 	299.9999999999659 	7.531922935867395e-12 	101324.9999999936
1.124874874874874 	299.9999999999623 	6.34085055812859e-12 	101324.9999999937
1.127377377377377 	299.9999999999728 	6.919007516841609e-12 	101324.9999999936
1.129879879879879 	300.0000000000181 	6.617313959475158e-12 	101324.9999999935
1.132382382382382 	300.0000000000279 	7.039863815707088e-12 	101324.9999999935
1.134884884884884 	300.0000000000047 	6.375698079942492e-12 	101324.9999999936
1.137387387387387 	300.00000000001 	5.649045397887404e-12 	101324.9999999937
1.139889889889889 	299.9999999999637 	5.844806921139354e-12 	101324.9999999935
1.142392392392392 	299.999999999954 	5.102014884580682e-12 	101324.9999999935
1.144894894894894 	300.0000000000117 	6.478822893571842e-12 	101324.9999999935
1.147397397397397 	299.9999999999989 	5.864557908468642e-12 	101324.9999999938
1.149899899899899 	299.9999999999471 	6.492855874688639e-12 	101324.9999999939
1.152402402402402 	299.9999999999332 	5.805037468076675e-12 	101324.9999999939
1.154904904904904 	299.9999999999629 	6.206161846088557e-12 	101324.9999999941
1.157407407407407 	299.9999999999627 	5.798520551051307e-12 	101324.9999999941
1.159909909909909 	299.9999999999398 	5.851755603513612e-12 	101324.9999999941
1.162412412412412 	299.9999999999364 	6.922647831924623e-12 	101324.9999999942
1.164914914914914 	299.9999999999619 	5.763277123841423e-12 	101324.9999999942
1.167417417417417 	299.9999999999683 	6.527413813478304e-12 	101324.999999994
1.169919919919919 	300.0000000000075 	5.898443363310647e-12 	101324.9999999939
1.172422422422422 	300.000000000031 	6.821432064269303e-12 	101324.9999999937
1.174924924924925 	299.9999999999905 	6.124902411236681e-12 	101324.9999999936
1.177427427427427 	299.9999999999653 	6.250929453693576e-12 	101324.9999999935
1.179929929929929 	300.000000000005 	6.6559434029135e-12 	101324.9999999933
1.182432432432432 	300.0000000000293 	5.39888854488515e-12 	101324.9999999932
1.184934934934934 	300.0000000000019 	6.055318490702027e-12 	101324.9999999934
1.187437437437437 	299.9999999999724 	5.202248724872642e-12 	101324.9999999937
1.189939939939939 	299.9999999999627 	5.85441181861689e-12 	101324.9999999939
1.192442442442442 	299.9999999999413 	5.460596628425175e-12 	101324.9999999939
1.194944944944944 	299.999999999953 	6.462240759706154e-12 	101324.9999999938
1.197447447447447 	300.0000000000015 	6.060280873851256e-12 	101324.9999999938
1.199949949949949 	300.0000000000061 	5.875880395074755e-12 	101324.9999999937
1.202452452452452 	299.999999999959 	6.316856576497547e-12 	101324.9999999937
1.204954954954955 	299.9999999999548 	5.390946466069583e-12 	101324.9999999939
1.207457457457457 	299.9999999999809 	6.286362823397481e-12 	101324.9999999938
1.20995995995996 	299.9999999999802 	5.670535043166939e-12 	101324.9999999937
1.212462462462462 	299.9999999999886 	6.52662747990087e-12 	101324.9999999937
1.214964964964964 	299.9999999999898 	5.78665769035866e-12 	101324.9999999939
1.217467467467467 	299.9999999999816 	6.191470697923262e-12 	101324.999999994
1.219969969969969 	299.9999999999657 	5.735751477572739e-12 	101324.999999994
1.222472472472472 	300.0000000000155 	6.391488175640526e-12 	101324.999999994
1.224974974974975 	300.0000000000374 	6.589415515413988e-12 	101324.9999999941
1.227477477477477 	299.9999999999899 	5.632683823327387e-12 	101324.9999999942
1.229979979979979 	299.9999999999764 	6.738638317533227e-12 	101324.9999999941
1.232482482482482 	299.9999999999602 	5.957653944926143e-12 	101324.9999999939
1.234984984984984 	299.9999999999619 	6.964103338880398e-12 	101324.9999999939
1.237487487487487 	299.9999999999768 	6.253080574370767e-12 	101324.999999994
1.239989989989989 	299.9999999999789 	6.852785009412883e-12 	101324.9999999941
1.242492492492492 	300.0000000000064 	6.973706334675071e-12 	101324.9999999941
1.244994994994994 	299.9999999999879 	5.912663393950111e-12 	101324.9999999939
1.247497497497497 	299.9999999999881 	6.872557431516014e-12 	101324.9999999939
1.249999999999999 	300 	6.513259495199531e-12 	101324.9999999938
