-1.25 	324.087683705084 	0.001593780621817312 	101325.0043982297
-1.247497497497497 	300.1753650063094 	0.001622811088970757 	101324.9890663894
-1.244994994994995 	300.0003921071457 	0.001696727464377254 	101325.0029972726
-1.242492492492492 	299.9999933382554 	0.001756864412175835 	101324.9914927674
-1.23998998998999 	300.0000020853372 	0.001796713591400442 	101325.0024450121
-1.237487487487487 	299.9999929375728 	0.001814650487567193 	101324.9916798918
-1.234984984984985 	299.9999993104904 	0.001814537689111256 	101324.9991617324
-1.232482482482482 	299.9999929940562 	0.001799688451942886 	101324.9917365628
-1.22997997997998 	299.999999775556 	0.001771675993725467 	101324.9997155381
-1.227477477477477 	299.9999950660556 	0.001734898298498623 	101324.9941855389
-1.224974974974975 	299.999999413915 	0.001688995308080515 	101324.9992955294
-1.222472472472472 	299.9999949667746 	0.001633391087125404 	101324.994066718
-1.21996996996997 	299.9999984685349 	0.001574487413967164 	101324.9981798655
-1.217467467467467 	299.9999953852679 	0.001510306525337271 	101324.9945547541
-1.214964964964965 	299.9999988236478 	0.001441498528597304 	101324.9985997537
-1.212462462462462 	299.9999964686124 	0.00137196198859537 	101324.9958332936
-1.20995995995996 	299.9999989972895 	0.001300496563078559 	101324.9988099074
-1.207457457457457 	299.999996523404 	0.001227190901379004 	101324.9958982535
-1.204954954954955 	299.999998280344 	0.001156637459466172 	101324.997965245
-1.202452452452452 	299.9999960827188 	0.001083893731975998 	101324.9953740188
-1.19994994994995 	299.9999977812584 	0.001014875342920166 	101324.9973750867
-1.197447447447447 	299.9999961562722 	0.0009460049150034915 	101324.9954594212
-1.194944944944945 	299.9999979060573 	0.0008800000200166254 	101324.9975228389
-1.192442442442442 	299.999996608043 	0.0008159684688220051 	101324.995991588
-1.18993993993994 	299.9999981855265 	0.0007548230816988124 	101324.9978540709
-1.187437437437437 	299.9999969745396 	0.000695965485615168 	101324.9964239139
-1.184934934934935 	299.9999983293898 	0.0006406507555484192 	101324.9980242197
-1.182432432432432 	299.9999972060514 	0.0005873734045203879 	101324.9966966633
-1.17992992992993 	299.9999984271474 	0.00053811290831204 	101324.9981404776
-1.177427427427427 	299.9999974220741 	0.00049071159397259 	101324.9969520685
-1.174924924924925 	299.9999985165911 	0.0004473271637442397 	101324.998246879
-1.172422422422422 	299.9999975826914 	0.0004058343460066585 	101324.9971412623
-1.16991991991992 	299.9999985389969 	0.000368121413454265 	101324.9982731949
-1.167417417417417 	299.9999976962566 	0.0003321192946885852 	101324.9972787382
-1.164914914914915 	299.9999985839684 	0.000299903458114665 	101324.9983263757
-1.162412412412412 	299.9999978741034 	0.0002689544662039873 	101324.9974854329
-1.15990990990991 	299.9999986842722 	0.000241629564717833 	101324.9984446171
-1.157407407407407 	299.99999806247 	0.000215539112878269 	101324.9977088068
-1.154904904904904 	299.9999987854011 	0.0001924564803162761 	101324.9985639717
-1.152402402402403 	299.9999982705884 	0.0001706822906122745 	101324.9979550114
-1.1498998998999 	299.9999989298757 	0.0001515245178497942 	101324.9987350188
-1.147397397397397 	299.9999984923286 	0.0001334242943397549 	101324.9982173055
-1.144894894894895 	299.9999990408733 	0.0001177342283734372 	101324.998866271
-1.142392392392392 	299.9999986609362 	0.000102816787915343 	101324.9984171565
-1.13988988988989 	299.99999914307 	9.016921722510596e-05 	101324.9989872978
-1.137387387387387 	299.99999884291 	7.799907027345228e-05 	101324.9986319385
-1.134884884884885 	299.9999992411513 	6.773091235955735e-05 	101324.9991022106
-1.132382382382382 	299.9999990036571 	5.824248028370097e-05 	101324.9988213606
-1.12987987987988 	299.9999993652018 	4.994661133478541e-05 	101324.9992492044
-1.127377377377377 	299.9999992556949 	4.237819335693381e-05 	101324.9991204774
-1.124874874874875 	299.9999996190656 	3.594947422798536e-05 	101324.9995500116
-1.122372372372372 	299.9999995252009 	3.013902266421804e-05 	101324.9994386613
-1.11986986986987 	299.9999997237882 	2.499481572876398e-05 	101324.9996725577
-1.117367367367367 	299.9999996337079 	2.070547763442516e-05 	101324.9995660557
-1.114864864864865 	299.9999998305815 	1.688434843693023e-05 	101324.9997991058
-1.112362362362362 	299.9999998292344 	1.35838827442961e-05 	101324.9997984235
-1.10985985985986 	299.9999999898845 	1.057786138076498e-05 	101324.9999887007
-1.107357357357357 	300.0000000173312 	8.52093108142936e-06 	101325.000021246
-1.104854854854855 	300.0000002238114 	6.090549783391038e-06 	101325.0002644248
-1.102352352352353 	300.0000003448724 	4.866075890375778e-06 	101325.0004064454
-1.09984984984985 	300.0000002903069 	2.39572230204068e-06 	101325.0003415485
-1.097347347347347 	300.0000005763923 	1.274450960830936e-06 	101325.0006797942
-1.094844844844845 	300.0000005611412 	1.829633748013141e-06 	101325.0006619895
-1.092342342342342 	300.0000006620247 	1.909072241143744e-06 	101325.0007821584
-1.08983983983984 	300.0000007503742 	2.175264112957894e-06 	101325.0008873537
-1.087337337337337 	300.0000008399771 	2.434813402745793e-06 	101325.0009935884
-1.084834834834835 	300.0000009312795 	2.70049374466814e-06 	101325.0011013187
-1.082332332332332 	300.0000010295074 	2.982876095328266e-06 	101325.0012168437
-1.07982982982983 	300.0000011342118 	3.281773691185333e-06 	101325.0013398472
-1.077327327327327 	300.0000012401334 	3.587819402706837e-06 	101325.0014644993
-1.074824824824825 	300.0000013480309 	3.900932014403414e-06 	101325.0015919767
-1.072322322322323 	300.0000014581788 	4.218291296733992e-06 	101325.0017225637
-1.06981981981982 	300.0000015627132 	4.520859581358622e-06 	101325.0018465952
-1.067317317317317 	300.0000016569006 	4.797865550344791e-06 	101325.0019581844
-1.064814814814815 	300.0000017482114 	5.065854425174116e-06 	101325.0020660987
-1.062312312312312 	300.0000018447289 	5.344048190780944e-06 	101325.0021801462
-1.05980980980981 	300.0000019437362 	5.628349523252729e-06 	101325.0022973042
-1.057307307307307 	300.0000020394958 	5.906816400813674e-06 	101325.002410642
-1.054804804804805 	300.0000021351041 	6.186210760423202e-06 	101325.0025235272
-1.052302302302302 	300.0000022381982 	6.483922974592353e-06 	101325.002645126
-1.0497997997998 	300.0000023484324 	6.799221160246672e-06 	101325.002775376
-1.047297297297297 	300.0000024563444 	7.109687757299105e-06 	101325.0029031665
-1.044794794794795 	300.0000025553687 	7.399090712379419e-06 	101325.003020544
-1.042292292292292 	300.0000026500391 	7.676983985371611e-06 	101325.0031325175
-1.03978978978979 	300.0000027489497 	7.963767549641878e-06 	101325.0032492677
-1.037287287287287 	300.00000285349 	8.263750163141365e-06 	101325.0033727026
-1.034784784784785 	300.0000029570895 	8.561987296523739e-06 	101325.0034952366
-1.032282282282283 	300.0000030545103 	8.845951268274075e-06 	101325.0036106377
-1.02977977977978 	300.0000031488383 	9.122377295892693e-06 	101325.0037222891
-1.027277277277277 	300.0000032472494 	9.40786314456042e-06 	101325.0038385481
-1.024774774774775 	300.0000033511891 	9.705520994222537e-06 	101325.0039611281
-1.022272272272272 	300.0000034534324 	9.998446882333398e-06 	101325.0040818247
-1.01976976976977 	300.0000035465209 	1.026919186093917e-05 	101325.0041920974
-1.017267267267267 	300.0000036319831 	1.052177030239399e-05 	101325.0042936245
-1.014764764764765 	300.000003720157 	1.078134865066607e-05 	101325.0043980773
-1.012262262262262 	300.0000038207253 	1.107154092722429e-05 	101325.0045165658
-1.00975975975976 	300.0000039330964 	1.139115850992831e-05 	101325.0046486309
-1.007257257257257 	300.0000040463432 	1.171405597805509e-05 	101325.0047820563
-1.004754754754755 	300.0000041494125 	1.201283306940877e-05 	101325.0049043035
-1.002252252252252 	300.0000042401433 	1.228038040827805e-05 	101325.0050126615
-0.9997497497497498 	300.0000043244707 	1.252889200432029e-05 	101325.0051131655
-0.9972472472472473 	300.0000044089522 	1.277352412435142e-05 	101325.0052127474
-0.9947447447447449 	300.0000044951537 	1.301942119129811e-05 	101325.0053134587
-0.9922422422422421 	300.0000045801904 	1.326266208900359e-05 	101325.0054128581
-0.9897397397397399 	300.0000046625718 	1.350331300682233e-05 	101325.0055102585
-0.9872372372372376 	300.0000047474396 	1.375466473117098e-05 	101325.0056117643
-0.9847347347347346 	300.0000048421692 	1.403205449871884e-05 	101325.005725132
-0.9822322322322323 	300.0000049466221 	1.433159325591472e-05 	101325.0058489793
-0.9797297297297296 	300.0000050508773 	1.462723413431559e-05 	101325.0059712506
-0.9772272272272275 	300.0000051438751 	1.489198527754499e-05 	101325.0060796213
-0.9747247247247248 	300.0000052223966 	1.511963867427861e-05 	101325.0061714443
-0.9722222222222224 	300.0000052927084 	1.532827201450392e-05 	101325.0062549017
-0.9697197197197196 	300.0000053659294 	1.554602758095268e-05 	101325.0063427985
-0.9672172172172175 	300.0000054488464 	1.578797032539193e-05 	101325.0064423406
-0.9647147147147147 	300.0000055370107 	1.604073439078398e-05 	101325.0065474225
-0.9622122122122124 	300.0000056186697 	1.627499180581434e-05 	101325.0066438063
-0.9597097097097099 	300.00000568889 	1.647990996546674e-05 	101325.0067258584
-0.9572072072072073 	300.0000057570127 	1.667952026051188e-05 	101325.0068051844
-0.9547047047047047 	300.0000058358681 	1.690537480116028e-05 	101325.0068974009
-0.9522022022022023 	300.0000059248609 	1.715655395116823e-05 	101325.007002167
-0.9496996996996998 	300.000006010129 	1.739933119929152e-05 	101325.007102902
-0.9471971971971973 	300.0000060816193 	1.760856291005655e-05 	101325.0071873566
-0.9446946946946947 	300.0000061449924 	1.779688981983232e-05 	101325.0072621437
-0.9421921921921923 	300.000006212992 	1.799416172280349e-05 	101325.0073422822
-0.93968968968969 	300.0000062877718 	1.820616786089584e-05 	101325.0074305219
-0.9371871871871872 	300.0000063586998 	1.840842910055862e-05 	101325.0075144193
-0.9346846846846848 	300.0000064174224 	1.858118529029077e-05 	101325.0075840762
-0.9321821821821823 	300.000006469178 	1.873626494947231e-05 	101325.0076455295
-0.9296796796796799 	300.0000065252999 	1.890061822338501e-05 	101325.0077121591
-0.9271771771771771 	300.0000065886423 	1.90820085087285e-05 	101325.0077874028
-0.9246746746746748 	300.0000066519846 	1.926405846268211e-05 	101325.0078626001
-0.9221721721721724 	300.0000067099003 	1.943409114936683e-05 	101325.0079312172
-0.9196696696696698 	300.0000067671212 	1.960346506806498e-05 	101325.0079988823
-0.9171671671671672 	300.0000068325899 	1.979334365257011e-05 	101325.0080762099
-0.9146646646646649 	300.0000069071419 	2.000478893765355e-05 	101325.0081642241
-0.9121621621621623 	300.0000069795308 	2.020900958234389e-05 	101325.0082498209
-0.9096596596596597 	300.0000070352472 	2.036891626815013e-05 	101325.0083158938
-0.9071571571571573 	300.0000070693064 	2.047171633469255e-05 	101325.0083563128
-0.9046546546546547 	300.0000070916238 	2.054356287962957e-05 	101325.0083827823
-0.9021521521521524 	300.0000071204129 	2.063160455811032e-05 	101325.0084169073
-0.8996496496496498 	300.0000071672241 	2.076498013095357e-05 	101325.0084722816
-0.8971471471471473 	300.0000072260145 	2.092863825630243e-05 	101325.0085418619
-0.894644644644645 	300.0000072791945 	2.107912453510993e-05 	101325.0086048903
-0.892142142142142 	300.0000073167746 	2.119207712250365e-05 	101325.0086494508
-0.8896396396396397 	300.0000073484225 	2.129099864711781e-05 	101325.0086868818
-0.8871371371371374 	300.0000073921344 	2.141852259670967e-05 	101325.008738573
-0.8846346346346349 	300.0000074495754 	2.157583388659118e-05 	101325.0088065291
-0.8821321321321324 	300.0000074967989 	2.170233686315664e-05 	101325.0088625187
-0.8796296296296297 	300.0000075067837 	2.173289855537173e-05 	101325.0088745343
-0.8771271271271271 	300.0000074833537 	2.1680884451129e-05 	101325.0088468962
-0.8746246246246248 	300.0000074676371 	2.165178158359976e-05 	101325.0088280983
-0.8721221221221224 	300.0000075030269 	2.175407586053404e-05 	101325.0088696383
-0.8696196196196196 	300.0000075898958 	2.198598549970154e-05 	101325.0089722373
-0.8671171171171175 	300.0000076772444 	2.221635600193751e-05 	101325.0090756895
-0.8646146146146148 	300.0000077054538 	2.229436624871033e-05 	101325.0091094516
-0.8621121121121121 	300.0000076634723 	2.219356677777308e-05 	101325.0090600117
-0.8596096096096097 	300.0000076048501 	2.205195681403748e-05 	101325.0089905071
-0.857107107107107 	300.0000076039367 	2.205984348672431e-05 	101325.0089890403
-0.8546046046046049 	300.0000076895893 	2.228940951886274e-05 	101325.0090899596
-0.8521021021021022 	300.0000078146157 	2.261806744507397e-05 	101325.0092378219
-0.8495995995995997 	300.0000078910703 	2.281817565333833e-05 	101325.0093286877
-0.8470970970970974 	300.0000078612985 	2.274100380041493e-05 	101325.0092940722
-0.8445945945945946 	300.0000077469743 	2.244300339058315e-05 	101325.0091590792
-0.8420920920920922 	300.0000076345804 	2.214926599468416e-05 	101325.0090258457
-0.8395895895895897 	300.0000076094154 	2.208305537907606e-05 	101325.0089955439
-0.8370870870870872 	300.0000076913668 	2.229678582459054e-05 	101325.0090920392
-0.8345845845845846 	300.0000078199598 	2.263322619661245e-05 	101325.0092441274
-0.8320820820820823 	300.0000078999036 	2.284240195144147e-05 	101325.0093391682
-0.8295795795795798 	300.0000078700658 	2.276308493480984e-05 	101325.0093044854
-0.8270770770770772 	300.0000077470142 	2.243854428114522e-05 	101325.0091592224
-0.8245745745745746 	300.0000076143139 	2.208960725070423e-05 	101325.0090020899
-0.8220720720720721 	300.0000075670894 	2.1969056309227e-05 	101325.0089456032
-0.8195695695695699 	300.0000076507608 	2.219743422936351e-05 	101325.0090438745
-0.817067067067067 	300.0000078304 	2.268104523305661e-05 	101325.0092560737
-0.8145645645645651 	300.0000080086537 	2.315781439747564e-05 	101325.0094672055
-0.8120620620620621 	300.0000080783645 	2.333706658475313e-05 	101325.0095503851
-0.8095595595595597 	300.0000079772573 	2.305070531500034e-05 	101325.0094317282
-0.8070570570570572 	300.0000077212401 	2.234330547580712e-05 	101325.0091296718
-0.8045545545545546 	300.0000074005047 	2.146013909763625e-05 	101325.0087504413
-0.8020520520520523 	300.0000071391692 	2.074253853666946e-05 	101325.0084407406
-0.7995495495495494 	300.000007045652 	2.049150318267183e-05 	101325.0083290374
-0.7970470470470474 	300.0000071745435 	2.085742300804828e-05 	101325.0084802705
-0.7945445445445446 	300.0000075060723 	2.178426713234948e-05 	101325.0088713865
-0.7920420420420423 	300.0000079509234 	2.302606257523032e-05 	101325.009397084
-0.7895395395395397 	300.0000083825138 	2.423137763915938e-05 	101325.0099078069
-0.7870370370370371 	300.000008676704 	2.504996735166091e-05 	101325.0102566916
-0.7845345345345348 	300.0000087396488 	2.521468013625855e-05 	101325.0103325747
-0.7820320320320323 	300.0000085227244 	2.458613783417351e-05 	101325.0100776641
-0.7795295295295296 	300.0000080266506 	2.31650218904432e-05 	101325.0094926368
-0.7770270270270272 	300.0000072960667 	2.10757537806614e-05 	101325.0086299938
-0.7745245245245247 	300.0000064055505 	1.852763065798194e-05 	101325.0075778148
-0.7720220220220222 	300.000005441361 	1.576335621239536e-05 	101325.0064380549
-0.7695195195195199 	300.0000044831612 	1.300881347757888e-05 	101325.0053050284
-0.767017017017017 	300.0000035914267 	1.043791486438133e-05 	101325.0042502982
-0.7645145145145147 	300.0000028034851 	8.1603995859413e-06 	101325.0033181365
-0.7620120120120122 	300.0000021363244 	6.227684444487546e-06 	101325.0025287561
-0.7595095095095097 	300.000001591599 	4.646623043563832e-06 	101325.0018842222
-0.7570070070070072 	300.0000011609366 	3.394093943731545e-06 	101325.0013745156
-0.7545045045045048 	300.0000008300437 	2.429929961626599e-06 	101325.0009827958
-0.7520020020020022 	300.0000005822346 	1.706817922875017e-06 	101325.0006894692
-0.7494994994994997 	300.0000004010795 	1.177335036079566e-06 	101325.0004750017
-0.7469969969969972 	300.0000002715751 	7.981367159968448e-07 	101325.0003216271
-0.7444944944944945 	300.0000001808372 	5.321546992414732e-07 	101325.0002141902
-0.7419919919919924 	300.000000118519 	3.491881870043828e-07 	101325.0001403842
-0.7394894894894897 	300.0000000764606 	2.256345107319431e-07 	101325.0000906073
-0.7369869869869872 	300.0000000486342 	1.436504710595444e-07 	101325.0000576192
-0.7344844844844846 	300.0000000304654 	9.015319488202183e-08 	101325.0000361195
-0.7319819819819822 	300.0000000188564 	5.580057114145458e-08 	101325.0000223295
-0.7294794794794797 	300.0000000114939 	3.407462430089299e-08 	101325.0000136194
-0.7269769769769773 	300.0000000069356 	2.053885067128482e-08 	101325.0000081983
-0.7244744744744747 	300.0000000041322 	1.222287038129946e-08 	101325.000004872
-0.721971971971972 	300.0000000023785 	7.185321512043117e-09 	101325.0000028589
-0.7194694694694695 	300.0000000013882 	4.172720116046808e-09 	101325.0000016566
-0.7169669669669674 	300.000000000753 	2.394994540500455e-09 	101325.0000009476
-0.7144644644644647 	300.0000000004358 	1.358437252607237e-09 	101325.0000005349
-0.711961961961962 	300.0000000002639 	7.614830624294145e-10 	101325.0000002974
-0.7094594594594597 	300.0000000001538 	4.226291840773087e-10 	101325.0000001625
-0.7069569569569573 	300.000000000096 	2.305305457087846e-10 	101325.0000000867
-0.7044544544544545 	300.000000000065 	1.252069279150083e-10 	101325.0000000446
-0.7019519519519523 	300.000000000029 	6.67098742874471e-11 	101325.0000000215
-0.6994494494494495 	299.9999999999549 	3.529428863020407e-11 	101325.0000000092
-0.6969469469469471 	299.9999999999622 	1.758319573979882e-11 	101325.0000000026
-0.6944444444444446 	299.999999999976 	8.950288506675296e-12 	101324.9999999989
-0.6919419419419421 	300.0000000000276 	4.411075175482881e-12 	101324.9999999969
-0.6894394394394396 	299.9999999999949 	2.951888026469427e-12 	101324.9999999959
-0.6869369369369374 	300.0000000000067 	1.552589669907915e-12 	101324.9999999953
-0.6844344344344344 	300.0000000000161 	1.295199410045392e-12 	101324.9999999949
-0.6819319319319321 	299.9999999999668 	9.898321936503688e-13 	101324.9999999946
-0.6794294294294296 	299.9999999999527 	9.378456655790393e-13 	101324.9999999947
-0.6769269269269272 	299.9999999999315 	1.790090276114341e-12 	101324.9999999949
-0.6744244244244245 	299.9999999999703 	1.685557297783186e-12 	101324.9999999949
-0.6719219219219222 	299.9999999999629 	1.351024567239173e-12 	101324.9999999948
-0.6694194194194195 	299.9999999999974 	1.550075728872623e-12 	101324.9999999947
-0.6669169169169172 	300.0000000000147 	8.022479849631428e-13 	101324.9999999947
-0.6644144144144146 	299.9999999999728 	1.297351042043308e-12 	101324.9999999944
-0.661911911911912 	299.999999999971 	7.511564790495643e-13 	101324.9999999943
-0.6594094094094097 	299.9999999999799 	1.294671231299285e-12 	101324.999999994
-0.656906906906907 	299.9999999999486 	8.015087935431673e-13 	101324.9999999941
-0.6544044044044046 	299.9999999999549 	1.876544698610089e-12 	101324.9999999942
-0.6519019019019021 	299.9999999999852 	1.215608576940787e-12 	101324.9999999944
-0.6493993993993996 	300.0000000000194 	2.506115921725571e-12 	101324.9999999944
-0.6468968968968971 	300.0000000000277 	2.226631227436549e-12 	101324.9999999945
-0.6443943943943946 	299.9999999999995 	2.793841561944349e-12 	101324.9999999948
-0.6418918918918921 	299.999999999997 	2.09392198900902e-12 	101324.999999995
-0.6393893893893897 	299.9999999999985 	1.881222412335888e-12 	101324.9999999949
-0.6368868868868871 	299.9999999999853 	1.008450929321503e-12 	101324.9999999948
-0.6343843843843846 	299.9999999999923 	9.839392683870044e-13 	101324.9999999949
-0.6318818818818821 	299.9999999999604 	5.437457309414951e-13 	101324.9999999949
-0.6293793793793795 	300.0000000000016 	3.80220690787893e-13 	101324.9999999949
-0.6268768768768773 	300.0000000000181 	3.465983631565291e-13 	101324.9999999951
-0.6243743743743745 	299.9999999999819 	1.161851276073053e-12 	101324.9999999952
-0.6218718718718721 	300.0000000000052 	9.749242825620766e-13 	101324.9999999952
-0.6193693693693696 	299.9999999999503 	1.064701899414256e-12 	101324.9999999951
-0.6168668668668671 	299.9999999999819 	1.427455919505258e-12 	101324.9999999949
-0.6143643643643645 	300.000000000013 	9.886811172164276e-13 	101324.9999999947
-0.6118618618618621 	299.9999999999882 	8.925927726269306e-13 	101324.9999999946
-0.6093593593593596 	299.9999999999914 	5.690576123752332e-13 	101324.9999999945
-0.6068568568568571 	299.9999999999931 	6.891149243206772e-13 	101324.9999999944
-0.6043543543543546 	299.9999999999628 	3.78349869118961e-13 	101324.9999999942
-0.6018518518518521 	299.9999999999704 	7.401195386143466e-13 	101324.9999999939
-0.5993493493493496 	299.9999999999533 	9.764137004157705e-13 	101324.9999999939
-0.5968468468468471 	299.999999999961 	8.162071144117005e-13 	101324.9999999936
-0.5943443443443446 	299.9999999999937 	1.437554683334932e-12 	101324.9999999935
-0.591841841841842 	299.9999999999695 	1.524610828203418e-12 	101324.9999999935
-0.5893393393393397 	299.9999999999535 	1.544080783466043e-12 	101324.9999999937
-0.5868368368368371 	299.9999999999944 	2.632783611357292e-12 	101324.9999999938
-0.5843343343343346 	300.0000000000022 	1.688799954862463e-12 	101324.9999999939
-0.5818318318318321 	300.0000000000258 	3.312817664793313e-12 	101324.9999999939
-0.5793293293293297 	299.9999999999903 	1.258503555664238e-12 	101324.9999999938
-0.5768268268268271 	300.000000000006 	2.779941905338646e-12 	101324.9999999939
-0.5743243243243245 	300.0000000000169 	1.314976717780457e-12 	101324.9999999938
-0.5718218218218221 	300.0000000000149 	1.368172133397659e-12 	101324.9999999938
-0.5693193193193196 	300.0000000000348 	9.756397415536292e-13 	101324.9999999938
-0.5668168168168171 	299.9999999999882 	3.942727365528586e-13 	101324.999999994
-0.5643143143143147 	299.9999999999546 	1.130919035954586e-12 	101324.9999999942
-0.5618118118118121 	300.0000000000094 	6.075338507577646e-13 	101324.9999999943
-0.5593093093093094 	300.0000000000266 	1.106116653582042e-12 	101324.9999999945
-0.5568068068068072 	300.0000000000125 	1.214610492481115e-12 	101324.9999999945
-0.5543043043043046 	300.000000000011 	7.406610781395103e-13 	101324.9999999944
-0.551801801801802 	299.9999999999632 	8.296633095301869e-13 	101324.9999999944
-0.5492992992992995 	299.9999999999964 	8.99341054457054e-13 	101324.9999999943
-0.5467967967967969 	300.0000000000093 	5.919877116453521e-13 	101324.9999999942
-0.5442942942942947 	300.0000000000053 	9.967500801062691e-13 	101324.9999999941
-0.5417917917917919 	299.999999999966 	6.849308861693141e-13 	101324.999999994
-0.5392892892892895 	299.999999999945 	1.211083425852917e-12 	101324.9999999938
-0.536786786786787 	299.9999999999623 	1.36142514966399e-12 	101324.9999999937
-0.5342842842842846 	299.9999999999685 	1.627872335969754e-12 	101324.9999999936
-0.531781781781782 	299.9999999999457 	2.077151999809671e-12 	101324.9999999937
-0.5292792792792794 	299.9999999999408 	2.688184916538925e-12 	101324.9999999938
-0.526776776776777 	299.9999999999231 	2.537831878031973e-12 	101324.9999999939
-0.5242742742742745 	299.9999999999798 	4.621068663210444e-12 	101324.9999999938
-0.521771771771772 	300.0000000000134 	3.921691418532905e-12 	101324.999999994
-0.5192692692692695 	299.9999999999677 	5.187805948576716e-12 	101324.9999999943
-0.516766766766767 	300.0000000000031 	4.160534840234797e-12 	101324.9999999943
-0.5142642642642645 	299.9999999999814 	4.480196926499792e-12 	101324.9999999943
-0.511761761761762 	299.9999999999624 	3.557091608690764e-12 	101324.9999999944
-0.5092592592592596 	299.9999999999777 	3.684271468882174e-12 	101324.9999999945
-0.506756756756757 	299.9999999999511 	2.497012752612848e-12 	101324.9999999943
-0.5042542542542544 	299.9999999999891 	3.188168226150804e-12 	101324.9999999944
-0.5017517517517521 	300.0000000000197 	1.680349906801646e-12 	101324.9999999943
-0.4992492492492494 	300.0000000000223 	1.871853108557848e-12 	101324.9999999942
-0.496746746746747 	299.9999999999872 	1.890141369881468e-12 	101324.9999999941
-0.4942442442442445 	299.9999999999571 	1.005799460120687e-12 	101324.9999999941
-0.4917417417417421 	299.9999999999535 	1.325581955226541e-12 	101324.999999994
-0.4892392392392395 	299.9999999999634 	1.438686450467865e-12 	101324.9999999938
-0.486736736736737 	299.9999999999632 	1.43034674314671e-12 	101324.9999999939
-0.4842342342342345 	299.9999999999363 	1.28027365999572e-12 	101324.9999999938
-0.481731731731732 	300.0000000000296 	2.474079224017188e-12 	101324.9999999938
-0.4792292292292296 	300.0000000000182 	1.020475389917364e-12 	101324.9999999936
-0.4767267267267268 	299.9999999999674 	3.734472071410953e-12 	101324.9999999934
-0.4742242242242246 	299.9999999999989 	1.850955402629907e-12 	101324.9999999933
-0.471721721721722 	299.9999999999671 	3.302495816667617e-12 	101324.9999999933
-0.4692192192192195 	299.9999999999857 	1.630456102200807e-12 	101324.9999999935
-0.4667167167167169 	299.9999999999321 	2.265457950856228e-12 	101324.9999999934
-0.4642142142142145 	299.9999999999961 	1.03312155006613e-12 	101324.9999999935
-0.461711711711712 	300.0000000000143 	1.93349021841878e-12 	101324.9999999934
-0.4592092092092094 	300.0000000000093 	8.356972410617183e-13 	101324.9999999934
-0.456706706706707 	300.0000000000411 	1.82246830338341e-12 	101324.9999999935
-0.4542042042042045 	299.9999999999512 	1.040110158984576e-12 	101324.9999999937
-0.451701701701702 	299.9999999999603 	2.051250038960677e-12 	101324.9999999937
-0.4491991991991995 	299.9999999999671 	7.268576137608168e-13 	101324.9999999937
-0.4466966966966969 	299.9999999999641 	2.048272241587556e-12 	101324.9999999937
-0.4441941941941945 	299.9999999999928 	1.063249709569684e-12 	101324.9999999936
-0.441691691691692 	299.9999999999658 	2.347759334346521e-12 	101324.9999999936
-0.4391891891891895 	299.9999999999889 	1.829547230762482e-12 	101324.9999999934
-0.436686686686687 	299.999999999971 	3.57449859615872e-12 	101324.9999999934
-0.4341841841841846 	299.9999999999987 	1.729668729046895e-12 	101324.9999999933
-0.431681681681682 	299.9999999999626 	3.848428347718493e-12 	101324.9999999931
-0.4291791791791794 	299.9999999999437 	1.306973323880705e-12 	101324.999999993
-0.426676676676677 	299.9999999999308 	2.610221582428077e-12 	101324.9999999929
-0.4241741741741744 	299.9999999999719 	1.283306011225805e-12 	101324.9999999928
-0.421671671671672 	299.999999999999 	1.939805080138151e-12 	101324.9999999927
-0.4191691691691694 	300.0000000000339 	6.640499580430717e-13 	101324.9999999929
-0.4166666666666669 	300.0000000000412 	1.563534532677711e-12 	101324.9999999929
-0.4141641641641645 	299.9999999999519 	5.753856917010795e-13 	101324.9999999929
-0.411661661661662 	300.0000000000024 	1.590431749686185e-12 	101324.9999999932
-0.4091591591591594 	300.0000000000055 	1.175177834426163e-12 	101324.9999999935
-0.406656656656657 	299.9999999999646 	1.783894429401925e-12 	101324.9999999935
-0.4041541541541545 	300.0000000000113 	3.592298476282453e-13 	101324.9999999937
-0.401651651651652 	299.9999999999403 	2.585887087494004e-12 	101324.9999999938
-0.3991491491491494 	300.0000000000038 	1.555411312840709e-12 	101324.9999999936
-0.396646646646647 	299.9999999999675 	3.302798255996064e-12 	101324.9999999935
-0.3941441441441444 	299.9999999999802 	2.132008274934628e-12 	101324.9999999932
-0.3916416416416419 	299.9999999999438 	3.569701940166926e-12 	101324.999999993
-0.3891391391391395 	299.999999999967 	8.054553678109566e-13 	101324.9999999931
-0.3866366366366368 	299.9999999999662 	2.815139898416992e-12 	101324.9999999929
-0.3841341341341344 	299.9999999999972 	9.966385856939665e-13 	101324.9999999927
-0.381631631631632 	299.9999999999633 	1.626968510473323e-12 	101324.9999999925
-0.3791291291291294 	300.0000000000023 	6.824833650492221e-13 	101324.9999999926
-0.3766266266266269 	300.0000000000158 	3.310929619325536e-13 	101324.9999999928
-0.3741241241241244 	300.000000000018 	1.196772989873646e-12 	101324.9999999928
-0.371621621621622 	300.0000000000171 	1.025819528152187e-12 	101324.9999999927
-0.3691191191191194 	300.0000000000016 	2.10463848813371e-12 	101324.9999999927
-0.366616616616617 	299.9999999999999 	1.706486371883419e-12 	101324.9999999927
-0.3641141141141143 	299.9999999999757 	1.909550260506782e-12 	101324.9999999926
-0.3616116116116119 	299.9999999999599 	1.485479205160082e-12 	101324.9999999925
-0.3591091091091095 	299.9999999999888 	9.801378343044135e-13 	101324.9999999927
-0.356606606606607 	299.999999999992 	4.231961474038086e-13 	101324.9999999929
-0.3541041041041044 	299.99999999999 	9.035851629598904e-13 	101324.9999999928
-0.3516016016016019 	300.000000000009 	2.11544579139625e-12 	101324.9999999929
-0.3490990990990994 	299.9999999999921 	2.023297682302051e-12 	101324.9999999929
-0.346596596596597 	300.000000000027 	4.907287500251195e-12 	101324.999999993
-0.3440940940940944 	300.0000000000334 	3.508782414446818e-12 	101324.9999999931
-0.3415915915915919 	300.0000000000196 	6.076205006519463e-12 	101324.999999993
-0.3390890890890895 	299.9999999999864 	5.127205468417057e-12 	101324.9999999931
-0.3365865865865869 	300.0000000000163 	5.981127909212319e-12 	101324.9999999933
-0.3340840840840844 	299.9999999999977 	4.793921036489628e-12 	101324.9999999933
-0.3315815815815819 	300.0000000000164 	4.850675996108958e-12 	101324.9999999934
-0.3290790790790794 	300.0000000000168 	4.267606005733767e-12 	101324.9999999935
-0.3265765765765769 	299.9999999999465 	3.967818417922155e-12 	101324.9999999936
-0.3240740740740744 	300.0000000000005 	3.027964690187481e-12 	101324.9999999936
-0.3215715715715718 	300.0000000000097 	4.193398862450772e-12 	101324.9999999935
-0.3190690690690695 	299.9999999999508 	3.388017510217552e-12 	101324.9999999936
-0.3165665665665668 	299.9999999999929 	4.878146128835355e-12 	101324.9999999934
-0.3140640640640644 	300.0000000000052 	3.387426378320498e-12 	101324.999999993
-0.311561561561562 	299.999999999942 	6.164791816793234e-12 	101324.9999999927
-0.3090590590590593 	299.9999999999918 	2.308287318036173e-12 	101324.9999999925
-0.3065565565565568 	300.0000000000017 	6.732852511122885e-12 	101324.9999999926
-0.3040540540540545 	300.0000000000004 	1.573356291190128e-12 	101324.9999999927
-0.3015515515515518 	300.0000000000225 	5.829348601063316e-12 	101324.9999999924
-0.2990490490490494 	299.9999999999582 	2.616619627279211e-12 	101324.9999999926
-0.2965465465465469 	299.9999999999884 	4.589391137173517e-12 	101324.9999999926
-0.2940440440440444 	299.9999999999903 	3.464990059472128e-12 	101324.9999999927
-0.2915415415415418 	300.0000000000038 	3.952254140040189e-12 	101324.9999999928
-0.2890390390390395 	300.0000000000056 	4.736122591162201e-12 	101324.999999993
-0.2865365365365368 	299.9999999999824 	3.50812912987919e-12 	101324.9999999931
-0.2840340340340343 	299.9999999999948 	5.108880213404425e-12 	101324.9999999931
-0.2815315315315318 	299.9999999999465 	2.486331306935163e-12 	101324.9999999931
-0.2790290290290295 	299.9999999999742 	4.390253504722639e-12 	101324.9999999929
-0.2765265265265269 	300.000000000005 	3.760715663278837e-12 	101324.9999999926
-0.2740240240240244 	300.0000000000159 	4.906139059256869e-12 	101324.9999999926
-0.2715215215215219 	300.0000000000145 	5.093731431792354e-12 	101324.9999999927
-0.2690190190190194 	299.9999999999512 	5.049421067964778e-12 	101324.9999999926
-0.2665165165165169 	299.999999999998 	5.799851774385502e-12 	101324.9999999925
-0.2640140140140144 	299.9999999999791 	5.442996381680927e-12 	101324.9999999929
-0.2615115115115119 	300.0000000000022 	7.619245693466641e-12 	101324.9999999931
-0.2590090090090094 	299.9999999999467 	5.135105259053624e-12 	101324.9999999932
-0.2565065065065068 	299.9999999999893 	5.139114700166282e-12 	101324.9999999932
-0.2540040040040044 	299.999999999994 	4.352952400571495e-12 	101324.9999999931
-0.2515015015015019 	300.0000000000265 	3.55659501976221e-12 	101324.9999999934
-0.2489989989989994 	300.0000000000297 	4.830713560022007e-12 	101324.9999999934
-0.2464964964964968 	299.9999999999889 	2.423798486498272e-12 	101324.9999999935
-0.2439939939939944 	300.0000000000014 	5.397633198495985e-12 	101324.9999999936
-0.2414914914914919 	299.9999999999775 	2.119058095976256e-12 	101324.9999999934
-0.2389889889889893 	299.9999999999965 	5.783338458197907e-12 	101324.9999999935
-0.2364864864864869 	300.0000000000207 	3.011490119991836e-12 	101324.9999999936
-0.2339839839839843 	299.9999999999524 	7.004250806394836e-12 	101324.9999999938
-0.2314814814814819 	299.9999999999877 	3.558805902827087e-12 	101324.9999999937
-0.2289789789789792 	299.9999999999361 	6.591649525051434e-12 	101324.9999999936
-0.2264764764764769 	299.9999999999642 	4.5071425115654e-12 	101324.9999999935
-0.2239739739739743 	299.9999999999736 	6.184288586938347e-12 	101324.9999999935
-0.2214714714714718 	299.9999999999539 	5.863064501621757e-12 	101324.9999999932
-0.2189689689689693 	299.9999999999737 	5.483813289166484e-12 	101324.9999999931
-0.2164664664664669 	299.9999999999837 	6.719336492182666e-12 	101324.999999993
-0.2139639639639643 	299.9999999999454 	4.645988285282431e-12 	101324.9999999932
-0.2114614614614618 	299.9999999999819 	5.889609576946682e-12 	101324.9999999934
-0.2089589589589593 	299.9999999999914 	5.509954751425012e-12 	101324.9999999934
-0.2064564564564568 	299.9999999999918 	5.44549705128567e-12 	101324.9999999932
-0.2039539539539543 	299.999999999935 	5.857336537223578e-12 	101324.9999999933
-0.2014514514514518 	299.9999999999594 	3.604692699566101e-12 	101324.9999999933
-0.1989489489489494 	299.9999999999757 	6.702762216556284e-12 	101324.9999999934
-0.1964464464464468 	299.9999999999941 	3.185845394198439e-12 	101324.9999999935
-0.1939439439439443 	299.999999999995 	5.749356523984422e-12 	101324.9999999932
-0.1914414414414418 	299.9999999999408 	3.288879499112675e-12 	101324.9999999933
-0.1889389389389393 	300.0000000000069 	3.997344846948404e-12 	101324.9999999931
-0.1864364364364368 	300.0000000000335 	3.098814742760691e-12 	101324.9999999932
-0.1839339339339343 	299.9999999999847 	3.229999003810631e-12 	101324.9999999929
-0.1814314314314318 	299.9999999999967 	2.943482781072467e-12 	101324.9999999926
-0.1789289289289293 	299.9999999999291 	3.503751762915048e-12 	101324.9999999929
-0.1764264264264268 	299.9999999999833 	2.987399272310245e-12 	101324.999999993
-0.1739239239239243 	299.9999999999288 	4.947936925390796e-12 	101324.9999999933
-0.1714214214214218 	299.9999999999856 	3.115826581822224e-12 	101324.9999999936
-0.1689189189189193 	299.9999999999619 	6.519071762626135e-12 	101324.9999999938
-0.1664164164164168 	299.9999999999981 	2.138494509121199e-12 	101324.9999999936
-0.1639139139139143 	299.999999999989 	7.497988590998367e-12 	101324.9999999934
-0.1614114114114118 	300.0000000000205 	1.407054937414268e-12 	101324.9999999932
-0.1589089089089093 	299.999999999998 	1.004322085258796e-11 	101324.9999999932
-0.1564064064064068 	299.9999999999881 	7.273848502124288e-13 	101324.9999999933
-0.1539039039039043 	299.9999999999956 	9.718612098265329e-12 	101324.9999999936
-0.1514014014014018 	300.0000000000165 	1.135228797425025e-12 	101324.9999999939
-0.1488988988988993 	299.9999999999945 	9.067637624360441e-12 	101324.9999999941
-0.1463963963963968 	300.0000000000024 	1.052391692938175e-12 	101324.999999994
-0.1438938938938943 	299.9999999999693 	6.550905890941336e-12 	101324.9999999938
-0.1413913913913918 	299.9999999999499 	1.67435068797273e-12 	101324.9999999937
-0.1388888888888893 	299.9999999999856 	4.681119626905591e-12 	101324.9999999937
-0.1363863863863868 	299.9999999999239 	2.1843499096151e-12 	101324.9999999937
-0.1338838838838843 	299.9999999999342 	3.487673100405007e-12 	101324.9999999934
-0.1313813813813818 	299.9999999999936 	2.321356176061658e-12 	101324.9999999935
-0.1288788788788793 	299.9999999999681 	3.481421270314734e-12 	101324.9999999934
-0.1263763763763768 	299.999999999974 	2.030811043537809e-12 	101324.9999999934
-0.1238738738738743 	299.9999999999427 	3.286913658018803e-12 	101324.9999999934
-0.1213713713713717 	299.9999999999779 	8.344660261693033e-13 	101324.9999999935
-0.1188688688688693 	300.0000000000042 	4.009992863312014e-12 	101324.9999999936
-0.1163663663663668 	299.9999999999338 	6.083155935502445e-13 	101324.9999999934
-0.1138638638638643 	299.9999999999969 	4.730307935060122e-12 	101324.9999999933
-0.1113613613613618 	299.9999999999935 	6.676191035083561e-13 	101324.9999999934
-0.1088588588588592 	299.9999999999851 	5.913116829793403e-12 	101324.9999999935
-0.1063563563563568 	299.9999999999603 	1.172377499400392e-12 	101324.9999999933
-0.1038538538538543 	299.9999999999757 	4.502021124380593e-12 	101324.9999999932
-0.1013513513513517 	300.0000000000119 	8.345376670167092e-13 	101324.9999999935
-0.09884884884884926 	299.9999999999548 	2.746814391328709e-12 	101324.9999999933
-0.09634634634634676 	299.9999999999177 	2.727451228884799e-13 	101324.9999999935
-0.09384384384384425 	299.9999999999475 	1.341325469358936e-12 	101324.9999999933
-0.09134134134134177 	300.0000000000163 	1.136229213998384e-13 	101324.9999999933
-0.08883883883883925 	300.0000000000072 	7.996701943910369e-13 	101324.9999999934
-0.08633633633633674 	299.9999999999613 	1.074540452539618e-12 	101324.9999999935
-0.08383383383383426 	300.0000000000064 	8.032051028686387e-13 	101324.9999999932
-0.08133133133133173 	299.9999999999782 	1.474632009555919e-12 	101324.9999999932
-0.07882882882882926 	299.9999999999134 	9.402693432325674e-13 	101324.9999999932
-0.07632632632632676 	299.9999999999663 	1.1998596511988e-12 	101324.9999999932
-0.07382382382382424 	299.9999999999235 	8.806856422811095e-13 	101324.9999999931
-0.07132132132132173 	300.0000000000114 	1.241934278438825e-12 	101324.9999999932
-0.06881881881881925 	299.9999999999632 	1.675179825629921e-12 	101324.9999999931
-0.06631631631631671 	299.9999999999219 	1.066782778822419e-12 	101324.9999999935
-0.06381381381381425 	299.9999999999733 	1.041850368513344e-12 	101324.9999999934
-0.06131131131131173 	299.9999999999752 	1.209737713124587e-12 	101324.9999999935
-0.05880880880880923 	299.9999999999438 	6.667226767318343e-13 	101324.9999999938
-0.05630630630630672 	299.9999999999834 	2.638345483580236e-13 	101324.9999999938
-0.05380380380380424 	300.0000000000133 	6.926185138678886e-13 	101324.9999999937
-0.05130130130130173 	300.0000000000106 	7.692522207963136e-13 	101324.9999999937
-0.04879879879879922 	299.9999999999508 	1.070559833565344e-12 	101324.9999999938
-0.04629629629629672 	299.9999999999385 	4.785240464102832e-13 	101324.9999999935
-0.04379379379379422 	299.9999999999467 	9.305232165112188e-14 	101324.9999999939
-0.04129129129129173 	299.9999999999821 	3.868291635924254e-13 	101324.9999999939
-0.03878878878878922 	299.9999999999901 	1.13535228341906e-13 	101324.999999994
-0.03628628628628671 	299.9999999999898 	1.957812842232374e-13 	101324.9999999938
-0.03378378378378422 	299.999999999943 	2.255057173469633e-13 	101324.9999999936
-0.03128128128128172 	299.9999999999749 	8.080796732564663e-13 	101324.9999999937
-0.02877877877877922 	299.9999999999736 	9.755335764055689e-13 	101324.9999999938
-0.0262762762762767 	299.9999999999256 	1.09149009443941e-12 	101324.9999999938
-0.02377377377377422 	300.0000000000159 	1.147458308629789e-12 	101324.9999999939
-0.0212712712712717 	299.9999999999251 	1.014087816909833e-12 	101324.999999994
-0.01876876876876921 	299.9999999999762 	1.127470982731759e-12 	101324.9999999942
-0.01626626626626671 	300.0000000000109 	6.44268131717839e-14 	101324.9999999941
-0.0137637637637642 	299.9999999999777 	5.003056248489193e-13 	101324.9999999942
-0.0112612612612617 	300.0000000000079 	6.360626123047314e-13 	101324.9999999943
-0.008758758758759198 	299.999999999994 	1.051977334043405e-12 	101324.9999999942
-0.006256256256256697 	299.999999999916 	1.43255607408822e-12 	101324.9999999942
-0.003753753753754195 	299.9999999999632 	2.078128198307187e-12 	101324.9999999941
-0.001251251251251693 	299.9999999999453 	1.057078991428958e-12 	101324.999999994
0.00125125125125081 	299.9999999999655 	1.500401077747531e-12 	101324.999999994
0.003753753753753312 	299.9999999999696 	1.751640407029653e-13 	101324.9999999935
0.006256256256255817 	299.9999999999116 	9.357792610651769e-13 	101324.9999999936
0.008758758758758317 	299.9999999999956 	4.17328952073331e-13 	101324.9999999938
0.01126126126126082 	300.000000000005 	7.216360605495384e-13 	101324.9999999937
0.01376376376376332 	299.9999999999758 	4.171619622530681e-13 	101324.9999999934
0.01626626626626582 	300.0000000000115 	5.833656346242692e-13 	101324.9999999936
0.01876876876876833 	299.9999999999641 	1.295945715852519e-13 	101324.9999999936
0.02127127127127083 	299.9999999999793 	2.741353651090584e-13 	101324.9999999938
0.02377377377377332 	299.9999999999966 	1.695845375754481e-13 	101324.9999999937
0.02627627627627583 	299.9999999999241 	7.026560064553119e-13 	101324.9999999936
0.02877877877877833 	300.000000000004 	1.232503042171567e-12 	101324.9999999935
0.03128128128128083 	299.9999999999623 	1.387610693498146e-12 	101324.9999999936
0.03378378378378333 	299.9999999999269 	2.176627629765287e-12 	101324.9999999939
0.03628628628628584 	299.9999999999731 	2.019896844014074e-12 	101324.999999994
0.03878878878878834 	299.9999999999883 	1.60698335449691e-12 	101324.9999999936
0.04129129129129084 	299.9999999999824 	1.523625796110939e-12 	101324.9999999937
0.04379379379379333 	299.9999999999573 	1.092009017252444e-12 	101324.9999999937
0.04629629629629585 	299.9999999999194 	6.601553815884891e-13 	101324.9999999938
0.04879879879879834 	299.9999999999682 	1.286039384539248e-12 	101324.999999994
0.05130130130130085 	300.0000000000108 	1.160847026916188e-12 	101324.999999994
0.05380380380380335 	300.000000000014 	1.303254318385684e-12 	101324.999999994
0.05630630630630584 	299.9999999999965 	9.705552568555965e-13 	101324.999999994
0.05880880880880836 	299.9999999999429 	9.801765453013896e-13 	101324.9999999939
0.06131131131131085 	299.9999999999768 	6.583024898401235e-13 	101324.9999999937
0.06381381381381336 	299.9999999999673 	4.91158969611114e-13 	101324.9999999936
0.06631631631631586 	299.999999999921 	8.955524892502626e-14 	101324.9999999933
0.06881881881881835 	299.9999999999708 	5.661955756637237e-13 	101324.999999993
0.07132132132132088 	299.9999999999897 	6.115643635253944e-13 	101324.9999999928
0.07382382382382337 	299.9999999999264 	1.00650993280913e-12 	101324.9999999928
0.07632632632632587 	299.9999999999739 	1.282041419858824e-12 	101324.999999993
0.07882882882882837 	299.9999999999574 	1.85208791420845e-12 	101324.9999999929
0.08133133133133086 	299.9999999999812 	2.485019287041071e-12 	101324.9999999931
0.08383383383383337 	299.9999999999939 	2.120142226219942e-12 	101324.9999999932
0.08633633633633589 	299.9999999999345 	2.234208665886618e-12 	101324.9999999932
0.08883883883883838 	299.9999999999996 	2.278278412884963e-12 	101324.9999999933
0.09134134134134086 	299.9999999999829 	1.968843166912875e-12 	101324.9999999932
0.09384384384384339 	299.9999999999245 	3.148417191241643e-12 	101324.9999999935
0.09634634634634588 	299.9999999999768 	3.407506688833431e-12 	101324.9999999936
0.09884884884884838 	299.9999999999809 	2.529478361300281e-12 	101324.9999999936
0.1013513513513509 	300.0000000000136 	2.002808904529224e-12 	101324.9999999939
0.1038538538538534 	299.9999999999675 	1.751057431566585e-12 	101324.999999994
0.1063563563563559 	300.0000000000051 	2.278326125592619e-12 	101324.9999999937
0.1088588588588584 	300.0000000000163 	2.621677592725052e-12 	101324.9999999937
0.1113613613613609 	299.9999999999379 	3.496879992408675e-12 	101324.9999999937
0.1138638638638634 	299.9999999999571 	3.619962976099916e-12 	101324.9999999939
0.1163663663663659 	299.9999999999628 	3.69787394839616e-12 	101324.999999994
0.1188688688688684 	299.9999999999747 	4.034230731944645e-12 	101324.9999999939
0.1213713713713709 	299.9999999999993 	4.084279122748614e-12 	101324.9999999937
0.1238738738738734 	299.9999999999486 	4.245511006310074e-12 	101324.9999999936
0.1263763763763759 	299.9999999999871 	4.225998653653374e-12 	101324.9999999936
0.1288788788788784 	299.999999999987 	3.61734990185949e-12 	101324.9999999937
0.1313813813813809 	299.9999999999866 	4.061158101579748e-12 	101324.9999999937
0.1338838838838834 	299.9999999999827 	3.551158976798733e-12 	101324.9999999937
0.1363863863863859 	300.0000000000134 	3.700267122693117e-12 	101324.9999999938
0.1388888888888884 	300.0000000000374 	3.230393526277941e-12 	101324.9999999938
0.1413913913913909 	300.000000000008 	2.274558783719162e-12 	101324.9999999938
0.1438938938938934 	299.9999999999965 	2.58619705274788e-12 	101324.9999999935
0.1463963963963959 	299.999999999962 	1.726780632665909e-12 	101324.9999999931
0.1488988988988985 	299.9999999999363 	2.676539588303958e-12 	101324.999999993
0.1514014014014009 	299.9999999999752 	8.304255008002424e-13 	101324.9999999932
0.1539039039039035 	299.9999999999733 	2.660633321509791e-12 	101324.9999999932
0.1564064064064059 	299.9999999999501 	5.204763337936133e-13 	101324.9999999931
0.1589089089089084 	299.9999999999825 	4.060610272398257e-12 	101324.999999993
0.1614114114114109 	299.999999999979 	1.366222444338687e-12 	101324.9999999931
0.1639139139139134 	299.9999999999309 	3.78692479470358e-12 	101324.9999999931
0.166416416416416 	300.0000000000041 	2.928177653091382e-12 	101324.9999999933
0.1689189189189185 	300.0000000000206 	3.517625622079759e-12 	101324.9999999935
0.1714214214214209 	300.0000000000072 	4.587865275483333e-12 	101324.9999999935
0.1739239239239235 	299.9999999999881 	4.217477705423386e-12 	101324.9999999937
0.1764264264264259 	299.9999999999757 	6.477289343225336e-12 	101324.9999999935
0.1789289289289284 	300.0000000000018 	3.81936692797314e-12 	101324.9999999933
0.181431431431431 	299.9999999999707 	5.805477821659927e-12 	101324.9999999932
0.1839339339339334 	299.9999999999787 	3.27744222485359e-12 	101324.9999999933
0.186436436436436 	299.9999999999506 	4.056769781196079e-12 	101324.9999999934
0.1889389389389385 	299.9999999999833 	3.136657432555271e-12 	101324.9999999933
0.191441441441441 	299.9999999999812 	2.486472929427448e-12 	101324.9999999935
0.1939439439439434 	299.9999999999399 	3.563104160950166e-12 	101324.9999999936
0.196446446446446 	299.9999999999627 	2.007886403792517e-12 	101324.9999999935
0.1989489489489485 	299.9999999999725 	4.951001888248878e-12 	101324.9999999933
0.2014514514514509 	299.9999999999882 	3.274980533009041e-12 	101324.9999999931
0.2039539539539535 	299.9999999999967 	5.062440169099762e-12 	101324.9999999933
0.2064564564564559 	299.999999999968 	4.369322686311126e-12 	101324.9999999935
0.2089589589589585 	299.9999999999918 	5.10313124462683e-12 	101324.9999999935
0.211461461461461 	299.9999999999487 	5.131689512839214e-12 	101324.9999999933
0.2139639639639635 	299.999999999989 	4.370307464794821e-12 	101324.9999999934
0.2164664664664659 	300.0000000000069 	5.303196554296204e-12 	101324.9999999933
0.2189689689689684 	300.0000000000064 	3.168146431797034e-12 	101324.9999999935
0.221471471471471 	299.9999999999987 	5.056218446998448e-12 	101324.9999999937
0.2239739739739735 	299.9999999999724 	2.910015143410162e-12 	101324.9999999934
0.226476476476476 	299.9999999999911 	4.363349794240745e-12 	101324.9999999934
0.2289789789789785 	299.9999999999922 	3.310531733282961e-12 	101324.9999999934
0.231481481481481 	299.9999999999781 	3.368561396148038e-12 	101324.9999999932
0.2339839839839835 	299.9999999999925 	3.835587506022529e-12 	101324.9999999934
0.236486486486486 	300.0000000000197 	3.059299662075433e-12 	101324.9999999933
0.2389889889889885 	300.0000000000008 	4.168200794609131e-12 	101324.9999999932
0.241491491491491 	299.9999999999382 	2.349913598870423e-12 	101324.9999999929
0.2439939939939935 	299.9999999999798 	5.674870472132178e-12 	101324.9999999927
0.246496496496496 	299.9999999999913 	3.55825451701851e-12 	101324.9999999926
0.2489989989989985 	300.0000000000276 	5.208729168470247e-12 	101324.9999999923
0.251501501501501 	300.0000000000231 	4.17560271039807e-12 	101324.9999999921
0.2540040040040035 	299.9999999999905 	3.781742329839794e-12 	101324.9999999922
0.256506506506506 	300.0000000000151 	4.44121743210266e-12 	101324.9999999923
0.2590090090090086 	299.9999999999345 	3.6282659049296e-12 	101324.9999999925
0.261511511511511 	300.0000000000021 	6.223308075263046e-12 	101324.9999999927
0.2640140140140135 	299.9999999999974 	3.135252337917161e-12 	101324.9999999927
0.2665165165165161 	299.9999999999508 	5.002806650667867e-12 	101324.9999999928
0.2690190190190185 	300.0000000000067 	3.505784724670158e-12 	101324.9999999929
0.271521521521521 	300.0000000000092 	3.001699205629954e-12 	101324.999999993
0.2740240240240235 	300.0000000000125 	2.569002720123631e-12 	101324.9999999928
0.276526526526526 	300.0000000000052 	1.663342617198779e-12 	101324.9999999928
0.2790290290290286 	299.9999999999579 	2.854135566208741e-12 	101324.9999999928
0.281531531531531 	299.9999999999468 	1.173130245885117e-12 	101324.9999999929
0.2840340340340335 	299.9999999999843 	3.289901442043687e-12 	101324.9999999928
0.2865365365365361 	299.999999999968 	1.406098421935856e-12 	101324.9999999928
0.2890390390390385 	299.9999999999948 	2.803034910782896e-12 	101324.9999999931
0.291541541541541 	299.999999999996 	1.977503069618534e-12 	101324.9999999932
0.2940440440440436 	299.9999999999961 	1.565797769679703e-12 	101324.9999999936
0.296546546546546 	299.9999999999932 	2.101758415777748e-12 	101324.9999999937
0.2990490490490486 	299.9999999999524 	8.377933904153815e-13 	101324.9999999938
0.3015515515515511 	300.0000000000234 	3.834969870211342e-12 	101324.9999999935
0.3040540540540535 	300.0000000000031 	1.868474868457139e-12 	101324.9999999937
0.3065565565565562 	299.9999999999918 	4.648477305890515e-12 	101324.9999999935
0.3090590590590585 	299.99999999999 	6.292690462887799e-13 	101324.9999999932
0.3115615615615611 	299.9999999999521 	4.379146140849419e-12 	101324.999999993
0.3140640640640635 	300.0000000000076 	2.087118388023901e-12 	101324.9999999929
0.316566566566566 	299.9999999999944 	4.129711556526573e-12 	101324.999999993
0.3190690690690687 	299.9999999999566 	2.338101789283332e-12 	101324.9999999929
0.3215715715715711 	300.0000000000072 	3.537056477917743e-12 	101324.9999999929
0.3240740740740735 	299.9999999999957 	1.898201110652398e-12 	101324.999999993
0.326576576576576 	299.9999999999309 	3.198710502713115e-12 	101324.9999999931
0.3290790790790786 	300.0000000000022 	2.589997347616924e-12 	101324.9999999932
0.3315815815815811 	300.0000000000235 	3.142551060494582e-12 	101324.999999993
0.3340840840840836 	299.9999999999941 	2.160689573265785e-12 	101324.9999999929
0.3365865865865861 	300.0000000000376 	2.607627219013126e-12 	101324.9999999928
0.3390890890890886 	300.0000000000347 	6.251340874139277e-13 	101324.999999993
0.3415915915915911 	299.9999999999942 	1.918473697635623e-12 	101324.9999999929
0.3440940940940935 	299.999999999965 	5.906208446829544e-13 	101324.9999999929
0.3465965965965962 	300.0000000000234 	2.213071712738098e-12 	101324.9999999931
0.3490990990990985 	300.000000000019 	1.036944863285904e-12 	101324.9999999931
0.3516016016016011 	299.9999999999918 	1.793358479012798e-12 	101324.999999993
0.3541041041041035 	300.0000000000016 	1.113639873898524e-12 	101324.9999999929
0.3566066066066061 	299.9999999999654 	1.349766341882843e-12 	101324.9999999928
0.3591091091091085 	299.999999999945 	2.396553650938977e-12 	101324.9999999925
0.3616116116116112 	299.9999999999561 	1.200820832989874e-12 	101324.9999999926
0.3641141141141137 	299.999999999953 	2.890090380250164e-12 	101324.9999999926
0.3666166166166161 	299.9999999999493 	1.1112111684115e-12 	101324.9999999927
0.3691191191191185 	300.0000000000287 	4.399597697185378e-12 	101324.9999999925
0.371621621621621 	300.0000000000049 	8.82038319161333e-13 	101324.9999999924
0.3741241241241237 	300.0000000000373 	2.910661270374028e-12 	101324.9999999922
0.3766266266266261 	300.0000000000214 	5.712025798086348e-13 	101324.999999992
0.3791291291291286 	299.9999999999854 	1.900200343618038e-12 	101324.999999992
0.3816316316316311 	299.9999999999451 	8.736185253473625e-13 	101324.999999992
0.3841341341341336 	300.0000000000097 	1.736231547127077e-12 	101324.9999999923
0.3866366366366362 	299.9999999999995 	4.785521901346326e-13 	101324.9999999922
0.3891391391391387 	299.9999999999648 	1.439586683292557e-12 	101324.9999999922
0.391641641641641 	299.9999999999977 	9.317230601268925e-14 	101324.9999999921
0.3941441441441436 	300.0000000000053 	5.965020438479479e-13 	101324.9999999922
0.3966466466466462 	299.9999999999978 	1.622143915257929e-12 	101324.9999999922
0.3991491491491486 	299.999999999962 	1.08570967373348e-12 	101324.9999999922
0.4016516516516512 	299.9999999999353 	1.816724377917518e-12 	101324.9999999921
0.4041541541541536 	299.9999999999595 	4.808038565614464e-13 	101324.9999999922
0.4066566566566561 	299.99999999996 	1.747304529712861e-12 	101324.9999999922
0.4091591591591587 	299.9999999999914 	6.320400483844142e-13 	101324.9999999924
0.4116616616616612 	300.0000000000027 	1.838323614746078e-12 	101324.9999999925
0.4141641641641635 	300.0000000000313 	1.238851483561107e-12 	101324.9999999927
0.4166666666666662 	299.9999999999971 	1.707917528775223e-12 	101324.9999999926
0.4191691691691687 	299.9999999999562 	2.019393100217982e-12 	101324.9999999928
0.421671671671671 	300.0000000000098 	1.152738082431077e-12 	101324.9999999929
0.4241741741741737 	299.9999999999862 	2.914809414781233e-12 	101324.999999993
0.4266766766766761 	299.9999999999662 	2.023186696122868e-12 	101324.9999999928
0.4291791791791785 	300.0000000000135 	3.927076735117932e-12 	101324.999999993
0.4316816816816812 	300.0000000000064 	1.907179474314769e-12 	101324.999999993
0.4341841841841836 	299.9999999999863 	3.483466113070823e-12 	101324.9999999931
0.4366866866866862 	299.9999999999393 	1.227415263286886e-12 	101324.9999999931
0.4391891891891885 	299.9999999999885 	1.773233225988199e-12 	101324.9999999932
0.4416916916916913 	299.9999999999865 	1.124537641743698e-12 	101324.9999999932
0.4441941941941936 	299.9999999999914 	9.359713603675691e-13 	101324.999999993
0.4466966966966961 	299.9999999999442 	6.053709456459885e-13 	101324.9999999931
0.4491991991991987 	299.9999999999861 	5.688420630903151e-13 	101324.9999999929
0.4517017017017012 	299.9999999999852 	1.592591751696751e-13 	101324.9999999926
0.4542042042042035 	299.9999999999893 	2.586279856107982e-13 	101324.9999999924
0.4567067067067062 	299.9999999999976 	1.221570118020311e-12 	101324.9999999923
0.4592092092092087 	299.9999999999484 	1.516845072161341e-12 	101324.9999999923
0.4617117117117112 	300.0000000000131 	2.42864459644358e-12 	101324.9999999927
0.4642142142142137 	299.9999999999773 	2.776809063135195e-12 	101324.999999993
0.4667167167167162 	299.9999999999973 	2.928686202912589e-12 	101324.9999999929
0.4692192192192187 	299.9999999999702 	2.944188885567436e-12 	101324.9999999929
0.4717217217217212 	300.0000000000044 	2.357327671968769e-12 	101324.9999999931
0.4742242242242236 	299.9999999999695 	2.363883063112843e-12 	101324.9999999931
0.4767267267267262 	299.99999999998 	2.280756017867372e-12 	101324.9999999929
0.4792292292292287 	300.0000000000165 	2.954423959974018e-12 	101324.9999999931
0.4817317317317312 	300.0000000000312 	3.286092953433862e-12 	101324.999999993
0.4842342342342336 	299.9999999999882 	3.124532009689639e-12 	101324.9999999931
0.4867367367367362 	299.9999999999693 	3.012681677685839e-12 	101324.9999999931
0.4892392392392387 	300.0000000000217 	2.272806231791561e-12 	101324.9999999932
0.4917417417417412 	300.0000000000052 	3.229944711294325e-12 	101324.9999999934
0.4942442442442437 	299.9999999999377 	1.851390172387415e-12 	101324.9999999933
0.4967467467467462 	299.9999999999513 	2.774550099239551e-12 	101324.9999999932
0.4992492492492487 	299.9999999999443 	7.118092442171163e-13 	101324.9999999935
0.5017517517517511 	299.9999999999731 	2.267175667519339e-12 	101324.9999999936
0.5042542542542537 	299.9999999999739 	1.697166198507958e-12 	101324.9999999938
0.5067567567567562 	299.9999999999631 	2.627339231929151e-12 	101324.9999999939
0.5092592592592589 	299.9999999999757 	2.662672967446778e-12 	101324.9999999938
0.5117617617617611 	299.9999999999757 	1.953881436485924e-12 	101324.9999999936
0.5142642642642637 	299.999999999995 	3.017005617693109e-12 	101324.9999999935
0.5167667667667663 	299.9999999999836 	1.50663037429272e-12 	101324.9999999933
0.5192692692692688 	299.9999999999438 	4.347984233554261e-12 	101324.9999999932
0.5217717717717714 	299.9999999999608 	2.119205900013604e-12 	101324.999999993
0.5242742742742736 	299.9999999999594 	3.846272053105897e-12 	101324.999999993
0.5267767767767763 	299.9999999999738 	8.803853543191578e-13 	101324.9999999931
0.5292792792792789 	299.9999999999592 	2.792695753428273e-12 	101324.9999999931
0.5317817817817813 	299.9999999999352 	6.437612402074172e-13 	101324.9999999928
0.5342842842842837 	300.0000000000107 	1.724791577377064e-12 	101324.9999999928
0.5367867867867864 	300.0000000000006 	1.035732892461974e-12 	101324.9999999928
0.5392892892892888 	299.9999999999707 	1.40781215746783e-12 	101324.999999993
0.5417917917917912 	300.0000000000035 	5.653250662707458e-13 	101324.9999999932
0.5442942942942938 	299.9999999999907 	1.373253189339717e-12 	101324.9999999933
0.5467967967967964 	299.9999999999618 	1.10566787835516e-12 	101324.9999999933
0.5492992992992988 	299.9999999999612 	1.761965391837308e-12 	101324.9999999933
0.5518018018018012 	299.9999999999596 	1.20910916898441e-12 	101324.9999999937
0.5543043043043039 	300.0000000000134 	1.949175435490861e-12 	101324.9999999937
0.5568068068068063 	299.9999999999923 	1.250738727345366e-12 	101324.9999999935
0.5593093093093087 	299.9999999999374 	1.923747734338865e-12 	101324.9999999934
0.5618118118118114 	299.9999999999743 	8.767408262773381e-13 	101324.9999999935
0.5643143143143137 	299.999999999963 	9.27885801264e-13 	101324.9999999934
0.5668168168168163 	299.9999999999969 	3.444156032996862e-13 	101324.9999999934
0.5693193193193188 	300.0000000000222 	7.800187256343858e-13 	101324.9999999932
0.5718218218218213 	300.0000000000176 	1.277833978214814e-12 	101324.9999999934
0.5743243243243239 	300.0000000000057 	1.123980696801332e-12 	101324.9999999936
0.5768268268268262 	300.0000000000044 	2.523748755762935e-12 	101324.9999999938
0.5793293293293288 	299.9999999999607 	1.880806781746471e-12 	101324.9999999937
0.5818318318318314 	299.999999999945 	3.164246727399277e-12 	101324.9999999937
0.5843343343343338 	299.9999999999895 	2.940177519261422e-12 	101324.9999999936
0.5868368368368363 	299.9999999999847 	2.268890295289932e-12 	101324.9999999937
0.5893393393393387 	299.9999999999628 	1.784180277422369e-12 	101324.9999999939
0.5918418418418413 	299.999999999962 	2.163627859565481e-12 	101324.999999994
0.5943443443443439 	300.0000000000123 	1.39502345535537e-12 	101324.9999999939
0.5968468468468463 	300.0000000000101 	3.278702455941896e-12 	101324.9999999938
0.5993493493493487 	300.0000000000245 	3.108631367394302e-12 	101324.9999999939
0.6018518518518514 	299.9999999999841 	3.769023211964079e-12 	101324.9999999941
0.6043543543543537 	299.9999999999974 	2.490095640939583e-12 	101324.9999999942
0.6068568568568564 	299.9999999999883 	2.381527549077411e-12 	101324.999999994
0.6093593593593587 	299.9999999999549 	1.377093264699563e-12 	101324.999999994
0.6118618618618614 	299.9999999999499 	1.459976642637785e-12 	101324.9999999939
0.6143643643643638 	300.0000000000128 	1.044537070658325e-12 	101324.9999999937
0.6168668668668662 	299.99999999999 	1.829987798057419e-12 	101324.9999999937
0.6193693693693688 	299.9999999999706 	1.215582888530747e-12 	101324.9999999935
0.6218718718718714 	299.9999999999789 	1.524950831256602e-12 	101324.9999999935
0.6243743743743737 	299.9999999999561 	1.199009634546899e-12 	101324.9999999936
0.6268768768768762 	299.9999999999418 	1.80205377612105e-12 	101324.9999999937
0.629379379379379 	299.9999999999679 	8.315042647711787e-13 	101324.9999999937
0.6318818818818812 	299.9999999999828 	1.784587342785761e-12 	101324.9999999937
0.6343843843843838 	300.0000000000108 	1.765241053792133e-12 	101324.9999999938
0.6368868868868864 	299.9999999999881 	2.1489186181906e-12 	101324.9999999939
0.6393893893893888 	299.999999999947 	3.267993186693667e-12 	101324.9999999937
0.6418918918918912 	300.0000000000038 	2.057574073539491e-12 	101324.9999999938
0.6443943943943939 	299.9999999999927 	4.891019626380086e-12 	101324.9999999939
0.6468968968968963 	299.9999999999906 	1.693151407491696e-12 	101324.999999994
0.6493993993993988 	299.9999999999847 	4.374934621049118e-12 	101324.9999999939
0.6519019019019012 	299.999999999981 	1.65292393475732e-12 	101324.9999999937
0.6544044044044038 	299.9999999999319 	3.462309568121746e-12 	101324.9999999936
0.6569069069069065 	299.9999999999667 	8.324938427159201e-13 	101324.9999999936
0.6594094094094087 	299.9999999999729 	2.022288848125164e-12 	101324.9999999935
0.6619119119119113 	299.9999999999649 	7.41630865665557e-13 	101324.9999999935
0.664414414414414 	300.0000000000035 	1.2521339019119e-12 	101324.9999999937
0.6669169169169162 	300.0000000000115 	7.884161121615762e-13 	101324.9999999939
0.6694194194194188 	299.9999999999887 	1.761445036038051e-12 	101324.999999994
0.6719219219219214 	299.9999999999482 	1.11075510361291e-12 	101324.9999999941
0.674424424424424 	299.9999999999807 	1.764570818824486e-12 	101324.999999994
0.6769269269269262 	299.9999999999424 	1.483684366733323e-12 	101324.9999999942
0.679429429429429 	300.0000000000045 	2.351891390798974e-12 	101324.999999994
0.6819319319319311 	299.99999999998 	2.331818039395391e-12 	101324.9999999939
0.6844344344344341 	299.9999999999872 	3.383957444320988e-12 	101324.9999999938
0.686936936936936 	299.999999999987 	2.553550903733014e-12 	101324.9999999939
0.6894394394394392 	299.9999999999936 	3.604158046828654e-12 	101324.999999994
0.6919419419419413 	299.9999999999883 	3.14849459617649e-12 	101324.9999999939
0.694444444444444 	299.999999999957 	2.826134528929665e-12 	101324.9999999938
0.6969469469469463 	299.9999999999519 	2.362092943706793e-12 	101324.9999999938
0.6994494494494489 	299.9999999999448 	1.714619950065158e-12 	101324.9999999937
0.7019519519519515 	299.9999999999872 	2.0823526605196e-12 	101324.9999999938
0.7044544544544538 	299.9999999999659 	1.181289140649092e-12 	101324.999999994
0.7069569569569564 	299.9999999999943 	2.653596036343594e-12 	101324.9999999942
0.7094594594594589 	299.9999999999738 	9.647899229246813e-13 	101324.9999999941
0.7119619619619615 	299.9999999999371 	1.816977136188696e-12 	101324.9999999941
0.7144644644644638 	299.9999999999645 	7.809267603145593e-13 	101324.9999999942
0.7169669669669665 	299.9999999999462 	8.408237578747223e-13 	101324.9999999943
0.7194694694694688 	299.9999999999939 	3.552165889249905e-13 	101324.9999999944
0.7219719719719715 	299.9999999999928 	1.19321254239421e-12 	101324.9999999943
0.7244744744744737 	300.0000000000038 	1.48263203109802e-12 	101324.9999999943
0.7269769769769764 	299.9999999999978 	1.885124510830629e-12 	101324.9999999942
0.7294794794794791 	299.9999999999923 	2.836897310389843e-12 	101324.9999999942
0.7319819819819813 	299.9999999999866 	1.845241477915356e-12 	101324.9999999939
0.7344844844844839 	299.9999999999467 	3.305496796459118e-12 	101324.9999999938
0.7369869869869864 	299.999999999968 	2.468890001604009e-12 	101324.9999999939
0.739489489489489 	299.9999999999599 	3.001642611955771e-12 	101324.999999994
0.7419919919919914 	299.9999999999524 	3.192756945073417e-12 	101324.9999999939
0.7444944944944939 	299.9999999999849 	2.115694844677478e-12 	101324.9999999939
0.7469969969969963 	299.9999999999783 	3.337087612719866e-12 	101324.9999999941
0.7494994994994989 	299.999999999958 	1.590972215088104e-12 	101324.999999994
0.7520020020020015 	299.9999999999776 	2.677235081083614e-12 	101324.9999999942
0.7545045045045039 	299.9999999999792 	2.032844171519691e-12 	101324.9999999943
0.7570070070070062 	299.9999999999602 	8.365499690116779e-13 	101324.9999999945
0.7595095095095092 	299.9999999999492 	2.047504588641023e-12 	101324.9999999946
0.7620120120120112 	300.0000000000008 	1.14964300214784e-12 	101324.9999999947
0.7645145145145138 	299.9999999999911 	9.754611789321766e-13 	101324.9999999946
0.7670170170170165 	299.9999999999539 	1.617279366539463e-12 	101324.9999999944
0.7695195195195191 	299.999999999943 	1.356626245902635e-12 	101324.9999999944
0.7720220220220213 	299.9999999999509 	2.180168037830973e-12 	101324.9999999943
0.7745245245245239 	299.9999999999556 	1.166932270554959e-12 	101324.9999999942
0.7770270270270263 	299.9999999999819 	1.658026894653348e-12 	101324.999999994
0.779529529529529 	299.9999999999869 	6.083999840660826e-13 	101324.9999999938
0.7820320320320313 	299.9999999999798 	1.452536403037501e-12 	101324.9999999939
0.784534534534534 	299.9999999999957 	1.313498105298179e-12 	101324.9999999941
0.7870370370370364 	299.999999999994 	1.273571356867296e-12 	101324.9999999943
0.7895395395395389 	299.9999999999889 	2.123618080456353e-12 	101324.9999999945
0.7920420420420413 	299.9999999999795 	1.385131768767044e-12 	101324.9999999947
0.794544544544544 	299.9999999999776 	2.74624398041106e-12 	101324.9999999948
0.7970470470470463 	300.000000000002 	1.99924324150246e-12 	101324.9999999947
0.799549549549549 	299.9999999999885 	2.5775760998377e-12 	101324.9999999946
0.8020520520520515 	299.9999999999948 	1.232915677672352e-12 	101324.9999999948
0.8045545545545539 	299.9999999999671 	1.39041626650798e-12 	101324.9999999949
0.8070570570570563 	299.9999999999865 	4.45580846942216e-13 	101324.9999999948
0.8095595595595589 	299.9999999999693 	1.318424587579709e-12 	101324.9999999947
0.8120620620620614 	299.9999999999555 	1.657344204874556e-12 	101324.9999999945
0.8145645645645638 	299.9999999999993 	1.527976728210005e-12 	101324.9999999944
0.8170670670670666 	299.9999999999932 	2.372472299212496e-12 	101324.9999999944
0.8195695695695689 	299.9999999999809 	1.807346026453615e-12 	101324.9999999946
0.8220720720720714 	299.9999999999624 	2.832491574897977e-12 	101324.9999999946
0.8245745745745739 	299.9999999999985 	1.543585703141322e-12 	101324.9999999947
0.8270770770770765 	299.9999999999811 	3.072777827396994e-12 	101324.9999999947
0.8295795795795788 	299.9999999999641 	2.498682059925702e-12 	101324.9999999946
0.8320820820820815 	300.0000000000139 	3.454410393401161e-12 	101324.9999999946
0.834584584584584 	300.0000000000065 	3.191858561889743e-12 	101324.9999999946
0.8370870870870865 	299.9999999999816 	2.997530502655732e-12 	101324.9999999945
0.8395895895895891 	299.9999999999529 	3.820483466199717e-12 	101324.9999999944
0.8420920920920915 	299.999999999955 	3.608244304508179e-12 	101324.9999999942
0.844594594594594 	299.9999999999532 	4.27063165726938e-12 	101324.9999999943
0.8470970970970964 	299.9999999999682 	4.110469847065985e-12 	101324.9999999944
0.8495995995995991 	299.9999999999889 	3.879786088114267e-12 	101324.9999999943
0.8521021021021015 	299.9999999999851 	3.893713880811524e-12 	101324.9999999943
0.8546046046046039 	299.9999999999861 	3.229681092266162e-12 	101324.9999999944
0.8571071071071066 	300.0000000000001 	3.760062640965431e-12 	101324.9999999946
0.8596096096096089 	299.9999999999735 	2.251113056342269e-12 	101324.9999999947
0.8621121121121116 	299.9999999999496 	4.269658210702484e-12 	101324.9999999946
0.8646146146146139 	299.9999999999923 	2.284785546202387e-12 	101324.9999999945
0.8671171171171166 	299.9999999999836 	2.989902436217326e-12 	101324.9999999944
0.8696196196196189 	299.9999999999688 	2.213689139189028e-12 	101324.9999999944
0.8721221221221216 	299.9999999999811 	2.728396739835224e-12 	101324.9999999946
0.874624624624624 	299.9999999999998 	2.74995706370038e-12 	101324.9999999948
0.8771271271271264 	299.9999999999995 	3.101391404742608e-12 	101324.9999999948
0.879629629629629 	300.0000000000045 	4.413794027978032e-12 	101324.9999999947
0.8821321321321317 	299.9999999999884 	3.512754937126807e-12 	101324.9999999948
0.8846346346346339 	299.999999999948 	5.445683140957205e-12 	101324.9999999946
0.8871371371371364 	299.9999999999724 	3.492294551153733e-12 	101324.9999999944
0.8896396396396391 	299.9999999999722 	4.886576653797207e-12 	101324.9999999943
0.8921421421421414 	299.999999999974 	4.574068168182597e-12 	101324.9999999944
0.8946446446446441 	299.9999999999865 	5.510252754499768e-12 	101324.9999999945
0.8971471471471464 	299.999999999997 	5.27531449339186e-12 	101324.9999999944
0.8996496496496489 	299.9999999999836 	5.151635048699269e-12 	101324.9999999943
0.9021521521521517 	299.999999999975 	5.862385454643867e-12 	101324.9999999942
0.9046546546546541 	299.9999999999947 	5.013983165300606e-12 	101324.9999999944
0.9071571571571564 	299.9999999999667 	5.349284839604734e-12 	101324.9999999944
0.9096596596596589 	299.9999999999662 	4.973452446034336e-12 	101324.9999999945
0.9121621621621616 	300.0000000000044 	4.859008546575623e-12 	101324.9999999947
0.9146646646646639 	299.999999999989 	4.915860096839944e-12 	101324.9999999948
0.9171671671671666 	299.9999999999699 	5.011835172066385e-12 	101324.9999999948
0.9196696696696689 	300.0000000000023 	5.540942352000018e-12 	101324.9999999949
0.9221721721721714 	299.9999999999993 	4.369620025650259e-12 	101324.9999999951
0.9246746746746741 	299.999999999961 	6.021203873557306e-12 	101324.9999999951
0.9271771771771765 	299.9999999999678 	4.12669158247086e-12 	101324.9999999951
0.9296796796796791 	299.9999999999964 	5.578196276147144e-12 	101324.999999995
0.9321821821821816 	299.9999999999781 	4.352376839644687e-12 	101324.9999999948
0.9346846846846838 	299.9999999999608 	4.83384630585343e-12 	101324.9999999947
0.9371871871871866 	300.000000000002 	4.270411195286226e-12 	101324.9999999949
0.9396896896896891 	300.0000000000044 	4.621954093053705e-12 	101324.9999999951
0.9421921921921914 	300.0000000000028 	5.049028687967297e-12 	101324.9999999952
0.9446946946946939 	299.9999999999791 	4.487361635662365e-12 	101324.999999995
0.9471971971971965 	299.999999999949 	6.788326158735434e-12 	101324.9999999949
0.9496996996996991 	299.9999999999748 	6.043607750003916e-12 	101324.9999999948
0.9522022022022016 	299.9999999999853 	7.482889089278482e-12 	101324.9999999947
0.9547047047047038 	299.9999999999839 	6.904578413736251e-12 	101324.9999999947
0.9572072072072064 	299.9999999999756 	7.783716605311929e-12 	101324.9999999946
0.9597097097097093 	299.9999999999752 	7.745855813401477e-12 	101324.9999999945
0.9622122122122114 	299.9999999999733 	7.613450758644037e-12 	101324.9999999945
0.964714714714714 	299.9999999999705 	8.162154805160428e-12 	101324.9999999946
0.9672172172172167 	299.9999999999727 	7.185276571844832e-12 	101324.9999999948
0.969719719719719 	299.9999999999925 	7.7696671713201e-12 	101324.9999999949
0.9722222222222214 	299.9999999999857 	7.504036590865235e-12 	101324.9999999951
0.9747247247247239 	299.9999999999818 	8.041414585792027e-12 	101324.9999999951
0.9772272272272267 	300.0000000000008 	7.953125135919997e-12 	101324.9999999953
0.9797297297297292 	299.9999999999895 	7.462115606548955e-12 	101324.9999999954
0.9822322322322313 	299.999999999993 	7.69927750811395e-12 	101324.9999999953
0.9847347347347344 	299.999999999992 	6.530657360809456e-12 	101324.9999999953
0.9872372372372363 	299.9999999999629 	8.295500249023449e-12 	101324.9999999953
0.9897397397397389 	299.9999999999802 	6.436824107191265e-12 	101324.9999999954
0.9922422422422417 	299.9999999999716 	7.664240095921448e-12 	101324.9999999954
0.9947447447447441 	299.9999999999724 	6.95737696744548e-12 	101324.9999999955
0.9972472472472468 	299.9999999999816 	7.955328352255242e-12 	101324.9999999956
0.999749749749749 	299.9999999999762 	7.559122136684179e-12 	101324.9999999956
1.002252252252252 	299.9999999999795 	7.728376681565032e-12 	101324.9999999957
1.004754754754754 	299.9999999999906 	7.55109688200305e-12 	101324.9999999957
1.007257257257256 	299.9999999999749 	6.881376635709322e-12 	101324.9999999958
1.009759759759759 	299.9999999999709 	8.46189481767987e-12 	101324.9999999958
1.012262262262261 	299.9999999999725 	7.115705589949366e-12 	101324.9999999958
1.014764764764764 	299.9999999999554 	8.361660069986921e-12 	101324.999999996
1.017267267267267 	299.9999999999495 	7.63130196986015e-12 	101324.9999999959
1.019769769769769 	299.9999999999793 	8.539298223562467e-12 	101324.9999999959
1.022272272272272 	299.9999999999866 	8.208591266410263e-12 	101324.9999999959
1.024774774774774 	299.9999999999862 	7.881221108639974e-12 	101324.999999996
1.027277277277277 	299.9999999999828 	8.160079079158066e-12 	101324.9999999959
1.029779779779779 	300.0000000000002 	7.24153631356674e-12 	101324.999999996
1.032282282282282 	300.0000000000003 	8.128707730907743e-12 	101324.999999996
1.034784784784784 	299.9999999999949 	8.092140457906562e-12 	101324.9999999959
1.037287287287286 	299.9999999999725 	8.583501106777867e-12 	101324.999999996
1.039789789789789 	299.9999999999779 	8.342841241732125e-12 	101324.9999999962
1.042292292292291 	300.0000000000018 	8.093803655659481e-12 	101324.9999999963
1.044794794794794 	300.000000000012 	7.666414885947826e-12 	101324.9999999963
1.047297297297296 	300.0000000000248 	6.497598895757178e-12 	101324.9999999963
1.049799799799799 	299.9999999999934 	7.704319447899508e-12 	101324.9999999962
1.052302302302302 	299.9999999999707 	6.115793393865473e-12 	101324.9999999962
1.054804804804804 	299.9999999999602 	7.503339152778569e-12 	101324.9999999962
1.057307307307306 	299.9999999999499 	7.22014861593211e-12 	101324.9999999962
1.059809809809809 	299.9999999999695 	8.563115228844637e-12 	101324.9999999964
1.062312312312312 	299.9999999999651 	8.528023252066326e-12 	101324.9999999966
1.064814814814814 	299.9999999999625 	9.432757306080626e-12 	101324.9999999965
1.067317317317317 	299.9999999999507 	9.484059485758811e-12 	101324.9999999965
1.069819819819819 	299.9999999999519 	9.294905726496591e-12 	101324.9999999965
1.072322322322321 	299.999999999993 	1.049013882189787e-11 	101324.9999999967
1.074824824824824 	300.000000000005 	8.966773183064744e-12 	101324.9999999967
1.077327327327327 	300.0000000000178 	9.835063871117046e-12 	101324.9999999967
1.079829829829829 	300.0000000000257 	8.571156628701183e-12 	101324.9999999967
1.082332332332332 	300.0000000000015 	8.811265535322181e-12 	101324.9999999966
1.084834834834834 	299.9999999999854 	8.245176837639576e-12 	101324.9999999965
1.087337337337337 	299.9999999999619 	8.292587638841137e-12 	101324.9999999965
1.089839839839839 	299.9999999999557 	9.583998318759224e-12 	101324.9999999966
1.092342342342342 	299.9999999999822 	8.732344878756139e-12 	101324.9999999967
1.094844844844844 	299.9999999999818 	9.803461251607503e-12 	101324.9999999971
1.097347347347347 	299.9999999999621 	9.284120671616165e-12 	101324.9999999972
1.099849849849849 	299.9999999999526 	1.188113875400967e-11 	101324.9999999971
1.102352352352352 	299.9999999999675 	1.036573290851761e-11 	101324.9999999971
1.104854854854854 	299.9999999999828 	1.19063732975703e-11 	101324.9999999972
1.107357357357357 	299.9999999999748 	1.051751858113881e-11 	101324.9999999971
1.109859859859859 	299.9999999999681 	1.161553966333034e-11 	101324.9999999971
1.112362362362362 	300.0000000000118 	1.057744608391985e-11 	101324.9999999972
1.114864864864865 	300.0000000000101 	1.047417604580229e-11 	101324.9999999972
1.117367367367367 	299.9999999999762 	1.138957351281246e-11 	101324.9999999971
1.119869869869869 	299.9999999999524 	1.056197429730831e-11 	101324.9999999971
1.122372372372372 	299.9999999999721 	1.200875970735285e-11 	101324.9999999971
1.124874874874874 	299.9999999999679 	1.117233107541141e-11 	101324.9999999971
1.127377377377377 	299.999999999977 	1.162491442535422e-11 	101324.9999999973
1.129879879879879 	300.0000000000142 	1.074141066814019e-11 	101324.9999999975
1.132382382382382 	300.0000000000211 	1.09993345822288e-11 	101324.9999999976
1.134884884884884 	300.000000000003 	1.086894239123872e-11 	101324.9999999976
1.137387387387387 	300.0000000000076 	1.101145147627258e-11 	101324.9999999978
1.139889889889889 	299.9999999999767 	1.179134689073968e-11 	101324.999999998
1.142392392392392 	299.9999999999721 	1.069831121487859e-11 	101324.9999999981
1.144894894894894 	300.0000000000082 	1.195198792474881e-11 	101324.9999999981
1.147397397397397 	299.9999999999953 	1.125198519724286e-11 	101324.9999999981
1.149899899899899 	299.9999999999597 	1.232139776442811e-11 	101324.9999999981
1.152402402402402 	299.9999999999532 	1.189767065835131e-11 	101324.9999999981
1.154904904904904 	299.9999999999755 	1.227721462778507e-11 	101324.9999999981
1.157407407407407 	299.999999999975 	1.147956132489903e-11 	101324.999999998
1.159909909909909 	299.9999999999556 	1.154985745114361e-11 	101324.999999998
1.162412412412412 	299.9999999999519 	1.275720806389864e-11 	101324.9999999979
1.164914914914914 	299.9999999999739 	1.167946846800593e-11 	101324.9999999981
1.167417417417417 	299.9999999999796 	1.308661615748566e-11 	101324.9999999981
1.169919919919919 	300.000000000009 	1.227457049589807e-11 	101324.9999999983
1.172422422422422 	300.0000000000269 	1.285245401261802e-11 	101324.9999999983
1.174924924924925 	299.9999999999954 	1.178816094169367e-11 	101324.9999999981
1.177427427427427 	299.9999999999777 	1.234568561395708e-11 	101324.9999999981
1.179929929929929 	300.0000000000102 	1.281501992711057e-11 	101324.9999999981
1.182432432432432 	300.0000000000281 	1.097521850602613e-11 	101324.9999999982
1.184934934934934 	300.0000000000033 	1.178314936942497e-11 	101324.9999999983
1.187437437437437 	299.9999999999783 	1.123186671713739e-11 	101324.9999999984
1.189939939939939 	299.9999999999707 	1.236422576669482e-11 	101324.9999999985
1.192442442442442 	299.9999999999534 	1.184017680803071e-11 	101324.9999999985
1.194944944944944 	299.9999999999562 	1.284388993447634e-11 	101324.9999999984
1.197447447447447 	299.9999999999936 	1.214482619109673e-11 	101324.9999999984
1.199949949949949 	300.0000000000056 	1.19706676474544e-11 	101324.9999999984
1.202452452452452 	299.9999999999712 	1.257459342609057e-11 	101324.9999999984
1.204954954954955 	299.9999999999672 	1.16425299433353e-11 	101324.9999999985
1.207457457457457 	299.9999999999845 	1.260385413518379e-11 	101324.9999999986
1.20995995995996 	299.9999999999822 	1.172634423433327e-11 	101324.9999999985
1.212462462462462 	299.9999999999913 	1.253603172563253e-11 	101324.9999999985
1.214964964964964 	299.9999999999919 	1.1935445649801e-11 	101324.9999999985
1.217467467467467 	299.9999999999966 	1.29282212888493e-11 	101324.9999999985
1.219969969969969 	299.9999999999806 	1.223269707788373e-11 	101324.9999999986
1.222472472472472 	300.0000000000041 	1.286014898083521e-11 	101324.9999999985
1.224974974974975 	300.0000000000299 	1.369537123422045e-11 	101324.9999999985
1.227477477477477 	299.999999999996 	1.244419232535012e-11 	101324.9999999987
1.229979979979979 	299.9999999999861 	1.347944958268245e-11 	101324.9999999986
1.232482482482482 	299.9999999999711 	1.276732862148721e-11 	101324.9999999985
1.234984984984984 	299.9999999999715 	1.408217497760482e-11 	101324.9999999985
1.237487487487487 	299.999999999986 	1.279270739712553e-11 	101324.9999999985
1.239989989989989 	299.9999999999883 	1.325350862999205e-11 	101324.9999999987
1.242492492492492 	300.0000000000101 	1.337451383524268e-11 	101324.9999999989
1.244994994994994 	299.9999999999865 	1.195545917754867e-11 	101324.999999999
1.247497497497497 	299.9999999999886 	1.332794446056648e-11 	101324.9999999988
1.249999999999999 	300.0000000001564 	1.297110473507427e-11 	101324.9999999989
