-1.25 	300.0274069000165 	1.073208605991399 	101354.3892626146
-1.247497497497497 	300.0295403383481 	1.082280097891877 	101359.9527097971
-1.244994994994995 	300.0334531026203 	1.096562372443499 	101364.5335235533
-1.242492492492492 	300.0367097045697 	1.106087791157119 	101368.4027937498
-1.23998998998999 	300.0393106384853 	1.113634559828952 	101371.479958611
-1.237487487487487 	300.0411924704513 	1.119069021623179 	101373.7054674489
-1.234984984984985 	300.042319215766 	1.122325762242166 	101375.0380689628
-1.232482482482482 	300.0426715344609 	1.123343596742835 	101375.4545724446
-1.22997997997998 	300.0422428576926 	1.122103642143918 	101374.9475592029
-1.227477477477477 	300.041039773364 	1.118627402596195 	101373.5252674121
-1.224974974974975 	300.0390849766873 	1.112978357600942 	101371.2139432939
-1.222472472472472 	300.0364147758598 	1.10526038849276 	101368.0563048045
-1.21996996996997 	300.033077511963 	1.095614055319668 	101364.1098343184
-1.217467467467467 	300.0291335214911 	1.084214486338469 	101359.4460867121
-1.214964964964965 	300.024654953557 	1.071269695360429 	101354.1503536733
-1.212462462462462 	300.0197235421772 	1.057015956385357 	101348.3194027623
-1.20995995995996 	300.0144290871803 	1.041713134153512 	101342.0594618348
-1.207457457457457 	300.0088686497087 	1.025641466523468 	101335.4852591379
-1.204954954954955 	300.0031443489544 	1.009096321151966 	101328.71774272
-1.202452452452452 	299.9973614145414 	0.9923813146185042 	101321.8811793199
-1.19994994994995 	299.9916256674511 	0.9758031291400469 	101315.1007338286
-1.197447447447447 	299.9860430731962 	0.9596676265705113 	101308.5016403499
-1.194944944944945 	299.9807169054498 	0.9442729842112647 	101302.2058680983
-1.192442442442442 	299.9757450667599 	0.9299027290617978 	101296.3292624999
-1.18993993993994 	299.9712189160845 	0.9168209063259174 	101290.9796260978
-1.187437437437437 	299.9672218133045 	0.9052686412342359 	101286.2554552877
-1.184934934934935 	299.9638278327763 	0.895459423267196 	101282.2441978774
-1.182432432432432 	299.9610991735287 	0.8875736186187346 	101279.0192995225
-1.17992992992993 	299.9590859110814 	0.8817555076968904 	101276.6399699549
-1.177427427427427 	299.9578241133496 	0.8781094610030564 	101275.1487172167
-1.174924924924925 	299.957335476638 	0.8766996146680168 	101274.5714128826
-1.172422422422422 	299.9576291650273 	0.8775511885709163 	101274.9187437294
-1.16991991991992 	299.958700126532 	0.8806477783811841 	101276.1840962355
-1.167417417417417 	299.9605275756686 	0.8859303613612433 	101278.3434546371
-1.164914914914915 	299.9630762631834 	0.8932983855272025 	101281.3554121803
-1.162412412412412 	299.9662988787817 	0.9026150439745104 	101285.1639722309
-1.15990990990991 	299.9701370979915 	0.9137099835237272 	101289.7002921188
-1.157407407407407 	299.9745194976925 	0.9263780547793046 	101294.8799120581
-1.154904904904904 	299.9793659464409 	0.9403875275282175 	101300.6081855632
-1.152402402402403 	299.9845888540094 	0.9554836722328333 	101306.7816844885
-1.1498998998999 	299.9900916007485 	0.9713897465072882 	101313.2863494786
-1.147397397397397 	299.9957750437562 	0.9878170852931516 	101320.0048432376
-1.144894894894895 	300.0015354032415 	1.004465464922971 	101326.8145860321
-1.142392392392392 	300.0072656424696 	1.021028825208065 	101333.5891378646
-1.13988988988989 	300.0128637730999 	1.037208773412131 	101340.2077607458
-1.137387387387387 	300.0182275572883 	1.052710321074502 	101346.5496306531
-1.134884884884885 	300.0232573970106 	1.067248881343237 	101352.4969415416
-1.132382382382382 	300.0278646367432 	1.080563590582821 	101357.9447955966
-1.12987987987988 	300.031963555928 	1.092408245728489 	101362.7917826092
-1.127377377377377 	300.0354764481017 	1.102562624796328 	101366.9459143038
-1.124874874874875 	300.0383439717257 	1.110848835183317 	101370.3370189035
-1.122372372372372 	300.0405124092239 	1.117112516899062 	101372.901427809
-1.11986986986987 	300.0419370687645 	1.121231679906336 	101374.5862983785
-1.117367367367367 	300.0425982272089 	1.123140592451485 	101375.3679972751
-1.114864864864865 	300.042483351992 	1.122800699466061 	101375.2316018765
-1.112362362362362 	300.0415826307194 	1.120199396827937 	101374.1667261439
-1.10985985985986 	300.0399185534843 	1.115393340686546 	101372.1994606505
-1.107357357357357 	300.0375285670798 	1.108478902262575 	101369.373298185
-1.104854854854855 	300.0344426958227 	1.099558666274499 	101365.7241504814
-1.102352352352353 	300.0307171710229 	1.088796981205699 	101361.3186926954
-1.09984984984985 	300.0264357852176 	1.076417266582765 	101356.2560823937
-1.097347347347347 	300.0216665212922 	1.062624654990317 	101350.6168104647
-1.094844844844845 	300.0164807050564 	1.047644140621839 	101344.4852311178
-1.092342342342342 	300.0109938496864 	1.031790910939783 	101337.9979957648
-1.08983983983984 	300.005320231602 	1.015379243140479 	101331.2902359451
-1.087337337337337 	299.9995352220794 	0.9986548191155089 	101324.451108765
-1.084834834834835 	299.9937385877138 	0.981917500107346 	101317.5985774391
-1.082332332332332 	299.9880778524242 	0.9655572581420317 	101310.9069561907
-1.07982982982983 	299.9826603958283 	0.9498770027068791 	101304.5032577011
-1.077327327327327 	299.9775353962382 	0.9350635642852638 	101298.44549817
-1.074824824824825 	299.9727983960089 	0.9213997250912642 	101292.8465342724
-1.072322322322323 	299.9686029073765 	0.9092752701046225 	101287.8878621852
-1.06981981981982 	299.9650286657325 	0.8989093017885106 	101283.6635012173
-1.067317317317317 	299.9620559938675 	0.8903090875111322 	101280.1502149943
-1.064814814814815 	299.9597205828039 	0.883602152063806 	101277.3901920235
-1.062312312312312 	299.9581685461636 	0.8791397634684263 	101275.555881989
-1.05980980980981 	299.9574803639007 	0.8771062514796285 	101274.7426230302
-1.057307307307307 	299.9575536260208 	0.877272505094661 	101274.8294889534
-1.054804804804805 	299.9582713080908 	0.8793813468763777 	101275.6774086619
-1.052302302302302 	299.9597052397676 	0.8836030816943277 	101277.371680379
-1.0497997997998 	299.9620173708823 	0.8902914484968332 	101280.1040511633
-1.047297297297297 	299.9651712365275 	0.8993189404600597 	101283.8312848264
-1.044794794794795 	299.9688820411201 	0.9099786627025912 	101288.2169702881
-1.042292292292292 	299.9729149343707 	0.9216911426648756 	101292.9834182252
-1.03978978978979 	299.9773382853889 	0.9345987465312919 	101298.2114905592
-1.037287287287287 	299.9823801498358 	0.9492122934432663 	101304.1709254108
-1.034784784784785 	299.988046925904 	0.965489728077498 	101310.8692662011
-1.032282282282283 	299.993971297133 	0.9824745675057968 	101317.8724752154
-1.02977977977978 	299.9996886817696 	0.9989776766661531 	101324.631404403
-1.027277277277277 	300.0050401606366 	1.014573903751194 	101330.9580070091
-1.024774774774775 	300.0102637386846 	1.029831375332479 	101337.1336693978
-1.022272272272272 	300.0156797055681 	1.04552282734333 	101343.5370715937
-1.01976976976977 	300.0212871742182 	1.061604391696624 	101350.1671901294
-1.017267267267267 	300.0266555797818 	1.076933202035525 	101356.5150378704
-1.014764764764765 	300.0311978587516 	1.08996290322205 	101361.8862816929
-1.012262262262262 	300.0345769888169 	1.099797492031513 	101365.8822498134
-1.00975975975976 	300.0369173199868 	1.106748368437996 	101368.6498888329
-1.007257257257257 	300.0386753679617 	1.112006005589639 	101370.7289144383
-1.004754754754755 	300.0402909722585 	1.116728417375838 	101372.6395096687
-1.002252252252252 	300.0418778281191 	1.121215134112114 	101374.5161497693
-0.9997497497497498 	300.043142294548 	1.124675437311335 	101376.0115415693
-0.9972472472472473 	300.0435439280636 	1.125643422617048 	101376.485812247
-0.9947447447447449 	300.0425680348284 	1.122719395532253 	101375.3311458779
-0.9922422422422421 	300.0399665101733 	1.115227494291453 	101372.2556186746
-0.9897397397397399 	300.0358641720116 	1.103502527645907 	101367.4051216624
-0.9872372372372376 	300.0306961931581 	1.088746620077067 	101361.2939530786
-0.9847347347347346 	300.0250538472245 	1.072612148028175 	101354.6220741281
-0.9822322322322323 	300.0195173531654 	1.056735158650135 	101348.0756226692
-0.9797297297297296 	300.0145328058956 	1.042389670659176 	101342.1820285024
-0.9772272272272275 	300.0103606875256 	1.030333718761051 	101337.2491919646
-0.9747247247247248 	300.0070844484369 	1.020825077795644 	101333.3756862817
-0.9722222222222224 	300.0046545090731 	1.013740058336225 	101330.5028189843
-0.9697197197197196 	300.0029433807304 	1.00872696699981 	101328.4798139927
-0.9672172172172175 	300.001794510138 	1.005344593885032 	101327.1215570668
-0.9647147147147147 	300.0010564600963 	1.003160888525051 	101326.2489981947
-0.9622122122122124 	300.0006014542543 	1.001807884308034 	101325.7110689062
-0.9597097097097099 	300.0003315749682 	1.001001333077037 	101325.3920048978
-0.9572072072072073 	300.0001772278941 	1.00053773565695 	101325.2095283018
-0.9547047047047047 	300.0000919502203 	1.000280308480777 	101325.1087086889
-0.9522022022022023 	300.00004635579 	1.000141983505205 	101325.0548045432
-0.9496996996996998 	300.0000227306368 	1.000069951489297 	101325.0268735721
-0.9471971971971973 	300.000010851039 	1.000033551062422 	101325.0128287908
-0.9446946946946947 	300.0000050471788 	1.000015679467257 	101325.0059671235
-0.9421921921921923 	300.0000022892252 	1.000007145184929 	101325.0027064889
-0.93968968968969 	300.0000010132508 	1.000003177405868 	101325.0011979271
-0.9371871871871872 	300.0000004379567 	1.000001379776306 	101325.0005177711
-0.9346846846846848 	300.0000001849652 	1.000000585469005 	101325.0002186808
-0.9321821821821823 	300.0000000763678 	1.000000242898495 	101325.0000903052
-0.9296796796796799 	300.0000000308473 	1.000000098588363 	101325.0000364827
-0.9271771771771771 	300.0000000121871 	1.00000003916966 	101325.0000144263
-0.9246746746746748 	300.0000000047192 	1.000000015245491 	101325.0000055863
-0.9221721721721724 	300.0000000017979 	1.000000005810584 	101325.0000021185
-0.9196696696696698 	300.00000000067 	1.000000002170672 	101325.0000007863
-0.9171671671671672 	300.0000000002244 	1.000000000797602 	101325.0000002852
-0.9146646646646649 	300.0000000000753 	1.000000000287844 	101325.0000001005
-0.9121621621621623 	300.0000000000304 	1.000000000102441 	101325.0000000337
-0.9096596596596597 	299.9999999999935 	1.000000000036551 	101325.0000000098
-0.9071571571571573 	299.9999999999929 	1.000000000013731 	101325.0000000014
-0.9046546546546547 	300.0000000000017 	1.00000000000607 	101324.9999999989
-0.9021521521521524 	300.000000000001 	1.00000000000497 	101324.9999999978
-0.8996496496496498 	299.9999999999948 	1.000000000000627 	101324.9999999974
-0.8971471471471473 	300.0000000000015 	1.000000000000067 	101324.9999999976
-0.894644644644645 	299.9999999999999 	1.000000000001952 	101324.9999999978
-0.892142142142142 	300.0000000000097 	1.000000000002153 	101324.9999999977
-0.8896396396396397 	300.0000000000168 	1.000000000002282 	101324.9999999974
-0.8871371371371374 	299.9999999999908 	1.000000000002178 	101324.9999999975
-0.8846346346346349 	299.9999999999815 	1.000000000006094 	101324.9999999979
-0.8821321321321324 	299.9999999999848 	1.000000000000665 	101324.999999998
-0.8796296296296297 	299.999999999984 	1.00000000000106 	101324.9999999976
-0.8771271271271271 	299.9999999999749 	0.9999999999995703 	101324.9999999975
-0.8746246246246248 	299.9999999999811 	1.000000000000944 	101324.9999999972
-0.8721221221221224 	299.9999999999839 	0.9999999999999335 	101324.9999999973
-0.8696196196196196 	299.9999999999837 	1.000000000000319 	101324.9999999973
-0.8671171171171175 	299.9999999999877 	1.000000000001314 	101324.9999999972
-0.8646146146146148 	299.9999999999807 	1.000000000005218 	101324.9999999971
-0.8621121121121121 	299.9999999999866 	1.000000000003405 	101324.9999999972
-0.8596096096096097 	299.9999999999976 	0.999999999996867 	101324.999999997
-0.857107107107107 	299.9999999999942 	0.9999999999985145 	101324.9999999972
-0.8546046046046049 	299.9999999999999 	1.00000000000087 	101324.9999999973
-0.8521021021021022 	300.0000000000098 	1.000000000000848 	101324.9999999975
-0.8495995995995997 	300.0000000000121 	1.000000000001231 	101324.9999999974
-0.8470970970970974 	299.9999999999933 	1.000000000001197 	101324.999999997
-0.8445945945945946 	299.9999999999779 	1.000000000000336 	101324.9999999967
-0.8420920920920922 	300.0000000000036 	0.9999999999997438 	101324.9999999967
-0.8395895895895897 	300.0000000000175 	1.000000000005044 	101324.9999999967
-0.8370870870870872 	300.0000000000022 	1.000000000000433 	101324.9999999968
-0.8345845845845846 	299.999999999994 	1.000000000000034 	101324.9999999969
-0.8320820820820823 	299.999999999987 	1.00000000000226 	101324.9999999973
-0.8295795795795798 	299.9999999999742 	1.000000000001164 	101324.9999999978
-0.8270770770770772 	299.9999999999745 	0.9999999999997831 	101324.9999999981
-0.8245745745745746 	299.9999999999775 	0.9999999999990654 	101324.999999998
-0.8220720720720721 	299.9999999999885 	0.9999999999989311 	101324.9999999972
-0.8195695695695699 	299.9999999999937 	0.9999999999992265 	101324.9999999971
-0.817067067067067 	299.9999999999896 	1.000000000004614 	101324.9999999974
-0.8145645645645651 	299.999999999965 	0.9999999999994684 	101324.9999999976
-0.8120620620620621 	299.9999999999824 	0.9999999999989924 	101324.9999999975
-0.8095595595595597 	300.000000000001 	1.000000000001166 	101324.9999999974
-0.8070570570570572 	299.999999999996 	1.000000000000079 	101324.9999999973
-0.8045545545545546 	299.9999999999666 	0.9999999999988585 	101324.9999999966
-0.8020520520520523 	299.9999999999869 	0.9999999999987133 	101324.9999999962
-0.7995495495495494 	300.0000000000029 	1.000000000004101 	101324.9999999961
-0.7970470470470474 	299.999999999989 	0.9999999999990468 	101324.9999999959
-0.7945445445445446 	299.9999999999937 	1.000000000000714 	101324.9999999962
-0.7920420420420423 	300.0000000000032 	0.9999999999994746 	101324.9999999963
-0.7895395395395397 	300.0000000000109 	1.000000000001063 	101324.9999999964
-0.7870370370370371 	299.9999999999978 	0.9999999999988995 	101324.9999999965
-0.7845345345345348 	299.9999999999955 	0.9999999999987697 	101324.9999999971
-0.7820320320320323 	300.0000000000008 	0.9999999999995337 	101324.9999999975
-0.7795295295295296 	299.9999999999814 	1.000000000003449 	101324.9999999971
-0.7770270270270272 	299.9999999999748 	0.9999999999967343 	101324.9999999966
-0.7745245245245247 	299.9999999999718 	0.9999999999962791 	101324.9999999966
-0.7720220220220222 	299.9999999999794 	0.999999999998732 	101324.9999999968
-0.7695195195195199 	299.9999999999698 	0.9999999999994843 	101324.9999999968
-0.767017017017017 	299.9999999999753 	0.9999999999997878 	101324.9999999968
-0.7645145145145147 	299.9999999999927 	0.9999999999992855 	101324.9999999972
-0.7620120120120122 	299.9999999999955 	0.9999999999982381 	101324.9999999969
-0.7595095095095097 	299.9999999999837 	1.000000000004938 	101324.9999999968
-0.7570070070070072 	299.999999999966 	0.9999999999949079 	101324.9999999968
-0.7545045045045048 	299.999999999976 	0.9999999999987205 	101324.9999999969
-0.7520020020020022 	299.9999999999683 	0.9999999999953386 	101324.9999999968
-0.7494994994994997 	299.9999999999783 	0.9999999999966824 	101324.9999999967
-0.7469969969969972 	299.9999999999893 	0.9999999999956393 	101324.9999999966
-0.7444944944944945 	299.9999999999791 	0.999999999996625 	101324.9999999964
-0.7419919919919924 	299.9999999999885 	0.9999999999983133 	101324.9999999961
-0.7394894894894897 	299.9999999999721 	0.9999999999979909 	101324.9999999962
-0.7369869869869872 	299.9999999999793 	0.9999999999977118 	101324.9999999963
-0.7344844844844846 	299.9999999999855 	0.9999999999974076 	101324.9999999967
-0.7319819819819822 	299.9999999999989 	1.000000000002312 	101324.9999999966
-0.7294794794794797 	300.0000000000057 	0.9999999999962101 	101324.9999999965
-0.7269769769769773 	300.0000000000061 	0.9999999999963063 	101324.9999999967
-0.7244744744744747 	300.0000000000002 	0.9999999999985493 	101324.999999997
-0.721971971971972 	299.9999999999862 	0.999999999998233 	101324.9999999972
-0.7194694694694695 	299.9999999999861 	0.9999999999982718 	101324.9999999972
-0.7169669669669674 	299.9999999999754 	0.9999999999985463 	101324.999999997
-0.7144644644644647 	299.9999999999937 	0.9999999999979357 	101324.9999999966
-0.711961961961962 	300.0000000000061 	0.999999999997025 	101324.9999999968
-0.7094594594594597 	300.0000000000038 	0.9999999999997878 	101324.9999999968
-0.7069569569569573 	299.9999999999949 	0.9999999999981297 	101324.9999999967
-0.7044544544544545 	299.9999999999988 	0.9999999999991996 	101324.9999999966
-0.7019519519519523 	300.0000000000027 	0.9999999999999254 	101324.9999999969
-0.6994494494494495 	299.9999999999832 	0.9999999999993715 	101324.999999997
-0.6969469469469471 	299.9999999999895 	0.9999999999993439 	101324.999999997
-0.6944444444444446 	299.9999999999991 	1.00000000000013 	101324.9999999968
-0.6919419419419421 	300.0000000000073 	1.00000000000066 	101324.9999999965
-0.6894394394394396 	299.9999999999869 	1.000000000000813 	101324.9999999966
-0.6869369369369374 	299.9999999999916 	1.000000000000642 	101324.9999999966
-0.6844344344344344 	299.9999999999974 	1.000000000000467 	101324.9999999969
-0.6819319319319321 	299.9999999999768 	1.000000000000159 	101324.9999999971
-0.6794294294294296 	299.9999999999813 	1.000000000000345 	101324.9999999967
-0.6769269269269272 	299.9999999999731 	1.000000000000095 	101324.9999999964
-0.6744244244244245 	299.9999999999913 	0.9999999999995216 	101324.9999999966
-0.6719219219219222 	299.9999999999725 	0.9999999999986644 	101324.9999999966
-0.6694194194194195 	299.9999999999908 	0.9999999999986504 	101324.9999999964
-0.6669169169169172 	300.000000000001 	0.9999999999992258 	101324.9999999964
-0.6644144144144146 	299.9999999999981 	0.9999999999997204 	101324.9999999968
-0.661911911911912 	299.9999999999966 	0.9999999999999081 	101324.9999999967
-0.6594094094094097 	299.9999999999835 	1.000000000000423 	101324.9999999963
-0.656906906906907 	299.9999999999794 	1.000000000000818 	101324.9999999959
-0.6544044044044046 	299.9999999999633 	1.000000000000175 	101324.9999999962
-0.6519019019019021 	299.9999999999718 	0.9999999999991608 	101324.9999999962
-0.6493993993993996 	299.999999999996 	0.9999999999980943 	101324.9999999963
-0.6468968968968971 	300.0000000000036 	1.000000000002317 	101324.9999999965
-0.6443943943943946 	300.0000000000101 	0.9999999999953367 	101324.9999999969
-0.6418918918918921 	300.000000000013 	0.9999999999962425 	101324.999999997
-0.6393893893893897 	300.0000000000131 	0.9999999999990825 	101324.9999999969
-0.6368868868868871 	300.0000000000112 	0.9999999999991683 	101324.9999999967
-0.6343843843843846 	300.0000000000106 	0.9999999999977793 	101324.9999999962
-0.6318818818818821 	299.9999999999898 	0.9999999999981849 	101324.9999999962
-0.6293793793793795 	299.9999999999955 	0.9999999999994981 	101324.9999999966
-0.6268768768768773 	299.9999999999994 	0.9999999999996905 	101324.9999999968
-0.6243743743743745 	299.9999999999804 	1.000000000001872 	101324.9999999969
-0.6218718718718721 	299.9999999999889 	0.9999999999983367 	101324.9999999971
-0.6193693693693696 	299.9999999999789 	0.9999999999986766 	101324.999999997
-0.6168668668668671 	299.9999999999948 	0.9999999999993425 	101324.9999999969
-0.6143643643643645 	300.0000000000009 	0.9999999999990693 	101324.9999999971
-0.6118618618618621 	300.0000000000087 	0.9999999999993083 	101324.9999999969
-0.6093593593593596 	300.0000000000148 	0.9999999999998053 	101324.9999999965
-0.6068568568568571 	299.9999999999893 	1.000000000000411 	101324.9999999962
-0.6043543543543546 	299.9999999999861 	1.000000000000983 	101324.9999999965
-0.6018518518518521 	299.9999999999784 	1.000000000000179 	101324.9999999971
-0.5993493493493496 	299.9999999999903 	0.9999999999988859 	101324.999999997
-0.5968468468468471 	299.9999999999949 	0.9999999999983274 	101324.9999999968
-0.5943443443443446 	299.9999999999947 	0.9999999999987569 	101324.9999999967
-0.591841841841842 	299.9999999999734 	0.9999999999988662 	101324.999999997
-0.5893393393393397 	299.9999999999784 	0.9999999999985291 	101324.9999999971
-0.5868368368368371 	299.9999999999941 	0.9999999999982849 	101324.9999999971
-0.5843343343343346 	300.0000000000114 	1.000000000003541 	101324.9999999969
-0.5818318318318321 	300.0000000000156 	0.9999999999956091 	101324.9999999967
-0.5793293293293297 	299.9999999999881 	0.9999999999965806 	101324.9999999968
-0.5768268268268271 	299.9999999999901 	0.9999999999991903 	101324.9999999966
-0.5743243243243245 	300.0000000000006 	0.9999999999995302 	101324.9999999967
-0.5718218218218221 	299.9999999999985 	0.999999999999117 	101324.9999999973
-0.5693193193193196 	300.0000000000115 	0.9999999999993334 	101324.9999999977
-0.5668168168168171 	300.0000000000067 	0.9999999999999197 	101324.9999999976
-0.5643143143143147 	299.9999999999756 	0.9999999999999708 	101324.9999999973
-0.5618118118118121 	299.9999999999961 	1.00000000000277 	101324.9999999971
-0.5593093093093094 	300.0000000000066 	0.9999999999992926 	101324.9999999971
-0.5568068068068072 	300.0000000000036 	0.9999999999993948 	101324.9999999968
-0.5543043043043046 	300.0000000000048 	1.000000000000307 	101324.9999999969
-0.551801801801802 	299.999999999977 	1.000000000000732 	101324.9999999969
-0.5492992992992995 	299.9999999999917 	1.000000000001233 	101324.9999999969
-0.5467967967967969 	300.0000000000036 	1.000000000001261 	101324.999999997
-0.5442942942942947 	300.0000000000094 	1.0000000000009 	101324.9999999974
-0.5417917917917919 	299.9999999999775 	1.000000000000627 	101324.9999999971
-0.5392892892892895 	299.9999999999745 	1.000000000000135 	101324.9999999972
-0.536786786786787 	299.9999999999764 	0.9999999999999544 	101324.9999999974
-0.5342842842842846 	299.9999999999746 	0.9999999999998765 	101324.9999999972
-0.531781781781782 	299.9999999999604 	0.9999999999999436 	101324.9999999973
-0.5292792792792794 	299.9999999999634 	1.000000000000171 	101324.9999999971
-0.526776776776777 	299.9999999999717 	1.000000000000183 	101324.9999999971
-0.5242742742742745 	299.9999999999791 	1.000000000000141 	101324.9999999974
-0.521771771771772 	299.9999999999945 	1.00000000000441 	101324.9999999976
-0.5192692692692695 	299.9999999999919 	0.9999999999952313 	101324.9999999976
-0.516766766766767 	299.999999999997 	0.9999999999988325 	101324.9999999977
-0.5142642642642645 	299.9999999999749 	0.999999999996407 	101324.9999999977
-0.511761761761762 	299.9999999999893 	0.9999999999990536 	101324.9999999974
-0.5092592592592596 	300.0000000000057 	0.9999999999962224 	101324.9999999972
-0.506756756756757 	299.9999999999883 	0.9999999999974215 	101324.9999999969
-0.5042542542542544 	300.0000000000074 	0.9999999999988178 	101324.999999997
-0.5017517517517521 	300.0000000000144 	0.9999999999993344 	101324.9999999972
-0.4992492492492494 	300.0000000000087 	0.9999999999994746 	101324.9999999975
-0.496746746746747 	300.000000000002 	1.000000000000069 	101324.9999999974
-0.4942442442442445 	299.9999999999733 	1.000000000000311 	101324.9999999972
-0.4917417417417421 	299.9999999999731 	1.000000000000493 	101324.9999999974
-0.4892392392392395 	299.9999999999735 	1.000000000000483 	101324.9999999978
-0.486736736736737 	299.9999999999862 	1.000000000000272 	101324.9999999974
-0.4842342342342345 	299.9999999999829 	0.9999999999997344 	101324.9999999969
-0.481731731731732 	300.0000000000081 	0.9999999999995335 	101324.999999997
-0.4792292292292296 	300.000000000015 	0.9999999999999319 	101324.999999997
-0.4767267267267268 	299.999999999981 	1.000000000006359 	101324.9999999968
-0.4742242242242246 	299.9999999999887 	0.9999999999989312 	101324.999999997
-0.471721721721722 	299.9999999999725 	1.00000000000065 	101324.9999999976
-0.4692192192192195 	299.9999999999764 	1.000000000001336 	101324.9999999978
-0.4667167167167169 	299.9999999999721 	0.9999999999995574 	101324.9999999974
-0.4642142142142145 	300.0000000000019 	0.9999999999991936 	101324.9999999972
-0.461711711711712 	300.0000000000061 	0.9999999999994209 	101324.9999999971
-0.4592092092092094 	299.9999999999964 	0.9999999999995074 	101324.9999999969
-0.456706706706707 	300.0000000000139 	1.000000000000263 	101324.9999999973
-0.4542042042042045 	299.9999999999878 	1.000000000000606 	101324.9999999972
-0.451701701701702 	299.9999999999897 	1.000000000001197 	101324.9999999971
-0.4491991991991995 	299.9999999999752 	1.00000000000083 	101324.9999999971
-0.4466966966966969 	299.9999999999743 	0.9999999999997505 	101324.9999999974
-0.4441941941941945 	299.9999999999848 	0.9999999999997798 	101324.9999999972
-0.441691691691692 	299.9999999999715 	1.000000000000364 	101324.9999999974
-0.4391891891891895 	299.9999999999881 	1.000000000000422 	101324.9999999971
-0.436686686686687 	299.9999999999841 	1.000000000005578 	101324.999999997
-0.4341841841841846 	299.9999999999858 	0.9999999999961549 	101324.9999999977
-0.431681681681682 	299.9999999999789 	0.9999999999973668 	101324.9999999981
-0.4291791791791794 	299.9999999999779 	0.9999999999991644 	101324.9999999981
-0.426676676676677 	299.9999999999655 	0.9999999999987315 	101324.9999999982
-0.4241741741741744 	299.99999999999 	0.9999999999988177 	101324.9999999983
-0.421671671671672 	300.0000000000064 	0.9999999999994249 	101324.9999999983
-0.4191691691691694 	300.0000000000059 	0.99999999999956 	101324.9999999979
-0.4166666666666669 	300.0000000000129 	0.9999999999989432 	101324.9999999975
-0.4141641641641645 	299.9999999999812 	0.999999999997751 	101324.9999999971
-0.411661661661662 	299.9999999999918 	0.9999999999977935 	101324.9999999964
-0.4091591591591594 	299.9999999999895 	0.9999999999990954 	101324.9999999968
-0.406656656656657 	299.9999999999685 	0.9999999999998623 	101324.9999999972
-0.4041541541541545 	300.0000000000027 	1.000000000000443 	101324.9999999977
-0.401651651651652 	299.9999999999767 	1.000000000000074 	101324.9999999974
-0.3991491491491494 	299.9999999999899 	0.9999999999996201 	101324.9999999969
-0.396646646646647 	299.9999999999894 	1.000000000005443 	101324.9999999965
-0.3941441441441444 	300.0000000000019 	0.9999999999960814 	101324.9999999966
-0.3916416416416419 	299.999999999988 	0.9999999999976761 	101324.9999999966
-0.3891391391391395 	299.9999999999947 	0.9999999999997613 	101324.9999999971
-0.3866366366366368 	299.9999999999981 	1.000000000000465 	101324.9999999973
-0.3841341341341344 	299.9999999999985 	1.000000000001161 	101324.9999999972
-0.381631631631632 	299.9999999999729 	1.000000000001217 	101324.9999999974
-0.3791291291291294 	299.9999999999965 	1.000000000000853 	101324.9999999972
-0.3766266266266269 	299.9999999999949 	1.000000000000388 	101324.9999999969
-0.3741241241241244 	300.0000000000144 	0.9999999999996207 	101324.9999999968
-0.371621621621622 	299.9999999999997 	0.9999999999986875 	101324.9999999969
-0.3691191191191194 	300.0000000000077 	1.000000000004605 	101324.9999999967
-0.366616616616617 	300.0000000000084 	0.9999999999956818 	101324.9999999971
-0.3641141141141143 	299.9999999999723 	0.9999999999987197 	101324.9999999969
-0.3616116116116119 	299.99999999999 	1.000000000001414 	101324.9999999969
-0.3591091091091095 	300.0000000000073 	1.000000000001426 	101324.9999999966
-0.356606606606607 	299.9999999999854 	1.000000000000872 	101324.9999999966
-0.3541041041041044 	299.9999999999993 	1.000000000000104 	101324.9999999968
-0.3516016016016019 	300.0000000000024 	0.9999999999997676 	101324.999999997
-0.3490990990990994 	300.0000000000061 	0.999999999999352 	101324.9999999968
-0.346596596596597 	300.0000000000114 	1.000000000001842 	101324.9999999971
-0.3440940940940944 	300.0000000000113 	0.9999999999976632 	101324.9999999968
-0.3415915915915919 	300.0000000000056 	0.9999999999993732 	101324.9999999966
-0.3390890890890895 	299.9999999999846 	1.000000000000739 	101324.9999999971
-0.3365865865865869 	299.9999999999966 	1.00000000000094 	101324.9999999971
-0.3340840840840844 	299.999999999993 	1.000000000001457 	101324.9999999966
-0.3315815815815819 	300.0000000000122 	1.000000000002002 	101324.9999999965
-0.3290790790790794 	300.0000000000113 	1.000000000001864 	101324.9999999966
-0.3265765765765769 	299.9999999999793 	1.000000000001521 	101324.9999999968
-0.3240740740740744 	299.9999999999933 	1.000000000000992 	101324.9999999971
-0.3215715715715718 	300.0000000000006 	1.000000000000613 	101324.9999999969
-0.3190690690690695 	299.9999999999805 	1.000000000001426 	101324.9999999963
-0.3165665665665668 	299.9999999999923 	1.000000000001728 	101324.9999999959
-0.3140640640640644 	300.000000000003 	1.000000000002388 	101324.9999999959
-0.311561561561562 	299.9999999999814 	1.000000000002567 	101324.9999999957
-0.3090590590590593 	299.9999999999947 	1.000000000002129 	101324.9999999961
-0.3065565565565568 	300.0000000000043 	1.00000000000803 	101324.9999999966
-0.3040540540540545 	299.9999999999914 	0.9999999999977294 	101324.9999999966
-0.3015515515515518 	299.9999999999982 	1.000000000000389 	101324.9999999962
-0.2990490490490494 	299.9999999999822 	1.000000000003083 	101324.9999999956
-0.2965465465465469 	299.9999999999945 	1.000000000003211 	101324.9999999958
-0.2940440440440444 	300.0000000000084 	1.000000000003276 	101324.9999999962
-0.2915415415415418 	300.0000000000105 	1.00000000000343 	101324.9999999966
-0.2890390390390395 	299.9999999999981 	1.000000000003238 	101324.9999999969
-0.2865365365365368 	299.9999999999927 	1.00000000000285 	101324.9999999966
-0.2840340340340343 	299.999999999994 	1.000000000005328 	101324.999999996
-0.2815315315315318 	299.9999999999909 	0.9999999999993558 	101324.999999996
-0.2790290290290295 	299.9999999999747 	1.000000000000558 	101324.9999999963
-0.2765265265265269 	299.9999999999957 	1.000000000001711 	101324.9999999964
-0.2740240240240244 	300.0000000000181 	1.000000000001803 	101324.9999999961
-0.2715215215215219 	300.0000000000188 	1.00000000000192 	101324.9999999958
-0.2690190190190194 	299.9999999999745 	1.000000000002272 	101324.9999999954
-0.2665165165165169 	299.9999999999917 	1.000000000002193 	101324.9999999959
-0.2640140140140144 	299.9999999999912 	1.000000000002057 	101324.9999999958
-0.2615115115115119 	300.0000000000026 	1.000000000005357 	101324.9999999962
-0.2590090090090094 	299.9999999999715 	1.000000000000986 	101324.9999999964
-0.2565065065065068 	299.9999999999898 	1.000000000002919 	101324.9999999957
-0.2540040040040044 	299.9999999999975 	1.000000000004269 	101324.9999999957
-0.2515015015015019 	300.0000000000127 	1.000000000004977 	101324.9999999962
-0.2489989989989994 	300.0000000000139 	1.000000000004183 	101324.9999999963
-0.2464964964964968 	299.9999999999927 	1.000000000003556 	101324.999999996
-0.2439939939939944 	299.9999999999995 	1.000000000006455 	101324.999999996
-0.2414914914914919 	299.9999999999825 	1.000000000001459 	101324.9999999962
-0.2389889889889893 	299.9999999999892 	1.000000000003544 	101324.9999999961
-0.2364864864864869 	300.0000000000136 	1.000000000004282 	101324.9999999959
-0.2339839839839843 	299.9999999999832 	1.000000000007597 	101324.9999999962
-0.2314814814814819 	299.9999999999901 	1.000000000002143 	101324.9999999961
-0.2289789789789792 	299.9999999999643 	1.000000000003173 	101324.9999999959
-0.2264764764764769 	299.999999999976 	1.000000000004282 	101324.9999999957
-0.2239739739739743 	299.9999999999879 	1.000000000004753 	101324.9999999955
-0.2214714714714718 	299.9999999999666 	1.000000000004774 	101324.9999999957
-0.2189689689689693 	299.9999999999823 	1.00000000000346 	101324.999999996
-0.2164664664664669 	299.9999999999953 	1.000000000005592 	101324.9999999959
-0.2139639639639643 	299.9999999999763 	1.000000000000717 	101324.999999996
-0.2114614614614618 	299.9999999999874 	1.000000000002575 	101324.9999999956
-0.2089589589589593 	299.9999999999964 	1.000000000002411 	101324.9999999952
-0.2064564564564568 	299.9999999999953 	1.000000000002204 	101324.9999999949
-0.2039539539539543 	299.9999999999646 	1.00000000000217 	101324.999999995
-0.2014514514514518 	299.9999999999735 	1.000000000002156 	101324.9999999955
-0.1989489489489494 	299.9999999999798 	1.000000000005808 	101324.9999999957
-0.1964464464464468 	299.9999999999958 	1.000000000001164 	101324.9999999959
-0.1939439439439443 	299.9999999999967 	1.000000000002977 	101324.9999999956
-0.1914414414414418 	299.9999999999726 	1.000000000003626 	101324.999999996
-0.1889389389389393 	299.9999999999957 	1.000000000003569 	101324.9999999958
-0.1864364364364368 	300.0000000000115 	1.000000000003921 	101324.9999999954
-0.1839339339339343 	299.9999999999947 	1.000000000004343 	101324.9999999953
-0.1814314314314318 	299.9999999999961 	1.000000000003549 	101324.9999999952
-0.1789289289289293 	299.9999999999667 	1.000000000004118 	101324.9999999954
-0.1764264264264268 	299.9999999999789 	1.00000000000393 	101324.9999999956
-0.1739239239239243 	299.999999999966 	1.000000000003661 	101324.9999999959
-0.1714214214214218 	299.9999999999884 	1.000000000003713 	101324.9999999958
-0.1689189189189193 	299.9999999999746 	1.000000000003877 	101324.9999999954
-0.1664164164164168 	299.9999999999958 	1.00000000000283 	101324.9999999958
-0.1639139139139143 	300.0000000000024 	1.000000000003036 	101324.9999999956
-0.1614114114114118 	300.0000000000078 	1.000000000003827 	101324.9999999957
-0.1589089089089093 	299.9999999999945 	1.000000000010735 	101324.9999999959
-0.1564064064064068 	299.9999999999944 	1.000000000000375 	101324.999999996
-0.1539039039039043 	299.9999999999952 	1.000000000007804 	101324.9999999961
-0.1514014014014018 	300.0000000000025 	1.000000000003294 	101324.9999999956
-0.1488988988988993 	299.9999999999968 	1.000000000007193 	101324.9999999954
-0.1463963963963968 	300.0000000000009 	1.000000000001898 	101324.9999999951
-0.1438938938938943 	299.9999999999794 	1.000000000003171 	101324.9999999957
-0.1413913913913918 	299.9999999999802 	1.000000000004145 	101324.9999999961
-0.1388888888888893 	299.9999999999866 	1.000000000004559 	101324.9999999958
-0.1363863863863868 	299.9999999999704 	1.000000000003938 	101324.9999999962
-0.1338838838838843 	299.9999999999612 	1.000000000003644 	101324.9999999959
-0.1313813813813818 	299.9999999999908 	1.000000000003655 	101324.9999999961
-0.1288788788788793 	299.9999999999734 	1.00000000000378 	101324.999999996
-0.1263763763763768 	299.9999999999877 	1.000000000003892 	101324.9999999962
-0.1238738738738743 	299.9999999999748 	1.000000000003647 	101324.9999999966
-0.1213713713713717 	299.9999999999898 	1.00000000000349 	101324.9999999963
-0.1188688688688693 	300.0000000000065 	1.000000000003597 	101324.9999999956
-0.1163663663663668 	299.9999999999633 	1.000000000004062 	101324.9999999954
-0.1138638638638643 	299.9999999999886 	1.000000000007278 	101324.9999999953
-0.1113613613613618 	299.9999999999946 	1.000000000001913 	101324.9999999956
-0.1088588588588592 	299.9999999999955 	1.000000000006752 	101324.9999999959
-0.1063563563563568 	299.9999999999818 	1.00000000000207 	101324.9999999955
-0.1038538538538543 	299.9999999999933 	1.00000000000363 	101324.999999996
-0.1013513513513517 	300.0000000000084 	1.000000000004013 	101324.9999999962
-0.09884884884884926 	299.9999999999851 	1.000000000004119 	101324.9999999961
-0.09634634634634676 	299.9999999999685 	1.000000000004019 	101324.9999999953
-0.09384384384384425 	299.9999999999551 	1.000000000004036 	101324.9999999951
-0.09134134134134177 	300.0000000000011 	1.00000000000383 	101324.9999999951
-0.08883883883883925 	300.0000000000055 	1.000000000003476 	101324.9999999954
-0.08633633633633674 	299.9999999999744 	1.000000000003303 	101324.9999999958
-0.08383383383383426 	299.9999999999973 	1.000000000003348 	101324.9999999952
-0.08133133133133173 	299.9999999999905 	1.000000000003682 	101324.9999999959
-0.07882882882882926 	299.9999999999652 	1.000000000003892 	101324.9999999959
-0.07632632632632676 	299.9999999999806 	1.000000000003248 	101324.9999999953
-0.07382382382382424 	299.9999999999633 	1.00000000000226 	101324.9999999952
-0.07132132132132173 	299.9999999999903 	1.000000000002614 	101324.9999999951
-0.06881881881881925 	299.9999999999769 	1.000000000004105 	101324.9999999954
-0.06631631631631671 	299.9999999999609 	1.00000000000353 	101324.9999999955
-0.06381381381381425 	299.9999999999771 	1.000000000001403 	101324.999999995
-0.06131131131131173 	299.9999999999785 	1.000000000000731 	101324.9999999945
-0.05880880880880923 	299.9999999999827 	1.000000000001955 	101324.9999999948
-0.05630630630630672 	299.9999999999818 	1.000000000003069 	101324.9999999946
-0.05380380380380424 	300.0000000000111 	1.000000000003121 	101324.9999999953
-0.05130130130130173 	299.9999999999984 	1.000000000002333 	101324.9999999953
-0.04879879879879922 	299.9999999999587 	1.000000000002552 	101324.9999999958
-0.04629629629629672 	299.9999999999686 	1.000000000002509 	101324.9999999959
-0.04379379379379422 	299.9999999999721 	1.000000000001841 	101324.9999999957
-0.04129129129129173 	299.9999999999737 	1.000000000001565 	101324.9999999951
-0.03878878878878922 	300.0000000000017 	1.0000000000019 	101324.9999999953
-0.03628628628628671 	299.9999999999845 	1.000000000001844 	101324.9999999949
-0.03378378378378422 	299.9999999999676 	1.000000000001823 	101324.9999999955
-0.03128128128128172 	299.9999999999813 	1.000000000001862 	101324.9999999962
-0.02877877877877922 	300.0000000000018 	1.000000000001978 	101324.9999999955
-0.0262762762762767 	299.9999999999571 	1.000000000001539 	101324.9999999952
-0.02377377377377422 	299.9999999999902 	1.000000000001467 	101324.9999999948
-0.0212712712712717 	299.9999999999531 	1.000000000000985 	101324.9999999948
-0.01876876876876921 	299.9999999999884 	1.000000000000463 	101324.9999999954
-0.01626626626626671 	299.9999999999956 	1.000000000000618 	101324.9999999954
-0.0137637637637642 	299.9999999999755 	0.9999999999997716 	101324.9999999954
-0.0112612612612617 	299.9999999999927 	0.9999999999988587 	101324.9999999949
-0.008758758758759198 	299.999999999987 	0.999999999998843 	101324.9999999953
-0.006256256256256697 	299.9999999999733 	0.9999999999995637 	101324.9999999953
-0.003753753753754195 	299.9999999999757 	0.9999999999993828 	101324.9999999954
-0.001251251251251693 	299.9999999999687 	0.9999999999992862 	101324.9999999949
0.00125125125125081 	299.9999999999606 	0.9999999999992462 	101324.9999999948
0.003753753753753312 	299.9999999999719 	0.9999999999999839 	101324.9999999951
0.006256256256255817 	299.9999999999675 	1.000000000001096 	101324.9999999955
0.008758758758758317 	299.9999999999741 	1.000000000000301 	101324.9999999957
0.01126126126126082 	299.9999999999869 	0.999999999999337 	101324.9999999958
0.01376376376376332 	299.9999999999772 	0.999999999999904 	101324.9999999952
0.01626626626626582 	299.9999999999914 	1.000000000000303 	101324.9999999951
0.01876876876876833 	299.9999999999872 	0.9999999999998024 	101324.9999999953
0.02127127127127083 	299.9999999999664 	0.9999999999991696 	101324.9999999958
0.02377377377377332 	299.9999999999876 	0.9999999999985478 	101324.9999999953
0.02627627627627583 	299.9999999999603 	0.9999999999979873 	101324.9999999948
0.02877877877877833 	299.9999999999873 	0.9999999999984421 	101324.9999999952
0.03128128128128083 	299.9999999999869 	0.9999999999993321 	101324.9999999954
0.03378378378378333 	299.9999999999636 	0.9999999999990566 	101324.9999999955
0.03628628628628584 	299.9999999999833 	0.9999999999980198 	101324.9999999952
0.03878878878878834 	300.000000000002 	0.9999999999973156 	101324.9999999946
0.04129129129129084 	299.9999999999702 	0.999999999997802 	101324.9999999943
0.04379379379379333 	299.9999999999814 	0.9999999999978477 	101324.9999999944
0.04629629629629585 	299.9999999999722 	0.9999999999970823 	101324.9999999945
0.04879879879879834 	299.9999999999611 	0.9999999999966693 	101324.9999999956
0.05130130130130085 	300.0000000000085 	0.9999999999972939 	101324.9999999957
0.05380380380380335 	300.0000000000108 	0.9999999999976745 	101324.9999999958
0.05630630630630584 	299.9999999999791 	0.9999999999979425 	101324.9999999959
0.05880880880880836 	299.9999999999816 	0.9999999999982125 	101324.9999999954
0.06131131131131085 	299.9999999999833 	0.9999999999977623 	101324.9999999955
0.06381381381381336 	299.9999999999908 	0.9999999999973748 	101324.9999999959
0.06631631631631586 	299.9999999999683 	0.9999999999958741 	101324.9999999953
0.06881881881881835 	299.9999999999843 	0.9999999999953864 	101324.9999999952
0.07132132132132088 	299.9999999999972 	0.9999999999952576 	101324.9999999959
0.07382382382382337 	299.9999999999665 	0.9999999999961222 	101324.999999996
0.07632632632632587 	299.9999999999816 	0.9999999999970635 	101324.9999999958
0.07882882882882837 	299.9999999999827 	0.9999999999976135 	101324.9999999955
0.08133133133133086 	299.9999999999825 	0.9999999999964484 	101324.9999999959
0.08383383383383337 	299.9999999999921 	0.9999999999959593 	101324.9999999962
0.08633633633633589 	299.9999999999656 	0.9999999999961887 	101324.999999996
0.08883883883883838 	299.9999999999926 	0.999999999996069 	101324.999999996
0.09134134134134086 	299.999999999989 	0.9999999999959803 	101324.9999999958
0.09384384384384339 	299.9999999999558 	0.9999999999958914 	101324.9999999952
0.09634634634634588 	299.9999999999817 	0.9999999999957605 	101324.9999999953
0.09884884884884838 	299.9999999999853 	0.9999999999945097 	101324.9999999955
0.1013513513513509 	300.000000000006 	0.9999999999948224 	101324.9999999956
0.1038538538538534 	299.9999999999934 	0.9999999999958694 	101324.9999999951
0.1063563563563559 	299.999999999991 	0.9999999999967386 	101324.9999999956
0.1088588588588584 	300.0000000000151 	0.9999999999965369 	101324.9999999965
0.1113613613613609 	299.9999999999798 	0.9999999999971829 	101324.9999999963
0.1138638638638634 	299.9999999999692 	0.9999999999977277 	101324.9999999964
0.1163663663663659 	299.999999999974 	0.9999999999978513 	101324.9999999956
0.1188688688688684 	299.9999999999856 	0.9999999999973131 	101324.9999999956
0.1213713713713709 	300.000000000002 	0.9999999999965427 	101324.9999999959
0.1238738738738734 	299.9999999999739 	0.9999999999961535 	101324.9999999962
0.1263763763763759 	299.999999999989 	0.9999999999963384 	101324.999999996
0.1288788788788784 	299.9999999999901 	0.9999999999963844 	101324.9999999959
0.1313813813813809 	299.9999999999885 	0.9999999999963095 	101324.999999996
0.1338838838838834 	299.999999999991 	0.9999999999957155 	101324.9999999952
0.1363863863863859 	299.9999999999964 	0.99999999999607 	101324.9999999955
0.1388888888888884 	300.0000000000117 	0.9999999999962748 	101324.9999999959
0.1413913913913909 	299.9999999999997 	0.9999999999959587 	101324.9999999962
0.1438938938938934 	299.9999999999985 	0.9999999999954713 	101324.9999999961
0.1463963963963959 	299.9999999999738 	0.9999999999952931 	101324.9999999963
0.1488988988988985 	299.9999999999724 	0.9999999999964976 	101324.9999999962
0.1514014014014009 	299.9999999999862 	0.9999999999967103 	101324.9999999961
0.1539039039039035 	299.9999999999815 	0.9999999999960418 	101324.9999999957
0.1564064064064059 	299.9999999999728 	0.999999999997281 	101324.999999996
0.1589089089089084 	299.9999999999893 	0.9999999999910654 	101324.9999999962
0.1614114114114109 	299.9999999999882 	0.9999999999945275 	101324.9999999961
0.1639139139139134 	299.9999999999669 	0.999999999994943 	101324.9999999955
0.166416416416416 	299.9999999999913 	0.9999999999949515 	101324.9999999959
0.1689189189189185 	300.0000000000114 	0.9999999999955739 	101324.9999999956
0.1714214214214209 	300.0000000000015 	0.9999999999950303 	101324.9999999959
0.1739239239239235 	299.9999999999862 	0.9999999999948389 	101324.9999999956
0.1764264264264259 	299.9999999999943 	0.9999999999939022 	101324.9999999957
0.1789289289289284 	300.0000000000034 	0.999999999996648 	101324.9999999961
0.181431431431431 	299.9999999999895 	0.9999999999924727 	101324.9999999965
0.1839339339339334 	299.9999999999885 	0.9999999999957743 	101324.9999999963
0.186436436436436 	299.9999999999732 	0.9999999999966517 	101324.999999996
0.1889389389389385 	299.9999999999897 	0.9999999999958328 	101324.9999999959
0.191441441441441 	299.9999999999883 	0.9999999999948658 	101324.9999999964
0.1939439439439434 	299.9999999999746 	0.9999999999949412 	101324.999999996
0.196446446446446 	299.9999999999707 	0.999999999997493 	101324.9999999959
0.1989489489489485 	299.9999999999848 	0.999999999992683 	101324.9999999957
0.2014514514514509 	299.9999999999943 	0.9999999999959818 	101324.9999999959
0.2039539539539535 	299.9999999999968 	0.9999999999966055 	101324.999999996
0.2064564564564559 	299.9999999999792 	0.9999999999963941 	101324.9999999961
0.2089589589589585 	299.9999999999901 	0.9999999999960666 	101324.9999999962
0.211461461461461 	299.9999999999766 	0.9999999999946356 	101324.9999999967
0.2139639639639635 	299.9999999999933 	0.9999999999945941 	101324.9999999969
0.2164664664664659 	300.0000000000011 	0.9999999999958061 	101324.9999999965
0.2189689689689684 	300.0000000000011 	0.999999999998247 	101324.9999999965
0.221471471471471 	299.9999999999995 	0.9999999999929811 	101324.9999999965
0.2239739739739735 	299.9999999999821 	0.9999999999953605 	101324.9999999964
0.226476476476476 	299.9999999999896 	0.9999999999959832 	101324.9999999958
0.2289789789789785 	299.9999999999982 	0.9999999999952188 	101324.9999999958
0.231481481481481 	299.9999999999927 	0.9999999999947873 	101324.999999996
0.2339839839839835 	299.9999999999903 	0.9999999999949922 	101324.9999999961
0.236486486486486 	300.0000000000063 	0.9999999999963249 	101324.9999999964
0.2389889889889885 	300.0000000000016 	0.9999999999969067 	101324.9999999962
0.241491491491491 	299.999999999971 	0.9999999999989831 	101324.9999999963
0.2439939939939935 	299.9999999999893 	0.9999999999940101 	101324.9999999968
0.246496496496496 	299.9999999999994 	0.9999999999962885 	101324.999999997
0.2489989989989985 	300.0000000000227 	0.9999999999963569 	101324.9999999967
0.251501501501501 	300.0000000000205 	0.9999999999958579 	101324.9999999965
0.2540040040040035 	300.0000000000024 	0.9999999999964668 	101324.9999999966
0.256506506506506 	300.0000000000124 	0.9999999999977707 	101324.9999999965
0.2590090090090086 	299.9999999999702 	1.000000000000214 	101324.9999999963
0.261511511511511 	299.9999999999955 	0.9999999999946155 	101324.9999999965
0.2640140140140135 	299.9999999999948 	0.9999999999966863 	101324.999999997
0.2665165165165161 	299.9999999999764 	0.9999999999963405 	101324.9999999969
0.2690190190190185 	300.0000000000023 	0.9999999999961481 	101324.9999999966
0.271521521521521 	300.0000000000174 	0.9999999999971615 	101324.9999999967
0.2740240240240235 	300.0000000000176 	0.9999999999981176 	101324.9999999963
0.276526526526526 	300.0000000000069 	0.9999999999986173 	101324.999999996
0.2790290290290286 	299.9999999999777 	0.9999999999985025 	101324.9999999963
0.281531531531531 	299.9999999999777 	0.9999999999997046 	101324.9999999965
0.2840340340340335 	299.999999999979 	0.9999999999947666 	101324.999999996
0.2865365365365361 	299.9999999999923 	0.9999999999977446 	101324.9999999962
0.2890390390390385 	300.0000000000109 	0.9999999999985371 	101324.9999999961
0.291541541541541 	300.0000000000132 	0.9999999999973719 	101324.9999999964
0.2940440440440436 	300.0000000000126 	0.9999999999977375 	101324.9999999968
0.296546546546546 	300.0000000000076 	0.9999999999996532 	101324.9999999966
0.2990490490490486 	299.9999999999865 	1.0000000000002 	101324.9999999966
0.3015515515515511 	299.9999999999974 	1.000000000000906 	101324.9999999967
0.3040540540540535 	299.9999999999945 	1.000000000004855 	101324.9999999971
0.3065565565565562 	300.0000000000002 	0.9999999999937326 	101324.9999999966
0.3090590590590585 	299.9999999999951 	0.9999999999973906 	101324.9999999961
0.3115615615615611 	299.9999999999691 	0.9999999999986617 	101324.9999999963
0.3140640640640635 	299.9999999999981 	0.9999999999994443 	101324.9999999963
0.316566566566566 	300.0000000000013 	1.000000000000252 	101324.9999999962
0.3190690690690687 	299.9999999999687 	0.9999999999997431 	101324.9999999966
0.3215715715715711 	299.9999999999951 	0.9999999999994025 	101324.999999997
0.3240740740740735 	299.9999999999924 	0.9999999999992955 	101324.999999997
0.326576576576576 	299.999999999979 	0.9999999999984986 	101324.9999999969
0.3290790790790786 	300.0000000000128 	0.9999999999984147 	101324.9999999968
0.3315815815815811 	300.0000000000139 	0.999999999998352 	101324.9999999969
0.3340840840840836 	300.0000000000061 	0.9999999999981068 	101324.999999997
0.3365865865865861 	300.000000000015 	0.9999999999984001 	101324.9999999968
0.3390890890890886 	300.0000000000132 	0.9999999999987879 	101324.9999999971
0.3415915915915911 	299.9999999999963 	0.9999999999998136 	101324.999999997
0.3440940940940935 	299.9999999999742 	1.000000000001459 	101324.9999999971
0.3465965965965962 	300.0000000000057 	0.9999999999968578 	101324.9999999972
0.3490990990990985 	300.0000000000059 	0.9999999999998792 	101324.9999999967
0.3516016016016011 	300.0000000000128 	1.000000000001572 	101324.9999999964
0.3541041041041035 	300.0000000000059 	1.000000000001876 	101324.9999999966
0.3566066066066061 	299.9999999999725 	1.000000000001734 	101324.9999999968
0.3591091091091085 	299.9999999999865 	1.00000000000213 	101324.9999999969
0.3616116116116112 	299.9999999999867 	1.000000000002477 	101324.9999999969
0.3641141141141137 	299.9999999999698 	1.000000000002109 	101324.9999999972
0.3666166166166161 	299.9999999999577 	1.000000000004688 	101324.9999999973
0.3691191191191185 	300.0000000000011 	0.9999999999951525 	101324.9999999972
0.371621621621621 	300.0000000000022 	0.9999999999997528 	101324.9999999969
0.3741241241241237 	300.0000000000126 	1.000000000001424 	101324.999999997
0.3766266266266261 	300.0000000000013 	1.000000000001462 	101324.9999999967
0.3791291291291286 	299.9999999999915 	1.00000000000153 	101324.9999999968
0.3816316316316311 	299.9999999999856 	1.000000000001832 	101324.999999997
0.3841341341341336 	299.999999999999 	1.000000000001921 	101324.999999997
0.3866366366366362 	299.9999999999927 	1.000000000001552 	101324.9999999967
0.3891391391391387 	299.9999999999783 	1.000000000001736 	101324.9999999966
0.391641641641641 	300.0000000000011 	1.000000000001781 	101324.999999997
0.3941441441441436 	299.9999999999962 	1.000000000001615 	101324.9999999972
0.3966466466466462 	299.9999999999944 	1.000000000001556 	101324.9999999968
0.3991491491491486 	299.9999999999839 	1.000000000001808 	101324.9999999961
0.4016516516516512 	299.9999999999748 	1.000000000002043 	101324.9999999966
0.4041541541541536 	299.999999999987 	1.000000000001888 	101324.9999999969
0.4066566566566561 	299.999999999987 	1.000000000003639 	101324.9999999971
0.4091591591591587 	300.0000000000051 	0.9999999999993392 	101324.9999999969
0.4116616616616612 	300.0000000000069 	1.000000000001202 	101324.9999999973
0.4141641641641635 	300.0000000000169 	1.000000000001277 	101324.9999999972
0.4166666666666662 	300.0000000000061 	1.000000000000756 	101324.9999999973
0.4191691691691687 	299.9999999999737 	1.000000000001017 	101324.9999999972
0.421671671671671 	299.9999999999966 	1.000000000000928 	101324.9999999969
0.4241741741741737 	299.9999999999845 	1.000000000000403 	101324.9999999971
0.4266766766766761 	299.999999999977 	1.000000000000703 	101324.9999999972
0.4291791791791785 	299.9999999999971 	1.000000000004426 	101324.999999997
0.4316816816816812 	299.9999999999948 	0.9999999999961422 	101324.9999999971
0.4341841841841836 	300.0000000000029 	1.000000000001158 	101324.9999999968
0.4366866866866862 	299.9999999999869 	1.000000000001871 	101324.9999999966
0.4391891891891885 	300.0000000000016 	1.000000000001537 	101324.999999997
0.4416916916916913 	300.0000000000053 	1.000000000002493 	101324.9999999977
0.4441941941941936 	299.9999999999954 	1.000000000002967 	101324.9999999972
0.4466966966966961 	299.9999999999631 	1.000000000002692 	101324.9999999966
0.4491991991991987 	299.9999999999937 	1.000000000002375 	101324.9999999963
0.4517017017017012 	299.9999999999832 	1.000000000002579 	101324.9999999963
0.4542042042042035 	300.0000000000007 	1.000000000002304 	101324.9999999969
0.4567067067067062 	299.999999999999 	1.000000000001791 	101324.9999999972
0.4592092092092087 	299.9999999999634 	1.00000000000112 	101324.9999999973
0.4617117117117112 	299.9999999999922 	1.000000000000997 	101324.9999999971
0.4642142142142137 	299.9999999999794 	1.00000000000147 	101324.9999999964
0.4667167167167162 	299.9999999999944 	1.00000000000167 	101324.9999999967
0.4692192192192187 	299.9999999999784 	1.000000000000796 	101324.9999999974
0.4717217217217212 	300.0000000000027 	1.000000000000562 	101324.9999999978
0.4742242242242236 	299.999999999985 	1.000000000000891 	101324.999999998
0.4767267267267262 	299.9999999999829 	1.000000000001471 	101324.9999999977
0.4792292292292287 	300.000000000002 	1.000000000002319 	101324.9999999967
0.4817317317317312 	300.0000000000066 	1.000000000002961 	101324.9999999962
0.4842342342342336 	300.0000000000049 	1.000000000003092 	101324.9999999966
0.4867367367367362 	299.9999999999994 	1.000000000003423 	101324.9999999966
0.4892392392392387 	300.0000000000021 	1.000000000003218 	101324.999999997
0.4917417417417412 	300.0000000000142 	1.000000000003542 	101324.9999999968
0.4942442442442437 	299.9999999999865 	1.000000000004334 	101324.9999999968
0.4967467467467462 	299.9999999999688 	1.000000000005472 	101324.9999999967
0.4992492492492487 	299.9999999999598 	1.000000000000424 	101324.9999999967
0.5017517517517511 	299.9999999999715 	1.00000000000165 	101324.9999999966
0.5042542542542537 	299.9999999999984 	1.000000000001809 	101324.999999997
0.5067567567567562 	299.9999999999911 	1.000000000001794 	101324.999999997
0.5092592592592589 	299.9999999999826 	1.000000000002675 	101324.9999999973
0.5117617617617611 	299.9999999999959 	1.000000000002872 	101324.9999999974
0.5142642642642637 	300.000000000007 	1.00000000000233 	101324.9999999972
0.5167667667667663 	300.0000000000009 	1.000000000003041 	101324.999999997
0.5192692692692688 	299.9999999999676 	1.000000000005722 	101324.9999999964
0.5217717717717714 	299.9999999999868 	0.9999999999976699 	101324.9999999965
0.5242742742742736 	299.9999999999862 	1.000000000002294 	101324.9999999968
0.5267767767767763 	299.999999999977 	1.000000000003 	101324.9999999968
0.5292792792792789 	299.9999999999819 	1.000000000002596 	101324.9999999966
0.5317817817817813 	299.999999999971 	1.000000000002347 	101324.9999999968
0.5342842842842837 	299.9999999999928 	1.000000000001437 	101324.999999997
0.5367867867867864 	299.9999999999894 	1.000000000000582 	101324.999999997
0.5392892892892888 	299.9999999999716 	1.000000000000319 	101324.999999997
0.5417917917917912 	299.9999999999831 	1.00000000000107 	101324.9999999973
0.5442942942942938 	299.9999999999797 	1.000000000001937 	101324.9999999973
0.5467967967967964 	299.9999999999895 	1.000000000001596 	101324.9999999968
0.5492992992992988 	299.9999999999866 	1.000000000001655 	101324.9999999964
0.5518018018018012 	299.9999999999823 	1.000000000002534 	101324.999999996
0.5543043043043039 	299.9999999999962 	1.000000000002669 	101324.9999999962
0.5568068068068063 	299.9999999999906 	1.000000000002935 	101324.9999999967
0.5593093093093087 	299.9999999999695 	1.000000000003229 	101324.9999999969
0.5618118118118114 	299.9999999999713 	0.9999999999986319 	101324.9999999972
0.5643143143143137 	299.9999999999666 	1.00000000000025 	101324.999999997
0.5668168168168163 	299.9999999999898 	1.000000000000823 	101324.9999999968
0.5693193193193188 	300.0000000000003 	1.000000000000088 	101324.9999999965
0.5718218218218213 	300.0000000000092 	0.9999999999997088 	101324.9999999963
0.5743243243243239 	300.0000000000086 	0.999999999999771 	101324.9999999963
0.5768268268268262 	300.0000000000009 	1.00000000000025 	101324.9999999964
0.5793293293293288 	299.9999999999821 	1.000000000002631 	101324.9999999964
0.5818318318318314 	299.9999999999809 	1.000000000005424 	101324.9999999966
0.5843343343343338 	300.0000000000061 	0.9999999999974887 	101324.999999997
0.5868368368368363 	299.999999999997 	1.000000000001028 	101324.9999999975
0.5893393393393387 	299.99999999997 	1.000000000001221 	101324.9999999973
0.5918418418418413 	299.9999999999881 	1.000000000000684 	101324.999999997
0.5943443443443439 	299.9999999999977 	1.000000000000678 	101324.9999999968
0.5968468468468463 	300.000000000004 	1.000000000001273 	101324.999999997
0.5993493493493487 	300.0000000000176 	1.000000000001798 	101324.9999999968
0.6018518518518514 	300.0000000000101 	1.000000000002408 	101324.9999999962
0.6043543543543537 	300.0000000000091 	1.000000000002488 	101324.999999996
0.6068568568568564 	300.0000000000001 	1.000000000002086 	101324.9999999963
0.6093593593593587 	299.9999999999643 	1.000000000001473 	101324.999999996
0.6118618618618614 	299.9999999999794 	1.000000000001499 	101324.9999999962
0.6143643643643638 	300.0000000000038 	1.000000000002148 	101324.999999996
0.6168668668668662 	300.0000000000011 	1.000000000002145 	101324.9999999956
0.6193693693693688 	299.9999999999942 	1.000000000001996 	101324.9999999962
0.6218718718718714 	300.0000000000023 	1.000000000002824 	101324.9999999968
0.6243743743743737 	299.9999999999952 	0.9999999999987454 	101324.999999997
0.6268768768768762 	299.9999999999874 	1.000000000000314 	101324.9999999965
0.629379379379379 	299.9999999999949 	1.000000000001064 	101324.9999999963
0.6318818818818812 	300.0000000000024 	1.000000000000928 	101324.9999999965
0.6343843843843838 	300.0000000000085 	1.000000000001046 	101324.9999999963
0.6368868868868864 	300.0000000000024 	1.000000000001349 	101324.999999996
0.6393893893893888 	299.999999999977 	1.000000000001148 	101324.9999999959
0.6418918918918912 	299.9999999999882 	1.000000000002667 	101324.999999996
0.6443943943943939 	299.9999999999843 	1.000000000005044 	101324.9999999962
0.6468968968968963 	299.9999999999914 	0.9999999999972429 	101324.9999999966
0.6493993993993988 	299.999999999988 	1.000000000000113 	101324.9999999964
0.6519019019019012 	300.0000000000038 	1.000000000000644 	101324.9999999964
0.6544044044044038 	299.9999999999802 	1.000000000000894 	101324.9999999964
0.6569069069069065 	299.9999999999725 	1.000000000001695 	101324.999999996
0.6594094094094087 	299.9999999999883 	1.000000000001698 	101324.9999999957
0.6619119119119113 	300.0000000000003 	1.000000000001112 	101324.9999999954
0.664414414414414 	300.0000000000018 	1.00000000000034 	101324.9999999951
0.6669169169169162 	299.9999999999959 	1.00000000000067 	101324.9999999953
0.6694194194194188 	299.9999999999887 	1.000000000000919 	101324.9999999952
0.6719219219219214 	299.9999999999776 	1.000000000000992 	101324.9999999955
0.674424424424424 	299.9999999999901 	1.000000000001335 	101324.9999999958
0.6769269269269262 	299.9999999999807 	1.000000000001382 	101324.9999999962
0.679429429429429 	300.0000000000041 	1.000000000000825 	101324.9999999961
0.6819319319319311 	300.0000000000127 	1.000000000001125 	101324.9999999957
0.6844344344344341 	300.0000000000138 	1.000000000001944 	101324.9999999956
0.686936936936936 	300.0000000000128 	0.9999999999988491 	101324.9999999959
0.6894394394394392 	300.0000000000106 	1.000000000001307 	101324.9999999957
0.6919419419419413 	300.0000000000036 	1.000000000002046 	101324.999999996
0.694444444444444 	299.9999999999776 	1.000000000001709 	101324.9999999961
0.6969469469469463 	299.999999999966 	1.000000000001372 	101324.9999999957
0.6994494494494489 	299.9999999999775 	1.00000000000093 	101324.9999999955
0.7019519519519515 	299.9999999999845 	1.000000000000065 	101324.9999999957
0.7044544544544538 	299.9999999999768 	1.000000000001009 	101324.999999996
0.7069569569569564 	300.0000000000028 	1.000000000002837 	101324.9999999962
0.7094594594594589 	299.9999999999905 	0.9999999999965574 	101324.9999999964
0.7119619619619615 	299.9999999999791 	1.000000000000374 	101324.9999999964
0.7144644644644638 	299.9999999999932 	1.000000000000851 	101324.9999999961
0.7169669669669665 	299.9999999999852 	1.000000000000513 	101324.9999999963
0.7194694694694688 	300.0000000000108 	1.000000000000553 	101324.9999999962
0.7219719719719715 	300.0000000000065 	1.000000000000593 	101324.9999999964
0.7244744744744737 	299.9999999999973 	1.000000000001102 	101324.9999999966
0.7269769769769764 	300.0000000000055 	1.000000000002907 	101324.9999999967
0.7294794794794791 	300.0000000000036 	1.000000000003949 	101324.9999999968
0.7319819819819813 	299.9999999999895 	0.9999999999968947 	101324.9999999968
0.7344844844844839 	299.9999999999616 	1.000000000000685 	101324.9999999966
0.7369869869869864 	299.9999999999744 	1.000000000000953 	101324.9999999963
0.739489489489489 	299.9999999999879 	1.000000000000042 	101324.9999999959
0.7419919919919914 	299.9999999999809 	0.9999999999997045 	101324.9999999959
0.7444944944944939 	299.9999999999793 	1.000000000000535 	101324.999999996
0.7469969969969963 	299.9999999999912 	1.00000000000142 	101324.9999999955
0.7494994994994989 	299.9999999999701 	1.000000000000139 	101324.9999999953
0.7520020020020015 	299.9999999999789 	1.00000000000337 	101324.9999999955
0.7545045045045039 	299.999999999981 	0.9999999999970004 	101324.999999996
0.7570070070070062 	299.9999999999827 	1.000000000000821 	101324.9999999962
0.7595095095095092 	299.9999999999857 	1.000000000001493 	101324.999999996
0.7620120120120112 	299.9999999999926 	1.000000000000961 	101324.9999999959
0.7645145145145138 	299.9999999999923 	1.000000000001101 	101324.9999999961
0.7670170170170165 	299.9999999999765 	1.000000000002613 	101324.999999996
0.7695195195195191 	299.9999999999673 	1.000000000002897 	101324.999999996
0.7720220220220213 	299.9999999999792 	0.9999999999953244 	101324.9999999962
0.7745245245245239 	299.9999999999706 	0.9999999999986497 	101324.9999999963
0.7770270270270263 	299.9999999999728 	1.000000000000126 	101324.9999999959
0.779529529529529 	299.9999999999837 	1.000000000000092 	101324.9999999959
0.7820320320320313 	299.9999999999793 	1.000000000000062 	101324.999999996
0.784534534534534 	299.9999999999993 	0.9999999999999977 	101324.9999999958
0.7870370370370364 	299.9999999999912 	0.9999999999996915 	101324.9999999958
0.7895395395395389 	299.999999999985 	0.9999999999996825 	101324.9999999956
0.7920420420420413 	299.9999999999978 	0.9999999999994296 	101324.9999999959
0.794544544544544 	299.9999999999938 	1.000000000001833 	101324.999999996
0.7970470470470463 	300.0000000000042 	1.000000000002986 	101324.9999999961
0.799549549549549 	300.0000000000045 	0.9999999999962883 	101324.9999999963
0.8020520520520515 	299.9999999999922 	1.000000000000087 	101324.9999999964
0.8045545545545539 	299.999999999971 	1.000000000001566 	101324.9999999962
0.8070570570570563 	299.9999999999831 	1.000000000001336 	101324.9999999962
0.8095595595595589 	299.9999999999803 	1.000000000000262 	101324.9999999964
0.8120620620620614 	299.9999999999891 	0.9999999999996745 	101324.9999999966
0.8145645645645638 	300.0000000000056 	0.9999999999997495 	101324.9999999967
0.8170670670670666 	300.0000000000182 	1.000000000001717 	101324.9999999967
0.8195695695695689 	300.0000000000014 	1.000000000002164 	101324.9999999968
0.8220720720720714 	299.9999999999714 	0.9999999999950326 	101324.9999999965
0.8245745745745739 	299.9999999999853 	0.9999999999981521 	101324.9999999963
0.8270770770770765 	299.9999999999891 	0.9999999999997681 	101324.9999999964
0.8295795795795788 	299.9999999999917 	1.000000000000307 	101324.9999999961
0.8320820820820815 	300.000000000007 	1.000000000001227 	101324.999999996
0.834584584584584 	300.0000000000018 	1.000000000002506 	101324.9999999958
0.8370870870870865 	299.9999999999782 	1.000000000001601 	101324.999999996
0.8395895895895891 	299.999999999968 	0.9999999999974001 	101324.999999996
0.8420920920920915 	299.9999999999935 	0.9999999999989342 	101324.9999999961
0.844594594594594 	299.9999999999878 	0.9999999999993944 	101324.9999999965
0.8470970970970964 	299.9999999999818 	0.9999999999994835 	101324.9999999965
0.8495995995995991 	300.0000000000067 	0.9999999999994423 	101324.9999999964
0.8521021021021015 	299.9999999999978 	0.9999999999988884 	101324.9999999964
0.8546046046046039 	299.9999999999856 	0.9999999999990375 	101324.9999999964
0.8571071071071066 	299.9999999999985 	1.000000000001726 	101324.9999999966
0.8596096096096089 	299.9999999999945 	1.000000000001815 	101324.9999999965
0.8621121121121116 	299.9999999999877 	0.9999999999951742 	101324.9999999966
0.8646146146146139 	300.0000000000071 	0.9999999999987453 	101324.9999999965
0.8671171171171166 	299.9999999999933 	0.9999999999991476 	101324.9999999964
0.8696196196196189 	299.9999999999733 	0.9999999999983203 	101324.9999999967
0.8721221221221216 	299.9999999999919 	0.9999999999981006 	101324.9999999966
0.874624624624624 	300.0000000000047 	0.9999999999981013 	101324.9999999962
0.8771271271271264 	299.9999999999989 	0.9999999999983324 	101324.9999999962
0.879629629629629 	299.9999999999952 	1.000000000000638 	101324.9999999962
0.8821321321321317 	299.9999999999915 	1.000000000000523 	101324.9999999962
0.8846346346346339 	299.9999999999795 	0.9999999999939984 	101324.9999999963
0.8871371371371364 	299.999999999982 	0.9999999999972784 	101324.9999999961
0.8896396396396391 	299.9999999999833 	0.9999999999984279 	101324.999999996
0.8921421421421414 	299.9999999999843 	0.9999999999984133 	101324.9999999963
0.8946446446446441 	299.9999999999911 	0.9999999999981681 	101324.9999999966
0.8971471471471464 	299.9999999999961 	0.9999999999990943 	101324.9999999964
0.8996496496496489 	300.0000000000002 	0.9999999999990307 	101324.9999999964
0.9021521521521517 	299.9999999999989 	0.9999999999967678 	101324.9999999968
0.9046546546546541 	299.9999999999983 	0.9999999999992171 	101324.9999999968
0.9071571571571564 	299.9999999999854 	0.999999999999671 	101324.9999999964
0.9096596596596589 	299.9999999999777 	0.999999999999246 	101324.9999999961
0.9121621621621616 	299.9999999999934 	0.9999999999988032 	101324.999999996
0.9146646646646639 	299.9999999999857 	0.9999999999991633 	101324.999999996
0.9171671671671666 	299.9999999999764 	0.9999999999989123 	101324.9999999961
0.9196696696696689 	299.9999999999909 	1.000000000000749 	101324.9999999961
0.9221721721721714 	299.9999999999866 	1.000000000000436 	101324.9999999961
0.9246746746746741 	299.9999999999721 	0.9999999999944629 	101324.9999999961
0.9271771771771765 	299.9999999999857 	0.999999999997949 	101324.9999999961
0.9296796796796791 	299.9999999999902 	0.9999999999988948 	101324.999999996
0.9321821821821816 	299.9999999999833 	0.9999999999986096 	101324.9999999962
0.9346846846846838 	299.9999999999837 	0.9999999999980929 	101324.9999999964
0.9371871871871866 	300.0000000000039 	0.9999999999980524 	101324.999999996
0.9396896896896891 	300.0000000000002 	0.9999999999980711 	101324.9999999959
0.9421921921921914 	299.9999999999975 	1.000000000000045 	101324.9999999962
0.9446946946946939 	299.9999999999977 	0.9999999999996109 	101324.9999999963
0.9471971971971965 	299.9999999999852 	0.9999999999942413 	101324.9999999963
0.9496996996996991 	299.9999999999865 	0.9999999999978151 	101324.9999999966
0.9522022022022016 	299.9999999999977 	0.9999999999981291 	101324.9999999966
0.9547047047047038 	300.000000000003 	0.9999999999982214 	101324.9999999968
0.9572072072072064 	299.9999999999932 	0.9999999999987987 	101324.9999999966
0.9597097097097093 	299.9999999999844 	1.000000000000358 	101324.9999999963
0.9622122122122114 	299.9999999999825 	1.00000000000018 	101324.9999999962
0.964714714714714 	299.9999999999732 	0.9999999999970206 	101324.999999996
0.9672172172172167 	299.9999999999733 	0.9999999999981228 	101324.9999999965
0.969719719719719 	299.999999999989 	0.9999999999980842 	101324.9999999968
0.9722222222222214 	299.9999999999915 	0.9999999999982514 	101324.9999999968
0.9747247247247239 	299.9999999999898 	0.9999999999990192 	101324.9999999966
0.9772272272272267 	300.0000000000004 	0.9999999999992003 	101324.9999999964
0.9797297297297292 	299.9999999999923 	0.9999999999986726 	101324.9999999961
0.9822322322322313 	299.9999999999874 	1.000000000000867 	101324.9999999957
0.9847347347347344 	299.9999999999848 	1.000000000000177 	101324.9999999956
0.9872372372372363 	299.9999999999685 	0.9999999999943648 	101324.9999999961
0.9897397397397389 	299.9999999999732 	0.999999999997448 	101324.9999999967
0.9922422422422417 	299.9999999999754 	0.9999999999982635 	101324.9999999968
0.9947447447447441 	299.9999999999922 	0.9999999999980332 	101324.9999999967
0.9972472472472468 	299.9999999999941 	0.9999999999980674 	101324.9999999967
0.999749749749749 	299.9999999999903 	0.9999999999979381 	101324.9999999966
1.002252252252252 	299.9999999999927 	0.9999999999982087 	101324.9999999962
1.004754754754754 	300.0000000000027 	1.000000000001315 	101324.9999999962
1.007257257257256 	299.9999999999984 	1.000000000000592 	101324.9999999965
1.009759759759759 	299.9999999999932 	0.9999999999949101 	101324.9999999967
1.012262262262261 	299.9999999999937 	0.9999999999979261 	101324.9999999965
1.014764764764764 	299.9999999999824 	0.9999999999982844 	101324.9999999963
1.017267267267267 	299.9999999999755 	0.9999999999977334 	101324.9999999962
1.019769769769769 	299.9999999999918 	0.99999999999787 	101324.9999999961
1.022272272272272 	299.9999999999993 	1.000000000000026 	101324.9999999962
1.024774774774774 	299.9999999999987 	1.000000000000648 	101324.999999996
1.027277277277277 	299.9999999999967 	0.999999999998465 	101324.9999999958
1.029779779779779 	300.0000000000055 	0.9999999999997429 	101324.9999999959
1.032282282282282 	300.0000000000052 	0.9999999999991357 	101324.9999999962
1.034784784784784 	300.0000000000051 	0.9999999999985275 	101324.9999999962
1.037287287287286 	299.9999999999995 	0.9999999999994718 	101324.9999999959
1.039789789789789 	299.9999999999968 	1.000000000000793 	101324.9999999958
1.042292292292291 	300.0000000000076 	1.000000000001221 	101324.9999999962
1.044794794794794 	300.0000000000172 	1.000000000004072 	101324.9999999964
1.047297297297296 	300.000000000016 	1.000000000002853 	101324.9999999964
1.049799799799799 	300.0000000000063 	0.9999999999974404 	101324.9999999964
1.052302302302302 	299.9999999999945 	1.000000000000565 	101324.9999999962
1.054804804804804 	299.9999999999828 	1.000000000001529 	101324.999999996
1.057307307307306 	299.9999999999745 	1.00000000000171 	101324.999999996
1.059809809809809 	299.999999999987 	1.000000000001725 	101324.999999996
1.062312312312312 	299.9999999999933 	1.000000000001716 	101324.9999999961
1.064814814814814 	299.999999999993 	1.000000000001483 	101324.9999999962
1.067317317317317 	299.9999999999826 	1.00000000000366 	101324.999999996
1.069819819819819 	299.9999999999793 	1.000000000001548 	101324.9999999958
1.072322322322321 	300.0000000000003 	0.9999999999968092 	101324.9999999958
1.074824824824824 	300.0000000000118 	1.000000000000851 	101324.999999996
1.077327327327327 	300.0000000000143 	1.000000000001827 	101324.999999996
1.079829829829829 	300.0000000000145 	1.000000000001826 	101324.9999999957
1.082332332332332 	299.9999999999999 	1.000000000002007 	101324.9999999954
1.084834834834834 	299.9999999999838 	1.000000000004939 	101324.9999999955
1.087337337337337 	299.9999999999727 	1.000000000003397 	101324.9999999959
1.089839839839839 	299.9999999999692 	0.9999999999986495 	101324.9999999962
1.092342342342342 	299.9999999999812 	1.000000000001595 	101324.9999999965
1.094844844844844 	299.9999999999797 	1.000000000004714 	101324.9999999966
1.097347347347347 	299.9999999999716 	1.000000000003298 	101324.9999999964
1.099849849849849 	299.9999999999638 	0.999999999998596 	101324.999999996
1.102352352352352 	299.9999999999818 	1.00000000000101 	101324.9999999955
1.104854854854854 	299.9999999999978 	1.000000000001397 	101324.9999999953
1.107357357357357 	299.9999999999874 	1.000000000001632 	101324.9999999954
1.109859859859859 	299.9999999999834 	1.000000000001706 	101324.9999999955
1.112362362362362 	300.0000000000011 	1.000000000004599 	101324.9999999953
1.114864864864865 	300.000000000004 	1.000000000003032 	101324.9999999956
1.117367367367367 	299.9999999999845 	0.9999999999984487 	101324.999999996
1.119869869869869 	299.9999999999708 	1.00000000000173 	101324.9999999957
1.122372372372372 	299.9999999999891 	1.000000000002599 	101324.9999999957
1.124874874874874 	299.9999999999922 	1.000000000002305 	101324.9999999959
1.127377377377377 	299.999999999988 	1.000000000001914 	101324.9999999955
1.129879879879879 	299.999999999996 	1.000000000001797 	101324.9999999953
1.132382382382382 	300.0000000000121 	1.000000000002015 	101324.9999999954
1.134884884884884 	300.0000000000061 	1.00000000000518 	101324.9999999953
1.137387387387387 	300.0000000000014 	1.000000000003831 	101324.9999999952
1.139889889889889 	299.999999999982 	0.99999999999976 	101324.9999999953
1.142392392392392 	299.9999999999737 	1.000000000002378 	101324.9999999952
1.144894894894894 	299.9999999999989 	1.000000000002929 	101324.9999999948
1.147397397397397 	300.0000000000027 	1.000000000003021 	101324.9999999949
1.149899899899899 	299.9999999999844 	1.000000000003014 	101324.9999999951
1.152402402402402 	299.9999999999768 	1.000000000002901 	101324.9999999953
1.154904904904904 	299.9999999999904 	1.000000000002948 	101324.9999999957
1.157407407407407 	299.999999999991 	1.000000000006377 	101324.9999999955
1.159909909909909 	299.9999999999756 	1.000000000004381 	101324.9999999953
1.162412412412412 	299.9999999999675 	0.9999999999998839 	101324.9999999953
1.164914914914914 	299.999999999984 	1.000000000002757 	101324.9999999951
1.167417417417417 	299.9999999999876 	1.000000000003054 	101324.999999995
1.169919919919919 	299.9999999999994 	1.000000000002562 	101324.9999999949
1.172422422422422 	300.000000000012 	1.000000000002542 	101324.9999999945
1.174924924924925 	300.0000000000013 	1.000000000005791 	101324.9999999942
1.177427427427427 	299.9999999999893 	1.000000000003681 	101324.9999999943
1.179929929929929 	299.9999999999994 	0.9999999999998606 	101324.9999999947
1.182432432432432 	300.0000000000127 	1.000000000004088 	101324.9999999953
1.184934934934934 	300.0000000000051 	1.000000000005862 	101324.9999999953
1.187437437437437 	299.9999999999941 	1.000000000005783 	101324.9999999951
1.189939939939939 	299.9999999999874 	1.000000000005203 	101324.9999999948
1.192442442442442 	299.999999999974 	1.000000000004852 	101324.9999999946
1.194944944944944 	299.9999999999733 	1.000000000004401 	101324.9999999946
1.197447447447447 	299.9999999999958 	1.000000000006849 	101324.9999999946
1.199949949949949 	300.0000000000059 	1.000000000004018 	101324.9999999946
1.202452452452452 	299.9999999999852 	0.9999999999999671 	101324.9999999947
1.204954954954955 	299.9999999999771 	1.000000000003621 	101324.9999999946
1.207457457457457 	299.9999999999873 	1.000000000004846 	101324.9999999947
1.20995995995996 	299.9999999999891 	1.000000000005321 	101324.9999999951
1.212462462462462 	299.9999999999912 	1.000000000005469 	101324.9999999953
1.214964964964964 	299.9999999999902 	1.000000000004821 	101324.9999999952
1.217467467467467 	299.9999999999959 	1.000000000004183 	101324.9999999948
1.219969969969969 	299.9999999999869 	1.000000000007003 	101324.9999999946
1.222472472472472 	299.9999999999948 	1.000000000004776 	101324.9999999946
1.224974974974975 	300.0000000000097 	1.000000000001396 	101324.9999999946
1.227477477477477 	299.9999999999948 	1.000000000004277 	101324.9999999944
1.229979979979979 	299.9999999999896 	1.000000000004703 	101324.9999999943
1.232482482482482 	299.9999999999802 	1.000000000004738 	101324.9999999944
1.234984984984984 	299.999999999977 	1.000000000004926 	101324.9999999946
1.237487487487487 	299.9999999999875 	1.000000000008628 	101324.9999999948
1.239989989989989 	299.9999999999917 	1.000000000006383 	101324.999999995
1.242492492492492 	300.0000000000011 	1.000000000002839 	101324.999999995
1.244994994994994 	299.9999999999924 	1.000000000005924 	101324.9999999949
1.247497497497497 	299.9999999999937 	1.000000000006274 	101324.9999999947
1.249999999999999 	299.9999999999412 	1.000000000005934 	101324.9999999946
