-1.25 	300 	0 	101363.5256621388
-1.247497497497497 	300.0246199452955 	3.08407612422902 	101362.2075577379
-1.244994994994995 	300.0293113531262 	2.899565282021447 	101365.0529750862
-1.242492492492492 	300.0283357301835 	2.71404825053194 	101362.5943350717
-1.23998998998999 	300.0307185332306 	2.534868179990268 	101365.431231377
-1.237487487487487 	300.029636954475 	2.354990007330392 	101363.1082122284
-1.234984984984985 	300.0323501236953 	2.183913052940223 	101366.3277566437
-1.232482482482482 	300.0308401998633 	2.013406049306226 	101363.6883124943
-1.22997997997998 	300.0332706514282 	1.8540745328435 	101366.5817294498
-1.227477477477477 	300.0318956279147 	1.689896584570061 	101364.2602288569
-1.224974974974975 	300.0342817578931 	1.539433830318381 	101367.1057859578
-1.222472472472472 	300.0328072683117 	1.385742294289715 	101364.8111643573
-1.21996996996997 	300.0352387794248 	1.247894038809986 	101367.7223448642
-1.217467467467467 	300.0335690909825 	1.104983290244726 	101365.3200258637
-1.214964964964965 	300.0361181544816 	0.9807079835330378 	101368.3801105134
-1.212462462462462 	300.0343569253172 	0.8508040476785522 	101365.9759772907
-1.20995995995996 	300.0367138206819 	0.7419909638784248 	101368.8157108561
-1.207457457457457 	300.034960704208 	0.6265771621304437 	101366.5103726194
-1.204954954954955 	300.0371388464079 	0.534215965168837 	101369.1397941549
-1.202452452452452 	300.0354248833899 	0.4339291949115176 	101366.9533095333
-1.19994994994995 	300.0374541692136 	0.3588831034723218 	101369.4017105355
-1.197447447447447 	300.0358542159848 	0.2744536602128659 	101367.4076958981
-1.194944944944945 	300.0376821434684 	0.2175160155482088 	101369.607869914
-1.192442442442442 	300.0362967600682 	0.1496700519770594 	101367.9115612545
-1.18993993993994 	300.0378228262695 	0.1115128604407794 	101369.7415712244
-1.187437437437437 	300.0367630600967 	0.1224702184280191 	101368.4614634391
-1.184934934934935 	300.0378586843838 	0.09758914541302363 	101369.7691742455
-1.182432432432432 	300.0372601536565 	0.116392712599455 	101369.0535000472
-1.17992992992993 	300.037802219232 	0.1061191647543211 	101369.6971868006
-1.177427427427427 	300.0378384026118 	0.1098835902666731 	101369.7392973307
-1.174924924924925 	300.0379557974965 	0.1099418036727889 	101369.8781513607
-1.172422422422422 	300.0380694736775 	0.1102667923733794 	101370.0125620508
-1.16991991991992 	300.038175675115 	0.1105730040416772 	101370.1381534995
-1.167417417417417 	300.0382693405014 	0.1108426808259052 	101370.2489208666
-1.164914914914915 	300.0383457255832 	0.1110630421947095 	101370.3392534121
-1.162412412412412 	300.0384021128659 	0.1112266539362317 	101370.4059371465
-1.15990990990991 	300.0384390168238 	0.1113352084089023 	101370.4495803699
-1.157407407407407 	300.038460710426 	0.1114009015700439 	101370.4752355438
-1.154904904904904 	300.0384747000314 	0.1114448175004246 	101370.4917793442
-1.152402402402403 	300.0384899144595 	0.1114917891190625 	101370.509771038
-1.1498998998999 	300.0385139165973 	0.1115626967279265 	101370.5381542656
-1.147397397397397 	300.0385501521117 	0.1116669886514165 	101370.5810043262
-1.144894894894895 	300.038596530999 	0.1117988607291706 	101370.6358502777
-1.142392392392392 	300.0386461013698 	0.1119390886224451 	101370.6944711506
-1.13988988988989 	300.0386895031566 	0.1120616931138326 	101370.7457981187
-1.137387387387387 	300.0387180280965 	0.1121423226562699 	101370.7795326884
-1.134884884884885 	300.0387259930585 	0.1121648491424172 	101370.7889526373
-1.132382382382382 	300.0387116694061 	0.1121240924026478 	101370.7720152682
-1.12987987987988 	300.0386768230904 	0.1120246921826263 	101370.7308099061
-1.127377377377377 	300.0386254283798 	0.1118776184040183 	101370.6700339722
-1.124874874874875 	300.0385622097498 	0.1116961449111972 	101370.5952742638
-1.122372372372372 	300.038491514775 	0.1114926421259282 	101370.5116729363
-1.11986986986987 	300.0384166879131 	0.11127673449491 	101370.423185136
-1.117367367367367 	300.0383398864274 	0.111054711373837 	101370.3323621023
-1.114864864864865 	300.0382621817546 	0.1108297555594474 	101370.2404710072
-1.112362362362362 	300.0381837734664 	0.1106025308891967 	101370.1477479217
-1.10985985985986 	300.0381042239742 	0.11037184120042 	101370.0536754373
-1.107357357357357 	300.0380226560454 	0.1101351943230362 	101369.9572161703
-1.104854854854855 	300.0379378908853 	0.1098892135233269 	101369.8569761616
-1.102352352352353 	300.0378485518474 	0.1096299374156932 	101369.7513274713
-1.09984984984985 	300.0377531429071 	0.1093530686345377 	101369.6385009025
-1.097347347347347 	300.0376501537427 	0.1090542976523081 	101369.5167104722
-1.094844844844845 	300.0375382352598 	0.1087297899417721 	101369.3843608253
-1.092342342342342 	300.037416400592 	0.1083767521327007 	101369.2402848568
-1.08983983983984 	300.037284200593 	0.1079939105978042 	101369.0839513952
-1.087337337337337 	300.0371417942475 	0.1075816979854744 	101368.9155484629
-1.084834834834835 	300.0369898785002 	0.1071420901903424 	101368.7359002311
-1.082332332332332 	300.0368295715688 	0.1066782818962248 	101368.5463290253
-1.07982982982983 	300.0366622860717 	0.1061943041150189 	101368.3485053934
-1.077327327327327 	300.0364895570643 	0.1056945107541629 	101368.1442447176
-1.074824824824825 	300.0363127779432 	0.1051827810393258 	101367.9351948044
-1.072322322322323 	300.0361327786657 	0.1046613690049249 	101367.7223371595
-1.06981981981982 	300.0359494419059 	0.1041299543795417 	101367.5055331407
-1.067317317317317 	300.0357617665796 	0.1035858732497506 	101367.2835990783
-1.064814814814815 	300.0355685048739 	0.1030258649350545 	101367.0550593025
-1.062312312312312 	300.035369101776 	0.102448564394988 	101366.8192573771
-1.05980980980981 	300.0351643089516 	0.1018559825403801 	101366.5770821695
-1.057307307307307 	300.0349557191282 	0.1012521442833699 	101366.3304171995
-1.054804804804805 	300.0347442090904 	0.1006389735975558 	101366.0802994681
-1.052302302302302 	300.034528323284 	0.1000120971310047 	101365.8250079904
-1.0497997997998 	300.0343038997156 	0.09936006450534213 	101365.5596212284
-1.047297297297297 	300.0340657262757 	0.09866898637248198 	101365.2779756793
-1.044794794794795 	300.0338107443051 	0.09793104020342536 	101364.9764541994
-1.042292292292292 	300.033540763966 	0.09715152066134952 	101364.6571969801
-1.03978978978979 	300.0332625758548 	0.09634903213455874 	101364.3282338771
-1.037287287287287 	300.0329850971893 	0.09554778648907045 	101364.0001097449
-1.034784784784785 	300.0327150536837 	0.09476600177253032 	101363.6807782697
-1.032282282282283 	300.0324536277748 	0.09400698304424034 	101363.3716381861
-1.02977977977978 	300.032196137528 	0.09325823076448793 	101363.0671533583
-1.027277277277277 	300.03193484037 	0.09249878921895796 	101362.7581681755
-1.024774774774775 	300.0316628655698 	0.09170980928292277 	101362.4365576981
-1.022272272272272 	300.031377064435 	0.09088241258853746 	101362.0985983025
-1.01976976976977 	300.0310786698947 	0.09001957727513722 	101361.7457477481
-1.017267267267267 	300.0307717155515 	0.08913194839900722 	101361.3827757768
-1.014764764764765 	300.0304602858226 	0.08823057209789238 	101361.014512367
-1.012262262262262 	300.0301464131374 	0.08732118684206407 	101360.6433611039
-1.00975975975976 	300.0298296281975 	0.08640272454099535 	101360.2687672639
-1.007257257257257 	300.0295077182072 	0.08546922730425241 	101359.8881143415
-1.004754754754755 	300.0291779660251 	0.0845133270958634 	101359.4981894034
-1.002252252252252 	300.0288385052584 	0.0835299598207849 	101359.0967854717
-0.9997497497497498 	300.028489217034 	0.08251871589156322 	101358.6837618711
-0.9972472472472473 	300.0281315660833 	0.08148347030467865 	101358.2608506205
-0.9947447447447449 	300.0277676461916 	0.08042995962836356 	101357.8305276693
-0.9922422422422421 	300.0273992932042 	0.0793633485449755 	101357.3949638916
-0.9897397397397399 	300.0270276447187 	0.0782868843337217 	101356.9555045995
-0.9872372372372376 	300.0266530099784 	0.07720152333549569 	101356.5125155832
-0.9847347347347346 	300.0262750476074 	0.07610648090130408 	101356.0655932383
-0.9822322322322323 	300.0258933057875 	0.07500065740395435 	101355.6142033092
-0.9797297297297296 	300.0255077606527 	0.07388398147774553 	101355.1583175808
-0.9772272272272275 	300.0251188063517 	0.07275736595182178 	101354.6984021488
-0.9747247247247248 	300.0247266668352 	0.07162125275469948 	101354.2347219166
-0.9722222222222224 	300.024330874951 	0.07047437258472634 	101353.76672464
-0.9697197197197196 	300.0239305008018 	0.06931437531200468 	101353.2933107474
-0.9672172172172175 	300.023525035563 	0.0681400327811108 	101352.8138785709
-0.9647147147147147 	300.0231150186174 	0.06695278299548148 	101352.3290658849
-0.9622122122122124 	300.0227017302904 	0.06575604532385781 	101351.8403866039
-0.9597097097097099 	300.0222864683394 	0.06455352702860238 	101351.3493752484
-0.9572072072072073 	300.0218703885296 	0.06334867135467111 	101350.8573984644
-0.9547047047047047 	300.0214546599931 	0.0621445572846611 	101350.3658386432
-0.9522022022022023 	300.0210396046343 	0.06094139041973697 	101349.8750766947
-0.9496996996996998 	300.0206228784038 	0.05973223971984083 	101349.3823411736
-0.9471971971971973 	300.0201992601308 	0.05850329740620117 	101348.8814586764
-0.9446946946946947 	300.0197641539422 	0.05724321228829069 	101348.3669949071
-0.9421921921921923 	300.0193186129554 	0.05595551908675019 	101347.8401945212
-0.93968968968969 	300.0188704614079 	0.0546608361782966 	101347.3103086246
-0.9371871871871872 	300.0184289223844 	0.0533829227287554 	101346.7882427651
-0.9346846846846848 	300.0179969687655 	0.05212937006103548 	101346.2775126034
-0.9321821821821823 	300.0175687047022 	0.05088505485891413 	101345.7711473855
-0.9296796796796799 	300.0171344390544 	0.04962494383785629 	101345.2576885538
-0.9271771771771771 	300.016688578687 	0.04833413834448337 	101344.7305225844
-0.9246746746746748 	300.0162330567157 	0.0470169004431505 	101344.1919347469
-0.9221721721721724 	300.0157739326705 	0.04568849921618191 	101343.6490895751
-0.9196696696696698 	300.0153154931596 	0.04436040127502017 	101343.1070557288
-0.9171671671671672 	300.0148577216559 	0.04303347073570717 	101342.5658138916
-0.9146646646646649 	300.0143985624821 	0.04170311476894408 	101342.0229334583
-0.9121621621621623 	300.0139374007726 	0.04036779913636283 	101341.4776874075
-0.9096596596596597 	300.0134757287079 	0.03903089228105219 	101340.9318399904
-0.9071571571571573 	300.0130147415027 	0.03769496728161712 	101340.3868043797
-0.9046546546546547 	300.0125530901156 	0.03635640947666419 	101339.8409857995
-0.9021521521521524 	300.0120876597299 	0.03500746336309183 	101339.2907016208
-0.8996496496496498 	300.0116168409414 	0.03364443951742727 	101338.7340486837
-0.8971471471471473 	300.0111430166972 	0.03227386777558185 	101338.173844163
-0.894644644644645 	300.0106715502627 	0.0309097410864288 	101337.6164291074
-0.892142142142142 	300.0102067425933 	0.0295630534082106 	101337.0668887535
-0.8896396396396397 	300.0097480141864 	0.02823196591882599 	101336.5245383398
-0.8871371371371374 	300.0092895206432 	0.0269009070186342 	101335.982468341
-0.8846346346346349 	300.0088237679873 	0.02555014456039462 	101335.4318185449
-0.8821321321321324 	300.0083468410763 	0.02416960860809897 	101334.8679597591
-0.8796296296296297 	300.0078617324029 	0.02276767571732347 	101334.2944295262
-0.8771271271271271 	300.0073775207656 	0.0213689329303908 	101333.7219612258
-0.8746246246246248 	300.0069048091393 	0.02000197911805344 	101333.1630904936
-0.8721221221221224 	300.0064501002784 	0.01868431580996018 	101332.6255057318
-0.8696196196196196 	300.0060122300155 	0.01741263357708946 	101332.107831061
-0.8671171171171175 	300.0055825419714 	0.0161631502536971 	101331.5998326949
-0.8646146146146148 	300.0051484134837 	0.01490115988852139 	101331.0865876016
-0.8621121121121121 	300.0046983393423 	0.01359501732213745 	101330.5544934532
-0.8596096096096097 	300.0042264925565 	0.01222880087162589 	101329.9966609542
-0.857107107107107 	300.0037352198152 	0.01080928291562525 	101329.4158640745
-0.8546046046046049 	300.0032348264272 	0.009365370812591896 	101328.8242855766
-0.8521021021021022 	300.0027409465678 	0.007940883421064504 	101328.2404084004
-0.8495995995995997 	300.002270613361 	0.006583852842019735 	101327.6843693855
-0.8470970970970974 	300.0018386859533 	0.005336613615976949 	101327.1737351747
-0.8445945945945946 	300.0014557279625 	0.004229579537399038 	101326.7209939977
-0.8420920920920922 	300.0011273166542 	0.003279048260924579 	101326.3327392366
-0.8395895895895897 	300.000854372169 	0.002488006713046985 	101326.0100586318
-0.8370870870870872 	300.0006340982765 	0.001848736247195109 	101325.7496462457
-0.8345845845845846 	300.0004611685069 	0.001346166353608218 	101325.5452049699
-0.8320820820820823 	300.0003288839146 	0.0009611826894263968 	101325.3888152319
-0.8295795795795798 	300.0002301368387 	0.0006734025354191017 	101325.2720741728
-0.8270770770770772 	300.0001581105963 	0.0004632059334519965 	101325.1869229538
-0.8245745745745746 	300.0001067150309 	0.0003130123348826071 	101325.1261617995
-0.8220720720720721 	300.0000707987923 	0.0002079129385419638 	101325.0837006204
-0.8195695695695699 	300.0000461949226 	0.0001358207366636237 	101325.0546131778
-0.817067067067067 	300.0000296585191 	8.73039945364649e-05 	101325.0350633645
-0.8145645645645651 	300.0000187455701 	5.524490008743239e-05 	101325.0221617463
-0.8120620620620621 	300.0000116691324 	3.442985229962788e-05 	101325.0137956971
-0.8095595595595597 	300.0000071573415 	2.114203506387739e-05 	101325.0084616775
-0.8070570570570572 	300.0000043271989 	1.279677199793139e-05 	101325.0051158269
-0.8045545545545546 	300.0000025797249 	7.637652683468527e-06 	101325.0030498992
-0.8020520520520523 	300.0000015170926 	4.496552942032951e-06 	101325.0017935771
-0.7995495495495494 	300.0000008803761 	2.612203812336915e-06 	101325.0010407966
-0.7970470470470474 	300.0000005042627 	1.497887923258693e-06 	101325.0005961579
-0.7945445445445446 	300.0000002851942 	8.480681448037772e-07 	101325.0003371612
-0.7920420420420423 	300.0000001593159 	4.742217661975059e-07 	101325.0001883298
-0.7895395395395397 	300.0000000879214 	2.619755620760367e-07 	101325.0001039256
-0.7870370370370371 	300.0000000479431 	1.430096944070546e-07 	101325.0000566707
-0.7845345345345348 	300.0000000258186 	7.716795234348955e-08 	101325.0000305443
-0.7820320320320323 	300.0000000137521 	4.116432597510294e-08 	101325.0000162752
-0.7795295295295296 	300.0000000072088 	2.171936233619867e-08 	101325.0000085747
-0.7770270270270272 	300.0000000037195 	1.133123723702877e-08 	101325.0000044673
-0.7745245245245247 	300.0000000018859 	5.852855558343257e-09 	101325.0000023012
-0.7720220220220222 	300.0000000009569 	2.988200620930212e-09 	101325.0000011718
-0.7695195195195199 	300.0000000004669 	1.513743076953668e-09 	101325.0000005893
-0.767017017017017 	300.0000000002381 	7.55167227789522e-10 	101325.0000002922
-0.7645145145145147 	300.0000000001316 	3.766996832109677e-10 	101325.0000001422
-0.7620120120120122 	300.0000000000717 	1.811634311953907e-10 	101325.0000000672
-0.7595095095095097 	299.999999999982 	9.057885213697868e-11 	101325.00000003
-0.7570070070070072 	299.9999999999719 	3.85715286479693e-11 	101325.0000000119
-0.7545045045045048 	299.9999999999989 	2.053912387371406e-11 	101325.0000000031
-0.7520020020020022 	299.9999999999761 	5.8905855587313e-12 	101324.9999999991
-0.7494994994994997 	299.9999999999695 	3.800390338368467e-12 	101324.9999999973
-0.7469969969969972 	299.9999999999936 	4.525813658577935e-12 	101324.9999999965
-0.7444944944944945 	299.999999999989 	1.931329543130392e-12 	101324.9999999959
-0.7419919919919924 	299.999999999992 	2.913197893745222e-12 	101324.9999999958
-0.7394894894894897 	299.9999999999676 	1.750091568960817e-12 	101324.9999999956
-0.7369869869869872 	299.9999999999906 	2.216682248715939e-12 	101324.9999999956
-0.7344844844844846 	299.9999999999762 	2.619008744437119e-12 	101324.9999999955
-0.7319819819819822 	300.0000000000041 	1.576237102155632e-12 	101324.9999999953
-0.7294794794794797 	299.9999999999962 	2.500204706154212e-12 	101324.9999999952
-0.7269769769769773 	300.0000000000056 	1.109173440391638e-12 	101324.999999995
-0.7244744744744747 	300.0000000000101 	1.07647678776668e-12 	101324.9999999951
-0.721971971971972 	299.9999999999666 	7.710564461730195e-13 	101324.9999999951
-0.7194694694694695 	299.9999999999885 	8.043488399563869e-13 	101324.9999999952
-0.7169669669669674 	299.9999999999537 	1.150039599441437e-12 	101324.9999999953
-0.7144644644644647 	299.9999999999811 	1.402445112376488e-12 	101324.9999999954
-0.711961961961962 	300.000000000006 	1.740651999801999e-12 	101324.9999999953
-0.7094594594594597 	300.0000000000091 	7.305704750759353e-13 	101324.9999999955
-0.7069569569569573 	300.000000000019 	1.404723816823409e-12 	101324.9999999956
-0.7044544544544545 	300.0000000000228 	6.071627254032352e-13 	101324.9999999956
-0.7019519519519523 	300.0000000000059 	9.40030370148081e-13 	101324.9999999956
-0.6994494494494495 	299.9999999999507 	9.84242739681636e-13 	101324.9999999956
-0.6969469469469471 	299.9999999999586 	1.662894830521081e-12 	101324.9999999957
-0.6944444444444446 	299.9999999999727 	1.140738792212046e-12 	101324.9999999958
-0.6919419419419421 	300.0000000000196 	9.718426778737603e-13 	101324.9999999957
-0.6894394394394396 	299.9999999999962 	6.305682586215752e-13 	101324.9999999955
-0.6869369369369374 	300.0000000000072 	1.288778344075529e-12 	101324.9999999956
-0.6844344344344344 	300.0000000000169 	1.05769554023454e-12 	101324.9999999958
-0.6819319319319321 	299.9999999999721 	1.855636777609575e-12 	101324.999999996
-0.6794294294294296 	299.9999999999581 	1.84230911402544e-12 	101324.9999999959
-0.6769269269269272 	299.9999999999386 	2.095719369727955e-12 	101324.9999999958
-0.6744244244244245 	299.9999999999741 	2.109233674697565e-12 	101324.9999999958
-0.6719219219219222 	299.9999999999681 	1.790159886614271e-12 	101324.9999999957
-0.6694194194194195 	299.9999999999981 	1.980118261030901e-12 	101324.9999999959
-0.6669169169169172 	300.0000000000132 	9.433297895744529e-13 	101324.9999999959
-0.6644144144144146 	299.9999999999745 	1.257495083377852e-12 	101324.9999999958
-0.661911911911912 	299.9999999999792 	7.670628846827509e-13 	101324.9999999959
-0.6594094094094097 	299.9999999999863 	1.356527853569974e-12 	101324.9999999956
-0.656906906906907 	299.9999999999583 	7.501246335699921e-13 	101324.9999999955
-0.6544044044044046 	299.9999999999591 	2.405003706065055e-12 	101324.9999999954
-0.6519019019019021 	299.9999999999871 	1.552171552201122e-12 	101324.9999999953
-0.6493993993993996 	300.0000000000159 	3.760970410276514e-12 	101324.9999999952
-0.6468968968968971 	300.0000000000233 	1.434657740462394e-12 	101324.9999999953
-0.6443943943943946 	299.9999999999972 	4.06867326490914e-12 	101324.9999999952
-0.6418918918918921 	299.9999999999966 	2.312279725218678e-12 	101324.9999999953
-0.6393893893893897 	299.9999999999997 	3.022606398068509e-12 	101324.9999999952
-0.6368868868868871 	299.9999999999852 	1.874878346255368e-12 	101324.9999999952
-0.6343843843843846 	299.9999999999933 	1.744731821059198e-12 	101324.9999999952
-0.6318818818818821 	299.9999999999658 	1.332668059504228e-12 	101324.9999999951
-0.6293793793793795 	300.0000000000025 	1.327058315627628e-12 	101324.9999999951
-0.6268768768768773 	300.0000000000135 	1.118653462355147e-12 	101324.999999995
-0.6243743743743745 	299.9999999999827 	5.938227237228773e-13 	101324.9999999949
-0.6218718718718721 	300.0000000000031 	1.153580955405098e-12 	101324.999999995
-0.6193693693693696 	299.9999999999547 	7.781994976253122e-13 	101324.999999995
-0.6168668668668671 	299.9999999999887 	1.52459971435221e-12 	101324.999999995
-0.6143643643643645 	300.0000000000121 	8.53167864139685e-13 	101324.9999999951
-0.6118618618618621 	299.9999999999917 	1.336764341498855e-12 	101324.9999999952
-0.6093593593593596 	299.9999999999914 	5.553204941264018e-13 	101324.9999999952
-0.6068568568568571 	299.9999999999902 	9.137606173705126e-13 	101324.9999999953
-0.6043543543543546 	299.9999999999711 	4.708418906252221e-13 	101324.9999999953
-0.6018518518518521 	299.9999999999768 	1.025303729922404e-12 	101324.9999999951
-0.5993493493493496 	299.9999999999599 	5.128994896601746e-13 	101324.9999999948
-0.5968468468468471 	299.9999999999672 	1.452452130131531e-12 	101324.9999999947
-0.5943443443443446 	299.9999999999947 	9.200119877061137e-13 	101324.9999999949
-0.591841841841842 	299.9999999999702 	2.015746105982882e-12 	101324.9999999949
-0.5893393393393397 	299.9999999999621 	1.131190587416873e-12 	101324.9999999952
-0.5868368368368371 	299.9999999999952 	2.456315501390133e-12 	101324.9999999955
-0.5843343343343346 	300.0000000000071 	2.036594212478129e-12 	101324.9999999954
-0.5818318318318321 	300.0000000000244 	2.760991679791344e-12 	101324.9999999954
-0.5793293293293297 	299.9999999999909 	1.740098215825591e-12 	101324.9999999952
-0.5768268268268271 	300.0000000000053 	1.805198489815745e-12 	101324.9999999951
-0.5743243243243245 	300.0000000000187 	1.241691390940435e-12 	101324.9999999951
-0.5718218218218221 	300.0000000000173 	8.32870140307194e-13 	101324.9999999953
-0.5693193193193196 	300.0000000000309 	4.658249313782192e-13 	101324.9999999953
-0.5668168168168171 	299.9999999999889 	3.028879331857233e-13 	101324.9999999955
-0.5643143143143147 	299.9999999999637 	1.095519225192511e-12 	101324.9999999953
-0.5618118118118121 	300.0000000000089 	6.350672517184644e-13 	101324.9999999952
-0.5593093093093094 	300.0000000000234 	1.190627619297665e-12 	101324.9999999952
-0.5568068068068072 	300.0000000000126 	7.949998363338604e-13 	101324.9999999952
-0.5543043043043046 	300.0000000000097 	9.443205013792242e-13 	101324.9999999954
-0.551801801801802 	299.9999999999676 	6.532375178522967e-13 	101324.9999999953
-0.5492992992992995 	299.9999999999981 	6.107648543333877e-13 	101324.9999999953
-0.5467967967967969 	300.0000000000102 	4.42982863034451e-13 	101324.9999999951
-0.5442942942942947 	300.0000000000056 	2.935487759202334e-13 	101324.9999999949
-0.5417917917917919 	299.9999999999705 	7.006134022787596e-13 	101324.9999999948
-0.5392892892892895 	299.9999999999517 	1.097921509557554e-12 	101324.9999999946
-0.536786786786787 	299.9999999999669 	5.02323379376342e-13 	101324.9999999948
-0.5342842842842846 	299.999999999972 	1.523937861119944e-12 	101324.999999995
-0.531781781781782 	299.999999999954 	1.263298817537251e-12 	101324.9999999951
-0.5292792792792794 	299.9999999999503 	2.485444803533455e-12 	101324.9999999951
-0.526776776776777 	299.999999999937 	2.106049854192786e-12 	101324.9999999949
-0.5242742742742745 	299.9999999999848 	4.366184275452108e-12 	101324.9999999949
-0.521771771771772 	300.0000000000118 	3.519951230012051e-12 	101324.9999999951
-0.5192692692692695 	299.9999999999741 	4.822392141364582e-12 	101324.9999999952
-0.516766766766767 	300.0000000000038 	3.799327283367592e-12 	101324.9999999953
-0.5142642642642645 	299.999999999974 	4.620103947196669e-12 	101324.9999999954
-0.511761761761762 	299.999999999969 	2.958231350061816e-12 	101324.9999999952
-0.5092592592592596 	299.9999999999808 	2.996495164045705e-12 	101324.9999999951
-0.506756756756757 	299.9999999999608 	2.549945469617679e-12 	101324.999999995
-0.5042542542542544 	299.9999999999993 	2.224247633526214e-12 	101324.9999999949
-0.5017517517517521 	300.0000000000206 	1.867974504524339e-12 	101324.9999999947
-0.4992492492492494 	300.0000000000234 	1.042191235278387e-12 	101324.9999999948
-0.496746746746747 	299.999999999993 	1.545853157878139e-12 	101324.9999999948
-0.4942442442442445 	299.9999999999587 	5.123326229871806e-13 	101324.9999999947
-0.4917417417417421 	299.9999999999569 	9.325288798620499e-13 	101324.9999999945
-0.4892392392392395 	299.99999999997 	8.426459711205594e-13 	101324.9999999943
-0.486736736736737 	299.9999999999717 	1.433152249181011e-12 	101324.9999999945
-0.4842342342342345 	299.9999999999454 	9.072045436580603e-13 	101324.9999999947
-0.481731731731732 	300.0000000000214 	1.911279808324047e-12 	101324.9999999947
-0.4792292292292296 	300.0000000000131 	1.195181336837057e-12 	101324.9999999946
-0.4767267267267268 	299.9999999999732 	2.940275652019466e-12 	101324.9999999947
-0.4742242242242246 	300.0000000000033 	1.827933296472425e-12 	101324.9999999946
-0.471721721721722 	299.9999999999726 	2.7264268675071e-12 	101324.9999999945
-0.4692192192192195 	299.9999999999878 	1.825203948045235e-12 	101324.9999999945
-0.4667167167167169 	299.9999999999403 	1.240975854929394e-12 	101324.9999999946
-0.4642142142142145 	299.9999999999967 	1.580443054391187e-12 	101324.9999999947
-0.461711711711712 	300.0000000000116 	1.425306744633061e-12 	101324.9999999946
-0.4592092092092094 	300.0000000000053 	1.164855703164296e-12 	101324.9999999946
-0.456706706706707 	300.0000000000352 	5.929083894008447e-13 	101324.9999999945
-0.4542042042042045 	299.9999999999592 	9.213721358185225e-13 	101324.9999999943
-0.451701701701702 	299.9999999999658 	2.065874476296237e-13 	101324.9999999944
-0.4491991991991995 	299.9999999999718 	1.372525111584959e-12 	101324.9999999945
-0.4466966966966969 	299.9999999999702 	3.001705379962277e-13 	101324.9999999946
-0.4441941941941945 	299.9999999999965 	1.524752782295022e-12 	101324.9999999945
-0.441691691691692 	299.9999999999732 	1.357455660413164e-12 	101324.9999999945
-0.4391891891891895 	299.9999999999914 	2.132136305614654e-12 	101324.9999999941
-0.436686686686687 	299.9999999999775 	2.658561899619364e-12 	101324.9999999941
-0.4341841841841846 	299.9999999999979 	2.361109038333428e-12 	101324.9999999943
-0.431681681681682 	299.9999999999666 	2.986260100327792e-12 	101324.9999999944
-0.4291791791791794 	299.9999999999532 	1.355086841142508e-12 	101324.9999999945
-0.426676676676677 	299.9999999999412 	1.313480043514998e-12 	101324.9999999946
-0.4241741741741744 	299.999999999977 	2.119259341112705e-12 	101324.9999999944
-0.421671671671672 	300.000000000003 	6.06763754921779e-13 	101324.9999999942
-0.4191691691691694 	300.0000000000326 	1.726809430148424e-12 	101324.9999999942
-0.4166666666666669 	300.0000000000376 	5.343228531715392e-13 	101324.9999999943
-0.4141641641641645 	299.9999999999573 	5.523388312846352e-13 	101324.9999999944
-0.411661661661662 	299.9999999999984 	1.055594227481691e-13 	101324.9999999942
-0.4091591591591594 	300.0000000000074 	3.036147328236694e-14 	101324.9999999943
-0.406656656656657 	299.9999999999663 	9.582627230638218e-13 	101324.9999999941
-0.4041541541541545 	300.0000000000106 	4.295942709146913e-13 	101324.9999999941
-0.401651651651652 	299.9999999999506 	2.598212810717684e-12 	101324.9999999943
-0.3991491491491494 	300.0000000000052 	1.209235786271322e-12 	101324.9999999942
-0.396646646646647 	299.9999999999692 	3.299793295738276e-12 	101324.9999999944
-0.3941441441441444 	299.9999999999849 	1.838559603499863e-12 	101324.9999999942
-0.3916416416416419 	299.9999999999567 	3.037361346086637e-12 	101324.9999999943
-0.3891391391391395 	299.9999999999707 	1.236429271172021e-12 	101324.9999999947
-0.3866366366366368 	299.9999999999702 	1.631211391742619e-12 	101324.9999999947
-0.3841341341341344 	300.0000000000014 	7.092569613979217e-13 	101324.9999999949
-0.381631631631632 	299.9999999999641 	1.342052465513268e-12 	101324.9999999947
-0.3791291291291294 	299.9999999999999 	1.105513121576333e-12 	101324.9999999948
-0.3766266266266269 	300.0000000000137 	1.308341901668961e-12 	101324.9999999948
-0.3741241241241244 	300.0000000000138 	2.277389732546932e-12 	101324.9999999948
-0.371621621621622 	300.0000000000144 	6.569279315276949e-13 	101324.9999999947
-0.3691191191191194 	300.0000000000039 	3.232891141567994e-12 	101324.9999999945
-0.366616616616617 	300.0000000000023 	7.659272981985751e-13 	101324.9999999943
-0.3641141141141143 	299.9999999999834 	2.43208652065953e-12 	101324.9999999943
-0.3616116116116119 	299.9999999999625 	9.788681941178918e-13 	101324.9999999943
-0.3591091091091095 	299.9999999999852 	1.586785284750591e-12 	101324.9999999944
-0.356606606606607 	299.9999999999906 	7.718300190214406e-13 	101324.9999999944
-0.3541041041041044 	299.9999999999936 	4.432425236217952e-13 	101324.9999999941
-0.3516016016016019 	300.0000000000136 	1.096956002327804e-12 	101324.9999999943
-0.3490990990990994 	299.9999999999952 	9.47919523133782e-13 	101324.9999999942
-0.346596596596597 	300.0000000000226 	1.182187191589532e-12 	101324.9999999943
-0.3440940940940944 	300.0000000000263 	7.62341241964232e-13 	101324.9999999944
-0.3415915915915919 	300.0000000000172 	2.274544439451473e-12 	101324.9999999946
-0.3390890890890895 	299.9999999999905 	9.276206822772035e-13 	101324.9999999947
-0.3365865865865869 	300.0000000000148 	2.154363920585505e-12 	101324.9999999944
-0.3340840840840844 	299.999999999996 	1.756687481689798e-12 	101324.9999999943
-0.3315815815815819 	300.0000000000131 	2.558548213802793e-12 	101324.9999999942
-0.3290790790790794 	300.0000000000123 	2.726150945536032e-12 	101324.9999999941
-0.3265765765765769 	299.9999999999515 	3.164964646087719e-12 	101324.9999999941
-0.3240740740740744 	299.9999999999998 	2.097360773508768e-12 	101324.9999999942
-0.3215715715715718 	300.000000000006 	3.608012243815596e-12 	101324.9999999943
-0.3190690690690695 	299.9999999999564 	2.758884229901429e-12 	101324.9999999942
-0.3165665665665668 	299.999999999993 	4.126525464320408e-12 	101324.9999999941
-0.3140640640640644 	299.9999999999997 	2.680785342571583e-12 	101324.9999999937
-0.311561561561562 	299.9999999999506 	5.509981917140903e-12 	101324.9999999938
-0.3090590590590593 	299.9999999999966 	1.965760771648569e-12 	101324.9999999937
-0.3065565565565568 	300.0000000000032 	5.937856936496192e-12 	101324.9999999938
-0.3040540540540545 	300.0000000000005 	1.380926297523596e-12 	101324.9999999939
-0.3015515515515518 	300.0000000000209 	5.520222771570274e-12 	101324.9999999939
-0.2990490490490494 	299.9999999999607 	3.382207002421761e-12 	101324.9999999942
-0.2965465465465469 	299.9999999999915 	5.299565887400905e-12 	101324.9999999943
-0.2940440440440444 	299.9999999999942 	4.778142390359278e-12 	101324.999999994
-0.2915415415415418 	300.0000000000044 	5.347999845482909e-12 	101324.9999999937
-0.2890390390390395 	300.000000000006 	6.012969151863469e-12 	101324.9999999938
-0.2865365365365368 	299.9999999999831 	4.7945111330258e-12 	101324.9999999941
-0.2840340340340343 	299.999999999999 	6.623857244635049e-12 	101324.999999994
-0.2815315315315318 	299.9999999999466 	4.351503355678892e-12 	101324.9999999941
-0.2790290290290295 	299.9999999999769 	5.739984100007627e-12 	101324.9999999938
-0.2765265265265269 	300.0000000000063 	4.463088319299759e-12 	101324.9999999939
-0.2740240240240244 	300.0000000000138 	5.435157811522115e-12 	101324.9999999941
-0.2715215215215219 	300.0000000000072 	5.206694336223049e-12 	101324.9999999937
-0.2690190190190194 	299.9999999999643 	4.314677254452064e-12 	101324.9999999938
-0.2665165165165169 	299.9999999999975 	4.93514499212095e-12 	101324.9999999937
-0.2640140140140144 	299.9999999999819 	4.412271931038764e-12 	101324.9999999937
-0.2615115115115119 	299.9999999999977 	6.998537436782939e-12 	101324.9999999938
-0.2590090090090094 	299.9999999999528 	5.217943130223652e-12 	101324.9999999939
-0.2565065065065068 	299.9999999999951 	6.230828026480813e-12 	101324.9999999936
-0.2540040040040044 	299.9999999999944 	6.016849070114402e-12 	101324.9999999935
-0.2515015015015019 	300.0000000000223 	5.568840447804357e-12 	101324.9999999936
-0.2489989989989994 	300.0000000000271 	7.068076528844298e-12 	101324.9999999936
-0.2464964964964968 	299.9999999999897 	5.040630461058115e-12 	101324.9999999936
-0.2439939939939944 	299.9999999999928 	7.652530164766506e-12 	101324.9999999937
-0.2414914914914919 	299.9999999999744 	4.022296847416106e-12 	101324.9999999938
-0.2389889889889893 	299.9999999999984 	7.799386057052436e-12 	101324.9999999937
-0.2364864864864869 	300.0000000000152 	5.234578572504124e-12 	101324.9999999939
-0.2339839839839843 	299.9999999999592 	8.876947005304095e-12 	101324.9999999938
-0.2314814814814819 	299.9999999999849 	5.298234388170924e-12 	101324.9999999939
-0.2289789789789792 	299.999999999947 	7.810882850182788e-12 	101324.9999999937
-0.2264764764764769 	299.9999999999627 	5.307959863181171e-12 	101324.9999999939
-0.2239739739739743 	299.9999999999751 	6.168812351423571e-12 	101324.9999999938
-0.2214714714714718 	299.9999999999594 	5.217606430204453e-12 	101324.9999999937
-0.2189689689689693 	299.9999999999772 	4.470266082318812e-12 	101324.9999999935
-0.2164664664664669 	299.999999999987 	6.182307578021296e-12 	101324.9999999939
-0.2139639639639643 	299.9999999999558 	4.014641215155236e-12 	101324.9999999938
-0.2114614614614618 	299.9999999999797 	5.232199119908912e-12 	101324.9999999937
-0.2089589589589593 	299.9999999999954 	4.81311752605272e-12 	101324.9999999939
-0.2064564564564568 	299.9999999999956 	4.315997296828546e-12 	101324.9999999939
-0.2039539539539543 	299.9999999999433 	4.882944335057525e-12 	101324.9999999939
-0.2014514514514518 	299.9999999999594 	2.268428996727727e-12 	101324.9999999938
-0.1989489489489494 	299.9999999999787 	4.658849348017421e-12 	101324.9999999936
-0.1964464464464468 	299.9999999999964 	1.474080572484313e-12 	101324.9999999936
-0.1939439439439443 	299.9999999999934 	4.729156732097121e-12 	101324.9999999937
-0.1914414414414418 	299.9999999999505 	2.761251288562341e-12 	101324.9999999937
-0.1889389389389393 	300.0000000000009 	4.099949541231851e-12 	101324.999999994
-0.1864364364364368 	300.0000000000219 	3.715544920472928e-12 	101324.999999994
-0.1839339339339343 	299.9999999999835 	4.091533614905253e-12 	101324.9999999939
-0.1814314314314318 	299.9999999999955 	4.474298794990594e-12 	101324.9999999939
-0.1789289289289293 	299.9999999999349 	4.904329172529677e-12 	101324.999999994
-0.1764264264264268 	299.9999999999856 	3.765026671811724e-12 	101324.9999999939
-0.1739239239239243 	299.9999999999351 	4.337328866847931e-12 	101324.999999994
-0.1714214214214218 	299.9999999999897 	2.36379674850139e-12 	101324.9999999938
-0.1689189189189193 	299.9999999999666 	4.384032655558921e-12 	101324.999999994
-0.1664164164164168 	300.0000000000013 	9.263860416163102e-13 	101324.9999999938
-0.1639139139139143 	299.9999999999896 	5.186414991029269e-12 	101324.9999999939
-0.1614114114114118 	300.0000000000133 	1.329272973679314e-12 	101324.9999999939
-0.1589089089089093 	299.9999999999972 	6.947978491028555e-12 	101324.999999994
-0.1564064064064068 	299.9999999999854 	2.385226858126105e-12 	101324.9999999942
-0.1539039039039043 	299.9999999999943 	7.252030483630926e-12 	101324.999999994
-0.1514014014014018 	300.0000000000147 	2.060742672804211e-12 	101324.9999999939
-0.1488988988988993 	299.9999999999933 	6.262432455878815e-12 	101324.9999999937
-0.1463963963963968 	300.0000000000016 	7.766202445729155e-13 	101324.9999999935
-0.1438938938938943 	299.9999999999736 	5.514262917752713e-12 	101324.9999999933
-0.1413913913913918 	299.9999999999522 	1.154748054012695e-12 	101324.9999999931
-0.1388888888888893 	299.9999999999841 	4.397272799978152e-12 	101324.9999999933
-0.1363863863863868 	299.9999999999299 	2.824777615769993e-12 	101324.9999999933
-0.1338838838838843 	299.999999999949 	4.247226388092773e-12 	101324.9999999932
-0.1313813813813818 	299.9999999999936 	3.051481371777223e-12 	101324.9999999933
-0.1288788788788793 	299.999999999974 	3.712715701747108e-12 	101324.9999999937
-0.1263763763763768 	299.9999999999797 	2.182569472589853e-12 	101324.999999994
-0.1238738738738743 	299.9999999999558 	3.698877738438429e-12 	101324.999999994
-0.1213713713713717 	299.9999999999894 	2.06816501592607e-12 	101324.999999994
-0.1188688688688693 	300.0000000000081 	4.706333177550917e-12 	101324.9999999941
-0.1163663663663668 	299.9999999999416 	9.3037813892506e-13 	101324.9999999939
-0.1138638638638643 	299.9999999999943 	4.072464972833294e-12 	101324.999999994
-0.1113613613613618 	299.9999999999909 	8.020096405772365e-13 	101324.9999999941
-0.1088588588588592 	299.9999999999858 	4.11369699482156e-12 	101324.999999994
-0.1063563563563568 	299.9999999999709 	9.591427402735364e-13 	101324.9999999939
-0.1038538538538543 	299.9999999999872 	3.106829087776601e-12 	101324.9999999939
-0.1013513513513517 	300.0000000000094 	7.260504846280789e-13 	101324.9999999941
-0.09884884884884926 	299.9999999999648 	3.132364180384948e-12 	101324.999999994
-0.09634634634634676 	299.9999999999358 	1.871490075277753e-12 	101324.999999994
-0.09384384384384425 	299.9999999999494 	2.253467228390004e-12 	101324.9999999943
-0.09134134134134177 	300.0000000000123 	1.45785331928754e-12 	101324.9999999941
-0.08883883883883925 	300.0000000000073 	2.655840382466712e-12 	101324.9999999941
-0.08633633633633674 	299.9999999999682 	2.704094868267331e-12 	101324.9999999943
-0.08383383383383426 	300.0000000000035 	2.828458979650626e-12 	101324.9999999947
-0.08133133133133173 	299.9999999999824 	3.212382378363416e-12 	101324.9999999946
-0.07882882882882926 	299.9999999999289 	2.393322381179513e-12 	101324.9999999947
-0.07632632632632676 	299.9999999999726 	1.820065335245046e-12 	101324.9999999947
-0.07382382382382424 	299.9999999999353 	1.21721067389181e-12 	101324.9999999947
-0.07132132132132173 	300.0000000000074 	5.689488443457478e-13 	101324.9999999947
-0.06881881881881925 	299.999999999976 	4.094115132641817e-13 	101324.9999999948
-0.06631631631631671 	299.9999999999337 	6.902623986022105e-14 	101324.9999999946
-0.06381381381381425 	299.9999999999728 	7.590683319263555e-14 	101324.9999999944
-0.06131131131131173 	299.9999999999737 	7.447705562440442e-14 	101324.9999999943
-0.05880880880880923 	299.9999999999484 	3.603800874798441e-15 	101324.9999999943
-0.05630630630630672 	299.9999999999798 	4.737574061269747e-14 	101324.9999999946
-0.05380380380380424 	300.0000000000099 	3.584234764614484e-13 	101324.9999999946
-0.05130130130130173 	300.0000000000068 	4.312639808600338e-13 	101324.9999999945
-0.04879879879879922 	299.9999999999662 	7.275292506829947e-13 	101324.9999999946
-0.04629629629629672 	299.999999999958 	9.594943379664764e-13 	101324.999999995
-0.04379379379379422 	299.9999999999454 	1.71604449797648e-12 	101324.9999999949
-0.04129129129129173 	299.9999999999875 	1.435800935080091e-12 	101324.9999999948
-0.03878878878878922 	299.9999999999893 	1.516440325784003e-12 	101324.9999999945
-0.03628628628628671 	299.9999999999881 	1.070326403127009e-12 	101324.9999999943
-0.03378378378378422 	299.9999999999542 	1.238440504760207e-12 	101324.9999999941
-0.03128128128128172 	299.9999999999801 	1.504136695007249e-13 	101324.9999999938
-0.02877877877877922 	299.9999999999784 	3.958158249596335e-13 	101324.9999999939
-0.0262762762762767 	299.9999999999367 	5.550280396388986e-13 	101324.9999999942
-0.02377377377377422 	300.0000000000124 	9.444980376111968e-13 	101324.9999999944
-0.0212712712712717 	299.9999999999381 	1.287318121684801e-12 	101324.9999999944
-0.01876876876876921 	299.9999999999816 	8.084536911861629e-13 	101324.9999999944
-0.01626626626626671 	300.0000000000075 	1.531499593085875e-12 	101324.9999999944
-0.0137637637637642 	299.9999999999768 	1.000637185982045e-12 	101324.9999999945
-0.0112612612612617 	300.00000000001 	1.169694397901896e-12 	101324.9999999945
-0.008758758758759198 	299.999999999998 	5.866350342176506e-13 	101324.9999999947
-0.006256256256256697 	299.9999999999301 	6.060502543387046e-13 	101324.9999999948
-0.003753753753754195 	299.9999999999698 	5.09058010462836e-15 	101324.9999999949
-0.001251251251251693 	299.9999999999521 	6.590047493933825e-14 	101324.9999999949
0.00125125125125081 	299.9999999999703 	5.286233107889957e-13 	101324.9999999946
0.003753753753753312 	299.9999999999777 	1.16773259776023e-13 	101324.9999999946
0.006256256256255817 	299.9999999999288 	6.721260529055609e-13 	101324.9999999944
0.008758758758758317 	299.9999999999911 	7.07759210798568e-13 	101324.9999999945
0.01126126126126082 	300.0000000000067 	7.463079911449365e-13 	101324.9999999946
0.01376376376376332 	299.9999999999789 	8.70192836367631e-13 	101324.9999999946
0.01626626626626582 	300.0000000000059 	1.194939258535852e-12 	101324.9999999947
0.01876876876876833 	299.9999999999728 	7.581663042129973e-13 	101324.9999999947
0.02127127127127083 	299.9999999999793 	7.839466434540247e-13 	101324.9999999945
0.02377377377377332 	299.9999999999976 	5.396675359712222e-13 	101324.9999999944
0.02627627627627583 	299.9999999999411 	5.083194042118299e-14 	101324.9999999941
0.02877877877877833 	300.0000000000038 	3.565480399355261e-13 	101324.9999999943
0.03128128128128083 	299.9999999999641 	1.850931745409962e-14 	101324.9999999943
0.03378378378378333 	299.9999999999376 	9.524561720255308e-13 	101324.9999999942
0.03628628628628584 	299.9999999999838 	1.472276267519843e-12 	101324.9999999945
0.03878878878878834 	299.9999999999899 	1.771918965123463e-12 	101324.9999999943
0.04129129129129084 	299.9999999999856 	1.976846013858546e-12 	101324.9999999943
0.04379379379379333 	299.9999999999605 	1.847780878836066e-12 	101324.9999999944
0.04629629629629585 	299.9999999999288 	1.58711001181376e-12 	101324.9999999944
0.04879879879879834 	299.9999999999692 	1.653723425073879e-12 	101324.9999999943
0.05130130130130085 	300.0000000000082 	1.588041362095721e-12 	101324.9999999947
0.05380380380380335 	300.0000000000114 	9.728643843228878e-13 	101324.9999999945
0.05630630630630584 	299.999999999993 	6.035201926235046e-13 	101324.9999999944
0.05880880880880836 	299.9999999999524 	7.763295667395591e-13 	101324.9999999946
0.06131131131131085 	299.9999999999849 	1.391541290707212e-12 	101324.9999999949
0.06381381381381336 	299.9999999999762 	1.847511313609681e-12 	101324.9999999947
0.06631631631631586 	299.9999999999305 	1.827471304850805e-12 	101324.9999999943
0.06881881881881835 	299.9999999999665 	1.692334544564305e-12 	101324.9999999944
0.07132132132132088 	299.9999999999922 	1.282565389951878e-12 	101324.9999999942
0.07382382382382337 	299.9999999999408 	1.509989154310079e-12 	101324.9999999939
0.07632632632632587 	299.9999999999804 	2.115984323318262e-12 	101324.9999999938
0.07882882882882837 	299.9999999999606 	2.038974647849018e-12 	101324.999999994
0.08133133133133086 	299.999999999992 	2.386273892495853e-12 	101324.9999999941
0.08383383383383337 	299.9999999999912 	2.392671304993109e-12 	101324.9999999939
0.08633633633633589 	299.9999999999413 	3.130724242402321e-12 	101324.9999999942
0.08883883883883838 	300.0000000000061 	3.925038009113331e-12 	101324.9999999942
0.09134134134134086 	299.9999999999922 	3.134515312957952e-12 	101324.9999999942
0.09384384384384339 	299.9999999999357 	3.470258306209772e-12 	101324.9999999941
0.09634634634634588 	299.9999999999783 	3.160257951093979e-12 	101324.999999994
0.09884884884884838 	299.9999999999822 	3.107700698177622e-12 	101324.999999994
0.1013513513513509 	300.000000000013 	3.052025267399725e-12 	101324.9999999942
0.1038538538538534 	299.9999999999675 	3.000361170475084e-12 	101324.9999999943
0.1063563563563559 	300.0000000000076 	3.294275346532371e-12 	101324.9999999945
0.1088588588588584 	300.0000000000167 	2.428859658071521e-12 	101324.9999999942
0.1113613613613609 	299.9999999999529 	2.262799867017887e-12 	101324.9999999943
0.1138638638638634 	299.9999999999645 	2.352797195932216e-12 	101324.9999999944
0.1163663663663659 	299.9999999999629 	2.704024714698983e-12 	101324.999999994
0.1188688688688684 	299.9999999999784 	2.686205220058253e-12 	101324.9999999936
0.1213713713713709 	299.9999999999952 	2.491234323853041e-12 	101324.9999999938
0.1238738738738734 	299.9999999999511 	2.672803918137603e-12 	101324.9999999938
0.1263763763763759 	299.9999999999878 	2.63165871345655e-12 	101324.9999999937
0.1288788788788784 	299.9999999999886 	2.142129445148024e-12 	101324.9999999936
0.1313813813813809 	299.9999999999871 	2.448053174323648e-12 	101324.9999999935
0.1338838838838834 	299.9999999999829 	2.269202404675857e-12 	101324.9999999935
0.1363863863863859 	300.0000000000151 	2.512744324207701e-12 	101324.9999999937
0.1388888888888884 	300.0000000000289 	2.622228142234438e-12 	101324.9999999937
0.1413913913913909 	299.9999999999999 	2.543516984978423e-12 	101324.9999999937
0.1438938938938934 	299.9999999999947 	2.593335339712747e-12 	101324.9999999937
0.1463963963963959 	299.9999999999716 	2.101206059761109e-12 	101324.9999999937
0.1488988988988985 	299.9999999999442 	3.264904421927132e-12 	101324.9999999934
0.1514014014014009 	299.9999999999745 	2.795942051119868e-12 	101324.9999999934
0.1539039039039035 	299.9999999999727 	3.740672206468949e-12 	101324.9999999935
0.1564064064064059 	299.999999999966 	1.319060135913662e-12 	101324.9999999942
0.1589089089089084 	299.9999999999874 	3.622132438833248e-12 	101324.9999999944
0.1614114114114109 	299.9999999999839 	1.654909453364254e-12 	101324.9999999941
0.1639139139139134 	299.9999999999417 	3.896095422341351e-12 	101324.999999994
0.166416416416416 	300.0000000000032 	3.209709288389372e-12 	101324.9999999941
0.1689189189189185 	300.0000000000175 	3.046364761456451e-12 	101324.9999999941
0.1714214214214209 	299.9999999999925 	4.077308001149864e-12 	101324.9999999939
0.1739239239239235 	299.9999999999889 	3.591867446020855e-12 	101324.9999999937
0.1764264264264259 	299.999999999977 	5.779372222822101e-12 	101324.9999999937
0.1789289289289284 	300.0000000000018 	3.712187618104229e-12 	101324.9999999937
0.181431431431431 	299.9999999999755 	5.80321742950564e-12 	101324.9999999935
0.1839339339339334 	299.9999999999799 	3.461045986390807e-12 	101324.9999999933
0.186436436436436 	299.9999999999524 	4.991983577068922e-12 	101324.9999999935
0.1889389389389385 	299.999999999989 	4.892141750247851e-12 	101324.9999999934
0.191441441441441 	299.9999999999864 	4.978704639928109e-12 	101324.9999999938
0.1939439439439434 	299.9999999999495 	6.070913870450379e-12 	101324.999999994
0.196446446446446 	299.9999999999679 	4.018671200960741e-12 	101324.9999999937
0.1989489489489485 	299.9999999999762 	6.141461689067039e-12 	101324.9999999939
0.2014514514514509 	299.9999999999885 	3.500156307137403e-12 	101324.9999999941
0.2039539539539535 	299.9999999999945 	4.106104275963034e-12 	101324.9999999942
0.2064564564564559 	299.9999999999741 	3.272932703120599e-12 	101324.9999999944
0.2089589589589585 	299.9999999999893 	4.090384445207936e-12 	101324.9999999944
0.211461461461461 	299.9999999999562 	4.406683683891064e-12 	101324.9999999944
0.2139639639639635 	299.9999999999889 	4.34703720732329e-12 	101324.9999999944
0.2164664664664659 	299.9999999999981 	5.302737935504273e-12 	101324.9999999943
0.2189689689689684 	299.9999999999969 	3.34560404753944e-12 	101324.9999999942
0.221471471471471 	299.9999999999937 	5.098942069379811e-12 	101324.9999999939
0.2239739739739735 	299.9999999999712 	3.423844277651378e-12 	101324.9999999939
0.226476476476476 	299.9999999999883 	5.454841537909109e-12 	101324.999999994
0.2289789789789785 	299.9999999999944 	4.727921171406322e-12 	101324.999999994
0.231481481481481 	299.9999999999924 	4.576738375438369e-12 	101324.9999999941
0.2339839839839835 	299.9999999999921 	4.740923002527913e-12 	101324.9999999942
0.236486486486486 	300.000000000013 	3.904363974072829e-12 	101324.9999999944
0.2389889889889885 	300.0000000000025 	5.053742499171304e-12 	101324.9999999946
0.241491491491491 	299.9999999999532 	2.64176795559457e-12 	101324.9999999947
0.2439939939939935 	299.9999999999848 	5.141876406368644e-12 	101324.9999999946
0.246496496496496 	299.9999999999918 	3.108921792740557e-12 	101324.9999999945
0.2489989989989985 	300.0000000000202 	4.516117064391454e-12 	101324.9999999946
0.251501501501501 	300.0000000000151 	3.25535302377023e-12 	101324.9999999941
0.2540040040040035 	299.9999999999925 	3.184687491579643e-12 	101324.9999999938
0.256506506506506 	300.0000000000135 	4.113295694246562e-12 	101324.9999999936
0.2590090090090086 	299.9999999999415 	2.871302439980929e-12 	101324.9999999935
0.261511511511511 	299.9999999999997 	5.016931227845373e-12 	101324.9999999938
0.2640140140140135 	299.9999999999936 	2.330087247468881e-12 	101324.9999999939
0.2665165165165161 	299.9999999999566 	4.367491127658892e-12 	101324.999999994
0.2690190190190185 	300.0000000000042 	3.73523588593251e-12 	101324.9999999938
0.271521521521521 	300.0000000000026 	4.096000547988549e-12 	101324.9999999937
0.2740240240240235 	300.0000000000088 	3.971448495639088e-12 	101324.9999999942
0.276526526526526 	300.0000000000036 	3.129361258484139e-12 	101324.9999999944
0.2790290290290286 	299.9999999999634 	3.60443444734462e-12 	101324.9999999941
0.281531531531531 	299.9999999999526 	1.779125352204804e-12 	101324.9999999938
0.2840340340340335 	299.9999999999847 	3.990711172414918e-12 	101324.9999999939
0.2865365365365361 	299.9999999999736 	2.517363598053424e-12 	101324.999999994
0.2890390390390385 	299.9999999999969 	3.343934972313722e-12 	101324.999999994
0.291541541541541 	299.9999999999971 	2.369190060133246e-12 	101324.9999999939
0.2940440440440436 	299.9999999999928 	2.417181710079465e-12 	101324.9999999936
0.296546546546546 	299.9999999999948 	3.658846564602144e-12 	101324.9999999934
0.2990490490490486 	299.9999999999566 	2.27249958644378e-12 	101324.9999999935
0.3015515515515511 	300.0000000000159 	5.157598043088336e-12 	101324.9999999937
0.3040540540540535 	299.9999999999932 	1.371101656189784e-12 	101324.9999999938
0.3065565565565562 	299.999999999997 	5.551975778213658e-12 	101324.9999999938
0.3090590590590585 	299.9999999999922 	1.108838695679036e-12 	101324.9999999938
0.3115615615615611 	299.9999999999597 	4.870820432092626e-12 	101324.9999999939
0.3140640640640635 	300.0000000000014 	2.213088299176339e-12 	101324.9999999939
0.316566566566566 	299.9999999999935 	3.660419957812577e-12 	101324.9999999939
0.3190690690690687 	299.9999999999697 	2.293477138828806e-12 	101324.9999999938
0.3215715715715711 	300.000000000008 	4.006806895143057e-12 	101324.9999999939
0.3240740740740735 	299.9999999999986 	3.052890516130998e-12 	101324.9999999942
0.326576576576576 	299.9999999999397 	3.948686486651904e-12 	101324.9999999941
0.3290790790790786 	300.0000000000011 	2.745480245632215e-12 	101324.999999994
0.3315815815815811 	300.0000000000218 	2.44287343765028e-12 	101324.9999999938
0.3340840840840836 	299.9999999999928 	1.584762669415153e-12 	101324.9999999936
0.3365865865865861 	300.0000000000338 	1.645997300491058e-12 	101324.9999999934
0.3390890890890886 	300.0000000000299 	4.454836561893931e-13 	101324.9999999931
0.3415915915915911 	300.0000000000003 	5.620770156239894e-13 	101324.9999999932
0.3440940940940935 	299.9999999999656 	1.179740873301281e-12 	101324.9999999932
0.3465965965965962 	300.0000000000212 	1.03963372940274e-12 	101324.9999999933
0.3490990990990985 	300.0000000000163 	3.928330999766777e-13 	101324.9999999933
0.3516016016016011 	299.999999999992 	7.813283982708129e-13 	101324.9999999933
0.3541041041041035 	300.0000000000035 	2.341437033565771e-13 	101324.9999999933
0.3566066066066061 	299.9999999999726 	4.154042932628365e-13 	101324.9999999935
0.3591091091091085 	299.9999999999525 	8.754755495682954e-13 	101324.9999999936
0.3616116116116112 	299.9999999999606 	1.115158695512598e-12 	101324.9999999936
0.3641141141141137 	299.9999999999547 	1.661938076411132e-12 	101324.9999999937
0.3666166166166161 	299.9999999999528 	1.483943597602673e-12 	101324.9999999938
0.3691191191191185 	300.0000000000215 	2.80690066812826e-12 	101324.9999999939
0.371621621621621 	300.0000000000097 	1.041995996600428e-12 	101324.9999999939
0.3741241241241237 	300.0000000000297 	2.204075394122433e-12 	101324.9999999937
0.3766266266266261 	300.0000000000152 	4.401412663097832e-13 	101324.9999999936
0.3791291291291286 	299.9999999999903 	1.186056633961653e-12 	101324.9999999939
0.3816316316316311 	299.9999999999503 	1.120993357945754e-12 	101324.9999999941
0.3841341341341336 	300.0000000000041 	6.62931228078404e-13 	101324.9999999941
0.3866366366366362 	299.9999999999972 	9.489135416014622e-13 	101324.999999994
0.3891391391391387 	299.9999999999716 	4.244822059133437e-13 	101324.9999999942
0.391641641641641 	299.9999999999959 	2.950539226997275e-13 	101324.9999999944
0.3941441441441436 	300.0000000000061 	3.318696682338818e-13 	101324.9999999945
0.3966466466466462 	300.0000000000001 	3.307285486120297e-13 	101324.9999999945
0.3991491491491486 	299.9999999999709 	4.269951513443686e-13 	101324.9999999946
0.4016516516516512 	299.9999999999505 	1.03818280277918e-12 	101324.9999999946
0.4041541541541536 	299.9999999999704 	1.299347134417515e-12 	101324.9999999947
0.4066566566566561 	299.9999999999692 	9.712768418893383e-13 	101324.9999999947
0.4091591591591587 	299.9999999999969 	9.967414562621517e-13 	101324.9999999948
0.4116616616616612 	300.0000000000053 	9.372943312310817e-13 	101324.9999999946
0.4141641641641635 	300.0000000000235 	1.45370399094462e-13 	101324.9999999948
0.4166666666666662 	299.9999999999993 	9.560193814042109e-13 	101324.9999999946
0.4191691691691687 	299.9999999999641 	1.586904418364922e-12 	101324.9999999946
0.421671671671671 	300.0000000000037 	1.122231436547677e-12 	101324.9999999944
0.4241741741741737 	299.9999999999814 	2.469241430646964e-12 	101324.9999999943
0.4266766766766761 	299.9999999999658 	1.835199149165253e-12 	101324.9999999944
0.4291791791791785 	300.000000000013 	3.294387911225631e-12 	101324.9999999946
0.4316816816816812 	300.0000000000051 	2.362437101485187e-12 	101324.9999999946
0.4341841841841836 	299.9999999999874 	2.972542731935325e-12 	101324.9999999945
0.4366866866866862 	299.9999999999519 	6.072468981187313e-13 	101324.9999999945
0.4391891891891885 	299.9999999999971 	2.685428848640422e-12 	101324.9999999944
0.4416916916916913 	299.9999999999883 	1.096717339579538e-12 	101324.9999999943
0.4441941941941936 	299.9999999999918 	2.045743290690584e-12 	101324.9999999941
0.4466966966966961 	299.9999999999524 	9.720170597598272e-13 	101324.9999999941
0.4491991991991987 	299.9999999999918 	7.32249340859605e-13 	101324.999999994
0.4517017017017012 	299.9999999999916 	1.078305246037213e-12 	101324.9999999942
0.4542042042042035 	299.9999999999924 	7.705318290841477e-13 	101324.9999999943
0.4567067067067062 	299.9999999999991 	1.794918308677219e-12 	101324.9999999943
0.4592092092092087 	299.9999999999567 	1.576531583049624e-12 	101324.9999999943
0.4617117117117112 	300.0000000000124 	1.943744785477253e-12 	101324.9999999943
0.4642142142142137 	299.9999999999787 	1.842409035021431e-12 	101324.9999999944
0.4667167167167162 	299.9999999999963 	1.828019927064357e-12 	101324.9999999943
0.4692192192192187 	299.9999999999752 	1.852976972514384e-12 	101324.9999999945
0.4717217217217212 	300.000000000006 	1.48264156184874e-12 	101324.9999999944
0.4742242242242236 	299.9999999999745 	1.661224611836604e-12 	101324.9999999945
0.4767267267267262 	299.9999999999837 	1.511967960447388e-12 	101324.9999999944
0.4792292292292287 	300.0000000000115 	2.046816291827572e-12 	101324.9999999945
0.4817317317317312 	300.0000000000213 	2.299885539071872e-12 	101324.9999999946
0.4842342342342336 	299.9999999999914 	2.168115689736354e-12 	101324.9999999946
0.4867367367367362 	299.9999999999736 	2.187497292233258e-12 	101324.9999999947
0.4892392392392387 	300.0000000000174 	1.581401095847651e-12 	101324.9999999947
0.4917417417417412 	300.0000000000035 	2.959015687969437e-12 	101324.9999999949
0.4942442442442437 	299.9999999999436 	2.139452159831396e-12 	101324.9999999949
0.4967467467467462 	299.9999999999555 	3.474949844047914e-12 	101324.9999999948
0.4992492492492487 	299.999999999951 	1.538712726790625e-12 	101324.9999999945
0.5017517517517511 	299.9999999999732 	2.667060353479975e-12 	101324.9999999945
0.5042542542542537 	299.9999999999791 	1.796293327572534e-12 	101324.9999999944
0.5067567567567562 	299.9999999999675 	2.042702791333869e-12 	101324.9999999944
0.5092592592592589 	299.9999999999832 	1.791365820223604e-12 	101324.9999999943
0.5117617617617611 	299.9999999999751 	1.221066937451211e-12 	101324.9999999942
0.5142642642642637 	299.9999999999918 	2.49612323204965e-12 	101324.9999999943
0.5167667667667663 	299.9999999999832 	1.411571341798604e-12 	101324.9999999945
0.5192692692692688 	299.9999999999523 	3.79802580165585e-12 	101324.9999999944
0.5217717717717714 	299.9999999999602 	2.045964470414858e-12 	101324.9999999946
0.5242742742742736 	299.9999999999615 	3.715054488173099e-12 	101324.9999999946
0.5267767767767763 	299.9999999999744 	9.221345407261118e-13 	101324.9999999945
0.5292792792792789 	299.9999999999629 	3.52837541647242e-12 	101324.9999999947
0.5317817817817813 	299.9999999999464 	1.843883622617015e-12 	101324.9999999944
0.5342842842842837 	300.0000000000106 	2.567923242423386e-12 	101324.9999999942
0.5367867867867864 	300.0000000000022 	1.772205849196409e-12 	101324.9999999943
0.5392892892892888 	299.9999999999741 	1.928834392841981e-12 	101324.9999999942
0.5417917917917912 	299.9999999999993 	1.325001333573254e-12 	101324.9999999943
0.5442942942942938 	299.9999999999882 	1.913393476902559e-12 	101324.9999999945
0.5467967967967964 	299.9999999999734 	1.752964840315625e-12 	101324.9999999947
0.5492992992992988 	299.9999999999653 	2.054398046273116e-12 	101324.9999999947
0.5518018018018012 	299.9999999999606 	1.185106328973538e-12 	101324.9999999947
0.5543043043043039 	300.0000000000127 	1.280541375774501e-12 	101324.9999999948
0.5568068068068063 	299.9999999999945 	8.845960380270128e-13 	101324.9999999948
0.5593093093093087 	299.9999999999428 	1.383984666667881e-12 	101324.9999999947
0.5618118118118114 	299.9999999999774 	8.487909970242983e-13 	101324.9999999947
0.5643143143143137 	299.9999999999633 	7.250441818413031e-13 	101324.9999999945
0.5668168168168163 	299.9999999999947 	4.599851304199814e-13 	101324.9999999942
0.5693193193193188 	300.0000000000196 	1.355843294546175e-12 	101324.999999994
0.5718218218218213 	300.0000000000169 	1.914222426117161e-12 	101324.9999999941
0.5743243243243239 	300.0000000000064 	1.64239614540489e-12 	101324.9999999941
0.5768268268268262 	300.0000000000036 	2.690707076088347e-12 	101324.9999999941
0.5793293293293288 	299.9999999999696 	1.185580947194577e-12 	101324.9999999942
0.5818318318318314 	299.9999999999521 	3.544284497120781e-12 	101324.9999999943
0.5843343343343338 	299.9999999999861 	1.922028474498233e-12 	101324.9999999944
0.5868368368368363 	299.9999999999822 	3.212546944658475e-12 	101324.9999999946
0.5893393393393387 	299.9999999999654 	1.257773211730802e-12 	101324.9999999949
0.5918418418418413 	299.9999999999652 	2.95943992110144e-12 	101324.999999995
0.5943443443443439 	300.000000000009 	1.892668298005319e-12 	101324.9999999951
0.5968468468468463 	300.0000000000115 	2.762845476320462e-12 	101324.9999999949
0.5993493493493487 	300.0000000000272 	2.038963976907064e-12 	101324.9999999948
0.6018518518518514 	299.9999999999869 	2.479799655162535e-12 	101324.9999999947
0.6043543543543537 	299.999999999997 	1.77067884823802e-12 	101324.9999999946
0.6068568568568564 	299.999999999989 	2.300212634077755e-12 	101324.9999999946
0.6093593593593587 	299.9999999999592 	2.652287820950546e-12 	101324.9999999947
0.6118618618618614 	299.9999999999549 	3.291102688512391e-12 	101324.9999999947
0.6143643643643638 	300.0000000000065 	3.266951927075712e-12 	101324.9999999946
0.6168668668668662 	299.9999999999895 	3.997377244716754e-12 	101324.9999999948
0.6193693693693688 	299.9999999999739 	2.851356891531288e-12 	101324.9999999948
0.6218718718718714 	299.9999999999809 	4.014180769616884e-12 	101324.9999999947
0.6243743743743737 	299.9999999999615 	2.377679543045301e-12 	101324.9999999948
0.6268768768768762 	299.9999999999533 	3.834279316096397e-12 	101324.9999999946
0.629379379379379 	299.999999999966 	2.602619320052327e-12 	101324.9999999946
0.6318818818818812 	299.9999999999776 	3.087122146630617e-12 	101324.9999999946
0.6343843843843838 	300.0000000000096 	2.583474981249138e-12 	101324.9999999947
0.6368868868868864 	299.9999999999895 	2.536020803311629e-12 	101324.999999995
0.6393893893893888 	299.9999999999541 	3.128370591861346e-12 	101324.9999999949
0.6418918918918912 	300.0000000000032 	1.529617511434755e-12 	101324.9999999948
0.6443943943943939 	299.9999999999884 	4.147886225227973e-12 	101324.9999999946
0.6468968968968963 	299.9999999999883 	2.065442503858826e-12 	101324.9999999947
0.6493993993993988 	299.999999999984 	3.33058489409232e-12 	101324.9999999949
0.6519019019019012 	299.9999999999803 	1.272784021206401e-12 	101324.9999999951
0.6544044044044038 	299.9999999999427 	3.145658120760131e-12 	101324.999999995
0.6569069069069065 	299.999999999976 	1.192248893483315e-12 	101324.9999999951
0.6594094094094087 	299.9999999999773 	2.848214473053076e-12 	101324.999999995
0.6619119119119113 	299.9999999999682 	1.679342859100031e-12 	101324.999999995
0.664414414414414 	299.9999999999995 	2.74662511358495e-12 	101324.999999995
0.6669169169169162 	300.0000000000114 	2.117887609568863e-12 	101324.9999999949
0.6694194194194188 	299.9999999999919 	2.92553942356971e-12 	101324.9999999947
0.6719219219219214 	299.9999999999567 	2.050781467542228e-12 	101324.9999999946
0.674424424424424 	299.9999999999853 	2.423873974606326e-12 	101324.9999999947
0.6769269269269262 	299.9999999999502 	1.849834892951909e-12 	101324.9999999948
0.679429429429429 	300.0000000000038 	1.736008936723617e-12 	101324.999999995
0.6819319319319311 	299.9999999999869 	4.751776553540305e-13 	101324.9999999949
0.6844344344344341 	299.9999999999959 	7.69769030801523e-13 	101324.999999995
0.686936936936936 	299.9999999999923 	8.762152055413166e-13 	101324.9999999948
0.6894394394394392 	299.9999999999878 	1.248920663823854e-13 	101324.9999999945
0.6919419419419413 	299.9999999999931 	3.254564152634838e-13 	101324.9999999946
0.694444444444444 	299.9999999999718 	5.786017447013123e-13 	101324.9999999945
0.6969469469469463 	299.9999999999591 	6.94841336640657e-13 	101324.9999999944
0.6994494494494489 	299.9999999999496 	6.010589853780486e-13 	101324.9999999945
0.7019519519519515 	299.9999999999889 	1.289821854423825e-12 	101324.9999999946
0.7044544544544538 	299.9999999999656 	1.345203791601796e-12 	101324.9999999944
0.7069569569569564 	299.9999999999961 	1.817851400418191e-12 	101324.9999999943
0.7094594594594589 	299.9999999999777 	1.052949520654519e-12 	101324.9999999943
0.7119619619619615 	299.9999999999479 	1.600559630031968e-12 	101324.9999999943
0.7144644644644638 	299.9999999999697 	1.052836495069685e-12 	101324.9999999945
0.7169669669669665 	299.9999999999528 	2.043834454087979e-12 	101324.9999999946
0.7194694694694688 	299.9999999999956 	1.398377886260854e-12 	101324.9999999947
0.7219719719719715 	299.9999999999947 	1.618432315060437e-12 	101324.9999999947
0.7244744744744737 	300.0000000000023 	1.103717564088212e-12 	101324.9999999948
0.7269769769769764 	299.9999999999967 	7.305977498570459e-13 	101324.999999995
0.7294794794794791 	299.9999999999926 	1.6563666787837e-12 	101324.999999995
0.7319819819819813 	299.9999999999896 	1.003677138531506e-12 	101324.999999995
0.7344844844844839 	299.999999999952 	5.626400902622608e-13 	101324.9999999948
0.7369869869869864 	299.9999999999712 	8.429103794438072e-13 	101324.9999999946
0.739489489489489 	299.9999999999633 	6.27158189457506e-13 	101324.9999999945
0.7419919919919914 	299.9999999999563 	9.760752101522907e-13 	101324.9999999943
0.7444944944944939 	299.9999999999856 	1.404882543276479e-12 	101324.9999999943
0.7469969969969963 	299.9999999999822 	2.471725018238678e-12 	101324.9999999945
0.7494994994994989 	299.9999999999658 	1.782421490057057e-12 	101324.9999999946
0.7520020020020015 	299.9999999999816 	2.541606274817786e-12 	101324.9999999947
0.7545045045045039 	299.9999999999805 	1.662428297958407e-12 	101324.9999999945
0.7570070070070062 	299.999999999964 	1.446125100259722e-12 	101324.9999999943
0.7595095095095092 	299.9999999999545 	6.565392692548187e-13 	101324.9999999941
0.7620120120120112 	300.0000000000014 	4.925500298006306e-13 	101324.999999994
0.7645145145145138 	299.9999999999914 	9.106557460814019e-13 	101324.999999994
0.7670170170170165 	299.9999999999574 	9.655667191162827e-13 	101324.999999994
0.7695195195195191 	299.9999999999515 	1.688918730495993e-12 	101324.9999999942
0.7720220220220213 	299.9999999999634 	1.63676889318512e-12 	101324.9999999943
0.7745245245245239 	299.999999999965 	1.380382267546212e-12 	101324.9999999943
0.7770270270270263 	299.9999999999827 	1.324989519652701e-12 	101324.9999999944
0.779529529529529 	299.9999999999882 	5.749071375875814e-13 	101324.9999999945
0.7820320320320313 	299.9999999999839 	1.339348599352436e-12 	101324.9999999945
0.784534534534534 	299.9999999999965 	1.264156781521727e-12 	101324.9999999946
0.7870370370370364 	299.9999999999929 	9.226461855445757e-13 	101324.9999999946
0.7895395395395389 	299.9999999999849 	1.855533012359096e-12 	101324.9999999945
0.7920420420420413 	299.9999999999845 	1.697241856905412e-12 	101324.9999999943
0.794544544544544 	299.9999999999869 	2.340788459775891e-12 	101324.9999999942
0.7970470470470463 	299.9999999999998 	2.50190315359261e-12 	101324.9999999942
0.799549549549549 	299.9999999999902 	2.190377277633258e-12 	101324.9999999942
0.8020520520520515 	299.9999999999937 	1.378539234062235e-12 	101324.9999999943
0.8045545545545539 	299.999999999967 	2.002415428726655e-12 	101324.9999999942
0.8070570570570563 	299.999999999991 	9.038773318740879e-13 	101324.9999999941
0.8095595595595589 	299.9999999999775 	1.150235647693518e-12 	101324.9999999939
0.8120620620620614 	299.9999999999624 	1.213222846879418e-12 	101324.9999999938
0.8145645645645638 	299.9999999999966 	1.176823414521398e-12 	101324.9999999938
0.8170670670670666 	299.999999999993 	2.095967038253146e-12 	101324.9999999939
0.8195695695695689 	299.9999999999845 	1.40978185035586e-12 	101324.9999999942
0.8220720720720714 	299.999999999969 	2.43277945869779e-12 	101324.9999999943
0.8245745745745739 	300.0000000000005 	1.00518141119289e-12 	101324.9999999943
0.8270770770770765 	299.9999999999893 	2.03306152539203e-12 	101324.9999999944
0.8295795795795788 	299.9999999999695 	1.400553604490352e-12 	101324.9999999945
0.8320820820820815 	300.0000000000121 	1.972894952171415e-12 	101324.9999999946
0.834584584584584 	300.0000000000024 	1.519292249753832e-12 	101324.9999999948
0.8370870870870865 	299.9999999999767 	1.57342657546312e-12 	101324.9999999949
0.8395895895895891 	299.9999999999495 	2.284241821327994e-12 	101324.9999999949
0.8420920920920915 	299.9999999999603 	1.753195785870882e-12 	101324.999999995
0.844594594594594 	299.9999999999565 	1.692325030853406e-12 	101324.9999999949
0.8470970970970964 	299.9999999999629 	1.461943466467661e-12 	101324.9999999948
0.8495995995995991 	299.999999999987 	1.379269825594971e-12 	101324.9999999947
0.8521021021021015 	299.9999999999851 	1.566394902067405e-12 	101324.9999999946
0.8546046046046039 	299.9999999999893 	1.414267944169267e-12 	101324.9999999947
0.8571071071071066 	299.9999999999983 	2.678970586405165e-12 	101324.9999999948
0.8596096096096089 	299.9999999999724 	1.858882872108759e-12 	101324.9999999948
0.8621121121121116 	299.9999999999523 	3.134656556939202e-12 	101324.9999999949
0.8646146146146139 	299.9999999999892 	1.810481014666407e-12 	101324.9999999951
0.8671171171171166 	299.9999999999831 	3.111141690807964e-12 	101324.9999999952
0.8696196196196189 	299.9999999999707 	3.076517880200639e-12 	101324.9999999953
0.8721221221221216 	299.9999999999801 	4.017989773584502e-12 	101324.9999999953
0.874624624624624 	300.0000000000018 	4.069717646502721e-12 	101324.9999999952
0.8771271271271264 	300.0000000000028 	3.995619804507813e-12 	101324.9999999952
0.879629629629629 	300.0000000000021 	4.790605434944348e-12 	101324.9999999951
0.8821321321321317 	299.9999999999875 	3.775510603738435e-12 	101324.9999999951
0.8846346346346339 	299.9999999999498 	5.475683005558789e-12 	101324.9999999952
0.8871371371371364 	299.999999999971 	4.110510697648619e-12 	101324.9999999953
0.8896396396396391 	299.9999999999794 	5.45694873878617e-12 	101324.9999999953
0.8921421421421414 	299.9999999999799 	4.709214533652188e-12 	101324.9999999953
0.8946446446446441 	299.9999999999872 	4.917800557114076e-12 	101324.9999999953
0.8971471471471464 	299.9999999999989 	4.527453514195014e-12 	101324.9999999953
0.8996496496496489 	299.9999999999845 	4.044319728614469e-12 	101324.9999999953
0.9021521521521517 	299.9999999999789 	4.714920670287606e-12 	101324.9999999953
0.9046546546546541 	299.9999999999967 	4.277585724463536e-12 	101324.9999999953
0.9071571571571564 	299.9999999999711 	4.833577317501096e-12 	101324.9999999956
0.9096596596596589 	299.99999999997 	5.001144837096072e-12 	101324.9999999957
0.9121621621621616 	300.000000000003 	5.462204716837094e-12 	101324.9999999958
0.9146646646646639 	299.9999999999886 	5.47940702449282e-12 	101324.9999999959
0.9171671671671666 	299.9999999999688 	5.305706775227897e-12 	101324.9999999959
0.9196696696696689 	300.0000000000014 	5.547396907161352e-12 	101324.999999996
0.9221721721721714 	300.000000000002 	4.429820295258484e-12 	101324.9999999959
0.9246746746746741 	299.9999999999669 	5.982514215556307e-12 	101324.9999999957
0.9271771771771765 	299.9999999999693 	4.400048913168984e-12 	101324.9999999954
0.9296796796796791 	299.9999999999981 	5.737027427464799e-12 	101324.9999999953
0.9321821821821816 	299.9999999999847 	5.224172688150026e-12 	101324.9999999952
0.9346846846846838 	299.99999999997 	6.250770854353697e-12 	101324.9999999953
0.9371871871871866 	300.0000000000069 	5.670684859480201e-12 	101324.9999999954
0.9396896896896891 	300.0000000000073 	5.248064176405378e-12 	101324.9999999955
0.9421921921921914 	300.0000000000051 	5.178792059581445e-12 	101324.9999999956
0.9446946946946939 	299.9999999999784 	4.579757661173282e-12 	101324.9999999956
0.9471971971971965 	299.9999999999516 	6.274426948255946e-12 	101324.9999999957
0.9496996996996991 	299.9999999999752 	4.907992242598645e-12 	101324.9999999958
0.9522022022022016 	299.9999999999836 	5.674850057430584e-12 	101324.9999999958
0.9547047047047038 	299.999999999982 	4.572412290720981e-12 	101324.9999999958
0.9572072072072064 	299.9999999999744 	5.199075209693381e-12 	101324.9999999959
0.9597097097097093 	299.9999999999779 	5.444295722847466e-12 	101324.9999999961
0.9622122122122114 	299.9999999999732 	5.61200434357551e-12 	101324.9999999963
0.964714714714714 	299.9999999999708 	6.289857434458576e-12 	101324.9999999963
0.9672172172172167 	299.9999999999743 	5.492362452896095e-12 	101324.9999999964
0.969719719719719 	299.9999999999928 	6.167411499452702e-12 	101324.9999999964
0.9722222222222214 	299.9999999999873 	6.204676444194442e-12 	101324.9999999962
0.9747247247247239 	299.9999999999832 	6.697969171511088e-12 	101324.9999999962
0.9772272272272267 	299.9999999999994 	6.804616269483348e-12 	101324.9999999962
0.9797297297297292 	299.999999999991 	6.728782598230982e-12 	101324.9999999962
0.9822322322322313 	299.9999999999942 	7.099929261660994e-12 	101324.9999999962
0.9847347347347344 	299.9999999999939 	5.987801322063685e-12 	101324.9999999964
0.9872372372372363 	299.9999999999699 	7.134413906702259e-12 	101324.9999999964
0.9897397397397389 	299.9999999999861 	5.093594113974188e-12 	101324.9999999964
0.9922422422422417 	299.9999999999757 	6.224239177873563e-12 	101324.9999999964
0.9947447447447441 	299.9999999999736 	5.391376455051823e-12 	101324.9999999964
0.9972472472472468 	299.9999999999773 	6.169734046389417e-12 	101324.9999999966
0.999749749749749 	299.9999999999788 	6.354087905694969e-12 	101324.9999999965
1.002252252252252 	299.9999999999915 	6.995833735277054e-12 	101324.9999999965
1.004754754754754 	299.9999999999928 	7.066230112501149e-12 	101324.9999999964
1.007257257257256 	299.9999999999832 	6.361617422598023e-12 	101324.9999999965
1.009759759759759 	299.9999999999763 	7.604843474565683e-12 	101324.9999999965
1.012262262262261 	299.9999999999758 	6.211414875280116e-12 	101324.9999999964
1.014764764764764 	299.9999999999614 	7.388415243813396e-12 	101324.9999999964
1.017267267267267 	299.9999999999527 	6.764418350612113e-12 	101324.9999999965
1.019769769769769 	299.9999999999752 	7.145376472695252e-12 	101324.9999999965
1.022272272272272 	299.999999999985 	6.4103280123593e-12 	101324.9999999965
1.024774774774774 	299.99999999999 	6.633967479471097e-12 	101324.9999999966
1.027277277277277 	299.9999999999864 	7.859939254233793e-12 	101324.9999999968
1.029779779779779 	300.0000000000007 	7.131493510569077e-12 	101324.999999997
1.032282282282282 	300.0000000000019 	7.143325301324429e-12 	101324.9999999972
1.034784784784784 	299.9999999999976 	6.278269937178673e-12 	101324.9999999973
1.037287287287286 	299.9999999999824 	6.248079747153168e-12 	101324.9999999973
1.039789789789789 	299.9999999999862 	5.951182608020657e-12 	101324.9999999973
1.042292292292291 	300.0000000000071 	6.013853433576475e-12 	101324.9999999973
1.044794794794794 	300.0000000000153 	6.124812865688797e-12 	101324.999999997
1.047297297297296 	300.0000000000222 	5.516353622271089e-12 	101324.9999999969
1.049799799799799 	299.9999999999962 	6.961726328275615e-12 	101324.9999999967
1.052302302302302 	299.9999999999774 	6.085431034013996e-12 	101324.9999999966
1.054804804804804 	299.9999999999664 	7.839318521030718e-12 	101324.9999999966
1.057307307307306 	299.9999999999554 	7.491348324825144e-12 	101324.9999999967
1.059809809809809 	299.9999999999745 	8.292382869377583e-12 	101324.9999999967
1.062312312312312 	299.9999999999724 	7.76002137721602e-12 	101324.9999999969
1.064814814814814 	299.9999999999695 	8.194574909058578e-12 	101324.9999999969
1.067317317317317 	299.9999999999574 	7.954997886108328e-12 	101324.9999999969
1.069819819819819 	299.9999999999583 	7.82980551582781e-12 	101324.9999999968
1.072322322322321 	299.9999999999981 	9.081814223858824e-12 	101324.9999999967
1.074824824824824 	300.000000000017 	7.662050399313193e-12 	101324.9999999967
1.077327327327327 	300.0000000000249 	8.735015730948112e-12 	101324.9999999967
1.079829829829829 	300.000000000023 	7.634823700114861e-12 	101324.9999999966
1.082332332332332 	300.000000000002 	7.923387474735974e-12 	101324.9999999968
1.084834834834834 	299.9999999999876 	7.147134391356713e-12 	101324.9999999969
1.087337337337337 	299.9999999999679 	6.941427391386895e-12 	101324.9999999971
1.089839839839839 	299.9999999999628 	7.906318747300751e-12 	101324.9999999972
1.092342342342342 	299.9999999999833 	7.043374558884892e-12 	101324.9999999971
1.094844844844844 	299.9999999999822 	7.74999297962636e-12 	101324.9999999971
1.097347347347347 	299.9999999999675 	6.480238463278423e-12 	101324.9999999972
1.099849849849849 	299.9999999999594 	8.122583213903509e-12 	101324.9999999972
1.102352352352352 	299.999999999977 	6.674999000800041e-12 	101324.9999999969
1.104854854854854 	299.9999999999906 	8.302064148453695e-12 	101324.9999999965
1.107357357357357 	299.99999999998 	7.54312336419743e-12 	101324.9999999964
1.109859859859859 	299.999999999972 	8.940979774826486e-12 	101324.9999999967
1.112362362362362 	300.0000000000118 	8.066048681867441e-12 	101324.9999999967
1.114864864864865 	300.0000000000118 	7.67931714331433e-12 	101324.9999999969
1.117367367367367 	299.9999999999799 	7.974061780941951e-12 	101324.9999999969
1.119869869869869 	299.9999999999578 	6.633770890100252e-12 	101324.9999999971
1.122372372372372 	299.9999999999771 	7.638964849414727e-12 	101324.9999999973
1.124874874874874 	299.9999999999748 	7.023934072487813e-12 	101324.9999999975
1.127377377377377 	299.9999999999822 	8.079317170964231e-12 	101324.9999999976
1.129879879879879 	300.0000000000105 	7.645139109368804e-12 	101324.9999999975
1.132382382382382 	300.0000000000139 	7.912979889393987e-12 	101324.9999999974
1.134884884884884 	300.0000000000009 	7.541609419505212e-12 	101324.9999999973
1.137387387387387 	300.0000000000094 	7.369910389275419e-12 	101324.9999999972
1.139889889889889 	299.9999999999795 	7.929510857170438e-12 	101324.999999997
1.142392392392392 	299.9999999999715 	6.749066750735341e-12 	101324.999999997
1.144894894894894 	300.000000000006 	7.497271607116888e-12 	101324.9999999971
1.147397397397397 	300.0000000000011 	6.641908681535378e-12 	101324.9999999972
1.149899899899899 	299.9999999999687 	7.376028992398079e-12 	101324.999999997
1.152402402402402 	299.9999999999609 	7.087977539350313e-12 	101324.9999999969
1.154904904904904 	299.9999999999849 	7.907327788856478e-12 	101324.9999999969
1.157407407407407 	299.999999999985 	7.790684784408199e-12 	101324.9999999969
1.159909909909909 	299.9999999999657 	7.774564156668909e-12 	101324.9999999969
1.162412412412412 	299.9999999999567 	8.287397135679267e-12 	101324.9999999971
1.164914914914914 	299.999999999975 	7.08222766142761e-12 	101324.9999999971
1.167417417417417 	299.9999999999844 	8.267038552519803e-12 	101324.9999999971
1.169919919919919 	300.0000000000111 	7.335784662169186e-12 	101324.9999999969
1.172422422422422 	300.0000000000239 	7.575931947888026e-12 	101324.9999999969
1.174924924924925 	299.9999999999949 	6.312715747461513e-12 	101324.9999999969
1.177427427427427 	299.999999999982 	6.678919769942639e-12 	101324.999999997
1.179929929929929 	300.0000000000064 	7.495995944106445e-12 	101324.999999997
1.182432432432432 	300.0000000000177 	6.434560625380186e-12 	101324.999999997
1.184934934934934 	299.9999999999992 	7.175643535264642e-12 	101324.9999999972
1.187437437437437 	299.9999999999864 	6.263746932281957e-12 	101324.9999999973
1.189939939939939 	299.9999999999845 	6.819439782303292e-12 	101324.9999999973
1.192442442442442 	299.9999999999619 	6.289842795071087e-12 	101324.9999999972
1.194944944944944 	299.9999999999631 	7.278516624852951e-12 	101324.9999999973
1.197447447447447 	300.0000000000013 	6.702729398538836e-12 	101324.9999999974
1.199949949949949 	300.0000000000101 	6.525767184022965e-12 	101324.9999999973
1.202452452452452 	299.9999999999769 	7.188184657094073e-12 	101324.999999997
1.204954954954955 	299.9999999999728 	6.385549666876502e-12 	101324.9999999969
1.207457457457457 	299.9999999999914 	6.879647456419939e-12 	101324.999999997
1.20995995995996 	299.9999999999894 	5.981737944920956e-12 	101324.9999999971
1.212462462462462 	299.9999999999897 	6.693178391929919e-12 	101324.9999999972
1.214964964964964 	299.9999999999907 	5.698735523110456e-12 	101324.9999999974
1.217467467467467 	299.9999999999895 	6.277593942614769e-12 	101324.9999999974
1.219969969969969 	299.9999999999792 	5.974114963035476e-12 	101324.9999999974
1.222472472472472 	300.0000000000051 	6.502478724680733e-12 	101324.9999999974
1.224974974974975 	300.0000000000194 	6.733783189124944e-12 	101324.9999999973
1.227477477477477 	299.9999999999935 	5.252406517757816e-12 	101324.9999999973
1.229979979979979 	299.9999999999897 	6.005117192504527e-12 	101324.9999999974
1.232482482482482 	299.9999999999771 	5.139920427752728e-12 	101324.9999999974
1.234984984984984 	299.9999999999756 	6.032363412410183e-12 	101324.9999999974
1.237487487487487 	299.9999999999897 	5.019226733487566e-12 	101324.9999999974
1.239989989989989 	299.9999999999916 	5.495837629490808e-12 	101324.9999999974
1.242492492492492 	300.0000000000088 	5.853114651365891e-12 	101324.9999999974
1.244994994994994 	299.9999999999945 	4.904383398306816e-12 	101324.9999999974
1.247497497497497 	299.999999999999 	5.593082223940222e-12 	101324.9999999974
1.249999999999999 	300.0000000000551 	4.889965202913003e-12 	101324.9999999974
