-1.25 	300 	0.0002368786276178078 	101325
-1.247497497497497 	299.9936319395597 	0.01323360013368768 	101318.0920199408
-1.244994994994995 	299.9887901100661 	0.03428505714315152 	101311.7426846971
-1.242492492492492 	299.9832493393964 	0.04916927252874299 	101305.1986449354
-1.23998998998999 	299.9780696886385 	0.06333290843220837 	101299.0768580235
-1.237487487487487 	299.9732964735005 	0.07722979975105651 	101293.4350412748
-1.234984984984985 	299.9690385730967 	0.08951889994469479 	101288.402560301
-1.232482482482482 	299.9653351136651 	0.1002434245694688 	101284.0255101772
-1.22997997997998 	299.9622601837066 	0.1091466462192826 	101280.3913675148
-1.227477477477477 	299.9599499375504 	0.1158542630002185 	101277.6610280262
-1.224974974974975 	299.9583660675553 	0.1203806471730039 	101275.7891085048
-1.222472472472472 	299.9575019401554 	0.1228323543730156 	101274.767807106
-1.21996996996997 	299.9574221714104 	0.123074024595142 	101274.6735313655
-1.217467467467467 	299.9581393185306 	0.1210061623241213 	101275.5209875589
-1.214964964964965 	299.9596555646465 	0.1166429331932063 	101277.3127949496
-1.212462462462462 	299.9619608584538 	0.1099379236922161 	101280.037131145
-1.20995995995996 	299.9650003879055 	0.1011383740851558 	101283.629272388
-1.207457457457457 	299.9686707929812 	0.09061256817219399 	101287.9671442011
-1.204954954954955 	299.972849038806 	0.078543792943463 	101292.9053751419
-1.202452452452452 	299.977503124105 	0.06506771135619624 	101298.4062179818
-1.19994994994995 	299.9825895711048 	0.05033320963814565 	101304.41835182
-1.197447447447447 	299.9879894309357 	0.0346763456195839 	101310.8012009134
-1.194944944944945 	299.9935866783719 	0.01849777872888443 	101317.4177044466
-1.192442442442442 	299.9992746377919 	0.008163236430348579 	101324.1417750382
-1.18993993993994 	300.0049805435923 	0.01443703054472244 	101330.8873706049
-1.187437437437437 	300.0106114952712 	0.03066143227705607 	101337.5446917484
-1.184934934934935 	300.0160736773936 	0.04646771074270398 	101344.0027763483
-1.182432432432432 	300.0212783341984 	0.06152241031539599 	101350.156678487
-1.17992992992993 	300.0261022346489 	0.07547503888737828 	101355.8606420091
-1.177427427427427 	300.0304281518576 	0.08797686732460369 	101360.9759588456
-1.174924924924925 	300.0341742258174 	0.09878277869860627 	101365.4058042864
-1.172422422422422 	300.0372725449567 	0.1077742505601149 	101369.0697636389
-1.16991991991992 	300.0396841869589 	0.1147807926149962 	101371.9217750786
-1.167417417417417 	300.0413997632146 	0.1197201771491098 	101373.9506886605
-1.164914914914915 	300.0423828964135 	0.12248480368012 	101375.1134007478
-1.162412412412412 	300.0425760304276 	0.1229819343800519 	101375.3418336075
-1.15990990990991 	300.0419536335297 	0.1212042365586618 	101374.605842217
-1.157407407407407 	300.0405221954163 	0.1170920017762629 	101372.9131445967
-1.154904904904904 	300.0383149286247 	0.1107376925287009 	101370.3029853079
-1.152402402402403 	300.0353982967188 	0.1022929095063431 	101366.8539521578
-1.1498998998999 	300.0318415641573 	0.09199405866310015 	101362.6480895589
-1.147397397397397 	300.027713757956 	0.08012864062937941 	101357.767073994
-1.144894894894895 	300.0230930853492 	0.06678240073112342 	101352.303425936
-1.142392392392392 	300.0180586390326 	0.05218850858092882 	101346.3507745419
-1.13988988988989 	300.0127008111923 	0.03664983822117404 	101340.0159956406
-1.137387387387387 	300.0071274642023 	0.02048142044137198 	101333.4267092655
-1.134884884884885 	300.0014347749182 	0.007769390609539874 	101326.6966283844
-1.132382382382382 	299.9957112828595 	0.01245043415998444 	101319.9304312949
-1.12987987987988 	299.9900355180964 	0.02888630854531215 	101313.2209935458
-1.127377377377377 	299.9844975217372 	0.04489472844204864 	101306.674679426
-1.124874874874875 	299.9792242674139 	0.06010941728425427 	101300.4415969565
-1.122372372372372 	299.9743560001546 	0.0741179868617277 	101294.6874393902
-1.11986986986987 	299.9699884693159 	0.08671987533464334 	101289.5253187913
-1.117367367367367 	299.9662004160846 	0.09772398636860374 	101285.0482663897
-1.114864864864865 	299.9630347981131 	0.1069565384608119 	101281.3069283531
-1.112362362362362 	299.9605165707567 	0.1142391399430819 	101278.3307866979
-1.10985985985986 	299.95870506403 	0.1193818824849812 	101276.1898348648
-1.107357357357357 	299.9576743483711 	0.1223486458569711 	101274.97164512
-1.104854854854855 	299.9574458220466 	0.1230063075039924 	101274.701555781
-1.102352352352353 	299.9580334226887 	0.1213240473687219 	101275.395923414
-1.09984984984985 	299.9594101933509 	0.1173502915963973 	101277.0228975727
-1.097347347347347 	299.9615300137648 	0.1111405721072091 	101279.5280329915
-1.094844844844845 	299.9643552412818 	0.1029736499188687 	101282.8668941383
-1.092342342342342 	299.9678368558573 	0.09299104591398029 	101286.9816052555
-1.08983983983984 	299.9718842113871 	0.08130239637806835 	101291.7651042248
-1.087337337337337 	299.9764525294246 	0.0680979893957913 	101297.1645271769
-1.084834834834835 	299.9814569976952 	0.053588529986939 	101303.0796935546
-1.082332332332332 	299.9867844321279 	0.03817072648424767 	101309.3768861943
-1.07982982982983 	299.992319642225 	0.02218873044583073 	101315.9199832854
-1.077327327327327 	299.9979459356227 	0.007217828054682138 	101322.5710699124
-1.074824824824825 	300.0036152338538 	0.0105260892907467 	101329.2733149772
-1.072322322322323 	300.0092647900971 	0.02684361592867506 	101335.9525515131
-1.06981981981982 	300.0147676834169 	0.04273044312557244 	101342.458705836
-1.067317317317317 	300.0199973129137 	0.05784091884443839 	101348.6420634272
-1.064814814814815 	300.0248541968246 	0.07188574647101489 	101354.38495422
-1.062312312312312 	300.0292599356839 	0.08463323283147167 	101359.5946089096
-1.05980980980981 	300.0331508165461 	0.09588351931240807 	101364.1956383901
-1.057307307307307 	300.0364546325204 	0.1054101871314992 	101368.102584197
-1.054804804804805 	300.0390916786862 	0.1130249219123634 	101371.2211280362
-1.052302302302302 	300.0410010740842 	0.1185376820161126 	101373.4792315185
-1.0497997997998 	300.0421390083141 	0.1218145806561462 	101374.8250276306
-1.047297297297297 	300.0424834923558 	0.1228155430520768 	101375.2324557718
-1.044794794794795 	300.0420381083074 	0.1215132493357007 	101374.7057821982
-1.042292292292292 	300.0408130174343 	0.1179583573810426 	101373.2571031367
-1.03978978978979 	300.0388254122106 	0.1122258188602005 	101370.9066946569
-1.037287287287287 	300.0361157328183 	0.104379398358955 	101367.7023973332
-1.034784784784785 	300.0327283590512 	0.09458669443804116 	101363.6967801561
-1.032282282282283 	300.0287248601326 	0.0830340479418888 	101358.962713537
-1.02977977977978 	300.0241952382023 	0.06993674389657478 	101353.6066920854
-1.027277277277277 	300.0192330369221 	0.05559113088679529 	101347.7393838399
-1.024774774774775 	300.0139291705484 	0.04027004961178966 	101341.4683560469
-1.022272272272272 	300.0083913675183 	0.02426016032519997 	101334.9210182492
-1.01976976976977 	300.0027075558401 	0.007828309821212246 	101328.201350716
-1.017267267267267 	299.9969686612263 	0.009673454067276788 	101321.4168912518
-1.014764764764765 	299.9912665295934 	0.0253153097024829 	101314.6761961754
-1.012262262262262 	299.9857103565996 	0.04136519325780292 	101308.1083416379
-1.00975975975976 	299.980420967931 	0.05662520598324598 	101301.8561313927
-1.007257257257257 	299.9754998671593 	0.07085978753697225 	101296.0394638028
-1.004754754754755 	299.9710231604207 	0.08381021648187134 	101290.7482844144
-1.002252252252252 	299.967070634065 	0.09520004797279888 	101286.0767869835
-0.9997497497497498 	299.9637331107752 	0.1048288307592722 	101282.1322673814
-0.9972472472472473 	299.961058484083 	0.1125355415396616 	101278.9712872082
-0.9947447447447449 	299.9590933052111 	0.1182492184082889 	101276.6487247431
-0.9922422422422421 	299.9578906588408 	0.1217855787714685 	101275.227340986
-0.9897397397397399 	299.9574965200334 	0.1228933540799935 	101274.7615221409
-0.9872372372372376 	299.9579384852963 	0.1215607061851303 	101275.2837797823
-0.9847347347347346 	299.9592094970765 	0.1179292443105725 	101276.7857731956
-0.9822322322322323 	299.9611841894794 	0.1122860243194945 	101279.1194024412
-0.9797297297297296 	299.9637812975718 	0.1047761234888419 	101282.1886638542
-0.9772272272272275 	299.9669954263078 	0.09538526738543338 	101285.9872171046
-0.9747247247247248 	299.9708529140127 	0.08415202976000326 	101290.5462600777
-0.9722222222222224 	299.9753250894354 	0.07120636871856534 	101295.8319937232
-0.9697197197197196 	299.9803120170411 	0.05698733553351379 	101301.7263782923
-0.9672172172172175 	299.985566315176 	0.04187479072076347 	101307.9370652369
-0.9647147147147147 	299.9909410397327 	0.02624408560516438 	101314.2903923425
-0.9622122122122124 	299.9963697666519 	0.01047737800157268 	101320.7078417044
-0.9597097097097099 	300.00188091152 	0.008924493068107484 	101327.2230116453
-0.9572072072072073 	300.0075624210945 	0.02197539091748255 	101333.9399076693
-0.9547047047047047 	300.0133219908421 	0.03855739813859605 	101340.7494297364
-0.9522022022022023 	300.0188823169194 	0.05454655759566528 	101347.3237298038
-0.9496996996996998 	300.0239349318126 	0.06910282128978348 	101353.2980262426
-0.9471971971971973 	300.0282813209307 	0.0816833474061293 	101358.4374826297
-0.9446946946946947 	300.0319111274802 	0.09224808639897583 	101362.7297536821
-0.9421921921921923 	300.0349677450919 	0.1011641211375799 	101366.3443168113
-0.93968968968969 	300.0376194297847 	0.108866228424442 	101369.48010391
-0.9371871871871872 	300.0399229950038 	0.1154943777345943 	101372.2042897102
-0.9346846846846848 	300.0417621599319 	0.1207225624927303 	101374.3793362555
-0.9321821821821823 	300.0428817212741 	0.1238457793550378 	101375.7034202657
-0.9296796796796799 	300.0429860533389 	0.1240483880005624 	101375.8268111089
-0.9271771771771771 	300.0418526727933 	0.1207209466448638 	101374.4865768224
-0.9246746746746748 	300.0394215546095 	0.1137076324107151 	101371.6117525896
-0.9221721721721724 	300.0358322155326 	0.103408465338632 	101367.3672530948
-0.9196696696696698 	300.0314000557111 	0.09071247012199113 	101362.1261740051
-0.9171671671671672 	300.0265425471532 	0.07679140795151254 	101356.3822957772
-0.9146646646646649 	300.0216802241594 	0.06282864683166829 	101350.6329250437
-0.9121621621621623 	300.0171503331036 	0.04978603418416262 	101345.2768180139
-0.9096596596596597 	300.013167826106 	0.03828965666165252 	101340.5680824708
-0.9071571571571573 	300.0098314860969 	0.02863564801331 	101336.623452313
-0.9046546546546547 	300.0071501363076 	0.02085978607021891 	101333.4533016104
-0.9021521521521524 	300.0050726832188 	0.01482272464984295 	101330.9971777089
-0.8996496496496498 	300.0035152241964 	0.01028786884107484 	101329.1558535781
-0.8971471471471473 	300.0023821037647 	0.006982370949088229 	101327.8162204361
-0.894644644644645 	300.0015801841207 	0.004638826030916991 	101326.8681553664
-0.892142142142142 	300.001027059536 	0.003019555469802291 	101326.2142291719
-0.8896396396396397 	300.0006546167685 	0.001927395832795168 	101325.7739131204
-0.8871371371371374 	300.0004094599903 	0.001207317805274898 	101325.4840796557
-0.8846346346346349 	300.0002515180401 	0.0007426702394941896 	101325.2973547726
-0.8821321321321324 	300.0001518222871 	0.0004489210761769488 	101325.1794906366
-0.8796296296296297 	300.0000901081527 	0.0002668071228911822 	101325.1065297541
-0.8771271271271271 	300.0000526125073 	0.000155995783021611 	101325.0622008709
-0.8746246246246248 	300.0000302362293 	8.977053720181362e-05 	101325.0357466663
-0.8721221221221224 	300.0000171112508 	5.08701006969449e-05 	101325.020229732
-0.8696196196196196 	300.0000095397972 	2.839801343807744e-05 	101325.0112784298
-0.8671171171171175 	300.0000052417676 	1.562379083950018e-05 	101325.0061970832
-0.8646146146146148 	300.0000028396012 	8.474687006186256e-06 	101325.0033571555
-0.8621121121121121 	300.0000015172012 	4.533725852231715e-06 	101325.0017937271
-0.8596096096096097 	300.00000079981 	2.392919782510078e-06 	101325.0009455585
-0.857107107107107 	300.0000004160813 	1.246466827739839e-06 	101325.0004919323
-0.8546046046046049 	300.0000002137056 	6.409798879297998e-07 	101325.0002526604
-0.8521021021021022 	300.0000001084001 	3.254943261896506e-07 	101325.0001281462
-0.8495995995995997 	300.0000000543032 	1.632676008853903e-07 	101325.0000641988
-0.8470970970970974 	300.0000000268442 	8.091365317969991e-08 	101325.0000317765
-0.8445945945945946 	300.0000000131258 	3.963042571484259e-08 	101325.0000155432
-0.8420920920920922 	300.0000000063654 	1.918636653047144e-08 	101325.0000075144
-0.8395895895895897 	300.000000003037 	9.185715752468868e-09 	101325.0000035907
-0.8370870870870872 	300.0000000014367 	4.348265989544356e-09 	101325.0000016957
-0.8345845845845846 	300.0000000006784 	2.037492533213547e-09 	101325.0000007909
-0.8320820820820823 	300.0000000002884 	9.444304617756182e-10 	101325.0000003637
-0.8295795795795798 	300.0000000000922 	4.332505470028387e-10 	101325.000000164
-0.8270770770770772 	300.0000000000367 	1.967142520286867e-10 	101325.0000000717
-0.8245745745745746 	299.9999999999883 	8.828475143976783e-11 	101325.0000000296
-0.8220720720720721 	299.9999999999828 	3.995828343448831e-11 	101325.0000000107
-0.8195695695695699 	299.9999999999987 	1.740791656111756e-11 	101325.0000000022
-0.817067067067067 	299.9999999999766 	9.090142003066254e-12 	101324.9999999984
-0.8145645645645651 	299.9999999999588 	3.89198279007197e-12 	101324.9999999967
-0.8120620620620621 	299.999999999989 	2.593730212608515e-12 	101324.9999999958
-0.8095595595595597 	299.9999999999998 	2.566712283574691e-12 	101324.9999999956
-0.8070570570570572 	299.9999999999673 	1.833704631415952e-12 	101324.9999999956
-0.8045545545545546 	299.9999999999666 	2.423161334981974e-12 	101324.9999999957
-0.8020520520520523 	299.9999999999932 	1.552014571924475e-12 	101324.9999999956
-0.7995495495495494 	300.000000000014 	3.237791990514957e-12 	101324.9999999956
-0.7970470470470474 	299.9999999999987 	2.740145509875196e-12 	101324.9999999956
-0.7945445445445446 	300.0000000000023 	3.777973731302852e-12 	101324.9999999958
-0.7920420420420423 	300.0000000000083 	3.383258705098923e-12 	101324.9999999959
-0.7895395395395397 	300.0000000000064 	4.237899884241125e-12 	101324.9999999961
-0.7870370370370371 	300.0000000000035 	2.80287817907175e-12 	101324.999999996
-0.7845345345345348 	299.9999999999818 	4.296603169696466e-12 	101324.9999999961
-0.7820320320320323 	299.9999999999807 	2.474567923477465e-12 	101324.9999999963
-0.7795295295295296 	299.999999999957 	4.412424027320945e-12 	101324.9999999962
-0.7770270270270272 	299.9999999999465 	3.35189714349633e-12 	101324.999999996
-0.7745245245245247 	299.9999999999442 	3.89432856494756e-12 	101324.9999999958
-0.7720220220220222 	299.9999999999699 	3.153609936812341e-12 	101324.9999999957
-0.7695195195195199 	299.9999999999702 	3.300766888957199e-12 	101324.9999999956
-0.767017017017017 	299.9999999999857 	3.884918033301564e-12 	101324.9999999956
-0.7645145145145147 	300.0000000000061 	3.570618372461963e-12 	101324.9999999957
-0.7620120120120122 	300.0000000000107 	4.385488652039018e-12 	101324.9999999958
-0.7595095095095097 	299.9999999999601 	4.818576188697833e-12 	101324.9999999959
-0.7570070070070072 	299.9999999999634 	5.817718043436824e-12 	101324.9999999961
-0.7545045045045048 	299.9999999999901 	5.049204005259197e-12 	101324.9999999961
-0.7520020020020022 	299.9999999999778 	5.34427118755135e-12 	101324.9999999962
-0.7494994994994997 	299.9999999999748 	3.51032344053971e-12 	101324.9999999961
-0.7469969969969972 	299.9999999999973 	3.614120801933521e-12 	101324.9999999962
-0.7444944944944945 	299.9999999999922 	2.152651737678864e-12 	101324.999999996
-0.7419919919919924 	299.9999999999903 	2.107383357651314e-12 	101324.999999996
-0.7394894894894897 	299.9999999999731 	1.038651529651604e-12 	101324.9999999959
-0.7369869869869872 	299.9999999999923 	1.152833714917925e-12 	101324.9999999957
-0.7344844844844846 	299.9999999999789 	1.711071453254153e-12 	101324.9999999956
-0.7319819819819822 	300.0000000000024 	7.189055886135785e-13 	101324.9999999956
-0.7294794794794797 	299.9999999999993 	1.93070283562774e-12 	101324.9999999958
-0.7269769769769773 	300.0000000000068 	8.951164306829383e-13 	101324.9999999958
-0.7244744744744747 	300.000000000007 	1.09093744151008e-12 	101324.9999999959
-0.721971971971972 	299.9999999999712 	9.42795362298163e-13 	101324.999999996
-0.7194694694694695 	299.9999999999894 	9.534583921131624e-13 	101324.9999999961
-0.7169669669669674 	299.9999999999623 	7.580066188017116e-13 	101324.999999996
-0.7144644644644647 	299.9999999999857 	4.611570814025348e-13 	101324.9999999957
-0.711961961961962 	300.0000000000055 	3.76151134649974e-13 	101324.9999999955
-0.7094594594594597 	300.0000000000068 	8.98948280986622e-13 	101324.9999999955
-0.7069569569569573 	300.000000000013 	1.120913597464769e-12 	101324.9999999954
-0.7044544544544545 	300.0000000000156 	4.312513439246381e-13 	101324.9999999953
-0.7019519519519523 	300.0000000000041 	8.656994724739644e-13 	101324.9999999955
-0.6994494494494495 	299.9999999999591 	7.285996461443216e-13 	101324.9999999954
-0.6969469469469471 	299.9999999999654 	6.423128102340725e-13 	101324.9999999955
-0.6944444444444446 	299.9999999999747 	6.706000705324148e-13 	101324.9999999958
-0.6919419419419421 	300.0000000000156 	9.977985794727682e-13 	101324.9999999962
-0.6894394394394396 	299.9999999999974 	1.298310510019849e-12 	101324.9999999965
-0.6869369369369374 	300.0000000000065 	2.450409143491413e-12 	101324.9999999965
-0.6844344344344344 	300.0000000000134 	2.445814717084056e-12 	101324.9999999965
-0.6819319319319321 	299.9999999999778 	2.999801286569876e-12 	101324.9999999965
-0.6794294294294296 	299.9999999999679 	2.990418775430848e-12 	101324.9999999963
-0.6769269269269272 	299.9999999999507 	3.513422690829532e-12 	101324.9999999961
-0.6744244244244245 	299.9999999999799 	3.454873832001344e-12 	101324.999999996
-0.6719219219219222 	299.9999999999756 	3.229133267092914e-12 	101324.9999999962
-0.6694194194194195 	299.9999999999986 	3.394512046170186e-12 	101324.9999999961
-0.6669169169169172 	300.0000000000095 	2.321235553460707e-12 	101324.9999999959
-0.6644144144144146 	299.9999999999787 	2.398424121428766e-12 	101324.9999999958
-0.661911911911912 	299.9999999999799 	1.585301611638849e-12 	101324.9999999957
-0.6594094094094097 	299.9999999999848 	1.863754827406492e-12 	101324.9999999958
-0.656906906906907 	299.9999999999637 	5.578303837015991e-13 	101324.9999999958
-0.6544044044044046 	299.9999999999665 	1.506467769309835e-12 	101324.9999999957
-0.6519019019019021 	299.9999999999924 	8.53724054417159e-13 	101324.9999999956
-0.6493993993993996 	300.0000000000134 	1.909087806057272e-12 	101324.9999999959
-0.6468968968968971 	300.0000000000178 	1.752018415551653e-12 	101324.9999999961
-0.6443943943943946 	299.999999999999 	2.629645072013211e-12 	101324.9999999962
-0.6418918918918921 	299.999999999997 	1.11644810280226e-12 	101324.9999999964
-0.6393893893893897 	299.999999999999 	1.687065314372231e-12 	101324.9999999964
-0.6368868868868871 	299.999999999986 	1.091402112205224e-12 	101324.9999999963
-0.6343843843843846 	299.9999999999967 	1.628811807502696e-12 	101324.999999996
-0.6318818818818821 	299.999999999972 	1.592897977822369e-12 	101324.9999999958
-0.6293793793793795 	300.000000000001 	1.582495332258692e-12 	101324.9999999957
-0.6268768768768773 	300.0000000000106 	1.547938050033519e-12 	101324.9999999957
-0.6243743743743745 	299.9999999999866 	8.917701534425983e-13 	101324.9999999958
-0.6218718718718721 	300.0000000000022 	1.811961596578317e-12 	101324.9999999959
-0.6193693693693696 	299.9999999999619 	1.118312662593496e-12 	101324.999999996
-0.6168668668668671 	299.9999999999897 	2.274908325283204e-12 	101324.9999999963
-0.6143643643643645 	300.0000000000086 	1.401894114131443e-12 	101324.9999999962
-0.6118618618618621 	299.9999999999905 	1.731613815165631e-12 	101324.9999999962
-0.6093593593593596 	299.9999999999914 	1.239660621029545e-12 	101324.9999999963
-0.6068568568568571 	299.9999999999927 	1.516316559574873e-12 	101324.9999999964
-0.6043543543543546 	299.9999999999764 	1.078351467487054e-12 	101324.9999999964
-0.6018518518518521 	299.9999999999808 	1.400643945998785e-12 	101324.9999999966
-0.5993493493493496 	299.9999999999675 	1.013039572163189e-12 	101324.9999999966
-0.5968468468468471 	299.9999999999744 	1.859038124542609e-12 	101324.9999999966
-0.5943443443443446 	299.9999999999966 	1.091927197143704e-12 	101324.9999999966
-0.591841841841842 	299.9999999999763 	2.232895465759401e-12 	101324.9999999965
-0.5893393393393397 	299.9999999999701 	9.652134531502292e-13 	101324.9999999963
-0.5868368368368371 	299.9999999999946 	2.380688178360624e-12 	101324.9999999958
-0.5843343343343346 	300 	1.645120833076933e-12 	101324.9999999957
-0.5818318318318321 	300.0000000000178 	2.623982293332028e-12 	101324.9999999958
-0.5793293293293297 	299.9999999999927 	1.369433618810734e-12 	101324.9999999959
-0.5768268268268271 	299.9999999999999 	2.337826425484073e-12 	101324.999999996
-0.5743243243243245 	300.0000000000124 	1.038423282504065e-12 	101324.999999996
-0.5718218218218221 	300.0000000000122 	7.886068999149103e-13 	101324.9999999962
-0.5693193193193196 	300.0000000000268 	2.023313512156818e-13 	101324.9999999962
-0.5668168168168171 	299.9999999999936 	8.321683932396934e-13 	101324.9999999962
-0.5643143143143147 	299.9999999999699 	6.871722008935075e-13 	101324.999999996
-0.5618118118118121 	300.0000000000087 	1.157268301648779e-12 	101324.9999999963
-0.5593093093093094 	300.0000000000207 	5.248061683995115e-13 	101324.9999999962
-0.5568068068068072 	300.0000000000106 	1.124806919188412e-12 	101324.9999999961
-0.5543043043043046 	300.0000000000106 	7.04093927146048e-13 	101324.9999999962
-0.551801801801802 	299.9999999999737 	4.058858253445488e-13 	101324.9999999961
-0.5492992992992995 	299.9999999999986 	1.066417447641976e-12 	101324.9999999961
-0.5467967967967969 	300.0000000000085 	7.423620784796504e-13 	101324.9999999962
-0.5442942942942947 	300.0000000000058 	5.500754538921807e-13 	101324.9999999962
-0.5417917917917919 	299.9999999999752 	5.481548672041038e-13 	101324.9999999962
-0.5392892892892895 	299.9999999999612 	5.793245037210015e-13 	101324.9999999962
-0.536786786786787 	299.9999999999743 	3.629528159861162e-13 	101324.9999999961
-0.5342842842842846 	299.9999999999783 	1.259187531441488e-12 	101324.9999999959
-0.531781781781782 	299.9999999999625 	1.012317217345985e-12 	101324.9999999957
-0.5292792792792794 	299.9999999999586 	2.380967457017053e-12 	101324.9999999957
-0.526776776776777 	299.9999999999495 	1.596315031983654e-12 	101324.9999999958
-0.5242742742742745 	299.9999999999883 	3.838331338200463e-12 	101324.9999999957
-0.521771771771772 	300.0000000000092 	2.434275308493558e-12 	101324.9999999957
-0.5192692692692695 	299.9999999999782 	4.778872500469989e-12 	101324.9999999959
-0.516766766766767 	300.0000000000005 	3.360103095312638e-12 	101324.9999999957
-0.5142642642642645 	299.9999999999809 	3.396310685179905e-12 	101324.9999999956
-0.511761761761762 	299.9999999999711 	3.060159541948804e-12 	101324.9999999955
-0.5092592592592596 	299.9999999999835 	2.772241619468083e-12 	101324.9999999955
-0.506756756756757 	299.9999999999661 	1.335359812963174e-12 	101324.9999999956
-0.5042542542542544 	299.9999999999952 	2.988286246399915e-12 	101324.9999999958
-0.5017517517517521 	300.0000000000165 	1.380941950239512e-12 	101324.9999999959
-0.4992492492492494 	300.0000000000194 	2.247348571097646e-12 	101324.9999999958
-0.496746746746747 	299.9999999999936 	6.71543761565638e-13 	101324.9999999959
-0.4942442442442445 	299.9999999999644 	1.310107095388073e-12 	101324.999999996
-0.4917417417417421 	299.9999999999661 	1.00831597236698e-12 	101324.999999996
-0.4892392392392395 	299.9999999999745 	2.197225685691834e-12 	101324.9999999957
-0.486736736736737 	299.999999999974 	1.743283581088033e-12 	101324.9999999955
-0.4842342342342345 	299.9999999999552 	2.93609057117477e-12 	101324.9999999955
-0.481731731731732 	300.0000000000213 	7.989114927656467e-13 	101324.9999999953
-0.4792292292292296 	300.000000000012 	1.818302101435935e-12 	101324.9999999954
-0.4767267267267268 	299.9999999999751 	1.680006515518139e-12 	101324.9999999955
-0.4742242242242246 	299.9999999999999 	2.594718996799331e-12 	101324.9999999958
-0.471721721721722 	299.9999999999763 	1.681893109791973e-12 	101324.9999999958
-0.4692192192192195 	299.999999999991 	1.971582963751022e-12 	101324.9999999958
-0.4667167167167169 	299.9999999999492 	7.181180855250359e-13 	101324.9999999957
-0.4642142142142145 	299.9999999999959 	1.800576452571369e-12 	101324.9999999957
-0.461711711711712 	300.0000000000093 	5.241008869272447e-13 	101324.9999999959
-0.4592092092092094 	300.000000000004 	1.547979687727248e-12 	101324.9999999962
-0.456706706706707 	300.0000000000301 	4.030924661054692e-13 	101324.9999999964
-0.4542042042042045 	299.9999999999666 	6.791151781094812e-13 	101324.9999999962
-0.451701701701702 	299.9999999999717 	5.003395050996372e-13 	101324.9999999964
-0.4491991991991995 	299.9999999999769 	4.077308034846954e-13 	101324.9999999967
-0.4466966966966969 	299.9999999999777 	1.560121150548943e-12 	101324.9999999967
-0.4441941941941945 	299.9999999999991 	3.87152416542913e-13 	101324.9999999965
-0.441691691691692 	299.9999999999779 	1.79308010332412e-12 	101324.9999999963
-0.4391891891891895 	299.9999999999918 	1.45839063513206e-12 	101324.999999996
-0.436686686686687 	299.9999999999828 	2.210193359463651e-12 	101324.9999999958
-0.4341841841841846 	299.9999999999994 	2.809342950889712e-12 	101324.9999999956
-0.431681681681682 	299.9999999999717 	1.670473113368203e-12 	101324.9999999957
-0.4291791791791794 	299.9999999999607 	1.670744713833982e-12 	101324.9999999959
-0.426676676676677 	299.9999999999507 	1.279532842797426e-12 	101324.9999999958
-0.4241741741741744 	299.9999999999815 	1.908469146591609e-12 	101324.9999999958
-0.421671671671672 	300.000000000004 	5.68950499465222e-13 	101324.9999999956
-0.4191691691691694 	300.0000000000277 	1.005101773150932e-12 	101324.9999999954
-0.4166666666666669 	300.0000000000318 	2.469931460869103e-13 	101324.9999999953
-0.4141641641641645 	299.9999999999645 	1.813025019691297e-13 	101324.9999999953
-0.411661661661662 	299.9999999999997 	1.157243299199342e-13 	101324.9999999953
-0.4091591591591594 	300.0000000000065 	2.552260094260849e-13 	101324.9999999953
-0.406656656656657 	299.9999999999726 	4.404635007287153e-13 	101324.9999999955
-0.4041541541541545 	300.0000000000077 	1.25176814791228e-12 	101324.9999999955
-0.401651651651652 	299.9999999999591 	8.862396750537874e-13 	101324.9999999957
-0.3991491491491494 	300.0000000000032 	1.581796596343722e-12 	101324.9999999957
-0.396646646646647 	299.9999999999744 	2.229075792808331e-12 	101324.9999999956
-0.3941441441441444 	299.9999999999892 	1.886919016513005e-12 	101324.9999999957
-0.3916416416416419 	299.9999999999635 	2.206319510382815e-12 	101324.9999999956
-0.3891391391391395 	299.9999999999744 	1.557689381861704e-12 	101324.9999999956
-0.3866366366366368 	299.9999999999757 	1.398287779676456e-12 	101324.9999999956
-0.3841341341341344 	300.0000000000002 	1.031731351988248e-12 	101324.9999999958
-0.381631631631632 	299.9999999999716 	7.615481861051255e-13 	101324.9999999956
-0.3791291291291294 	299.9999999999999 	1.142104292530091e-12 	101324.9999999956
-0.3766266266266269 	300.0000000000115 	1.128437570054165e-12 	101324.9999999954
-0.3741241241241244 	300.0000000000127 	5.587586488121627e-13 	101324.9999999954
-0.371621621621622 	300.000000000012 	6.839006589493168e-13 	101324.9999999953
-0.3691191191191194 	300.0000000000044 	2.317242033769083e-12 	101324.9999999955
-0.366616616616617 	300.0000000000036 	1.018050643200083e-12 	101324.9999999955
-0.3641141141141143 	299.9999999999862 	2.048291740801689e-12 	101324.9999999953
-0.3616116116116119 	299.9999999999675 	1.085164748846704e-12 	101324.9999999955
-0.3591091091091095 	299.9999999999876 	1.267813109247168e-12 	101324.9999999954
-0.356606606606607 	299.9999999999919 	7.995923704566022e-13 	101324.9999999953
-0.3541041041041044 	299.9999999999959 	9.220131554178034e-13 	101324.9999999955
-0.3516016016016019 	300.0000000000112 	1.711103377495772e-12 	101324.9999999958
-0.3490990990990994 	299.9999999999974 	8.62610601649238e-13 	101324.999999996
-0.346596596596597 	300.0000000000177 	3.082265196023441e-12 	101324.9999999961
-0.3440940940940944 	300.0000000000206 	1.7465545057009e-12 	101324.9999999956
-0.3415915915915919 	300.0000000000164 	4.033910107287383e-12 	101324.9999999954
-0.3390890890890895 	299.9999999999897 	2.540719027219888e-12 	101324.9999999951
-0.3365865865865869 	300.0000000000093 	3.411423099946988e-12 	101324.9999999948
-0.3340840840840844 	299.9999999999945 	2.826728664059414e-12 	101324.999999995
-0.3315815815815819 	300.0000000000107 	3.324605400245103e-12 	101324.9999999951
-0.3290790790790794 	300.0000000000117 	3.441160474955603e-12 	101324.9999999954
-0.3265765765765769 	299.9999999999605 	3.309713329195683e-12 	101324.9999999955
-0.3240740740740744 	300.0000000000006 	2.188688132387658e-12 	101324.9999999953
-0.3215715715715718 	300.0000000000074 	3.279496111399101e-12 	101324.9999999954
-0.3190690690690695 	299.9999999999644 	2.713244767021578e-12 	101324.9999999955
-0.3165665665665668 	299.9999999999937 	3.858749499301992e-12 	101324.9999999955
-0.3140640640640644 	299.9999999999989 	2.412789195568558e-12 	101324.9999999955
-0.311561561561562 	299.99999999996 	4.156702886727757e-12 	101324.9999999955
-0.3090590590590593 	299.9999999999993 	1.063613575888112e-12 	101324.9999999955
-0.3065565565565568 	300.0000000000034 	4.928368064665555e-12 	101324.9999999956
-0.3040540540540545 	299.9999999999998 	1.304256244387522e-12 	101324.9999999955
-0.3015515515515518 	300.0000000000179 	4.573498448243406e-12 	101324.9999999954
-0.2990490490490494 	299.9999999999655 	2.577481767774447e-12 	101324.9999999955
-0.2965465465465469 	299.9999999999937 	4.003655227768106e-12 	101324.9999999953
-0.2940440440440444 	299.9999999999941 	3.416660506005579e-12 	101324.9999999954
-0.2915415415415418 	300.0000000000054 	3.284821865399858e-12 	101324.9999999953
-0.2890390390390395 	300.0000000000076 	3.4605035240672e-12 	101324.9999999952
-0.2865365365365368 	299.9999999999845 	2.096580192828067e-12 	101324.9999999952
-0.2840340340340343 	299.9999999999997 	3.93086733613596e-12 	101324.9999999954
-0.2815315315315318 	299.9999999999548 	1.922310058669258e-12 	101324.9999999955
-0.2790290290290295 	299.9999999999832 	3.36753575561557e-12 	101324.9999999956
-0.2765265265265269 	300.0000000000085 	2.530495882299846e-12 	101324.9999999956
-0.2740240240240244 	300.000000000011 	3.043289273858626e-12 	101324.9999999953
-0.2715215215215219 	300.0000000000077 	3.160663002713391e-12 	101324.9999999953
-0.2690190190190194 	299.9999999999691 	3.031193370837197e-12 	101324.9999999951
-0.2665165165165169 	299.999999999996 	3.28215139916154e-12 	101324.9999999952
-0.2640140140140144 	299.9999999999853 	2.089317435146661e-12 	101324.999999995
-0.2615115115115119 	299.9999999999965 	3.554059618762938e-12 	101324.9999999949
-0.2590090090090094 	299.9999999999587 	2.315084976666402e-12 	101324.9999999948
-0.2565065065065068 	299.9999999999962 	3.960928555472109e-12 	101324.9999999949
-0.2540040040040044 	299.9999999999928 	3.847615886332897e-12 	101324.9999999947
-0.2515015015015019 	300.0000000000159 	3.74567972898223e-12 	101324.999999995
-0.2489989989989994 	300.0000000000236 	5.569650408458492e-12 	101324.9999999949
-0.2464964964964968 	299.9999999999899 	4.417022469076858e-12 	101324.9999999946
-0.2439939939939944 	299.9999999999914 	6.801193515875179e-12 	101324.9999999949
-0.2414914914914919 	299.9999999999779 	3.754066550762604e-12 	101324.9999999948
-0.2389889889889893 	299.9999999999976 	6.522831154035589e-12 	101324.9999999948
-0.2364864864864869 	300.0000000000113 	3.934720676375249e-12 	101324.9999999949
-0.2339839839839843 	299.9999999999668 	6.696743831874968e-12 	101324.9999999946
-0.2314814814814819 	299.9999999999845 	3.218666553657966e-12 	101324.9999999946
-0.2289789789789792 	299.9999999999566 	5.329394581275404e-12 	101324.9999999944
-0.2264764764764769 	299.9999999999661 	3.674945671230649e-12 	101324.9999999942
-0.2239739739739743 	299.9999999999799 	5.194742454181414e-12 	101324.9999999943
-0.2214714714714718 	299.9999999999678 	4.651211999640207e-12 	101324.9999999945
-0.2189689689689693 	299.9999999999792 	3.816225093341941e-12 	101324.9999999946
-0.2164664664664669 	299.999999999987 	4.85359474234491e-12 	101324.9999999944
-0.2139639639639643 	299.9999999999616 	3.329494781963986e-12 	101324.9999999942
-0.2114614614614618 	299.9999999999822 	3.821856819757481e-12 	101324.9999999939
-0.2089589589589593 	299.9999999999969 	3.018608970542829e-12 	101324.999999994
-0.2064564564564568 	299.9999999999972 	2.938630470348444e-12 	101324.9999999943
-0.2039539539539543 	299.9999999999523 	3.860036670506918e-12 	101324.9999999944
-0.2014514514514518 	299.9999999999619 	1.805435236708953e-12 	101324.9999999942
-0.1989489489489494 	299.999999999984 	4.764237066698914e-12 	101324.9999999945
-0.1964464464464468 	300.0000000000002 	2.598883388257169e-12 	101324.9999999947
-0.1939439439439443 	299.9999999999969 	5.551573640844758e-12 	101324.9999999948
-0.1914414414414418 	299.9999999999592 	3.967530584757202e-12 	101324.9999999948
-0.1889389389389393 	299.9999999999989 	5.027725550552111e-12 	101324.9999999946
-0.1864364364364368 	300.0000000000165 	4.956971880384958e-12 	101324.9999999943
-0.1839339339339343 	299.9999999999847 	4.894357747980424e-12 	101324.9999999943
-0.1814314314314318 	299.9999999999935 	4.260000274015798e-12 	101324.9999999943
-0.1789289289289293 	299.9999999999437 	4.245372146904314e-12 	101324.9999999941
-0.1764264264264268 	299.9999999999875 	3.46883995250938e-12 	101324.9999999942
-0.1739239239239243 	299.9999999999451 	3.841642136055185e-12 	101324.9999999941
-0.1714214214214218 	299.9999999999917 	2.765862380470604e-12 	101324.9999999941
-0.1689189189189193 	299.9999999999709 	4.838114618742116e-12 	101324.999999994
-0.1664164164164168 	299.9999999999986 	2.526592993518668e-12 	101324.9999999941
-0.1639139139139143 	299.9999999999912 	6.188153006323751e-12 	101324.9999999941
-0.1614114114114118 	300.0000000000101 	1.634225422252613e-12 	101324.9999999943
-0.1589089089089093 	299.9999999999972 	8.076356508039822e-12 	101324.9999999946
-0.1564064064064068 	299.9999999999863 	9.357581747904331e-13 	101324.9999999945
-0.1539039039039043 	299.9999999999961 	8.562811313036977e-12 	101324.9999999948
-0.1514014014014018 	300.0000000000124 	1.60915703477535e-12 	101324.9999999948
-0.1488988988988993 	299.9999999999969 	7.788017416736701e-12 	101324.9999999946
-0.1463963963963968 	300.0000000000019 	1.946477835905404e-12 	101324.9999999945
-0.1438938938938943 	299.9999999999795 	6.5823122841159e-12 	101324.9999999945
-0.1413913913913918 	299.9999999999594 	2.754764858672931e-12 	101324.9999999947
-0.1388888888888893 	299.9999999999861 	4.610820064166093e-12 	101324.9999999947
-0.1363863863863868 	299.9999999999418 	3.218827735075758e-12 	101324.9999999946
-0.1338838838838843 	299.9999999999603 	3.910275022484161e-12 	101324.9999999944
-0.1313813813813818 	299.9999999999937 	2.840532887331787e-12 	101324.9999999946
-0.1288788788788793 	299.9999999999764 	3.403178361442828e-12 	101324.9999999945
-0.1263763763763768 	299.9999999999841 	2.549827028742131e-12 	101324.9999999946
-0.1238738738738743 	299.9999999999648 	3.781772798801186e-12 	101324.9999999945
-0.1213713713713717 	299.9999999999939 	2.125378738332224e-12 	101324.9999999946
-0.1188688688688693 	300.0000000000085 	4.596423197405983e-12 	101324.9999999946
-0.1163663663663668 	299.9999999999495 	1.907535125846273e-12 	101324.9999999948
-0.1138638638638643 	299.9999999999943 	4.888852104473731e-12 	101324.9999999948
-0.1113613613613618 	299.9999999999932 	1.393513663944753e-12 	101324.999999995
-0.1088588588588592 	299.9999999999887 	5.583394499319548e-12 	101324.9999999949
-0.1063563563563568 	299.9999999999775 	1.67173982642265e-12 	101324.9999999948
-0.1038538538538543 	299.9999999999901 	4.739175157929462e-12 	101324.9999999948
-0.1013513513513517 	300.0000000000071 	2.575689060717503e-12 	101324.9999999947
-0.09884884884884926 	299.9999999999727 	4.13276924558044e-12 	101324.9999999948
-0.09634634634634676 	299.9999999999476 	2.69227415660306e-12 	101324.9999999949
-0.09384384384384425 	299.999999999955 	3.000148845189056e-12 	101324.999999995
-0.09134134134134177 	300.000000000009 	2.295984568394344e-12 	101324.9999999951
-0.08883883883883925 	300.0000000000059 	3.231886366483243e-12 	101324.999999995
-0.08633633633633674 	299.9999999999735 	3.714518026375092e-12 	101324.999999995
-0.08383383383383426 	300.000000000003 	3.891272884158503e-12 	101324.9999999951
-0.08133133133133173 	299.9999999999843 	4.166665217202805e-12 	101324.9999999951
-0.07882882882882926 	299.9999999999414 	3.694047484367992e-12 	101324.9999999949
-0.07632632632632676 	299.9999999999774 	3.88130773779741e-12 	101324.999999995
-0.07382382382382424 	299.9999999999441 	4.545860297101806e-12 	101324.999999995
-0.07132132132132173 	300.0000000000074 	3.990996782610028e-12 	101324.9999999947
-0.06881881881881925 	299.9999999999803 	3.244776776856488e-12 	101324.9999999948
-0.06631631631631671 	299.9999999999438 	2.777720056834317e-12 	101324.9999999946
-0.06381381381381425 	299.9999999999775 	2.173345578368621e-12 	101324.9999999945
-0.06131131131131173 	299.9999999999779 	2.124974496365215e-12 	101324.9999999943
-0.05880880880880923 	299.9999999999584 	2.044865762264116e-12 	101324.9999999944
-0.05630630630630672 	299.9999999999822 	1.927040356983756e-12 	101324.9999999945
-0.05380380380380424 	300.0000000000071 	1.970280581341969e-12 	101324.9999999945
-0.05130130130130173 	300.0000000000069 	2.03746542917254e-12 	101324.9999999947
-0.04879879879879922 	299.9999999999706 	1.922575108977659e-12 	101324.9999999949
-0.04629629629629672 	299.9999999999629 	1.1797270098133e-12 	101324.9999999953
-0.04379379379379422 	299.9999999999538 	1.355250562012674e-12 	101324.9999999952
-0.04129129129129173 	299.9999999999902 	8.598599915564731e-13 	101324.9999999952
-0.03878878878878922 	299.9999999999902 	1.420742145264068e-12 	101324.9999999951
-0.03628628628628671 	299.9999999999909 	1.259668555642563e-12 	101324.9999999951
-0.03378378378378422 	299.9999999999603 	1.823633635979626e-12 	101324.999999995
-0.03128128128128172 	299.9999999999821 	8.312620886364243e-13 	101324.9999999949
-0.02877877877877922 	299.9999999999818 	1.041856932812525e-12 	101324.9999999948
-0.0262762762762767 	299.999999999947 	2.18853196051116e-13 	101324.999999995
-0.02377377377377422 	300.0000000000105 	9.872009589559412e-14 	101324.9999999949
-0.0212712712712717 	299.9999999999471 	1.57223922687454e-13 	101324.999999995
-0.01876876876876921 	299.9999999999842 	2.672698957948119e-13 	101324.9999999952
-0.01626626626626671 	300.0000000000063 	4.869531919045499e-13 	101324.9999999952
-0.0137637637637642 	299.9999999999794 	1.592306784253387e-14 	101324.9999999953
-0.0112612612612617 	300.0000000000072 	1.014544727272426e-13 	101324.9999999954
-0.008758758758759198 	299.999999999997 	1.705229730864053e-13 	101324.9999999955
-0.006256256256256697 	299.9999999999407 	1.061752510981081e-13 	101324.9999999955
-0.003753753753754195 	299.9999999999756 	4.209203364785468e-13 	101324.9999999956
-0.001251251251251693 	299.9999999999596 	5.551633409879911e-13 	101324.9999999955
0.00125125125125081 	299.9999999999749 	1.60549150772919e-12 	101324.9999999951
0.003753753753753312 	299.9999999999802 	1.176786809514248e-12 	101324.999999995
0.006256256256255817 	299.9999999999404 	1.121512662127963e-12 	101324.9999999951
0.008758758758758317 	299.9999999999944 	1.032536740079097e-12 	101324.9999999953
0.01126126126126082 	300.0000000000068 	1.154825871383057e-12 	101324.9999999953
0.01376376376376332 	299.9999999999807 	1.745116332209252e-12 	101324.9999999952
0.01626626626626582 	300.0000000000046 	1.918063817623468e-12 	101324.9999999951
0.01876876876876833 	299.9999999999775 	1.922084302564672e-12 	101324.9999999948
0.02127127127127083 	299.9999999999837 	2.33528056110692e-12 	101324.9999999953
0.02377377377377332 	299.9999999999981 	2.038841241983459e-12 	101324.9999999952
0.02627627627627583 	299.9999999999501 	1.658888388226346e-12 	101324.9999999949
0.02877877877877833 	300.0000000000019 	2.056526966394495e-12 	101324.9999999947
0.03128128128128083 	299.9999999999689 	1.551904474848538e-12 	101324.9999999949
0.03378378378378333 	299.9999999999468 	1.672748761917891e-12 	101324.9999999947
0.03628628628628584 	299.9999999999869 	1.055694285136822e-12 	101324.9999999946
0.03878878878878834 	299.9999999999903 	8.591659994625397e-13 	101324.999999995
0.04129129129129084 	299.9999999999866 	1.05767083446517e-12 	101324.999999995
0.04379379379379333 	299.9999999999662 	1.01588540768702e-12 	101324.999999995
0.04629629629629585 	299.9999999999413 	9.02004042909383e-13 	101324.9999999948
0.04879879879879834 	299.9999999999736 	1.13623998569012e-12 	101324.9999999947
0.05130130130130085 	300.0000000000059 	9.0862048312385e-13 	101324.9999999946
0.05380380380380335 	300.0000000000098 	1.298901800391659e-12 	101324.9999999947
0.05630630630630584 	299.9999999999935 	2.07362584952988e-12 	101324.9999999947
0.05880880880880836 	299.9999999999586 	2.286219558329062e-12 	101324.9999999949
0.06131131131131085 	299.9999999999855 	2.330963950878135e-12 	101324.9999999951
0.06381381381381336 	299.9999999999781 	2.087465869489776e-12 	101324.9999999952
0.06631631631631586 	299.9999999999403 	1.985843971764428e-12 	101324.9999999952
0.06881881881881835 	299.9999999999702 	2.562233496459181e-12 	101324.999999995
0.07132132132132088 	299.9999999999955 	2.422483591935014e-12 	101324.9999999954
0.07382382382382337 	299.9999999999498 	2.566322620044491e-12 	101324.9999999953
0.07632632632632587 	299.9999999999826 	3.585709663512589e-12 	101324.9999999953
0.07882882882882837 	299.999999999967 	3.531459430557227e-12 	101324.999999995
0.08133133133133086 	299.9999999999932 	3.555265334459426e-12 	101324.9999999949
0.08383383383383337 	299.9999999999936 	2.86607038248557e-12 	101324.9999999948
0.08633633633633589 	299.9999999999498 	3.010167814663659e-12 	101324.9999999951
0.08883883883883838 	300.0000000000042 	3.365179252524283e-12 	101324.999999995
0.09134134134134086 	299.9999999999925 	2.263721146330858e-12 	101324.9999999951
0.09384384384384339 	299.9999999999452 	2.577201542104052e-12 	101324.999999995
0.09634634634634588 	299.9999999999819 	2.753309867962186e-12 	101324.999999995
0.09884884884884838 	299.9999999999849 	2.942017941250087e-12 	101324.9999999949
0.1013513513513509 	300.0000000000134 	3.532832702376411e-12 	101324.9999999951
0.1038538538538534 	299.999999999972 	3.928276791978431e-12 	101324.9999999952
0.1063563563563559 	300.0000000000047 	4.542273952909689e-12 	101324.9999999947
0.1088588588588584 	300.0000000000132 	3.895498850720535e-12 	101324.9999999947
0.1113613613613609 	299.9999999999636 	4.68280445739806e-12 	101324.9999999943
0.1138638638638634 	299.9999999999705 	4.8590650269131e-12 	101324.9999999942
0.1163663663663659 	299.9999999999691 	4.52423128250608e-12 	101324.9999999942
0.1188688688688684 	299.9999999999808 	4.39130714419134e-12 	101324.9999999943
0.1213713713713709 	299.9999999999965 	4.315266408179166e-12 	101324.9999999944
0.1238738738738734 	299.9999999999575 	4.192177200666497e-12 	101324.9999999946
0.1263763763763759 	299.9999999999914 	4.270515585095704e-12 	101324.9999999947
0.1288788788788784 	299.9999999999919 	3.728564226036026e-12 	101324.9999999949
0.1313813813813809 	299.9999999999911 	4.255130271917229e-12 	101324.9999999949
0.1338838838838834 	299.9999999999856 	3.776971630240259e-12 	101324.999999995
0.1363863863863859 	300.0000000000131 	3.543815392972154e-12 	101324.9999999949
0.1388888888888884 	300.0000000000232 	2.651952226323178e-12 	101324.999999995
0.1413913913913909 	299.9999999999994 	1.915027185484979e-12 	101324.9999999951
0.1438938938938934 	299.9999999999958 	1.717880014640831e-12 	101324.9999999952
0.1463963963963959 	299.9999999999793 	1.935523478593671e-12 	101324.9999999952
0.1488988988988985 	299.9999999999528 	3.097970348352773e-12 	101324.9999999949
0.1514014014014009 	299.9999999999791 	3.553146090396105e-12 	101324.9999999948
0.1539039039039035 	299.9999999999759 	5.009546729267632e-12 	101324.9999999947
0.1564064064064059 	299.9999999999744 	3.336141655772084e-12 	101324.9999999944
0.1589089089089084 	299.9999999999874 	6.007545030291627e-12 	101324.9999999944
0.1614114114114109 	299.9999999999858 	3.575089086051415e-12 	101324.9999999948
0.1639139139139134 	299.9999999999515 	4.708810150335878e-12 	101324.9999999951
0.166416416416416 	299.9999999999999 	3.858509969643364e-12 	101324.9999999951
0.1689189189189185 	300.0000000000133 	3.401582666136237e-12 	101324.9999999949
0.1714214214214209 	299.9999999999929 	3.455481347620439e-12 	101324.9999999949
0.1739239239239235 	299.9999999999902 	2.34713209685643e-12 	101324.9999999951
0.1764264264264259 	299.9999999999794 	3.830302183478064e-12 	101324.9999999951
0.1789289289289284 	300.0000000000014 	1.663387843407825e-12 	101324.999999995
0.181431431431431 	299.9999999999797 	4.295250170529155e-12 	101324.999999995
0.1839339339339334 	299.9999999999835 	2.438661632504471e-12 	101324.9999999948
0.186436436436436 	299.9999999999629 	3.917446026200048e-12 	101324.9999999947
0.1889389389389385 	299.9999999999901 	3.76000744638526e-12 	101324.9999999945
0.191441441441441 	299.9999999999889 	3.480928778892818e-12 	101324.9999999945
0.1939439439439434 	299.9999999999586 	4.809424501314789e-12 	101324.9999999945
0.196446446446446 	299.9999999999744 	3.002696688298433e-12 	101324.9999999943
0.1989489489489485 	299.9999999999814 	4.50554590083155e-12 	101324.9999999943
0.2014514514514509 	299.9999999999884 	2.654097988094881e-12 	101324.9999999945
0.2039539539539535 	299.9999999999937 	4.324474479712642e-12 	101324.9999999945
0.2064564564564559 	299.9999999999764 	3.61558642204305e-12 	101324.9999999943
0.2089589589589585 	299.9999999999904 	3.744481392744029e-12 	101324.9999999945
0.211461461461461 	299.9999999999657 	3.546642456208689e-12 	101324.9999999947
0.2139639639639635 	299.9999999999935 	3.488979340238599e-12 	101324.9999999948
0.2164664664664659 	300.0000000000003 	4.307439588184588e-12 	101324.9999999949
0.2189689689689684 	299.9999999999965 	2.982211704683792e-12 	101324.9999999949
0.221471471471471 	299.9999999999948 	4.767726635903825e-12 	101324.9999999945
0.2239739739739735 	299.9999999999754 	2.49862094796587e-12 	101324.9999999943
0.226476476476476 	299.9999999999909 	3.750299136451367e-12 	101324.9999999945
0.2289789789789785 	299.9999999999973 	3.35383950856264e-12 	101324.9999999943
0.231481481481481 	299.999999999992 	3.708216316110059e-12 	101324.9999999945
0.2339839839839835 	299.9999999999909 	4.707020673851834e-12 	101324.9999999943
0.236486486486486 	300.000000000009 	4.001734304517374e-12 	101324.9999999942
0.2389889889889885 	299.9999999999981 	4.954827216682235e-12 	101324.9999999943
0.241491491491491 	299.9999999999589 	2.658045224264404e-12 	101324.9999999946
0.2439939939939935 	299.9999999999887 	4.598701391660857e-12 	101324.9999999948
0.246496496496496 	299.9999999999911 	2.572829794060858e-12 	101324.9999999946
0.2489989989989985 	300.0000000000143 	4.309176184668994e-12 	101324.9999999949
0.251501501501501 	300.00000000001 	3.533111774096722e-12 	101324.9999999948
0.2540040040040035 	299.9999999999925 	3.41190743900515e-12 	101324.9999999949
0.256506506506506 	300.00000000001 	3.646018934154244e-12 	101324.9999999947
0.2590090090090086 	299.9999999999513 	2.668836882433681e-12 	101324.9999999946
0.261511511511511 	300.0000000000015 	5.08718035504119e-12 	101324.9999999947
0.2640140140140135 	299.9999999999927 	3.073230927504719e-12 	101324.9999999949
0.2665165165165161 	299.9999999999633 	4.592432730423336e-12 	101324.999999995
0.2690190190190185 	300.0000000000052 	3.424600340833971e-12 	101324.9999999949
0.271521521521521 	299.9999999999996 	3.524826114054241e-12 	101324.9999999948
0.2740240240240235 	300.0000000000047 	3.399574366902378e-12 	101324.9999999948
0.276526526526526 	300.0000000000008 	2.921539409045377e-12 	101324.9999999949
0.2790290290290286 	299.9999999999675 	4.380352701289996e-12 	101324.9999999949
0.281531531531531 	299.9999999999594 	2.925000832784415e-12 	101324.999999995
0.2840340340340335 	299.9999999999907 	4.160709095790463e-12 	101324.9999999952
0.2865365365365361 	299.9999999999773 	2.439428076891192e-12 	101324.9999999952
0.2890390390390385 	299.999999999996 	3.702363448980523e-12 	101324.999999995
0.291541541541541 	299.9999999999961 	3.497996403749962e-12 	101324.9999999951
0.2940440440440436 	299.9999999999937 	3.131350799946838e-12 	101324.9999999949
0.296546546546546 	299.9999999999927 	3.398172510587134e-12 	101324.9999999948
0.2990490490490486 	299.9999999999619 	2.267644589808432e-12 	101324.9999999948
0.3015515515515511 	300.0000000000144 	4.604405218744265e-12 	101324.999999995
0.3040540540540535 	299.9999999999916 	1.323053949458165e-12 	101324.9999999953
0.3065565565565562 	299.9999999999969 	5.186476909888559e-12 	101324.9999999952
0.3090590590590585 	299.9999999999923 	1.028828825252132e-12 	101324.9999999952
0.3115615615615611 	299.9999999999647 	3.642924135431179e-12 	101324.9999999953
0.3140640640640635 	299.999999999998 	1.447674677332368e-12 	101324.9999999951
0.316566566566566 	299.9999999999923 	3.109534376039281e-12 	101324.9999999951
0.3190690690690687 	299.9999999999742 	1.787123883453521e-12 	101324.9999999951
0.3215715715715711 	300.0000000000043 	2.631255852663778e-12 	101324.999999995
0.3240740740740735 	299.9999999999951 	1.378745614194079e-12 	101324.9999999947
0.326576576576576 	299.9999999999461 	2.104028623891955e-12 	101324.9999999947
0.3290790790790786 	299.9999999999992 	1.64616509688876e-12 	101324.9999999949
0.3315815815815811 	300.000000000019 	2.035744057310562e-12 	101324.9999999951
0.3340840840840836 	299.9999999999952 	1.921128869080448e-12 	101324.9999999951
0.3365865865865861 	300.0000000000306 	1.924619331983429e-12 	101324.9999999952
0.3390890890890886 	300.0000000000255 	6.294968493867601e-13 	101324.9999999953
0.3415915915915911 	300.0000000000003 	1.044397178981873e-12 	101324.9999999953
0.3440940940940935 	299.9999999999724 	1.049177184996606e-12 	101324.9999999954
0.3465965965965962 	300.0000000000192 	7.523475773532882e-13 	101324.9999999954
0.3490990990990985 	300.0000000000141 	7.642529171430091e-13 	101324.9999999952
0.3516016016016011 	299.9999999999922 	4.131647149056176e-14 	101324.9999999952
0.3541041041041035 	300.0000000000031 	2.014691246405632e-13 	101324.9999999952
0.3566066066066061 	299.9999999999768 	6.096489424865485e-13 	101324.9999999952
0.3591091091091085 	299.9999999999589 	6.983544738018741e-13 	101324.999999995
0.3616116116116112 	299.9999999999671 	1.205973215808059e-12 	101324.999999995
0.3641141141141137 	299.9999999999616 	1.29555911167414e-12 	101324.999999995
0.3666166166166161 	299.9999999999589 	1.781423059084422e-12 	101324.9999999952
0.3691191191191185 	300.0000000000164 	2.518010877010828e-12 	101324.9999999953
0.371621621621621 	300.0000000000085 	8.959659986007824e-13 	101324.9999999953
0.3741241241241237 	300.0000000000263 	2.2312579113641e-12 	101324.9999999955
0.3766266266266261 	300.0000000000121 	6.250519204565911e-13 	101324.9999999954
0.3791291291291286 	299.9999999999914 	1.780995255628393e-12 	101324.9999999953
0.3816316316316311 	299.9999999999584 	8.728138426505735e-13 	101324.9999999952
0.3841341341341336 	300.0000000000023 	1.326358982528311e-12 	101324.9999999953
0.3866366366366362 	299.999999999995 	3.048658585406014e-13 	101324.9999999952
0.3891391391391387 	299.9999999999773 	4.548815256791842e-13 	101324.9999999953
0.391641641641641 	299.9999999999978 	7.316956564974074e-13 	101324.9999999956
0.3941441441441436 	300.0000000000053 	7.608421537261294e-13 	101324.9999999958
0.3966466466466462 	300.0000000000013 	1.714979079236025e-12 	101324.9999999959
0.3991491491491486 	299.999999999976 	1.669515107435682e-12 	101324.9999999956
0.4016516516516512 	299.9999999999578 	2.541634363526568e-12 	101324.9999999953
0.4041541541541536 	299.9999999999761 	1.169732293400815e-12 	101324.9999999949
0.4066566566566561 	299.9999999999765 	2.790080298317129e-12 	101324.9999999946
0.4091591591591587 	299.9999999999964 	1.079110557772506e-12 	101324.9999999948
0.4116616616616612 	300.0000000000041 	2.863619125159279e-12 	101324.9999999949
0.4141641641641635 	300.0000000000188 	2.09804279105013e-12 	101324.9999999951
0.4166666666666662 	299.9999999999971 	3.2063314428046e-12 	101324.9999999949
0.4191691691691687 	299.9999999999687 	3.133391572409596e-12 	101324.999999995
0.421671671671671 	300.0000000000038 	1.776884703076349e-12 	101324.9999999951
0.4241741741741737 	299.9999999999854 	3.411872243387647e-12 	101324.9999999951
0.4266766766766761 	299.9999999999719 	1.087634725212663e-12 	101324.9999999952
0.4291791791791785 	300.0000000000125 	4.106439123340588e-12 	101324.9999999955
0.4316816816816812 	300.0000000000036 	1.045478450374053e-12 	101324.9999999956
0.4341841841841836 	299.9999999999897 	3.665712296279843e-12 	101324.9999999955
0.4366866866866862 	299.9999999999593 	1.418209520976878e-12 	101324.9999999954
0.4391891891891885 	299.9999999999977 	3.218964785843836e-12 	101324.9999999953
0.4416916916916913 	299.9999999999937 	1.969689147852406e-12 	101324.9999999953
0.4441941941941936 	299.9999999999931 	2.904551091650027e-12 	101324.9999999952
0.4466966966966961 	299.9999999999598 	2.250789297545643e-12 	101324.9999999952
0.4491991991991987 	299.9999999999919 	1.891707721351108e-12 	101324.9999999955
0.4517017017017012 	299.9999999999911 	2.188766226029863e-12 	101324.9999999958
0.4542042042042035 	299.9999999999925 	1.665994968166733e-12 	101324.9999999956
0.4567067067067062 	299.9999999999974 	2.118465047052531e-12 	101324.9999999958
0.4592092092092087 	299.9999999999637 	1.479115039051416e-12 	101324.9999999957
0.4617117117117112 	300.0000000000099 	1.833682581037112e-12 	101324.9999999958
0.4642142142142137 	299.9999999999821 	1.594668928567444e-12 	101324.9999999956
0.4667167167167162 	299.9999999999953 	1.596743343861125e-12 	101324.9999999958
0.4692192192192187 	299.9999999999769 	1.73392135621315e-12 	101324.9999999957
0.4717217217217212 	300.0000000000065 	1.629080895518951e-12 	101324.9999999957
0.4742242242242236 	299.9999999999764 	1.981125321461387e-12 	101324.9999999952
0.4767267267267262 	299.9999999999871 	1.827950024537016e-12 	101324.9999999953
0.4792292292292287 	300.0000000000084 	2.708851067103802e-12 	101324.9999999952
0.4817317317317312 	300.0000000000169 	3.061561227563074e-12 	101324.9999999953
0.4842342342342336 	299.9999999999916 	3.149211271197732e-12 	101324.9999999955
0.4867367367367362 	299.9999999999751 	3.160215829884645e-12 	101324.9999999955
0.4892392392392387 	300.0000000000121 	2.881387382075315e-12 	101324.9999999956
0.4917417417417412 	300.0000000000032 	3.495353122620735e-12 	101324.9999999954
0.4942442442442437 	299.9999999999529 	1.963038168543417e-12 	101324.9999999954
0.4967467467467462 	299.9999999999629 	2.76156569868789e-12 	101324.9999999954
0.4992492492492487 	299.9999999999592 	1.057769079686274e-12 	101324.9999999953
0.5017517517517511 	299.9999999999783 	2.166414955823158e-12 	101324.9999999953
0.5042542542542537 	299.9999999999832 	1.117518003282434e-12 	101324.9999999952
0.5067567567567562 	299.9999999999749 	1.920378249197589e-12 	101324.9999999952
0.5092592592592589 	299.9999999999858 	2.130069485494323e-12 	101324.9999999954
0.5117617617617611 	299.9999999999784 	1.860507462892993e-12 	101324.9999999955
0.5142642642642637 	299.9999999999931 	2.999281787628776e-12 	101324.9999999957
0.5167667667667663 	299.999999999987 	1.740644332975811e-12 	101324.9999999959
0.5192692692692688 	299.9999999999632 	4.133836765301188e-12 	101324.9999999959
0.5217717717717714 	299.9999999999682 	1.418044283043774e-12 	101324.999999996
0.5242742742742736 	299.9999999999665 	3.293270454424495e-12 	101324.9999999958
0.5267767767767763 	299.9999999999778 	8.85779998303919e-13 	101324.9999999958
0.5292792792792789 	299.9999999999688 	2.89066795644253e-12 	101324.9999999956
0.5317817817817813 	299.9999999999544 	1.081833861279294e-12 	101324.9999999957
0.5342842842842837 	300.0000000000077 	1.967883430368862e-12 	101324.9999999955
0.5367867867867864 	299.9999999999995 	1.875918366713989e-12 	101324.9999999956
0.5392892892892888 	299.9999999999783 	2.157020411573141e-12 	101324.9999999958
0.5417917917917912 	300.0000000000015 	1.90402559687592e-12 	101324.9999999959
0.5442942942942938 	299.9999999999891 	1.837722374508415e-12 	101324.9999999961
0.5467967967967964 	299.9999999999765 	1.082903261300362e-12 	101324.9999999959
0.5492992992992988 	299.9999999999689 	1.258799116407912e-12 	101324.9999999959
0.5518018018018012 	299.9999999999662 	1.149339288029002e-12 	101324.9999999958
0.5543043043043039 	300.0000000000102 	1.976021263060898e-12 	101324.9999999959
0.5568068068068063 	299.9999999999945 	1.828582584627873e-12 	101324.9999999957
0.5593093093093087 	299.9999999999524 	2.137142901610568e-12 	101324.9999999958
0.5618118118118114 	299.9999999999815 	7.014172034696479e-13 	101324.9999999958
0.5643143143143137 	299.9999999999708 	1.836080980295147e-12 	101324.9999999956
0.5668168168168163 	299.9999999999939 	1.340852976600176e-12 	101324.9999999957
0.5693193193193188 	300.0000000000168 	2.249405768735397e-12 	101324.9999999957
0.5718218218218213 	300.000000000014 	2.44612350083998e-12 	101324.9999999956
0.5743243243243239 	300.0000000000044 	2.150072197584718e-12 	101324.9999999955
0.5768268268268262 	300.0000000000029 	3.0225113400045e-12 	101324.9999999956
0.5793293293293288 	299.9999999999768 	1.920533947063071e-12 	101324.9999999956
0.5818318318318314 	299.9999999999598 	3.627959410357354e-12 	101324.9999999955
0.5843343343343338 	299.9999999999899 	1.177810488443773e-12 	101324.9999999956
0.5868368368368363 	299.9999999999874 	3.295530131549729e-12 	101324.9999999956
0.5893393393393387 	299.9999999999699 	1.019075447869746e-12 	101324.9999999956
0.5918418418418413 	299.9999999999686 	1.969567404138415e-12 	101324.9999999956
0.5943443443443439 	300.000000000006 	1.11326810813583e-12 	101324.9999999957
0.5968468468468463 	300.0000000000074 	2.354579413237613e-12 	101324.9999999955
0.5993493493493487 	300.0000000000229 	2.476604640534611e-12 	101324.9999999954
0.6018518518518514 	299.9999999999911 	3.045360368863588e-12 	101324.9999999954
0.6043543543543537 	299.999999999996 	2.974796677212774e-12 	101324.9999999953
0.6068568568568564 	299.9999999999891 	3.182259048283377e-12 	101324.9999999954
0.6093593593593587 	299.9999999999631 	2.825146953842484e-12 	101324.9999999955
0.6118618618618614 	299.9999999999624 	2.576173283576332e-12 	101324.9999999954
0.6143643643643638 	300.0000000000069 	2.265150961322588e-12 	101324.9999999953
0.6168668668668662 	299.9999999999925 	3.287639762971261e-12 	101324.9999999953
0.6193693693693688 	299.9999999999792 	2.392154991846687e-12 	101324.9999999952
0.6218718718718714 	299.9999999999841 	3.432771342356928e-12 	101324.9999999953
0.6243743743743737 	299.9999999999661 	2.052156407969702e-12 	101324.9999999954
0.6268768768768762 	299.9999999999598 	3.422602239067235e-12 	101324.9999999954
0.629379379379379 	299.999999999971 	2.194384213545242e-12 	101324.9999999953
0.6318818818818812 	299.9999999999824 	2.398160751990374e-12 	101324.9999999952
0.6343843843843838 	300.00000000001 	2.402776935887815e-12 	101324.999999995
0.6368868868868864 	299.9999999999922 	2.461631350000536e-12 	101324.999999995
0.6393893893893888 	299.9999999999623 	2.866602223094765e-12 	101324.999999995
0.6418918918918912 	300.0000000000022 	1.49249567672171e-12 	101324.999999995
0.6443943943943939 	299.9999999999958 	3.893607131485108e-12 	101324.9999999951
0.6468968968968963 	299.9999999999908 	1.538235198804268e-12 	101324.9999999952
0.6493993993993988 	299.9999999999861 	3.404097777842237e-12 	101324.9999999951
0.6519019019019012 	299.9999999999823 	1.15400184532282e-12 	101324.9999999953
0.6544044044044038 	299.9999999999492 	2.448928524243634e-12 	101324.9999999955
0.6569069069069065 	299.9999999999798 	9.076063435786785e-13 	101324.9999999957
0.6594094094094087 	299.9999999999781 	2.077661836682167e-12 	101324.9999999955
0.6619119119119113 	299.9999999999736 	1.160957548656909e-12 	101324.9999999951
0.664414414414414 	299.9999999999964 	2.242624968280842e-12 	101324.999999995
0.6669169169169162 	300.0000000000072 	1.89505085877562e-12 	101324.9999999951
0.6694194194194188 	299.9999999999918 	2.537645822445325e-12 	101324.9999999951
0.6719219219219214 	299.9999999999632 	1.79603779661118e-12 	101324.9999999951
0.674424424424424 	299.9999999999874 	1.92192035437002e-12 	101324.9999999954
0.6769269269269262 	299.9999999999578 	1.400399338591877e-12 	101324.9999999956
0.679429429429429 	300.0000000000045 	1.419162028635544e-12 	101324.9999999958
0.6819319319319311 	299.9999999999873 	1.178157994739543e-12 	101324.9999999959
0.6844344344344341 	299.9999999999961 	1.634992940104283e-12 	101324.9999999959
0.686936936936936 	299.9999999999949 	6.458281044283849e-13 	101324.999999996
0.6894394394394392 	299.9999999999941 	5.978136473365492e-13 	101324.9999999959
0.6919419419419413 	299.9999999999933 	1.18912514997845e-13 	101324.999999996
0.694444444444444 	299.9999999999748 	2.333765730225764e-13 	101324.9999999959
0.6969469469469463 	299.9999999999634 	4.127906441880859e-13 	101324.9999999958
0.6994494494494489 	299.9999999999579 	8.686428569430748e-13 	101324.9999999956
0.7019519519519515 	299.9999999999904 	8.492743639726773e-13 	101324.9999999954
0.7044544544544538 	299.9999999999731 	1.100252775029874e-12 	101324.9999999953
0.7069569569569564 	299.9999999999968 	1.857911342905641e-12 	101324.999999995
0.7094594594594589 	299.9999999999812 	9.240098397477538e-13 	101324.9999999948
0.7119619619619615 	299.999999999954 	1.925585365218652e-12 	101324.9999999946
0.7144644644644638 	299.9999999999707 	6.515163582231884e-13 	101324.9999999945
0.7169669669669665 	299.999999999958 	1.174851006553674e-12 	101324.9999999946
0.7194694694694688 	299.999999999994 	4.225279028482662e-13 	101324.9999999947
0.7219719719719715 	299.9999999999949 	4.559829106491912e-13 	101324.9999999947
0.7244744744744737 	299.9999999999993 	6.967924521271049e-13 	101324.9999999949
0.7269769769769764 	299.9999999999956 	1.350697779038736e-12 	101324.999999995
0.7294794794794791 	299.9999999999915 	1.512767795491169e-12 	101324.9999999951
0.7319819819819813 	299.9999999999882 	1.150777496207369e-12 	101324.9999999949
0.7344844844844839 	299.9999999999598 	1.409758609016668e-12 	101324.9999999947
0.7369869869869864 	299.9999999999764 	4.051453632141859e-13 	101324.9999999948
0.739489489489489 	299.9999999999703 	5.239816288404569e-13 	101324.9999999948
0.7419919919919914 	299.9999999999656 	1.193244489617801e-12 	101324.9999999948
0.7444944944944939 	299.9999999999856 	2.031242118870039e-12 	101324.9999999949
0.7469969969969963 	299.9999999999833 	1.274282256271534e-12 	101324.9999999951
0.7494994994994989 	299.9999999999695 	2.884185000200321e-12 	101324.9999999951
0.7520020020020015 	299.9999999999842 	1.876802952492112e-12 	101324.9999999951
0.7545045045045039 	299.9999999999834 	2.147265876999145e-12 	101324.999999995
0.7570070070070062 	299.99999999997 	1.154806411289048e-12 	101324.9999999947
0.7595095095095092 	299.9999999999646 	1.190090358329611e-12 	101324.9999999948
0.7620120120120112 	300.0000000000012 	9.931026316884269e-13 	101324.9999999948
0.7645145145145138 	299.999999999992 	1.229375869451642e-12 	101324.9999999949
0.7670170170170165 	299.999999999965 	1.69165243948567e-12 	101324.999999995
0.7695195195195191 	299.9999999999628 	1.24356740307964e-12 	101324.9999999951
0.7720220220220213 	299.9999999999701 	2.08865653384501e-12 	101324.9999999951
0.7745245245245239 	299.9999999999725 	1.186076783791899e-12 	101324.999999995
0.7770270270270263 	299.9999999999841 	1.407529985285885e-12 	101324.999999995
0.779529529529529 	299.999999999987 	5.821240765704103e-13 	101324.9999999952
0.7820320320320313 	299.9999999999828 	1.048514771194689e-12 	101324.9999999953
0.784534534534534 	299.9999999999976 	9.857972134208795e-13 	101324.9999999953
0.7870370370370364 	299.9999999999959 	1.146818351570518e-12 	101324.9999999953
0.7895395395395389 	299.9999999999893 	2.007580475323843e-12 	101324.9999999952
0.7920420420420413 	299.9999999999864 	1.298968741694953e-12 	101324.999999995
0.794544544544544 	299.9999999999895 	2.888673217488346e-12 	101324.9999999948
0.7970470470470463 	299.9999999999998 	1.908285737324548e-12 	101324.9999999948
0.799549549549549 	299.9999999999907 	2.658119297315926e-12 	101324.9999999948
0.8020520520520515 	299.999999999996 	1.081072537563473e-12 	101324.9999999948
0.8045545545545539 	299.999999999973 	1.570359873842823e-12 	101324.999999995
0.8070570570570563 	299.9999999999935 	5.511492883890513e-13 	101324.999999995
0.8095595595595589 	299.9999999999803 	1.305769379036164e-12 	101324.999999995
0.8120620620620614 	299.9999999999644 	1.983505355830996e-12 	101324.999999995
0.8145645645645638 	299.9999999999944 	1.969042312696839e-12 	101324.999999995
0.8170670670670666 	299.9999999999939 	2.524735782455719e-12 	101324.999999995
0.8195695695695689 	299.9999999999852 	1.398490066448012e-12 	101324.999999995
0.8220720720720714 	299.9999999999713 	2.071967379259599e-12 	101324.999999995
0.8245745745745739 	300.0000000000014 	8.636033052280924e-13 	101324.9999999948
0.8270770770770765 	299.9999999999878 	2.024228303447598e-12 	101324.9999999945
0.8295795795795788 	299.9999999999728 	1.486012282922107e-12 	101324.9999999944
0.8320820820820815 	300.0000000000105 	1.953960990113709e-12 	101324.9999999946
0.834584584584584 	300.0000000000045 	1.362906618643703e-12 	101324.9999999947
0.8370870870870865 	299.9999999999851 	1.131493357805295e-12 	101324.9999999948
0.8395895895895891 	299.9999999999611 	1.369590608784778e-12 	101324.999999995
0.8420920920920915 	299.9999999999674 	6.46803400162767e-13 	101324.9999999952
0.844594594594594 	299.9999999999652 	7.131297322480017e-13 	101324.9999999953
0.8470970970970964 	299.9999999999696 	4.991816262516962e-13 	101324.9999999952
0.8495995995995991 	299.9999999999882 	6.528622102314487e-13 	101324.9999999951
0.8521021021021015 	299.9999999999866 	1.078866600920013e-12 	101324.9999999951
0.8546046046046039 	299.9999999999886 	1.177473019192828e-12 	101324.9999999949
0.8571071071071066 	299.9999999999959 	2.119079384245005e-12 	101324.999999995
0.8596096096096089 	299.9999999999739 	1.698788709911169e-12 	101324.9999999949
0.8621121121121116 	299.9999999999596 	1.937537398404638e-12 	101324.9999999948
0.8646146146146139 	299.9999999999914 	9.332832907906621e-13 	101324.9999999947
0.8671171171171166 	299.9999999999872 	1.33369709068218e-12 	101324.9999999947
0.8696196196196189 	299.9999999999766 	1.213335698011976e-12 	101324.9999999946
0.8721221221221216 	299.9999999999789 	2.199834766726052e-12 	101324.9999999946
0.874624624624624 	300.0000000000001 	2.215812257343849e-12 	101324.9999999946
0.8771271271271264 	300.0000000000045 	2.145249139148103e-12 	101324.9999999945
0.879629629629629 	299.9999999999997 	2.724908095592018e-12 	101324.9999999947
0.8821321321321317 	299.9999999999903 	1.853169047932147e-12 	101324.999999995
0.8846346346346339 	299.9999999999612 	3.30865352984013e-12 	101324.9999999952
0.8871371371371364 	299.9999999999737 	1.80969293640542e-12 	101324.9999999952
0.8896396396396391 	299.9999999999746 	2.533109828312022e-12 	101324.9999999953
0.8921421421421414 	299.9999999999785 	1.583143844286843e-12 	101324.9999999954
0.8946446446446441 	299.999999999992 	1.598345047190274e-12 	101324.9999999955
0.8971471471471464 	300.0000000000015 	1.157274947350692e-12 	101324.9999999957
0.8996496496496489 	299.9999999999854 	1.094831075869538e-12 	101324.9999999957
0.9021521521521517 	299.9999999999781 	1.626794499694834e-12 	101324.9999999956
0.9046546546546541 	299.9999999999914 	1.011987379442352e-12 	101324.9999999956
0.9071571571571564 	299.9999999999694 	1.368777180556739e-12 	101324.9999999957
0.9096596596596589 	299.9999999999723 	1.755584741801052e-12 	101324.9999999956
0.9121621621621616 	300.0000000000015 	1.881995435009927e-12 	101324.9999999956
0.9146646646646639 	299.9999999999887 	1.66227178459855e-12 	101324.9999999955
0.9171671671671666 	299.9999999999725 	1.477434793960162e-12 	101324.9999999955
0.9196696696696689 	299.9999999999989 	2.219945127616316e-12 	101324.9999999956
0.9221721721721714 	300.0000000000023 	1.838481011486194e-12 	101324.9999999958
0.9246746746746741 	299.9999999999732 	1.859538503062067e-12 	101324.9999999958
0.9271771771771765 	299.9999999999692 	1.105489893838119e-12 	101324.9999999959
0.9296796796796791 	299.9999999999962 	2.394269345525018e-12 	101324.999999996
0.9321821821821816 	299.9999999999886 	2.42666514951345e-12 	101324.9999999961
0.9346846846846838 	299.9999999999725 	3.577830367462201e-12 	101324.9999999962
0.9371871871871866 	300.0000000000045 	3.370525397123406e-12 	101324.9999999963
0.9396896896896891 	300.0000000000086 	3.044630234570718e-12 	101324.9999999963
0.9421921921921914 	300.0000000000061 	3.301496941738416e-12 	101324.9999999961
0.9446946946946939 	299.9999999999809 	2.73801111029091e-12 	101324.9999999961
0.9471971971971965 	299.9999999999574 	3.668352607830639e-12 	101324.999999996
0.9496996996996991 	299.9999999999727 	2.298890995147787e-12 	101324.9999999958
0.9522022022022016 	299.9999999999783 	2.862118752000897e-12 	101324.9999999959
0.9547047047047038 	299.9999999999825 	2.150559244160602e-12 	101324.999999996
0.9572072072072064 	299.9999999999808 	2.530477584325738e-12 	101324.9999999961
0.9597097097097093 	299.9999999999828 	2.394113822288371e-12 	101324.9999999961
0.9622122122122114 	299.9999999999779 	2.187195278465433e-12 	101324.9999999962
0.964714714714714 	299.9999999999799 	2.838577952008723e-12 	101324.9999999964
0.9672172172172167 	299.9999999999816 	2.48437648705532e-12 	101324.9999999964
0.969719719719719 	299.9999999999923 	3.543407251005691e-12 	101324.9999999965
0.9722222222222214 	299.999999999989 	3.433163312662275e-12 	101324.9999999964
0.9747247247247239 	299.9999999999837 	3.959509633157657e-12 	101324.9999999963
0.9772272272272267 	299.9999999999969 	4.049261001923647e-12 	101324.9999999962
0.9797297297297292 	299.9999999999931 	3.625792318483524e-12 	101324.9999999961
0.9822322322322313 	299.9999999999997 	3.571623653060041e-12 	101324.9999999962
0.9847347347347344 	299.9999999999985 	2.783730613577775e-12 	101324.9999999962
0.9872372372372363 	299.9999999999764 	4.348963109652245e-12 	101324.9999999959
0.9897397397397389 	299.9999999999857 	3.47258324943694e-12 	101324.9999999959
0.9922422422422417 	299.9999999999728 	5.019763413687344e-12 	101324.999999996
0.9947447447447441 	299.9999999999719 	4.517629259202007e-12 	101324.999999996
0.9972472472472468 	299.999999999984 	5.220135687225744e-12 	101324.9999999962
0.999749749749749 	299.9999999999814 	4.734788996247435e-12 	101324.9999999965
1.002252252252252 	299.9999999999851 	4.969585800270656e-12 	101324.9999999968
1.004754754754754 	299.9999999999901 	4.806062442392799e-12 	101324.9999999968
1.007257257257256 	299.9999999999814 	4.276089836765168e-12 	101324.9999999967
1.009759759759759 	299.9999999999777 	5.520661639198375e-12 	101324.9999999966
1.012262262262261 	299.9999999999787 	4.277097382093606e-12 	101324.9999999967
1.014764764764764 	299.9999999999627 	5.355580763192688e-12 	101324.9999999968
1.017267267267267 	299.9999999999606 	5.025556996052599e-12 	101324.9999999968
1.019769769769769 	299.9999999999875 	5.794986274477451e-12 	101324.9999999968
1.022272272272272 	299.9999999999907 	5.750133086266852e-12 	101324.9999999969
1.024774774774774 	299.999999999985 	6.050805381708452e-12 	101324.9999999969
1.027277277277277 	299.9999999999855 	6.46921441049951e-12 	101324.9999999968
1.029779779779779 	300.0000000000005 	5.571860282869436e-12 	101324.9999999969
1.032282282282282 	300.0000000000009 	5.686668993715432e-12 	101324.9999999969
1.034784784784784 	299.9999999999958 	5.177946251275263e-12 	101324.9999999971
1.037287287287286 	299.999999999982 	5.299546298905494e-12 	101324.9999999972
1.039789789789789 	299.9999999999853 	5.158789441327879e-12 	101324.9999999971
1.042292292292291 	300.0000000000026 	5.000836955546852e-12 	101324.9999999969
1.044794794794794 	300.0000000000115 	4.695234934994577e-12 	101324.9999999969
1.047297297297296 	300.0000000000177 	3.898538083415259e-12 	101324.9999999972
1.049799799799799 	299.9999999999923 	4.776306279037722e-12 	101324.9999999974
1.052302302302302 	299.9999999999765 	3.932455170848029e-12 	101324.9999999976
1.054804804804804 	299.9999999999671 	5.2700704648033e-12 	101324.9999999976
1.057307307307306 	299.9999999999608 	4.868297141988642e-12 	101324.9999999975
1.059809809809809 	299.9999999999811 	5.749694123637855e-12 	101324.9999999974
1.062312312312312 	299.999999999977 	5.604842424005367e-12 	101324.9999999974
1.064814814814814 	299.999999999974 	6.225566673077154e-12 	101324.9999999977
1.067317317317317 	299.9999999999631 	6.5266506792497e-12 	101324.9999999979
1.069819819819819 	299.9999999999627 	6.862164661666209e-12 	101324.999999998
1.072322322322321 	299.999999999994 	7.999562840907553e-12 	101324.9999999978
1.074824824824824 	300.0000000000058 	6.267737629238365e-12 	101324.9999999976
1.077327327327327 	300.0000000000153 	6.609174308370677e-12 	101324.9999999976
1.079829829829829 	300.0000000000182 	5.094310138000628e-12 	101324.9999999975
1.082332332332332 	300.0000000000007 	5.184108223224681e-12 	101324.9999999974
1.084834834834834 	299.9999999999898 	5.166905448924267e-12 	101324.9999999973
1.087337337337337 	299.9999999999719 	5.681596767288039e-12 	101324.9999999973
1.089839839839839 	299.9999999999666 	7.022699148473858e-12 	101324.9999999973
1.092342342342342 	299.9999999999852 	6.276234000293642e-12 	101324.9999999973
1.094844844844844 	299.9999999999875 	6.867950680884589e-12 	101324.9999999974
1.097347347347347 	299.9999999999739 	6.099163578196326e-12 	101324.9999999974
1.099849849849849 	299.9999999999663 	7.88174462686493e-12 	101324.9999999975
1.102352352352352 	299.9999999999782 	6.958844358543106e-12 	101324.9999999975
1.104854854854854 	299.9999999999876 	8.514640369967999e-12 	101324.9999999975
1.107357357357357 	299.9999999999792 	7.716927479927099e-12 	101324.9999999976
1.109859859859859 	299.9999999999754 	8.599435060974583e-12 	101324.9999999977
1.112362362362362 	300.0000000000078 	7.803223422527338e-12 	101324.9999999978
1.114864864864865 	300.0000000000086 	7.83330395750187e-12 	101324.9999999979
1.117367367367367 	299.9999999999861 	8.5508293849397e-12 	101324.999999998
1.119869869869869 	299.9999999999683 	7.372839703349681e-12 	101324.9999999981
1.122372372372372 	299.9999999999811 	7.945937906885245e-12 	101324.9999999981
1.124874874874874 	299.9999999999781 	6.789379001508645e-12 	101324.9999999982
1.127377377377377 	299.9999999999839 	7.809161950754666e-12 	101324.9999999985
1.129879879879879 	300.0000000000117 	7.797443081076002e-12 	101324.9999999985
1.132382382382382 	300.0000000000172 	8.192410002943853e-12 	101324.9999999985
1.134884884884884 	300.000000000003 	8.011061190136807e-12 	101324.9999999987
1.137387387387387 	300.0000000000064 	8.018541996645363e-12 	101324.9999999988
1.139889889889889 	299.999999999982 	8.496336873030863e-12 	101324.9999999986
1.142392392392392 	299.9999999999778 	7.256101603611993e-12 	101324.9999999985
1.144894894894894 	300.0000000000081 	7.670815787207728e-12 	101324.9999999985
1.147397397397397 	300.0000000000011 	6.742005677341738e-12 	101324.9999999985
1.149899899899899 	299.9999999999733 	7.478479701690038e-12 	101324.9999999985
1.152402402402402 	299.9999999999675 	7.343862448799484e-12 	101324.9999999986
1.154904904904904 	299.9999999999868 	8.455025573546945e-12 	101324.9999999986
1.157407407407407 	299.9999999999874 	8.325597231989847e-12 	101324.9999999987
1.159909909909909 	299.9999999999703 	8.242296008405599e-12 	101324.9999999987
1.162412412412412 	299.999999999964 	9.22707756754652e-12 	101324.9999999988
1.164914914914914 	299.9999999999791 	8.428237279278063e-12 	101324.999999999
1.167417417417417 	299.9999999999817 	9.360849528116273e-12 	101324.999999999
1.169919919919919 	300.0000000000045 	8.442180263584893e-12 	101324.9999999989
1.172422422422422 	300.0000000000188 	8.664254732614371e-12 	101324.999999999
1.174924924924925 	299.9999999999935 	7.399393186581367e-12 	101324.9999999991
1.177427427427427 	299.9999999999771 	7.60242556984814e-12 	101324.9999999993
1.179929929929929 	300.000000000003 	8.1648011144335e-12 	101324.9999999992
1.182432432432432 	300.0000000000167 	6.922032357102534e-12 	101324.9999999992
1.184934934934934 	300 	7.727682298549146e-12 	101324.9999999991
1.187437437437437 	299.9999999999897 	7.188219742726603e-12 	101324.999999999
1.189939939939939 	299.9999999999851 	7.933873867905142e-12 	101324.9999999992
1.192442442442442 	299.9999999999663 	7.736091301226783e-12 	101324.9999999992
1.194944944944944 	299.9999999999629 	8.911211469704923e-12 	101324.9999999991
1.197447447447447 	299.9999999999919 	8.727197572653531e-12 	101324.999999999
1.199949949949949 	300.0000000000043 	8.907366959931029e-12 	101324.999999999
1.202452452452452 	299.9999999999785 	9.498847734171556e-12 	101324.999999999
1.204954954954955 	299.9999999999754 	8.401679765650926e-12 	101324.999999999
1.207457457457457 	299.9999999999907 	8.980984377340512e-12 	101324.9999999988
1.20995995995996 	299.9999999999881 	8.549895937669634e-12 	101324.9999999987
1.212462462462462 	299.9999999999923 	9.120029561913678e-12 	101324.9999999988
1.214964964964964 	299.9999999999952 	8.225900408545563e-12 	101324.9999999988
1.217467467467467 	299.9999999999926 	8.647617992299089e-12 	101324.9999999988
1.219969969969969 	299.9999999999861 	7.936995299534466e-12 	101324.9999999989
1.222472472472472 	300.0000000000089 	8.2696262930929e-12 	101324.999999999
1.224974974974975 	300.0000000000207 	8.59314805948833e-12 	101324.9999999992
1.227477477477477 	299.9999999999992 	7.296459349463127e-12 	101324.9999999995
1.229979979979979 	299.9999999999927 	7.950201611391126e-12 	101324.9999999997
1.232482482482482 	299.9999999999802 	7.078674566175764e-12 	101324.9999999996
1.234984984984984 	299.9999999999787 	8.374157590388226e-12 	101324.9999999994
1.237487487487487 	299.9999999999877 	7.885803062989838e-12 	101324.9999999993
1.239989989989989 	299.9999999999892 	8.689937320229733e-12 	101324.9999999992
1.242492492492492 	300.0000000000038 	9.213252607485115e-12 	101324.9999999992
1.244994994994994 	299.9999999999885 	8.285770363145319e-12 	101324.9999999994
1.247497497497497 	299.9999999999891 	9.542494308124968e-12 	101324.9999999992
1.249999999999999 	300 	9.265102064988912e-12 	101324.9999999992
