-1.25 	300 	0.1203999040329154 	101275.8856374636
-1.247497497497497 	299.9572781036306 	0.1199348330444589 	101276.0127989241
-1.244994994994995 	299.9586585985061 	0.1196146748155534 	101276.153769098
-1.242492492492492 	299.9588020786217 	0.1194250034640539 	101276.3036512583
-1.23998998998999 	299.9589356667708 	0.1189348039976222 	101276.4624030641
-1.237487487487487 	299.9590774778439 	0.1185627668608906 	101276.63002631
-1.234984984984985 	299.9592269298893 	0.1181283284719372 	101276.806658261
-1.232482482482482 	299.9593841276136 	0.1176715354289708 	101276.9924434936
-1.22997997997998 	299.9595487922181 	0.1171952851058221 	101277.1870538076
-1.227477477477477 	299.9597206794872 	0.1166999491567137 	101277.3902006643
-1.224974974974975 	299.9598998248694 	0.1161816577702808 	101277.60192538
-1.222472472472472 	299.960086312357 	0.1156398593867784 	101277.8223267
-1.21996996996997 	299.9602802683041 	0.1150739479098721 	101278.0515542955
-1.217467467467467 	299.9604815563211 	0.1144865986775983 	101278.2894471657
-1.214964964964965 	299.9606899490918 	0.1138854511011768 	101278.5357378212
-1.212462462462462 	299.9609056651663 	0.1132622302860727 	101278.7906833363
-1.20995995995996 	299.9611290393128 	0.1126161920117172 	101279.0546791403
-1.207457457457457 	299.9613598033204 	0.111947025556694 	101279.3274087434
-1.204954954954955 	299.9615974795988 	0.1112570085444961 	101279.6083081167
-1.202452452452452 	299.9618418371446 	0.1105526283999163 	101279.897105138
-1.19994994994995 	299.9620929809179 	0.1098259354704643 	101280.1939219681
-1.197447447447447 	299.9623513490053 	0.1090769632516504 	101280.4992765134
-1.194944944944945 	299.962616810284 	0.1083047153796454 	101280.8130147227
-1.192442442442442 	299.9628888712011 	0.1075118298780891 	101281.1345532105
-1.18993993993994 	299.9631676154591 	0.1067058414117791 	101281.4639918417
-1.187437437437437 	299.9634534216545 	0.1058796411318377 	101281.801777095
-1.184934934934935 	299.9637464723922 	0.1050328325196273 	101282.1481244711
-1.182432432432432 	299.9640463728518 	0.1041658351435322 	101282.5025678213
-1.17992992992993 	299.9643524559541 	0.1032781533268406 	101282.8643190225
-1.177427427427427 	299.9646646391938 	0.102373232843711 	101283.2332811077
-1.174924924924925 	299.9649834986437 	0.1014496956347212 	101283.6101341859
-1.172422422422422 	299.9653090833422 	0.1005076741631128 	101283.99493556
-1.16991991991992 	299.9656408318301 	0.09954557996289032 	101284.3870215307
-1.167417417417417 	299.9659787063705 	0.09856420316360628 	101284.786349421
-1.164914914914915 	299.9663228958135 	0.0975657892630318 	101285.1931446439
-1.162412412412412 	299.9666735326994 	0.09655013604907246 	101285.6075620448
-1.15990990990991 	299.9670307885748 	0.0955182509811454 	101286.0298011318
-1.157407407407407 	299.9673940079026 	0.09446707104043103 	101286.4590851928
-1.154904904904904 	299.9677626855089 	0.09339703218393922 	101286.8948190822
-1.152402402402403 	299.9681374316124 	0.09231076920442204 	101287.3377294449
-1.1498998998999 	299.9685181960532 	0.09120808901218803 	101287.7877602153
-1.147397397397397 	299.9689044826775 	0.09008993540270649 	101288.2443233873
-1.144894894894895 	299.9692964452449 	0.08895424540079983 	101288.7075957385
-1.142392392392392 	299.9696940084397 	0.0878008372268976 	101289.177483367
-1.13988988988989 	299.9700972016548 	0.08663105522657844 	101289.6540186132
-1.137387387387387 	299.970506392915 	0.0854463042134342 	101290.1376385599
-1.134884884884885 	299.9709211529703 	0.08424694783292809 	101290.6278398592
-1.132382382382382 	299.9713410068206 	0.0830304397498436 	101291.1240627496
-1.12987987987988 	299.9717659806275 	0.08179890683601192 	101291.6263403559
-1.127377377377377 	299.9721961462276 	0.08055129700185605 	101292.1347589459
-1.124874874874875 	299.972631409427 	0.0792893161627293 	101292.6492066139
-1.122372372372372 	299.9730714332502 	0.07801708924893919 	101293.1692855586
-1.11986986986987 	299.9735160564646 	0.07672889775430181 	101293.6948046998
-1.117367367367367 	299.9739661027941 	0.07542424964489575 	101294.2267361105
-1.114864864864865 	299.9744213266335 	0.07410289577253544 	101294.7647890285
-1.112362362362362 	299.9748808305516 	0.07276921380960781 	101295.3079034566
-1.10985985985986 	299.9753451157882 	0.07142749655555229 	101295.8566725166
-1.107357357357357 	299.9758146738313 	0.07006983142830656 	101296.4116753036
-1.104854854854855 	299.976288088282 	0.06869817663784125 	101296.9712375845
-1.102352352352353 	299.9767651533491 	0.06731263744081985 	101297.5351172088
-1.09984984984985 	299.9772468719477 	0.06591499975928845 	101298.1044997925
-1.097347347347347 	299.9777332156169 	0.06450994537361175 	101298.6793515262
-1.094844844844845 	299.9782230146471 	0.06309244189577322 	101299.2582888929
-1.092342342342342 	299.9787163442847 	0.06166312800089997 	101299.8414019142
-1.08983983983984 	299.9792140951492 	0.06021875179434029 	101300.4297438427
-1.087337337337337 	299.9797167655209 	0.05876088077668959 	101301.0239024942
-1.084834834834835 	299.9802232156313 	0.05729639007230464 	101301.622530689
-1.082332332332332 	299.9807322814151 	0.05582245964537075 	101302.2242527681
-1.07982982982983 	299.9812443960444 	0.05433885300201534 	101302.8295813701
-1.077327327327327 	299.9817604575686 	0.05284367185764653 	101303.4395783082
-1.074824824824825 	299.9822802136684 	0.05133706097974135 	101304.0539447349
-1.072322322322323 	299.9828033008907 	0.04982231114534458 	101304.6722508101
-1.06981981981982 	299.9833294409268 	0.04829901663794206 	101305.2941676188
-1.067317317317317 	299.9838581183623 	0.04676809468063123 	101305.9190865961
-1.064814814814815 	299.9843892457186 	0.04522861354528503 	101306.5469042094
-1.062312312312312 	299.9849232116325 	0.04368045870308622 	101307.1780802044
-1.05980980980981 	299.9854606817462 	0.04212261023737511 	101307.8134016913
-1.057307307307307 	299.9860024416268 	0.04055347047887407 	101308.4537962027
-1.054804804804805 	299.9865477167153 	0.03897624858643239 	101309.0983476595
-1.052302302302302 	299.9870939311095 	0.03739425078181473 	101309.7440112736
-1.0497997997998 	299.987639661956 	0.03581208618811537 	101310.389105901
-1.047297297297297 	299.9881858961548 	0.03422902198894254 	101311.0347996902
-1.044794794794795 	299.988735188766 	0.03263713339605805 	101311.684113581
-1.042292292292292 	299.9892902540176 	0.03103005692606729 	101312.340255255
-1.03978978978979 	299.9898512406736 	0.02940598001093431 	101313.0033986055
-1.037287287287287 	299.9904144430643 	0.02777391270786801 	101313.6691609829
-1.034784784784785 	299.9909760737775 	0.02614630261552978 	101314.3330655427
-1.032282282282283 	299.9915344956217 	0.02452892776947007 	101314.9931806471
-1.02977977977978 	299.9920908514069 	0.02291708889706934 	101315.6508598809
-1.027277277277277 	299.9926487344603 	0.02129919250338696 	101316.3103491667
-1.024774774774775 	299.9932117450037 	0.0196681953492422 	101316.9759029647
-1.022272272272272 	299.9937806746464 	0.01801975666088764 	101317.6484573273
-1.01976976976977 	299.9943552642776 	0.01635738180663688 	101318.3277058335
-1.017267267267267 	299.9949325568464 	0.0146890547684852 	101319.0101512217
-1.014764764764765 	299.9955082785107 	0.01301941908322391 	101319.6907385704
-1.012262262262262 	299.9960804038836 	0.0113592243436256 	101320.3670743556
-1.00975975975976 	299.9966491434743 	0.009710874260289699 	101321.0394140406
-1.007257257257257 	299.9972136254974 	0.008072917799599283 	101321.70672793
-1.004754754754755 	299.9977770981699 	0.006442549948515276 	101322.3728512542
-1.002252252252252 	299.9983417234922 	0.004807978086738665 	101323.0403366471
-0.9997497497497498 	299.998908803515 	0.003163763942964852 	101323.7107281279
-0.9972472472472473 	299.9994810403382 	0.001506662448910294 	101324.3872257011
-0.9947447447447449 	300.0000579266176 	0.0008341583277579603 	101325.0692261091
-0.9922422422422421 	300.0006360352143 	0.001836229044786317 	101325.7526690037
-0.9897397397397399 	300.0012132106855 	0.003508014613369701 	101326.4350020759
-0.9872372372372376 	300.0017890968011 	0.005176271933066288 	101327.1158108297
-0.9847347347347346 	300.0023637924907 	0.006841135448755663 	101327.7952236315
-0.9822322322322323 	300.0029374318287 	0.008502965142453208 	101328.4734024452
-0.9797297297297296 	300.0035101159448 	0.01016202063753226 	101329.1504568345
-0.9772272272272275 	300.0040818952766 	0.01181841472596706 	101329.8264328174
-0.9747247247247248 	300.0046527639917 	0.01347212722850087 	101330.5013214036
-0.9722222222222224 	300.0052226690867 	0.01512303782273357 	101331.175072421
-0.9697197197197196 	300.0057915312817 	0.01677095744427304 	101331.8476075813
-0.9672172172172175 	300.0063592664328 	0.01841565169188384 	101332.5188306781
-0.9647147147147147 	300.0069257948536 	0.02005685924241215 	101333.1886346995
-0.9622122122122124 	300.0074910358596 	0.02169430334478445 	101333.8569063616
-0.9597097097097099 	300.0080548972055 	0.0233276979586444 	101334.5235288778
-0.9572072072072073 	300.008617270424 	0.02495675238785696 	101335.1883835415
-0.9547047047047047 	300.0091780384571 	0.02658117344940581 	101335.8513506323
-0.9522022022022023 	300.0097370877152 	0.02820066658240174 	101336.5123100182
-0.9496996996996998 	300.0102943172906 	0.02981493750777086 	101337.1711414827
-0.9471971971971973 	300.0108496382461 	0.03142369202525618 	101337.8277249185
-0.9446946946946947 	300.0114029649421 	0.03302663596952563 	101338.4819404658
-0.9421921921921923 	300.0119542056007 	0.03462347672066104 	101339.1336685081
-0.93968968968969 	300.012503256496 	0.03621392230655204 	101339.7827897345
-0.9371871871871872 	300.0130500047168 	0.03779768101155594 	101340.429185268
-0.9346846846846848 	300.0135943357564 	0.03937446284665198 	101341.0727366804
-0.9321821821821823 	300.0141361402487 	0.04094397917626996 	101341.7133260559
-0.9296796796796799 	300.0146753177336 	0.04250594228799968 	101342.3508360274
-0.9271771771771771 	300.0152117759556 	0.04406006603995977 	101342.9851497123
-0.9246746746746748 	300.0157454280218 	0.04560606556516617 	101343.6161507964
-0.9221721721721724 	300.0162761882912 	0.0471436572648754 	101344.2437235815
-0.9196696696696698 	300.0168039675688 	0.04867255945465063 	101344.8677529404
-0.9171671671671672 	300.0173286716051 	0.05019249175988112 	101345.4881244189
-0.9146646646646649 	300.0178502014249 	0.0517031755239359 	101346.104724246
-0.9121621621621623 	300.0183684555088 	0.05320433406930663 	101346.7174392856
-0.9096596596596597 	300.0188833327297 	0.05469569193128315 	101347.3261571721
-0.9071571571571573 	300.0193947333282 	0.05617697568347321 	101347.9307662733
-0.9046546546546547 	300.0199025595238 	0.05764791396313642 	101348.5311556112
-0.9021521521521524 	300.0204067157267 	0.05910823680687179 	101349.1272150758
-0.8996496496496498 	300.0209071086929 	0.06055767667208091 	101349.7188354295
-0.8971471471471473 	300.0214036467485 	0.06199596825836257 	101350.3059081677
-0.894644644644645 	300.0218962393424 	0.06342284760254076 	101350.8883256298
-0.892142142142142 	300.0223847972443 	0.06483805308153492 	101351.4659809708
-0.8896396396396397 	300.0228692318159 	0.06624132537308947 	101352.0387681288
-0.8871371371371374 	300.0233494551444 	0.06763240696347098 	101352.6065820543
-0.8846346346346349 	300.0238253802541 	0.06901104286751901 	101353.1693185796
-0.8821321321321324 	300.0242969202463 	0.07037698005514184 	101353.7268742239
-0.8796296296296297 	300.0247639891264 	0.07172996744975964 	101354.2791465415
-0.8771271271271271 	300.0252265015531 	0.07306975692886626 	101354.8260341952
-0.8746246246246248 	300.0256843729671 	0.07439610288728971 	101355.3674367213
-0.8721221221221224 	300.0261375195409 	0.07570876187357237 	101355.9032547509
-0.8696196196196196 	300.0265858582545 	0.07700749338471749 	101356.4333900254
-0.8671171171171175 	300.0270293070466 	0.0782920590916653 	101356.9577451223
-0.8646146146146148 	300.0274677843868 	0.079562223294195 	101357.4762237628
-0.8621121121121121 	300.0279012102141 	0.08081775348349179 	101357.9887309649
-0.8596096096096097 	300.0283295050721 	0.08205841940719034 	101358.495172675
-0.857107107107107 	300.0287525901844 	0.08328399379795765 	101358.9954559618
-0.8546046046046049 	300.0291703884735 	0.08449425243284225 	101359.4894892661
-0.8521021021021022 	300.0295828231922 	0.08568897292251146 	101359.9771819314
-0.8495995995995997 	300.0299898185164 	0.08686793590119585 	101360.4584442691
-0.8470970970970974 	300.0303913000315 	0.0880309255763012 	101360.9331881316
-0.8445945945945946 	300.0307871942983 	0.08917772864598239 	101361.4013266397
-0.8420920920920922 	300.0311774288442 	0.09030813500739632 	101361.8627738647
-0.8395895895895897 	300.031561931889 	0.09142193799831325 	101362.3174451843
-0.8370870870870872 	300.0319406330078 	0.09251893325571772 	101362.7652570984
-0.8345845845845846 	300.0323134623637 	0.09359891939063565 	101363.2061269113
-0.8320820820820823 	300.0326803511941 	0.09466169856662013 	101363.6399734036
-0.8295795795795798 	300.0330412326707 	0.09570707629359131 	101364.0667172415
-0.8270770770770772 	300.0333960407077 	0.09673486103633248 	101364.4862803693
-0.8245745745745746 	300.0337447103177 	0.09774486370037096 	101364.8985858628
-0.8220720720720721 	300.0340871778287 	0.09873689832177547 	101365.3035583315
-0.8195695695695699 	300.0344233806003 	0.09971078259395472 	101365.7011236634
-0.817067067067067 	300.0347532567284 	0.1006663372242457 	101366.0912085878
-0.8145645645645651 	300.0350767452714 	0.1016033867496676 	101366.4737410359
-0.8120620620620621 	300.035393786937 	0.102521759949992 	101366.8486506565
-0.8095595595595597 	300.0357043234222 	0.1034212883105679 	101367.2158686037
-0.8070570570570572 	300.0360082975103 	0.1043018063424985 	101367.575327264
-0.8045545545545546 	300.0363056537477 	0.1051631526574207 	101367.9269607169
-0.8020520520520523 	300.0365963378722 	0.1060051702179332 	101368.270704881
-0.7995495495495494 	300.0368802963708 	0.1068277056479304 	101368.6064963938
-0.7970470470470474 	300.0371574759847 	0.1076306075364759 	101368.9342722651
-0.7945445445445446 	300.0374278252797 	0.1084137278651063 	101369.2539716241
-0.7920420420420423 	300.0376912951389 	0.1091769231720776 	101369.5655362505
-0.7895395395395397 	300.0379478368465 	0.1099200516701059 	101369.8689086023
-0.7870370370370371 	300.0381974026604 	0.1106429744178162 	101370.1640320715
-0.7845345345345348 	300.0384399477986 	0.1113455601125615 	101370.4508536575
-0.7820320320320323 	300.0386754292398 	0.1120276810136681 	101370.7293224839
-0.7795295295295296 	300.0389038027458 	0.1126892079193298 	101370.9993861843
-0.7770270270270272 	300.039125025167 	0.1133300165583993 	101371.2609936782
-0.7745245245245247 	300.0393390577883 	0.1139499935566227 	101371.5140989449
-0.7720220220220222 	300.0395458617354 	0.1145490278400851 	101371.7586561804
-0.7695195195195199 	300.0397453955428 	0.1151270048773837 	101371.994616342
-0.767017017017017 	300.0399376217272 	0.115683818620324 	101372.2219348845
-0.7645145145145147 	300.0401225086913 	0.1162193754396719 	101372.440574565
-0.7620120120120122 	300.0403000222148 	0.1167335753736977 	101372.6504947322
-0.7595095095095097 	300.0404701239434 	0.1172263108172546 	101372.8516501591
-0.7570070070070072 	300.0406327839978 	0.1176974915207997 	101373.0440053945
-0.7545045045045048 	300.0407879797534 	0.1181470424153279 	101373.2275336014
-0.7520020020020022 	300.0409356800868 	0.1185748735980907 	101373.402198091
-0.7494994994994997 	300.0410758492484 	0.1189808895963829 	101373.5679560964
-0.7469969969969972 	300.0412084647378 	0.1193650262879741 	101373.7247813796
-0.7444944944944945 	300.0413335119506 	0.1197272353148624 	101373.8726567551
-0.7419919919919924 	300.0414509609672 	0.1200674366971992 	101374.0115467731
-0.7394894894894897 	300.0415607768882 	0.1203855413593501 	101374.1414100713
-0.7369869869869872 	300.0416629487977 	0.120681508493086 	101374.2622332679
-0.7344844844844846 	300.0417574742033 	0.1209553129533975 	101374.3740136924
-0.7319819819819822 	300.0418443243826 	0.1212068757151185 	101374.4767173559
-0.7294794794794797 	300.0419234620448 	0.1214361080116584 	101374.5703006247
-0.7269769769769773 	300.0419948858268 	0.1216429989729222 	101374.654761746
-0.7244744744744747 	300.0420586079513 	0.1218275635921136 	101374.7301147413
-0.721971971971972 	300.0421145999846 	0.121989732337052 	101374.7963257545
-0.7194694694694695 	300.0421628182356 	0.1221294078372902 	101374.8533430319
-0.7169669669669674 	300.0422032713848 	0.1222466041719475 	101374.9011774686
-0.7144644644644647 	300.0422359957202 	0.1223413870748367 	101374.9398722038
-0.711961961961962 	300.0422609687422 	0.1224136962140582 	101374.9694004835
-0.7094594594594597 	300.0422781296654 	0.1224634000473145 	101374.9896901798
-0.7069569569569573 	300.0422874870563 	0.1224905218852509 	101375.0007507473
-0.7044544544544545 	300.0422891091495 	0.12249520648268 	101375.0026624102
-0.7019519519519523 	300.0422829901672 	0.1224774372728952 	101374.9954197247
-0.6994494494494495 	300.0422690422512 	0.1224370257512044 	101374.9789196864
-0.6969469469469471 	300.0422472539052 	0.1223739526870517 	101374.9531478298
-0.6944444444444446 	300.042217733721 	0.1222884568658973 	101374.9182324677
-0.6919419419419421 	300.0421805340781 	0.1221806445435625 	101374.8742349033
-0.6894394394394396 	300.042135546949 	0.1220502802979608 	101374.8210271679
-0.6869369369369374 	300.0420826893039 	0.1218972011552902 	101374.7585109277
-0.6844344344344344 	300.0420220808152 	0.1217216895405431 	101374.6868284756
-0.6819319319319321 	300.0419538781571 	0.121524088598526 	101374.6061657808
-0.6794294294294296 	300.0418780082966 	0.1213042261316087 	101374.516436617
-0.6769269269269272 	300.0417942757293 	0.1210616802074588 	101374.4174097364
-0.6744244244244245 	300.0417027196213 	0.1207965694678617 	101374.3091309658
-0.6719219219219222 	300.0416036198112 	0.1205095345279687 	101374.1919307029
-0.6694194194194195 	300.0414970750636 	0.1202007844436651 	101374.0659249733
-0.6669169169169172 	300.0413828206067 	0.1198697217883843 	101373.9308007554
-0.6644144144144146 	300.0412606504793 	0.1195159163795871 	101373.7863154088
-0.661911911911912 	300.0411308230213 	0.119139993679576 	101373.632775255
-0.6594094094094097 	300.0409937504849 	0.1187428938909809 	101373.4706683028
-0.656906906906907 	300.0408493703208 	0.1183244535308919 	101373.2999205257
-0.6544044044044046 	300.040697194234 	0.1178835670344548 	101373.1199541298
-0.6519019019019021 	300.0405370736343 	0.1174199509615038 	101372.9305933418
-0.6493993993993996 	300.0403695560757 	0.1169349099760844 	101372.732485261
-0.6468968968968971 	300.0401951857693 	0.1164296851317129 	101372.5262726845
-0.6443943943943946 	300.0400136837907 	0.1159035942868599 	101372.3116250197
-0.6418918918918921 	300.0398242774459 	0.1153548642956713 	101372.0876285098
-0.6393893893893897 	300.0396268570919 	0.1147833249777705 	101371.8541545393
-0.6368868868868871 	300.0394223222737 	0.1141911397407933 	101371.6122677021
-0.6343843843843846 	300.0392114630283 	0.1135801346271105 	101371.362902161
-0.6318818818818821 	300.0389938148865 	0.1129491602996674 	101371.1055085572
-0.6293793793793795 	300.0387681697724 	0.112295385091891 	101370.8386585615
-0.6268768768768773 	300.038534252701 	0.1116182681834985 	101370.5620275153
-0.6243743743743745 	300.0382932901896 	0.1109209259234416 	101370.2771233075
-0.6218718718718721 	300.0380467188705 	0.1102065608408248 	101369.9855494502
-0.6193693693693696 	300.0377941950497 	0.1094741968801502 	101369.6868643513
-0.6168668668668671 	300.0375338070838 	0.1087194581648522 	101369.3789151225
-0.6143643643643645 	300.0372645802531 	0.1079400818478964 	101369.0605325922
-0.6118618618618621 	300.0369878832113 	0.1071394760985761 	101368.7333187523
-0.6093593593593596 	300.036706077845 	0.1063233697477216 	101368.4000659469
-0.6068568568568571 	300.0364197121669 	0.1054929803837557 	101368.0614205093
-0.6043543543543546 	300.0361266148557 	0.1046429386509125 	101367.7148135943
-0.6018518518518521 	300.0358242667321 	0.1037671721908323 	101367.3572671165
-0.5993493493493496 	300.0355129116869 	0.1028664685610163 	101366.9890718736
-0.5968468468468471 	300.0351957216731 	0.1019487330527335 	101366.6139795237
-0.5943443443443446 	300.0348754951696 	0.1010207901358609 	101366.2352978093
-0.591841841841842 	300.0345513992242 	0.1000804235203631 	101365.8520394268
-0.5893393393393397 	300.0342195176994 	0.09911788101222781 	101365.4595728606
-0.5868368368368371 	300.0338769551915 	0.09812611761171008 	101365.054476524
-0.5843343343343346 	300.0335252552576 	0.09710920344434963 	101364.6385787712
-0.5818318318318321 	300.0331693185191 	0.09607947347387423 	101364.2176751034
-0.5793293293293297 	300.0328125945143 	0.09504545568508856 	101363.7958420143
-0.5768268268268271 	300.0324533394104 	0.09400258310690857 	101363.3710139719
-0.5743243243243245 	300.0320859193416 	0.09293661571835556 	101362.9365285203
-0.5718218218218221 	300.0317062060769 	0.09183729477835277 	101362.4875072411
-0.5693193193193196 	300.0313159395034 	0.0907092760001465 	101362.0260114363
-0.5668168168168171 	300.0309216749106 	0.08956932152870624 	101361.5597940199
-0.5643143143143147 	300.0305289834367 	0.08843151375589231 	101361.095439585
-0.5618118118118121 	300.0301371442886 	0.08729380795067496 	101360.6320910695
-0.5593093093093094 	300.0297393152919 	0.0861385895977536 	101360.1616560499
-0.5568068068068072 	300.0293283104338 	0.08494753495345274 	101359.6756398836
-0.5543043043043046 	300.0289030742708 	0.0837181833872824 	101359.1727998009
-0.551801801801802 	300.0284701763071 	0.0824676669736106 	101358.6609077009
-0.5492992992992995 	300.0280388067951 	0.08121973418042069 	101358.1508291893
-0.5467967967967969 	300.0276132709126 	0.07998537029697839 	101357.6476498304
-0.5442942942942947 	300.0271891483596 	0.07875291348640802 	101357.146137726
-0.5417917917917919 	300.0267563466597 	0.07749605293559786 	101356.6343582722
-0.5392892892892895 	300.0263067997942 	0.07619389861462894 	101356.102778214
-0.536786786786787 	300.0258409322159 	0.07484780402144309 	101355.5519058675
-0.5342842842842846 	300.0253679131254 	0.07348196012429709 	101354.9925872576
-0.531781781781782 	300.0248993768328 	0.07212691687748174 	101354.4385773489
-0.5292792792792794 	300.0244411306052 	0.07079782540554561 	101353.8967365684
-0.526776776776777 	300.0239887934814 	0.06948296653454789 	101353.3618783758
-0.5242742742742745 	300.0235304227145 	0.0681506882629533 	101352.8198792389
-0.521771771771772 	300.0230543356897 	0.06677011405224428 	101352.2569292563
-0.5192692692692695 	300.0225569344775 	0.0653318833842987 	101351.6687816944
-0.516766766766767 	300.0220454427849 	0.06385539791846159 	101351.0639839107
-0.5142642642642645 	300.0215338026075 	0.06237790720375606 	101350.4590226295
-0.511761761761762 	300.0210343386144 	0.06093230971545152 	101349.8684658498
-0.5092592592592596 	300.0205503425213 	0.05952732576277339 	101349.296198048
-0.506756756756757 	300.020073952874 	0.05814174819848772 	101348.7329176549
-0.5042542542542544 	300.0195903843273 	0.0567357474723667 	101348.1611409928
-0.5017517517517521 	300.0190859705015 	0.05527253091819182 	101347.5647135831
-0.4992492492492494 	300.0185556012095 	0.05373843043691801 	101346.9376010892
-0.496746746746747 	300.0180056676624 	0.05215088159589772 	101346.2873676382
-0.4942442442442445 	300.0174510998212 	0.05055044385195216 	101345.6316690663
-0.4917417417417421 	300.0169081541913 	0.04898130687132116 	101344.9897238734
-0.4892392392392395 	300.0163866708325 	0.04747025978858972 	101344.3731597172
-0.486736736736737 	300.0158855091237 	0.046014163039483 	101343.78062002
-0.4842342342342345 	300.0153930340386 	0.04458113836351844 	101343.1983426502
-0.481731731731732 	300.0148920888861 	0.04312410038233617 	101342.6060413944
-0.4792292292292296 	300.0143670859007 	0.04160023111765453 	101341.9852907547
-0.4767267267267268 	300.0138102838289 	0.03998829383263917 	101341.3269453037
-0.4742242242242246 	300.0132248915624 	0.03829722669962707 	101340.634806589
-0.471721721721722 	300.0126239889913 	0.03656321664008923 	101339.9243449345
-0.4692192192192195 	300.0120258787538 	0.03483693929121789 	101339.2172007357
-0.4667167167167169 	300.0114477805152 	0.03316619678835207 	101338.5337297155
-0.4642142142142145 	300.0109002400613 	0.03158037005575139 	101337.8863933595
-0.461711711711712 	300.0103839976667 	0.03008158292588772 	101337.2760597313
-0.4592092092092094 	300.0098899754951 	0.02864453268409447 	101336.6919898769
-0.456706706706707 	300.0094020223607 	0.02722398951579167 	101336.1150850198
-0.4542042042042045 	300.0089012381251 	0.02576685315519493 	101335.5230002068
-0.451701701701702 	300.0083705636096 	0.02422509108162904 	101334.8955695702
-0.4491991991991995 	300.0077985838111 	0.02256652576770078 	101334.2193032362
-0.4466966966966969 	300.0071818658192 	0.02078149098790644 	101333.4901491861
-0.4441941941941945 	300.0065255399043 	0.01888451570144671 	101332.7141790182
-0.441691691691692 	300.0058422027453 	0.0169112577682268 	101331.9062903591
-0.4391891891891895 	300.0051495297262 	0.01491178831325423 	101331.0873823547
-0.436686686686687 	300.0044671962488 	0.01294196542270461 	101330.280716381
-0.4341841841841846 	300.0038138573838 	0.01105504964295568 	101329.5083449539
-0.431681681681682 	300.0032049913077 	0.009295535195291839 	101328.7885635961
-0.4291791791791794 	300.0026518315074 	0.007695903043134651 	101328.1346487225
-0.426676676676677 	300.0021611123713 	0.006275781077430962 	101327.5545578168
-0.4241741741741744 	300.0017353803547 	0.005042772179807249 	101327.0512977583
-0.421671671671672 	300.0013736611671 	0.003994326695231346 	101326.6237139134
-0.4191691691691694 	300.0010722983558 	0.00312012583290492 	101326.2674814093
-0.4166666666666669 	300.0008258167763 	0.002404553998109047 	101325.9761261149
-0.4141641641641645 	300.0006277107818 	0.001828966349943181 	101325.7419564074
-0.411661661661662 	300.0004710997078 	0.001373580568695679 	101325.5568371627
-0.4091591591591594 	300.0003492247465 	0.001018922211478267 	101325.412778613
-0.406656656656657 	300.0002557938411 	0.0007468269520741782 	101325.3023425846
-0.4041541541541545 	300.0001851888046 	0.0005410493669148826 	101325.2188874287
-0.401651651651652 	300.0001325612726 	0.0003875521349853862 	101325.1566824193
-0.3991491491491494 	300.0000938487303 	0.0002745559060906393 	101325.1109248708
-0.396646646646647 	300.0000657314103 	0.0001924257023180154 	101325.0776910717
-0.3941441441441444 	300.0000455584619 	0.0001334579997441098 	101325.0538473754
-0.3916416416416419 	300.00003125553 	9.161929408637754e-05 	101325.0369420304
-0.3891391391391395 	300.0000212302128 	6.227241533954141e-05 	101325.0250925917
-0.3866366366366368 	300.0000142807147 	4.191517819214278e-05 	101325.0168787056
-0.3841341341341344 	300.0000095150639 	2.794530857347887e-05 	101325.0112459675
-0.381631631631632 	300.0000062809056 	1.845861368436098e-05 	101325.0074235059
-0.3791291291291294 	300.0000041084958 	1.208169385087262e-05 	101325.0048558117
-0.3766266266266269 	300.0000026635723 	7.837492753077636e-06 	101325.0031480169
-0.3741241241241244 	300.0000017117746 	5.039937670589859e-06 	101325.0020230783
-0.371621621621622 	300.0000010906885 	3.213261988586193e-06 	101325.00128903
-0.3691191191191194 	300.0000006891274 	2.031477784544603e-06 	101325.0008144399
-0.366616616616617 	300.0000004318389 	1.27376528380803e-06 	101325.0005103501
-0.3641141141141143 	300.000000268364 	7.922205448760774e-07 	101325.0003172162
-0.3616116116116119 	300.0000001654516 	4.888107121756389e-07 	101325.0001956054
-0.3591091091091095 	300.0000001012578 	2.992537040835969e-07 	101325.0001196748
-0.356606606606607 	300.0000000614584 	1.817999449630208e-07 	101325.0000726571
-0.3541041041041044 	300.0000000370308 	1.096134979319527e-07 	101325.0000437777
-0.3516016016016019 	300.0000000221592 	6.560068342604947e-08 	101325.0000261804
-0.3490990990990994 	300.0000000131407 	3.897279858985745e-08 	101325.0000155407
-0.346596596596597 	300.0000000078175 	2.29899016275487e-08 	101325.0000091575
-0.3440940940940944 	300.0000000046122 	1.34635404324497e-08 	101325.0000053564
-0.3415915915915919 	300.0000000026587 	7.832489125829915e-09 	101325.0000031095
-0.3390890890890895 	300.0000000014996 	4.522074609717406e-09 	101325.000001791
-0.3365865865865869 	300.0000000009014 	2.59552909994056e-09 	101325.0000010224
-0.3340840840840844 	300.000000000507 	1.477812292984997e-09 	101325.0000005781
-0.3315815815815819 	300.000000000313 	8.375502780440871e-10 	101325.0000003228
-0.3290790790790794 	300.0000000001795 	4.697376268345091e-10 	101325.0000001771
-0.3265765765765769 	299.9999999999976 	2.638043937169714e-10 	101325.0000000945
-0.3240740740740744 	300.0000000000431 	1.443612253006988e-10 	101325.0000000477
-0.3215715715715718 	300.0000000000345 	8.19576158630815e-11 	101325.0000000216
-0.3190690690690695 	299.9999999999189 	4.289259755824973e-11 	101325.0000000069
-0.3165665665665668 	299.9999999999965 	2.613510532148083e-11 	101324.9999999989
-0.3140640640640644 	300.0000000000083 	1.251277377714225e-11 	101324.9999999943
-0.311561561561562 	299.9999999999042 	1.151409160357061e-11 	101324.9999999916
-0.3090590590590593 	299.9999999999941 	3.338100694388171e-12 	101324.9999999905
-0.3065565565565568 	300.0000000000073 	8.021716230119055e-12 	101324.9999999896
-0.3040540540540545 	300.000000000023 	1.586961488958607e-12 	101324.9999999892
-0.3015515515515518 	300.0000000000426 	5.767998587976026e-12 	101324.9999999889
-0.2990490490490494 	299.9999999999295 	1.122118017499835e-12 	101324.9999999892
-0.2965465465465469 	299.9999999999812 	3.408725334048887e-12 	101324.9999999894
-0.2940440440440444 	300.0000000000041 	1.516058448400882e-12 	101324.9999999897
-0.2915415415415418 	300.0000000000043 	3.02049106962534e-12 	101324.9999999896
-0.2890390390390395 	300.0000000000039 	3.852820701392137e-12 	101324.9999999895
-0.2865365365365368 	299.9999999999731 	4.30686266147293e-12 	101324.9999999892
-0.2840340340340343 	300.0000000000067 	5.813191639186095e-12 	101324.9999999896
-0.2815315315315318 	299.9999999999104 	3.693437635009692e-12 	101324.9999999896
-0.2790290290290295 	299.9999999999456 	5.278455497049346e-12 	101324.9999999893
-0.2765265265265269 	300.0000000000154 	4.676483212104034e-12 	101324.9999999896
-0.2740240240240244 	300.0000000000408 	5.194875263782705e-12 	101324.9999999898
-0.2715215215215219 	300.0000000000182 	5.261621305982888e-12 	101324.9999999899
-0.2690190190190194 	299.9999999999336 	5.030575268985407e-12 	101324.99999999
-0.2665165165165169 	299.9999999999973 	5.983409390326088e-12 	101324.9999999899
-0.2640140140140144 	299.9999999999531 	4.744188822163094e-12 	101324.9999999903
-0.2615115115115119 	299.9999999999961 	5.955727202937087e-12 	101324.9999999906
-0.2590090090090094 	299.9999999999156 	3.67541114389523e-12 	101324.9999999908
-0.2565065065065068 	299.9999999999952 	4.28946936957576e-12 	101324.9999999907
-0.2540040040040044 	299.9999999999975 	4.780067639039805e-12 	101324.9999999905
-0.2515015015015019 	300.0000000000517 	3.177366949176023e-12 	101324.9999999904
-0.2489989989989994 	300.0000000000613 	5.326469993043266e-12 	101324.9999999903
-0.2464964964964968 	299.999999999994 	2.477292967101936e-12 	101324.9999999903
-0.2439939939939944 	300.0000000000009 	6.768520265876335e-12 	101324.9999999902
-0.2414914914914919 	299.9999999999679 	2.16630547507877e-12 	101324.99999999
-0.2389889889889893 	300.000000000008 	7.060881682232505e-12 	101324.9999999897
-0.2364864864864869 	300.0000000000247 	3.157140619620766e-12 	101324.9999999893
-0.2339839839839843 	299.9999999999062 	7.851025387689066e-12 	101324.9999999892
-0.2314814814814819 	299.9999999999745 	3.785969762319453e-12 	101324.9999999895
-0.2289789789789792 	299.999999999904 	8.401179941234757e-12 	101324.9999999894
-0.2264764764764769 	299.9999999999347 	5.647941382490605e-12 	101324.9999999894
-0.2239739739739743 	299.9999999999508 	8.152845560193988e-12 	101324.9999999894
-0.2214714714714718 	299.9999999999254 	5.788977072090913e-12 	101324.9999999895
-0.2189689689689693 	299.9999999999649 	5.197105686055003e-12 	101324.9999999897
-0.2164664664664669 	299.9999999999758 	5.241841632341391e-12 	101324.9999999899
-0.2139639639639643 	299.9999999999101 	3.929414232106981e-12 	101324.99999999
-0.2114614614614618 	299.9999999999662 	3.513438758360127e-12 	101324.9999999901
-0.2089589589589593 	299.9999999999973 	3.05566427738682e-12 	101324.9999999902
-0.2064564564564568 	299.9999999999951 	2.181031465809214e-12 	101324.9999999902
-0.2039539539539543 	299.9999999998813 	2.77870786320624e-12 	101324.99999999
-0.2014514514514518 	299.9999999999407 	1.032123245155961e-12 	101324.99999999
-0.1989489489489494 	299.9999999999706 	2.066698487486937e-12 	101324.9999999898
-0.1964464464464468 	299.9999999999973 	1.616928356348881e-12 	101324.9999999898
-0.1939439439439443 	299.9999999999792 	2.36815462546828e-12 	101324.9999999898
-0.1914414414414418 	299.9999999998979 	9.119568933447058e-13 	101324.9999999896
-0.1889389389389393 	300.0000000000082 	1.811639100672382e-12 	101324.9999999894
-0.1864364364364368 	300.0000000000514 	9.606184563292671e-13 	101324.9999999895
-0.1839339339339343 	299.9999999999643 	1.672699414787052e-12 	101324.9999999894
-0.1814314314314318 	299.9999999999931 	7.571721018647266e-13 	101324.9999999893
-0.1789289289289293 	299.9999999998799 	3.222197180955842e-12 	101324.9999999893
-0.1764264264264268 	299.9999999999688 	4.910822146574924e-13 	101324.9999999895
-0.1739239239239243 	299.999999999876 	5.279887762222436e-12 	101324.9999999897
-0.1714214214214218 	299.999999999986 	4.968255039428364e-13 	101324.9999999896
-0.1689189189189193 	299.9999999999451 	7.079888231676124e-12 	101324.9999999894
-0.1664164164164168 	300.0000000000101 	1.494651090095692e-12 	101324.9999999896
-0.1639139139139143 	299.9999999999867 	7.716617719816381e-12 	101324.9999999898
-0.1614114114114118 	300.0000000000413 	2.668750574228291e-12 	101324.99999999
-0.1589089089089093 	300.0000000000027 	9.761263696031782e-12 	101324.9999999903
-0.1564064064064068 	299.9999999999857 	4.503984409329166e-12 	101324.9999999902
-0.1539039039039043 	299.9999999999946 	9.567556233556776e-12 	101324.9999999901
-0.1514014014014018 	300.0000000000316 	3.546286439809218e-12 	101324.99999999
-0.1488988988988993 	299.9999999999851 	9.899805082408468e-12 	101324.9999999897
-0.1463963963963968 	299.9999999999999 	1.426412469931522e-12 	101324.9999999898
-0.1438938938938943 	299.9999999999445 	9.615875126680053e-12 	101324.9999999898
-0.1413913913913918 	299.9999999999063 	9.29128137825725e-13 	101324.9999999899
-0.1388888888888893 	299.9999999999756 	6.497677484073644e-12 	101324.99999999
-0.1363863863863868 	299.9999999998687 	7.744439106014222e-13 	101324.9999999901
-0.1338838838838843 	299.9999999998935 	4.935829530567553e-12 	101324.99999999
-0.1313813813813818 	299.9999999999926 	1.288866041652639e-12 	101324.9999999898
-0.1288788788788793 	299.9999999999626 	6.210916120792676e-12 	101324.9999999903
-0.1263763763763768 	299.9999999999644 	1.996233289725899e-12 	101324.9999999899
-0.1238738738738743 	299.9999999999104 	6.152713994427904e-12 	101324.9999999901
-0.1213713713713717 	299.9999999999745 	7.030752736267287e-13 	101324.99999999
-0.1188688688688693 	300.0000000000053 	6.208161358356555e-12 	101324.9999999901
-0.1163663663663668 	299.9999999998818 	8.13014832739017e-13 	101324.9999999898
-0.1138638638638643 	299.9999999999903 	7.018326490650922e-12 	101324.9999999899
-0.1113613613613618 	299.9999999999813 	5.180180494679727e-13 	101324.9999999899
-0.1088588588588592 	299.9999999999669 	6.843425553747735e-12 	101324.9999999898
-0.1063563563563568 	299.9999999999389 	7.002948728041248e-13 	101324.9999999901
-0.1038538538538543 	299.9999999999669 	5.216504957148544e-12 	101324.9999999902
-0.1013513513513517 	300.0000000000184 	3.044974583566376e-13 	101324.99999999
-0.09884884884884926 	299.9999999999179 	4.683973888773926e-12 	101324.9999999898
-0.09634634634634676 	299.9999999998675 	5.445480697571682e-13 	101324.9999999896
-0.09384384384384425 	299.9999999999106 	3.362509596634053e-12 	101324.9999999895
-0.09134134134134177 	300.0000000000306 	9.827847465263581e-13 	101324.9999999893
-0.08883883883883925 	300.0000000000078 	3.654880072244236e-12 	101324.999999989
-0.08633633633633674 	299.999999999943 	1.963563155148082e-12 	101324.9999999889
-0.08383383383383426 	300.0000000000124 	3.012179140779216e-12 	101324.9999999885
-0.08133133133133173 	299.999999999948 	2.69881004540148e-12 	101324.9999999884
-0.07882882882882926 	299.9999999998541 	2.950166298655701e-12 	101324.9999999886
-0.07632632632632676 	299.9999999999485 	2.009112498597413e-12 	101324.9999999888
-0.07382382382382424 	299.9999999998706 	2.437315839082959e-12 	101324.9999999887
-0.07132132132132173 	300.0000000000144 	1.823292474640803e-12 	101324.9999999884
-0.06881881881881925 	299.99999999995 	1.775214959378442e-12 	101324.9999999887
-0.06631631631631671 	299.9999999998686 	5.10679546472763e-13 	101324.9999999887
-0.06381381381381425 	299.9999999999442 	2.403336068104547e-13 	101324.9999999887
-0.06131131131131173 	299.9999999999465 	3.626693315321841e-13 	101324.9999999891
-0.05880880880880923 	299.9999999998944 	1.389603600514267e-13 	101324.9999999896
-0.05630630630630672 	299.9999999999621 	4.744416057367708e-13 	101324.9999999898
-0.05380380380380424 	300.0000000000219 	2.250315184917775e-13 	101324.99999999
-0.05130130130130173 	300.0000000000117 	1.116016974589015e-13 	101324.9999999898
-0.04879879879879922 	299.9999999999283 	2.239110206717506e-14 	101324.9999999896
-0.04629629629629672 	299.9999999999133 	5.799188137879868e-13 	101324.9999999897
-0.04379379379379422 	299.9999999998888 	1.971199819744546e-14 	101324.9999999891
-0.04129129129129173 	299.9999999999749 	7.188262091094617e-13 	101324.9999999892
-0.03878878878878922 	299.9999999999831 	2.375882907180839e-13 	101324.9999999891
-0.03628628628628671 	299.9999999999787 	6.565209859845143e-13 	101324.9999999893
-0.03378378378378422 	299.999999999899 	2.962903309046778e-13 	101324.9999999894
-0.03128128128128172 	299.999999999955 	1.646250249435089e-12 	101324.9999999892
-0.02877877877877922 	299.9999999999548 	6.451529105092053e-13 	101324.9999999895
-0.0262762762762767 	299.9999999998718 	8.562357999899948e-13 	101324.9999999896
-0.02377377377377422 	300.0000000000299 	2.180929934382446e-13 	101324.9999999895
-0.0212712712712717 	299.9999999998823 	8.658874663765547e-14 	101324.9999999892
-0.01876876876876921 	299.9999999999552 	7.200367828031284e-14 	101324.9999999891
-0.01626626626626671 	300.0000000000198 	1.964836959600244e-13 	101324.9999999892
-0.0137637637637642 	299.9999999999595 	2.631219564327635e-13 	101324.9999999894
-0.0112612612612617 	300.0000000000223 	2.97386301004438e-13 	101324.9999999894
-0.008758758758759198 	299.999999999998 	7.935286204349413e-13 	101324.9999999892
-0.006256256256256697 	299.9999999998518 	8.238005886971768e-13 	101324.9999999891
-0.003753753753754195 	299.9999999999461 	1.530623632110918e-12 	101324.9999999893
-0.001251251251251693 	299.999999999908 	1.215751145686522e-12 	101324.9999999889
0.00125125125125081 	299.9999999999405 	1.795938905074369e-12 	101324.9999999891
0.003753753753753312 	299.999999999952 	1.100131032507262e-12 	101324.9999999892
0.006256256256255817 	299.9999999998622 	1.480403124790775e-12 	101324.9999999889
0.008758758758758317 	299.9999999999908 	5.200076000149793e-13 	101324.9999999889
0.01126126126126082 	300.0000000000075 	1.832870548502545e-13 	101324.9999999886
0.01376376376376332 	299.9999999999618 	3.227987222826373e-13 	101324.9999999886
0.01626626626626582 	300.0000000000137 	4.742624569338384e-13 	101324.9999999884
0.01876876876876833 	299.9999999999397 	7.26222190669023e-13 	101324.9999999882
0.02127127127127083 	299.9999999999573 	4.920692956895339e-13 	101324.9999999881
0.02377377377377332 	299.9999999999923 	6.40046410066592e-13 	101324.9999999882
0.02627627627627583 	299.9999999998758 	7.672203472884935e-13 	101324.9999999885
0.02877877877877833 	300.0000000000136 	7.371353265536203e-14 	101324.9999999888
0.03128128128128083 	299.9999999999396 	2.877388393678464e-13 	101324.9999999889
0.03378378378378333 	299.999999999876 	3.194812878785238e-13 	101324.9999999893
0.03628628628628584 	299.9999999999562 	6.316272598280361e-14 	101324.9999999896
0.03878878878878834 	299.999999999978 	2.239866234543076e-13 	101324.9999999897
0.04129129129129084 	299.9999999999698 	5.675224593326972e-14 	101324.9999999893
0.04379379379379333 	299.9999999999332 	3.086604374798878e-13 	101324.9999999893
0.04629629629629585 	299.9999999998614 	3.376705227248471e-13 	101324.9999999892
0.04879879879879834 	299.9999999999458 	9.703515926703014e-13 	101324.9999999888
0.05130130130130085 	300.0000000000172 	1.121351135580266e-12 	101324.999999989
0.05380380380380335 	300.0000000000285 	1.742629171032705e-12 	101324.9999999891
0.05630630630630584 	299.9999999999933 	1.657421237011544e-12 	101324.999999989
0.05880880880880836 	299.9999999999025 	1.49286996191784e-12 	101324.9999999891
0.06131131131131085 	299.9999999999592 	1.27633655075479e-12 	101324.999999989
0.06381381381381336 	299.9999999999494 	7.465076032883499e-13 	101324.999999989
0.06631631631631586 	299.9999999998636 	2.777471154908106e-13 	101324.9999999887
0.06881881881881835 	299.9999999999431 	3.810704469105825e-13 	101324.9999999887
0.07132132132132088 	299.9999999999763 	1.27880603594066e-12 	101324.9999999887
0.07382382382382337 	299.9999999998724 	4.404138124812646e-13 	101324.999999989
0.07632632632632587 	299.9999999999596 	1.854734136017633e-13 	101324.9999999893
0.07882882882882837 	299.9999999999159 	2.198046329796552e-13 	101324.9999999893
0.08133133133133086 	299.9999999999739 	5.567606849302237e-13 	101324.9999999895
0.08383383383383337 	299.9999999999827 	1.176147628934735e-13 	101324.9999999899
0.08633633633633589 	299.999999999881 	1.5058365784126e-13 	101324.9999999896
0.08883883883883838 	300.0000000000052 	3.670996966614029e-13 	101324.9999999896
0.09134134134134086 	299.9999999999754 	1.889499612290508e-13 	101324.9999999897
0.09384384384384339 	299.9999999998698 	1.628548646484537e-13 	101324.9999999899
0.09634634634634588 	299.9999999999624 	5.727622601719607e-13 	101324.9999999896
0.09884884884884838 	299.9999999999716 	6.111510081999845e-13 	101324.9999999894
0.1013513513513509 	300.0000000000285 	1.076931349441161e-12 	101324.9999999894
0.1038538538538534 	299.999999999949 	6.554169963483985e-13 	101324.9999999892
0.1063563563563559 	300.0000000000139 	9.609130361374125e-13 	101324.9999999891
0.1088588588588584 	300.0000000000294 	1.361625094691243e-13 	101324.9999999883
0.1113613613613609 	299.9999999998962 	1.77939465600036e-13 	101324.9999999883
0.1138638638638634 	299.9999999999332 	3.89567756353414e-13 	101324.9999999882
0.1163663663663659 	299.9999999999407 	3.961885247993712e-13 	101324.9999999881
0.1188688688688684 	299.9999999999642 	5.272820810350735e-13 	101324.9999999885
0.1213713713713709 	299.999999999996 	1.827555587472638e-13 	101324.9999999888
0.1238738738738734 	299.9999999999099 	1.321837012779128e-12 	101324.999999989
0.1263763763763759 	299.9999999999844 	2.100219017915475e-12 	101324.999999989
0.1288788788788784 	299.9999999999839 	2.693815891967764e-12 	101324.9999999891
0.1313813813813809 	299.9999999999811 	2.874784824082101e-12 	101324.999999989
0.1338838838838834 	299.9999999999754 	3.429202597002175e-12 	101324.999999989
0.1363863863863859 	300.0000000000203 	2.517226905163341e-12 	101324.9999999889
0.1388888888888884 	300.0000000000525 	2.22008002986425e-12 	101324.999999989
0.1413913913913909 	300.0000000000085 	2.911008944931995e-13 	101324.9999999891
0.1438938938938934 	299.9999999999895 	1.088940436864665e-12 	101324.9999999892
0.1463963963963959 	299.9999999999448 	1.464922523568453e-12 	101324.999999989
0.1488988988988985 	299.9999999998867 	8.588996687980077e-13 	101324.9999999889
0.1514014014014009 	299.9999999999655 	1.586498620567936e-12 	101324.9999999889
0.1539039039039035 	299.9999999999544 	6.652958908177996e-13 	101324.999999989
0.1564064064064059 	299.9999999999073 	2.739314662746788e-12 	101324.9999999886
0.1589089089089084 	299.999999999967 	7.662082426186973e-13 	101324.9999999888
0.1614114114114109 	299.9999999999616 	1.790232145570622e-12 	101324.9999999891
0.1639139139139134 	299.9999999998923 	9.151654463619654e-13 	101324.9999999896
0.166416416416416 	300.0000000000042 	2.860025345587735e-14 	101324.9999999895
0.1689189189189185 	300.0000000000414 	3.476326471181244e-13 	101324.9999999897
0.1714214214214209 	300.0000000000041 	5.815956002337789e-13 	101324.9999999898
0.1739239239239235 	299.9999999999834 	7.023500012102207e-13 	101324.9999999895
0.1764264264264259 	299.9999999999624 	1.31152391821708e-12 	101324.9999999893
0.1789289289289284 	300.0000000000062 	1.117676655575476e-12 	101324.999999989
0.181431431431431 	299.9999999999563 	1.869056517612061e-12 	101324.999999989
0.1839339339339334 	299.9999999999682 	6.408885404418966e-13 	101324.9999999888
0.186436436436436 	299.9999999999148 	2.41775788452023e-12 	101324.9999999888
0.1889389389389385 	299.9999999999737 	1.698770313354234e-12 	101324.9999999884
0.191441441441441 	299.9999999999666 	1.140680325402001e-12 	101324.9999999887
0.1939439439439434 	299.9999999999048 	1.660802170441924e-12 	101324.9999999885
0.196446446446446 	299.9999999999337 	3.691562735343742e-13 	101324.9999999886
0.1989489489489485 	299.9999999999518 	2.05464143416872e-12 	101324.9999999886
0.2014514514514509 	299.9999999999766 	1.005631200486392e-12 	101324.9999999885
0.2039539539539535 	299.9999999999919 	3.101779624168781e-12 	101324.9999999886
0.2064564564564559 	299.9999999999401 	3.021044588364535e-12 	101324.9999999885
0.2089589589589585 	299.9999999999799 	3.850866666631546e-12 	101324.9999999884
0.211461461461461 	299.9999999999192 	4.259564595079589e-12 	101324.9999999885
0.2139639639639635 	299.9999999999718 	4.036280252462591e-12 	101324.9999999886
0.2164664664664659 	300.0000000000019 	4.602816491856591e-12 	101324.9999999886
0.2189689689689684 	300.0000000000037 	1.995137252491498e-12 	101324.9999999888
0.221471471471471 	299.9999999999983 	3.495271665078274e-12 	101324.9999999888
0.2239739739739735 	299.9999999999424 	1.314930223776852e-12 	101324.9999999889
0.226476476476476 	299.9999999999735 	2.063271682866237e-12 	101324.999999989
0.2289789789789785 	299.9999999999905 	7.557330899746586e-13 	101324.9999999888
0.231481481481481 	299.999999999987 	1.177053478595484e-12 	101324.9999999889
0.2339839839839835 	299.9999999999809 	1.57151175718093e-12 	101324.9999999889
0.236486486486486 	300.0000000000336 	8.85670456516886e-13 	101324.999999989
0.2389889889889885 	300.0000000000076 	1.630915536294372e-12 	101324.999999989
0.241491491491491 	299.9999999998976 	8.31518616426895e-13 	101324.9999999887
0.2439939939939935 	299.9999999999793 	1.708090842228151e-12 	101324.9999999882
0.246496496496496 	299.9999999999919 	7.582569184949441e-13 	101324.9999999879
0.2489989989989985 	300.0000000000451 	5.436259919861673e-13 	101324.9999999881
0.251501501501501 	300.0000000000378 	5.835669154765326e-13 	101324.9999999881
0.2540040040040035 	299.9999999999879 	5.221351534470508e-13 	101324.9999999881
0.256506506506506 	300.0000000000355 	6.414985268211374e-13 	101324.9999999881
0.2590090090090086 	299.9999999998886 	7.094367577245796e-13 	101324.9999999883
0.261511511511511 	299.9999999999955 	2.335721098605736e-12 	101324.9999999883
0.2640140140140135 	299.9999999999833 	8.216058478886171e-13 	101324.9999999885
0.2665165165165161 	299.9999999999148 	1.538750042402291e-12 	101324.9999999886
0.2690190190190185 	300.0000000000176 	3.960818353573514e-13 	101324.9999999886
0.271521521521521 	300.0000000000211 	4.817525121927526e-13 	101324.9999999888
0.2740240240240235 	300.0000000000205 	6.036740382450131e-13 	101324.9999999886
0.276526526526526 	300.0000000000072 	4.148632805988156e-13 	101324.9999999884
0.2790290290290286 	299.9999999999294 	5.596688544134661e-13 	101324.9999999884
0.281531531531531 	299.9999999999107 	1.141553065027807e-12 	101324.9999999885
0.2840340340340335 	299.9999999999741 	7.041311755152278e-13 	101324.9999999886
0.2865365365365361 	299.9999999999485 	4.81160497195816e-13 	101324.9999999883
0.2890390390390385 	299.9999999999918 	1.237992499465074e-12 	101324.999999988
0.291541541541541 	299.9999999999918 	1.504302784986279e-12 	101324.9999999881
0.2940440440440436 	299.99999999998 	6.125499563040767e-13 	101324.9999999881
0.296546546546546 	299.9999999999874 	2.44480198458221e-12 	101324.999999988
0.2990490490490486 	299.999999999922 	1.76045765141562e-12 	101324.9999999882
0.3015515515515511 	300.0000000000442 	3.676150935848952e-12 	101324.9999999881
0.3040540540540535 	299.9999999999998 	2.860552943437896e-12 	101324.9999999884
0.3065565565565562 	299.9999999999915 	3.530460430394822e-12 	101324.9999999881
0.3090590590590585 	299.9999999999847 	3.327786119080037e-12 	101324.9999999883
0.3115615615615611 	299.9999999999254 	2.381164849022409e-12 	101324.9999999881
0.3140640640640635 	300.0000000000111 	1.886862748120464e-12 	101324.9999999881
0.316566566566566 	299.9999999999924 	2.671921819390746e-12 	101324.9999999881
0.3190690690690687 	299.9999999999436 	1.395520839541573e-12 	101324.9999999885
0.3215715715715711 	300.0000000000198 	2.828094584482439e-12 	101324.9999999888
0.3240740740740735 	299.9999999999962 	1.427009979388593e-12 	101324.9999999889
0.326576576576576 	299.9999999998727 	1.527649763967596e-12 	101324.999999989
0.3290790790790786 	300.0000000000113 	1.370933862684274e-12 	101324.9999999891
0.3315815815815811 	300.0000000000477 	4.976973104891838e-13 	101324.9999999889
0.3340840840840836 	299.9999999999835 	1.339104883521039e-12 	101324.9999999885
0.3365865865865861 	300.0000000000695 	6.525458459855026e-13 	101324.9999999888
0.3390890890890886 	300.000000000058 	1.742780432742754e-12 	101324.9999999887
0.3415915915915911 	299.9999999999991 	1.050725982588102e-12 	101324.9999999886
0.3440940940940935 	299.9999999999417 	2.307045561635898e-12 	101324.9999999885
0.3465965965965962 	300.0000000000477 	2.621164547132171e-13 	101324.9999999884
0.3490990990990985 	300.0000000000354 	1.032057657165192e-12 	101324.9999999882
0.3516016016016011 	299.9999999999812 	9.940035563488853e-13 	101324.9999999881
0.3541041041041035 	300.0000000000038 	7.817492678701958e-13 	101324.999999988
0.3566066066066061 	299.9999999999462 	1.59348583839291e-12 	101324.9999999882
0.3591091091091085 	299.9999999999004 	1.248631967578235e-12 	101324.9999999885
0.3616116116116112 	299.9999999999271 	1.927445443933624e-12 	101324.9999999887
0.3641141141141137 	299.9999999999154 	2.172235745172289e-12 	101324.9999999885
0.3666166166166161 	299.9999999999069 	2.60130220265036e-12 	101324.9999999882
0.3691191191191185 	300.0000000000501 	3.746394667237589e-12 	101324.9999999883
0.371621621621621 	300.0000000000282 	1.543870604402009e-12 	101324.9999999882
0.3741241241241237 	300.0000000000603 	3.495319807732896e-12 	101324.9999999883
0.3766266266266261 	300.0000000000373 	1.29251451328788e-12 	101324.9999999885
0.3791291291291286 	299.9999999999785 	3.306739190572765e-12 	101324.9999999888
0.3816316316316311 	299.9999999998976 	1.158810074055667e-12 	101324.9999999891
0.3841341341341336 	300.0000000000174 	3.361212173510863e-12 	101324.999999989
0.3866366366366362 	299.9999999999979 	8.766394501042649e-13 	101324.999999989
0.3891391391391387 	299.9999999999461 	2.373825998157603e-12 	101324.999999989
0.391641641641641 	299.9999999999908 	7.06525667512087e-13 	101324.9999999891
0.3941441441441436 	300.0000000000053 	1.151361599595644e-12 	101324.9999999888
0.3966466466466462 	299.9999999999966 	1.616408882147793e-12 	101324.9999999889
0.3991491491491486 	299.9999999999371 	4.924382862563007e-13 	101324.9999999891
0.4016516516516512 	299.9999999998932 	1.816291332663469e-12 	101324.9999999888
0.4041541541541536 	299.9999999999396 	4.93151069088066e-13 	101324.9999999888
0.4066566566566561 	299.9999999999355 	1.745073534275748e-12 	101324.9999999888
0.4091591591591587 	299.999999999979 	5.813706256598556e-13 	101324.9999999888
0.4116616616616612 	299.9999999999902 	9.661622805297298e-13 	101324.9999999888
0.4141641641641635 	300.0000000000536 	3.707056015161461e-13 	101324.9999999888
0.4166666666666662 	299.9999999999894 	3.422714762962188e-13 	101324.9999999888
0.4191691691691687 	299.9999999999277 	1.269241426416825e-12 	101324.9999999888
0.421671671671671 	300.0000000000149 	2.213462318289335e-12 	101324.9999999888
0.4241741741741737 	299.9999999999708 	2.699221932368998e-12 	101324.9999999888
0.4266766766766761 	299.9999999999447 	2.633969391176528e-12 	101324.9999999885
0.4291791791791785 	300.0000000000256 	3.498540592788849e-12 	101324.9999999885
0.4316816816816812 	300.0000000000121 	3.202530931731447e-12 	101324.9999999887
0.4341841841841836 	299.9999999999818 	3.500666045988956e-12 	101324.9999999886
0.4366866866866862 	299.9999999998981 	1.760722839706416e-12 	101324.9999999886
0.4391891891891885 	299.9999999999819 	2.490677922636732e-12 	101324.9999999889
0.4416916916916913 	299.9999999999742 	1.463058303380394e-12 	101324.9999999891
0.4441941941941936 	299.9999999999813 	1.849192162100975e-12 	101324.9999999892
0.4466966966966961 	299.9999999998981 	8.16053060206936e-13 	101324.9999999894
0.4491991991991987 	299.9999999999709 	4.762540243719866e-13 	101324.9999999897
0.4517017017017012 	299.9999999999683 	6.943092381163326e-13 	101324.9999999897
0.4542042042042035 	299.9999999999961 	3.814951529490379e-13 	101324.9999999896
0.4567067067067062 	299.9999999999943 	1.786858828585974e-13 	101324.9999999894
0.4592092092092087 	299.9999999999107 	2.542934213212646e-13 	101324.9999999893
0.4617117117117112 	300.0000000000276 	3.967062119434994e-13 	101324.9999999891
0.4642142142142137 	299.9999999999546 	5.123239993876935e-13 	101324.9999999889
0.4667167167167162 	299.9999999999846 	7.978003299117376e-13 	101324.9999999888
0.4692192192192187 	299.9999999999482 	8.221306695791602e-13 	101324.9999999891
0.4717217217217212 	300.0000000000221 	1.553289755723334e-12 	101324.9999999894
0.4742242242242236 	299.9999999999579 	1.654978045842658e-12 	101324.9999999895
0.4767267267267262 	299.9999999999571 	1.673722966189988e-12 	101324.9999999897
0.4792292292292287 	300.0000000000176 	1.481507047203711e-12 	101324.9999999899
0.4817317317317312 	300.00000000004 	9.976725999122209e-13 	101324.9999999901
0.4842342342342336 	299.9999999999837 	1.68409613067904e-12 	101324.9999999901
0.4867367367367362 	299.999999999944 	1.324605780536542e-12 	101324.9999999903
0.4892392392392387 	300.0000000000348 	2.637761419493312e-12 	101324.9999999904
0.4917417417417412 	300.0000000000088 	1.982438523036662e-12 	101324.9999999902
0.4942442442442437 	299.9999999998944 	3.122724681789927e-12 	101324.9999999902
0.4967467467467462 	299.9999999999139 	2.08034701557509e-12 	101324.9999999898
0.4992492492492487 	299.9999999999062 	3.969669721639949e-12 	101324.9999999896
0.5017517517517511 	299.9999999999459 	2.638136721716837e-12 	101324.9999999895
0.5042542542542537 	299.9999999999608 	2.676464919779864e-12 	101324.9999999894
0.5067567567567562 	299.9999999999386 	2.359788243021484e-12 	101324.9999999894
0.5092592592592589 	299.9999999999666 	1.712458563088479e-12 	101324.9999999897
0.5117617617617611 	299.999999999947 	2.90621872784393e-12 	101324.9999999899
0.5142642642642637 	299.9999999999818 	1.85160421185791e-12 	101324.9999999899
0.5167667667667663 	299.9999999999661 	4.608869099994706e-12 	101324.9999999901
0.5192692692692688 	299.9999999999035 	2.31983930035155e-12 	101324.9999999903
0.5217717717717714 	299.9999999999296 	7.407650992797895e-12 	101324.9999999901
0.5242742742742736 	299.9999999999309 	3.367116708823204e-12 	101324.9999999901
0.5267767767767763 	299.9999999999525 	7.045595648137002e-12 	101324.99999999
0.5292792792792789 	299.9999999999291 	3.21736926115446e-12 	101324.9999999899
0.5317817817817813 	299.9999999998895 	6.541496130010828e-12 	101324.9999999901
0.5342842842842837 	300.0000000000153 	3.946886706794132e-12 	101324.9999999899
0.5367867867867864 	299.9999999999997 	5.351431815276337e-12 	101324.9999999897
0.5392892892892888 	299.9999999999514 	2.817453327803924e-12 	101324.9999999896
0.5417917917917912 	300.0000000000015 	4.224744606745121e-12 	101324.9999999898
0.5442942942942938 	299.9999999999774 	3.309312369834269e-12 	101324.9999999903
0.5467967967967964 	299.9999999999364 	4.926770808279309e-12 	101324.9999999904
0.5492992992992988 	299.9999999999376 	3.92161723630618e-12 	101324.9999999904
0.5518018018018012 	299.9999999999372 	5.120237410574991e-12 	101324.9999999902
0.5543043043043039 	300.0000000000228 	4.234049666519101e-12 	101324.99999999
0.5568068068068063 	299.9999999999894 	5.71078451835904e-12 	101324.99999999
0.5593093093093087 	299.9999999998906 	4.892088375756181e-12 	101324.9999999899
0.5618118118118114 	299.9999999999485 	6.911752871923324e-12 	101324.99999999
0.5643143143143137 	299.9999999999326 	5.686661257928289e-12 	101324.99999999
0.5668168168168163 	299.9999999999897 	6.726287832004884e-12 	101324.9999999898
0.5693193193193188 	300.0000000000361 	6.564538002352007e-12 	101324.9999999898
0.5718218218218213 	300.0000000000312 	5.522447780114065e-12 	101324.9999999901
0.5743243243243239 	300.0000000000147 	6.111181285520145e-12 	101324.9999999901
0.5768268268268262 	300.0000000000041 	3.984031607048577e-12 	101324.9999999902
0.5793293293293288 	299.9999999999351 	6.501354286822402e-12 	101324.9999999903
0.5818318318318314 	299.999999999911 	3.804074095597979e-12 	101324.9999999903
0.5843343343343338 	299.9999999999825 	8.290013677281996e-12 	101324.9999999902
0.5868368368368363 	299.9999999999722 	4.411020031316383e-12 	101324.9999999901
0.5893393393393387 	299.9999999999333 	8.332571473954705e-12 	101324.9999999901
0.5918418418418413 	299.9999999999346 	6.04567241924402e-12 	101324.9999999901
0.5943443443443439 	300.0000000000184 	8.880737129936046e-12 	101324.9999999904
0.5968468468468463 	300.0000000000222 	7.055701407068672e-12 	101324.9999999906
0.5993493493493487 	300.0000000000408 	8.646864591528956e-12 	101324.999999991
0.6018518518518514 	299.9999999999818 	6.622991108993428e-12 	101324.9999999909
0.6043543543543537 	299.9999999999999 	8.032462395496976e-12 	101324.9999999909
0.6068568568568564 	299.9999999999861 	6.674320670104446e-12 	101324.9999999911
0.6093593593593587 	299.9999999999281 	7.61370865386221e-12 	101324.9999999909
0.6118618618618614 	299.9999999999192 	5.693722551453639e-12 	101324.9999999909
0.6143643643643638 	300.000000000022 	6.168134936661686e-12 	101324.9999999909
0.6168668668668662 	299.9999999999975 	4.339022743607817e-12 	101324.9999999911
0.6193693693693688 	299.9999999999575 	5.971510038283924e-12 	101324.9999999913
0.6218718718718714 	299.9999999999674 	4.36078358475283e-12 	101324.9999999914
0.6243743743743737 	299.9999999999317 	6.928480769245337e-12 	101324.9999999915
0.6268768768768762 	299.999999999918 	6.128795478258145e-12 	101324.9999999915
0.629379379379379 	299.9999999999539 	7.337462648598933e-12 	101324.9999999916
0.6318818818818812 	299.999999999982 	6.133499292615132e-12 	101324.9999999914
0.6343843843843838 	300.0000000000241 	5.371458636678014e-12 	101324.9999999912
0.6368868868868864 	299.9999999999895 	5.858857019690947e-12 	101324.9999999913
0.6393893893893888 	299.9999999999133 	5.378330298650084e-12 	101324.9999999913
0.6418918918918912 	300.0000000000014 	8.00145688339265e-12 	101324.9999999912
0.6443943943943939 	299.999999999969 	4.691583266287638e-12 	101324.9999999914
0.6468968968968963 	299.999999999984 	9.229888182208759e-12 	101324.9999999913
0.6493993993993988 	299.9999999999695 	4.706862450135994e-12 	101324.9999999912
0.6519019019019012 	299.9999999999731 	8.231401410068555e-12 	101324.9999999913
0.6544044044044038 	299.99999999989 	5.500774201405633e-12 	101324.9999999913
0.6569069069069065 	299.9999999999408 	8.893475977672614e-12 	101324.9999999914
0.6594094094094087 	299.9999999999571 	6.924988809652175e-12 	101324.9999999915
0.6619119119119113 	299.9999999999532 	9.226972804039403e-12 	101324.9999999914
0.664414414414414 	300.0000000000128 	6.80267773498258e-12 	101324.9999999916
0.6669169169169162 	300.0000000000235 	8.653773815451226e-12 	101324.9999999918
0.6694194194194188 	299.9999999999853 	7.343582847794015e-12 	101324.9999999917
0.6719219219219214 	299.9999999999142 	8.825730992501635e-12 	101324.9999999918
0.674424424424424 	299.9999999999687 	7.562757558308695e-12 	101324.9999999917
0.6769269269269262 	299.9999999999118 	8.635399116874921e-12 	101324.9999999914
0.679429429429429 	300.0000000000061 	7.619832686643136e-12 	101324.9999999915
0.6819319319319311 	299.9999999999817 	8.096271195553611e-12 	101324.9999999915
0.6844344344344341 	299.9999999999995 	6.899448879898943e-12 	101324.9999999919
0.686936936936936 	299.9999999999937 	8.125797974052095e-12 	101324.9999999918
0.6894394394394392 	299.9999999999887 	7.705785595791761e-12 	101324.9999999919
0.6919419419419413 	299.9999999999861 	8.402490669724112e-12 	101324.999999992
0.694444444444444 	299.9999999999164 	8.95274539098504e-12 	101324.999999992
0.6969469469469463 	299.9999999999093 	8.922554734478025e-12 	101324.9999999919
0.6994494494494489 	299.9999999999128 	1.005285988552861e-11 	101324.999999992
0.7019519519519515 	299.9999999999839 	9.298040208350618e-12 	101324.9999999922
0.7044544544544538 	299.9999999999455 	1.130512334828717e-11 	101324.9999999923
0.7069569569569564 	300.0000000000003 	9.21499727490696e-12 	101324.9999999924
0.7094594594594589 	299.9999999999621 	1.200479133468708e-11 	101324.9999999924
0.7119619619619615 	299.9999999999039 	9.271241571543756e-12 	101324.9999999922
0.7144644644644638 	299.9999999999504 	1.102299974814103e-11 	101324.9999999923
0.7169669669669665 	299.9999999999137 	9.695270797104546e-12 	101324.9999999923
0.7194694694694688 	299.9999999999965 	1.129776822585226e-11 	101324.9999999924
0.7219719719719715 	299.999999999986 	1.103632260993881e-11 	101324.9999999925
0.7244744744744737 	300.0000000000062 	1.07722621270701e-11 	101324.9999999925
0.7269769769769764 	299.9999999999968 	1.020760233147686e-11 	101324.9999999925
0.7294794794794791 	299.9999999999862 	8.54496374118251e-12 	101324.9999999923
0.7319819819819813 	299.9999999999728 	1.054391754753469e-11 	101324.9999999922
0.7344844844844839 	299.9999999999048 	8.656533778460742e-12 	101324.999999992
0.7369869869869864 	299.9999999999363 	1.038464348497041e-11 	101324.9999999921
0.739489489489489 	299.9999999999294 	9.794624832078229e-12 	101324.9999999921
0.7419919919919914 	299.9999999999135 	9.643229784982247e-12 	101324.9999999923
0.7444944944944939 	299.9999999999762 	1.006664945039398e-11 	101324.9999999926
0.7469969969969963 	299.9999999999656 	8.62108504062863e-12 	101324.9999999928
0.7494994994994989 	299.9999999999267 	1.138153305660402e-11 	101324.9999999928
0.7520020020020015 	299.9999999999666 	8.462086929783139e-12 	101324.9999999928
0.7545045045045039 	299.9999999999626 	1.225366415491994e-11 	101324.9999999929
0.7570070070070062 	299.999999999932 	9.640753221668544e-12 	101324.9999999929
0.7595095095095092 	299.9999999999231 	1.216435616167548e-11 	101324.999999993
0.7620120120120112 	300.0000000000157 	1.163944598402741e-11 	101324.9999999929
0.7645145145145138 	299.9999999999899 	1.191610353624915e-11 	101324.9999999928
0.7670170170170165 	299.9999999999218 	1.195956232430443e-11 	101324.9999999928
0.7695195195195191 	299.9999999999134 	1.026780397862242e-11 	101324.9999999928
0.7720220220220213 	299.9999999999321 	1.295345178436784e-11 	101324.999999993
0.7745245245245239 	299.9999999999231 	1.066813795028399e-11 	101324.9999999929
0.7770270270270263 	299.999999999965 	1.248627705319078e-11 	101324.9999999929
0.779529529529529 	299.9999999999825 	1.112055512468081e-11 	101324.9999999929
0.7820320320320313 	299.9999999999631 	1.187284554817562e-11 	101324.999999993
0.784534534534534 	300.000000000007 	1.13957588464094e-11 	101324.9999999932
0.7870370370370364 	299.9999999999961 	1.08391106546751e-11 	101324.9999999934
0.7895395395395389 	299.9999999999754 	1.183732093430856e-11 	101324.9999999937
0.7920420420420413 	299.9999999999753 	1.050880506370126e-11 	101324.9999999935
0.794544544544544 	299.9999999999812 	1.226840041175439e-11 	101324.9999999933
0.7970470470470463 	300.0000000000063 	9.802765602729003e-12 	101324.9999999934
0.799549549549549 	299.9999999999883 	1.337222501445273e-11 	101324.9999999934
0.8020520520520515 	299.9999999999847 	1.024506782539683e-11 	101324.9999999934
0.8045545545545539 	299.999999999938 	1.290537167141372e-11 	101324.9999999935
0.8070570570570563 	299.9999999999733 	1.170351247410292e-11 	101324.9999999937
0.8095595595595589 	299.9999999999479 	1.21308795235411e-11 	101324.9999999938
0.8120620620620614 	299.9999999999339 	1.158583672462383e-11 	101324.9999999938
0.8145645645645638 	300.0000000000045 	1.143968820529801e-11 	101324.9999999939
0.8170670670670666 	300.0000000000027 	1.28342065428267e-11 	101324.9999999941
0.8195695695695689 	299.9999999999785 	1.169751537845145e-11 	101324.9999999942
0.8220720720720714 	299.9999999999349 	1.403593940146821e-11 	101324.9999999941
0.8245745745745739 	299.9999999999903 	1.068865087951601e-11 	101324.9999999941
0.8270770770770765 	299.9999999999665 	1.241359267102873e-11 	101324.999999994
0.8295795795795788 	299.9999999999406 	1.126627166049534e-11 	101324.9999999941
0.8320820820820815 	300.0000000000236 	1.208355194463696e-11 	101324.9999999943
0.834584584584584 	300.0000000000142 	1.131308533307618e-11 	101324.9999999944
0.8370870870870865 	299.9999999999667 	1.146916930083951e-11 	101324.9999999944
0.8395895895895891 	299.9999999999221 	1.300930926634309e-11 	101324.9999999944
0.8420920920920915 	299.9999999999441 	1.262040363436933e-11 	101324.9999999944
0.844594594594594 	299.9999999999345 	1.338119577112561e-11 	101324.9999999944
0.8470970970970964 	299.9999999999394 	1.382627508218146e-11 	101324.999999994
0.8495995995995991 	299.999999999989 	1.410480219451489e-11 	101324.9999999938
0.8521021021021015 	299.9999999999778 	1.474322392451194e-11 	101324.9999999936
0.8546046046046039 	299.9999999999683 	1.365815769016031e-11 	101324.9999999934
0.8571071071071066 	299.9999999999942 	1.456152850987432e-11 	101324.9999999934
0.8596096096096089 	299.9999999999579 	1.20922046165912e-11 	101324.9999999935
0.8621121121121116 	299.9999999999266 	1.489241395792071e-11 	101324.9999999936
0.8646146146146139 	299.9999999999989 	1.22205584086305e-11 	101324.999999994
0.8671171171171166 	299.9999999999714 	1.461721311116231e-11 	101324.9999999941
0.8696196196196189 	299.999999999931 	1.378414073892758e-11 	101324.9999999943
0.8721221221221216 	299.9999999999715 	1.485841863921621e-11 	101324.9999999945
0.874624624624624 	300.0000000000041 	1.459095681981894e-11 	101324.9999999945
0.8771271271271264 	299.9999999999974 	1.387140028244054e-11 	101324.9999999947
0.879629629629629 	300.0000000000015 	1.397482821580018e-11 	101324.9999999948
0.8821321321321317 	299.9999999999851 	1.189330619363037e-11 	101324.9999999948
0.8846346346346339 	299.9999999999187 	1.460795966614935e-11 	101324.9999999949
0.8871371371371364 	299.9999999999517 	1.207534090423518e-11 	101324.9999999948
0.8896396396396391 	299.9999999999492 	1.399041777892146e-11 	101324.9999999946
0.8921421421421414 	299.9999999999553 	1.322122776385148e-11 	101324.9999999947
0.8946446446446441 	299.9999999999832 	1.472991016467364e-11 	101324.9999999949
0.8971471471471464 	300.0000000000051 	1.490562411022454e-11 	101324.9999999948
0.8996496496496489 	299.9999999999814 	1.451884417817146e-11 	101324.9999999947
0.9021521521521517 	299.9999999999613 	1.498724534665613e-11 	101324.9999999944
0.9046546546546541 	299.9999999999911 	1.328168976880706e-11 	101324.9999999943
0.9071571571571564 	299.9999999999398 	1.395944763306541e-11 	101324.9999999942
0.9096596596596589 	299.999999999938 	1.420249437874855e-11 	101324.9999999942
0.9121621621621616 	300.0000000000093 	1.458244712653613e-11 	101324.9999999944
0.9146646646646639 	299.9999999999781 	1.501182375799491e-11 	101324.9999999946
0.9171671671671666 	299.999999999945 	1.505506888808499e-11 	101324.9999999947
0.9196696696696689 	300.0000000000023 	1.593158525111156e-11 	101324.9999999947
0.9221721721721714 	299.9999999999992 	1.393125784478664e-11 	101324.9999999948
0.9246746746746741 	299.9999999999331 	1.670998146854963e-11 	101324.9999999949
0.9271771771771765 	299.9999999999457 	1.424187751513228e-11 	101324.9999999951
0.9296796796796791 	299.9999999999898 	1.634408531249242e-11 	101324.9999999956
0.9321821821821816 	299.9999999999642 	1.427695474842087e-11 	101324.9999999957
0.9346846846846838 	299.9999999999433 	1.536739297946358e-11 	101324.9999999956
0.9371871871871866 	300.0000000000164 	1.464161062578757e-11 	101324.9999999955
0.9396896896896891 	300.0000000000115 	1.417767382422747e-11 	101324.9999999955
0.9421921921921914 	300.000000000006 	1.410250366353128e-11 	101324.9999999955
0.9446946946946939 	299.9999999999681 	1.277574929889091e-11 	101324.9999999954
0.9471971971971965 	299.9999999999171 	1.537925603158643e-11 	101324.9999999954
0.9496996996996991 	299.9999999999513 	1.358579330504153e-11 	101324.9999999953
0.9522022022022016 	299.9999999999683 	1.611691788445164e-11 	101324.9999999951
0.9547047047047038 	299.9999999999733 	1.521056059053906e-11 	101324.9999999951
0.9572072072072064 	299.9999999999562 	1.590478652513738e-11 	101324.9999999953
0.9597097097097093 	299.9999999999567 	1.531588359743857e-11 	101324.9999999953
0.9622122122122114 	299.9999999999558 	1.471789788540013e-11 	101324.9999999955
0.964714714714714 	299.9999999999461 	1.5340073385398e-11 	101324.9999999955
0.9672172172172167 	299.9999999999472 	1.418043019343788e-11 	101324.9999999959
0.969719719719719 	299.9999999999852 	1.530743905859461e-11 	101324.9999999961
0.9722222222222214 	299.9999999999825 	1.5114797471046e-11 	101324.9999999962
0.9747247247247239 	299.9999999999735 	1.561942207336074e-11 	101324.999999996
0.9772272272272267 	300.0000000000044 	1.574374789108341e-11 	101324.9999999961
0.9797297297297292 	299.9999999999815 	1.564841194427432e-11 	101324.9999999964
0.9822322322322313 	299.9999999999858 	1.677192171438745e-11 	101324.9999999965
0.9847347347347344 	299.9999999999858 	1.478441979369417e-11 	101324.9999999964
0.9872372372372363 	299.9999999999297 	1.711795353131332e-11 	101324.9999999963
0.9897397397397389 	299.9999999999558 	1.43265691435095e-11 	101324.9999999959
0.9922422422422417 	299.9999999999461 	1.657732938463931e-11 	101324.9999999961
0.9947447447447441 	299.9999999999565 	1.537678052295462e-11 	101324.9999999962
0.9972472472472468 	299.9999999999616 	1.643676078784844e-11 	101324.9999999961
0.999749749749749 	299.9999999999626 	1.54374999092663e-11 	101324.999999996
1.002252252252252 	299.9999999999808 	1.569704763931215e-11 	101324.9999999962
1.004754754754754 	299.9999999999941 	1.585565587095834e-11 	101324.9999999962
1.007257257257256 	299.9999999999743 	1.500742924301178e-11 	101324.999999996
1.009759759759759 	299.9999999999577 	1.743067528092884e-11 	101324.9999999958
1.012262262262261 	299.9999999999405 	1.552811942385748e-11 	101324.9999999959
1.014764764764764 	299.999999999923 	1.74820237345434e-11 	101324.999999996
1.017267267267267 	299.9999999999202 	1.632280158565277e-11 	101324.9999999962
1.019769769769769 	299.9999999999734 	1.739752088566019e-11 	101324.9999999966
1.022272272272272 	299.9999999999865 	1.692930513827539e-11 	101324.9999999966
1.024774774774774 	299.9999999999839 	1.749095023188237e-11 	101324.9999999962
1.027277277277277 	299.9999999999732 	1.847976103268597e-11 	101324.999999996
1.029779779779779 	299.9999999999995 	1.739906933500447e-11 	101324.9999999958
1.032282282282282 	300.0000000000026 	1.825605188410328e-11 	101324.9999999957
1.034784784784784 	299.9999999999921 	1.772515960356162e-11 	101324.9999999959
1.037287287287286 	299.9999999999596 	1.80189773982628e-11 	101324.9999999962
1.039789789789789 	299.9999999999731 	1.740157295374506e-11 	101324.9999999962
1.042292292292291 	300.0000000000218 	1.721936110743416e-11 	101324.9999999958
1.044794794794794 	300.0000000000345 	1.746717447732528e-11 	101324.9999999958
1.047297297297296 	300.0000000000404 	1.642359817370991e-11 	101324.999999996
1.049799799799799 	299.999999999993 	1.839170107970239e-11 	101324.9999999962
1.052302302302302 	299.9999999999591 	1.60607545216722e-11 	101324.9999999964
1.054804804804804 	299.9999999999313 	1.781073773821552e-11 	101324.9999999966
1.057307307307306 	299.9999999999141 	1.622486559127178e-11 	101324.9999999967
1.059809809809809 	299.9999999999557 	1.72775503807475e-11 	101324.9999999967
1.062312312312312 	299.9999999999523 	1.614662467863962e-11 	101324.9999999969
1.064814814814814 	299.9999999999459 	1.65317693717961e-11 	101324.9999999971
1.067317317317317 	299.9999999999139 	1.63286981179532e-11 	101324.9999999972
1.069819819819819 	299.999999999916 	1.607436438968575e-11 	101324.9999999972
1.072322322322321 	299.9999999999904 	1.81970886920192e-11 	101324.9999999974
1.074824824824824 	300.0000000000171 	1.624289945771353e-11 	101324.9999999976
1.077327327327327 	300.0000000000381 	1.771242338056451e-11 	101324.9999999975
1.079829829829829 	300.0000000000467 	1.577463009938073e-11 	101324.9999999972
1.082332332332332 	300.000000000007 	1.604121425696584e-11 	101324.9999999969
1.084834834834834 	299.9999999999787 	1.530089361379346e-11 	101324.9999999966
1.087337337337337 	299.9999999999353 	1.560045089857578e-11 	101324.9999999965
1.089839839839839 	299.9999999999213 	1.717165961524905e-11 	101324.9999999967
1.092342342342342 	299.9999999999681 	1.562147371778853e-11 	101324.9999999969
1.094844844844844 	299.9999999999684 	1.693482099202368e-11 	101324.9999999967
1.097347347347347 	299.9999999999332 	1.549568458349505e-11 	101324.9999999965
1.099849849849849 	299.9999999999204 	1.878940378009638e-11 	101324.9999999963
1.102352352352352 	299.9999999999505 	1.652683392708229e-11 	101324.9999999962
1.104854854854854 	299.9999999999702 	1.930702166835445e-11 	101324.9999999963
1.107357357357357 	299.9999999999469 	1.779856437299603e-11 	101324.9999999964
1.109859859859859 	299.9999999999413 	1.950469366649085e-11 	101324.9999999963
1.112362362362362 	300.0000000000128 	1.803486809979243e-11 	101324.9999999962
1.114864864864865 	300.0000000000083 	1.832770325228252e-11 	101324.9999999963
1.117367367367367 	299.9999999999548 	1.937364443085028e-11 	101324.9999999967
1.119869869869869 	299.9999999999159 	1.756621739380368e-11 	101324.9999999971
1.122372372372372 	299.9999999999555 	1.896774825831768e-11 	101324.9999999971
1.124874874874874 	299.9999999999512 	1.772187384133809e-11 	101324.9999999971
1.127377377377377 	299.9999999999596 	1.877072050467737e-11 	101324.9999999971
1.129879879879879 	300.0000000000199 	1.742761423032572e-11 	101324.9999999969
1.132382382382382 	300.0000000000448 	1.729624039553527e-11 	101324.9999999968
1.134884884884884 	300.0000000000134 	1.646733205047079e-11 	101324.9999999969
1.137387387387387 	300.0000000000171 	1.668533628440829e-11 	101324.9999999971
1.139889889889889 	299.9999999999602 	1.837727171354239e-11 	101324.9999999973
1.142392392392392 	299.9999999999537 	1.706606234378335e-11 	101324.9999999974
1.144894894894894 	300.000000000025 	1.875906953880333e-11 	101324.9999999974
1.147397397397397 	300.0000000000011 	1.737138750139534e-11 	101324.9999999973
1.149899899899899 	299.9999999999347 	1.884177494373995e-11 	101324.9999999973
1.152402402402402 	299.9999999999192 	1.838260112393846e-11 	101324.9999999971
1.154904904904904 	299.9999999999559 	1.923990826075417e-11 	101324.9999999969
1.157407407407407 	299.9999999999538 	1.880862632174613e-11 	101324.9999999967
1.159909909909909 	299.9999999999219 	1.965542153005222e-11 	101324.9999999968
1.162412412412412 	299.9999999999188 	2.165733282014613e-11 	101324.9999999968
1.164914914914914 	299.9999999999602 	2.018476758475022e-11 	101324.9999999967
1.167417417417417 	299.9999999999696 	2.193474851089265e-11 	101324.9999999965
1.169919919919919 	300.0000000000191 	2.066696062613732e-11 	101324.9999999964
1.172422422422422 	300.0000000000516 	2.158947298087889e-11 	101324.9999999965
1.174924924924925 	299.999999999996 	1.971573111097653e-11 	101324.9999999966
1.177427427427427 	299.9999999999611 	1.973928669559517e-11 	101324.9999999967
1.179929929929929 	300.0000000000143 	2.04207985510051e-11 	101324.9999999965
1.182432432432432 	300.0000000000454 	1.84505464972652e-11 	101324.9999999967
1.184934934934934 	300.0000000000091 	1.974384148865825e-11 	101324.9999999969
1.187437437437437 	299.9999999999832 	1.857968454142713e-11 	101324.9999999969
1.189939939939939 	299.9999999999774 	2.013583882371974e-11 	101324.999999997
1.192442442442442 	299.9999999999287 	1.976719606716028e-11 	101324.999999997
1.194944944944944 	299.9999999999221 	2.145147084199934e-11 	101324.9999999969
1.197447447447447 	299.9999999999924 	2.098057067187383e-11 	101324.999999997
1.199949949949949 	300.0000000000176 	2.138754822082723e-11 	101324.9999999971
1.202452452452452 	299.999999999954 	2.251534168151828e-11 	101324.9999999971
1.204954954954955 	299.9999999999459 	2.070818122380891e-11 	101324.9999999971
1.207457457457457 	299.999999999979 	2.153226621099141e-11 	101324.9999999972
1.20995995995996 	299.9999999999758 	1.999258898760692e-11 	101324.9999999971
1.212462462462462 	299.9999999999826 	2.120372342535987e-11 	101324.9999999971
1.214964964964964 	299.9999999999808 	2.052458466861574e-11 	101324.9999999973
1.217467467467467 	299.9999999999773 	2.221504311325494e-11 	101324.9999999974
1.219969969969969 	299.999999999959 	2.11288643318032e-11 	101324.9999999973
1.222472472472472 	300.0000000000209 	2.071784133828038e-11 	101324.9999999972
1.224974974974975 	300.0000000000549 	2.060699669868535e-11 	101324.9999999971
1.227477477477477 	299.9999999999934 	1.850322784866425e-11 	101324.9999999971
1.229979979979979 	299.9999999999717 	1.99860834303917e-11 	101324.999999997
1.232482482482482 	299.9999999999467 	1.866910928147948e-11 	101324.999999997
1.234984984984984 	299.9999999999522 	2.061384011955157e-11 	101324.9999999972
1.237487487487487 	299.9999999999753 	1.950051624778568e-11 	101324.9999999974
1.239989989989989 	299.9999999999749 	2.035237230251397e-11 	101324.9999999974
1.242492492492492 	300.0000000000131 	2.133728848944211e-11 	101324.9999999973
1.244994994994994 	299.9999999999798 	1.998364460749402e-11 	101324.9999999971
1.247497497497497 	299.9999999999732 	2.122984425404177e-11 	101324.9999999972
1.249999999999999 	300 	2.038416493410411e-11 	101324.9999999972
