-1.25 	300.0274068407255 	1.073201036640954 	101354.3892626146
-1.247497497497497 	300.0295380224085 	1.082276797104983 	101359.952668696
-1.244994994994995 	300.0334503421407 	1.096575078914383 	101364.5334938093
-1.242492492492492 	300.0367093475795 	1.106111531465002 	101368.4027948955
-1.23998998998999 	300.0393108334513 	1.113655960349045 	101371.4800223026
-1.237487487487487 	300.0411926168422 	1.119088592079991 	101373.7055907509
-1.234984984984985 	300.0423194114891 	1.122344991225672 	101375.038239733
-1.232482482482482 	300.0426718027111 	1.123362376871311 	101375.4547937468
-1.22997997997998 	300.0422431512804 	1.122121977452682 	101374.9478261158
-1.227477477477477 	300.0410400782615 	1.118645372217282 	101373.5255911872
-1.224974974974975 	300.0390853028818 	1.11299602300109 	101371.2143076023
-1.222472472472472 	300.0364151339773 	1.105277778963673 	101368.0567191308
-1.21996996996997 	300.0330778824916 	1.095631171189905 	101364.1102707928
-1.217467467467467 	300.0291339274047 	1.084231363555054 	101359.4465627591
-1.214964964964965 	300.0246553682881 	1.071286320596667 	101354.1508321979
-1.212462462462462 	300.0197239568672 	1.057032294508194 	101348.3198683072
-1.20995995995996 	300.0144294572154 	1.041729137907864 	101342.0598857616
-1.207457457457457 	300.0088689811665 	1.025657167403299 	101335.4856356549
-1.204954954954955 	300.0031447235557 	1.009111834749472 	101328.7181503329
-1.202452452452452 	299.9973618109672 	0.9923967525234278 	101321.8816085192
-1.19994994994995 	299.9916261687076 	0.9758186310586769 	101315.1012906757
-1.197447447447447 	299.98604361551 	0.9596831963168877 	101308.502259583
-1.194944944944945 	299.9807175616612 	0.9442887101547303 	101302.2066218659
-1.192442442442442 	299.9757458327695 	0.9299186108016569 	101296.3301249247
-1.18993993993994 	299.9712197555122 	0.9168369751598207 	101290.9805737656
-1.187437437437437 	299.967222797471 	0.905284976245373 	101286.25658695
-1.184934934934935 	299.9638288227502 	0.8954759286232445 	101282.2453491392
-1.182432432432432 	299.9611003381266 	0.8875904164384212 	101279.0206473141
-1.17992992992993 	299.9590871226977 	0.8817724537989431 	101276.6413629447
-1.177427427427427 	299.9578253604857 	0.8781265864173541 	101275.1501567038
-1.174924924924925 	299.9573368760607 	0.8767169849999663 	101274.573041257
-1.172422422422422 	299.9576304620311 	0.8775685432590719 	101274.9202451545
-1.16991991991992 	299.9587016084396 	0.8806653634971149 	101276.1857863771
-1.167417417417417 	299.9605290049732 	0.885947877158253 	101278.3450926511
-1.164914914914915 	299.9630775342442 	0.8933157819802842 	101281.3568951504
-1.162412412412412 	299.9663003930907 	0.902632650291715 	101285.1657258641
-1.15990990990991 	299.970138336578 	0.9137271754744924 	101289.7016941106
-1.157407407407407 	299.9745207383503 	0.9263952122202417 	101294.8813334798
-1.154904904904904 	299.9793672460499 	0.9404045308568201 	101300.6097043482
-1.152402402402403 	299.9845895704595 	0.9554997053388239 	101306.7825001601
-1.1498998998999 	299.9900925534678 	0.9714058774510617 	101313.2874294785
-1.147397397397397 	299.9957758897993 	0.9878328513952139 	101320.0058146303
-1.144894894894895 	300.0015356947166 	1.004480525084797 	101326.8149018207
-1.142392392392392 	300.0072667065152 	1.021045031880729 	101333.5903668516
-1.13988988988989 	300.01286470272 	1.037224840476135 	101340.2088349922
-1.137387387387387 	300.0182280216007 	1.052726071376519 	101346.5501426919
-1.134884884884885 	300.0232591173374 	1.067266701833589 	101352.4989410444
-1.132382382382382 	300.0278659790842 	1.08058095081357 	101357.9463613104
-1.12987987987988 	300.0319641678575 	1.092424947201402 	101362.792482098
-1.127377377377377 	300.0354788460036 	1.102582266093293 	101366.9487108285
-1.124874874874875 	300.0383458493266 	1.110867617948013 	101370.3392044921
-1.122372372372372 	300.0405128149961 	1.117129483972003 	101372.9018887763
-1.11986986986987 	300.0419399029228 	1.121252875517676 	101374.5896489525
-1.117367367367367 	300.0426009760395 	1.123161339989612 	101375.371252909
-1.114864864864865 	300.0424830916698 	1.122816798233995 	101375.2312705555
-1.112362362362362 	300.0415851184493 	1.120220629970982 	101374.1696185513
-1.10985985985986 	300.0399230097015 	1.11541739116563 	101372.2046742381
-1.107357357357357 	300.0375279444049 	1.10849416195386 	101369.3725208126
-1.104854854854855 	300.0344428671608 	1.099576298354138 	101365.7243186636
-1.102352352352353 	300.0307234548086 	1.088825047156853 	101361.326089068
-1.09984984984985 	300.0264370932373 	1.076435245270908 	101356.2576149667
-1.097347347347347 	300.021661709988 	1.062632248628562 	101350.6110854505
-1.094844844844845 	300.0164847468726 	1.047668876639238 	101344.4899678625
-1.092342342342342 	300.011001791042 	1.031821245688286 	101338.0073515157
-1.08983983983984 	300.0053144978534 	1.015382931497618 	101331.2834298316
-1.087337337337337 	299.9995282617125 	0.9986586258614428 	101324.4428586151
-1.084834834834835 	299.9937503532225 	0.9819583851999347 	101317.6124560709
-1.082332332332332 	299.9880880068209 	0.9655920799037491 	101310.9189324095
-1.07982982982983 	299.9826462352159 	0.9498635067590226 	101304.4864945408
-1.077327327327327 	299.9775260676815 	0.9350645238068043 	101298.4344561861
-1.074824824824825 	299.9728224517264 	0.9214694645245038 	101292.874941133
-1.072322322322323 	299.968622229572 	0.9093296367354387 	101287.9106608493
-1.06981981981982 	299.9650027055412 	0.8988681374817171 	101283.6327982377
-1.067317317317317 	299.9620297362497 	0.8902754522754713 	101280.119153342
-1.064814814814815 	299.9597566726017 	0.8837061034769746 	101277.4328041311
-1.062312312312312 	299.9582239222577 	0.8792765557106166 	101275.6212952696
-1.05980980980981 	299.957457987218 	0.877064013789471 	101274.7161234229
-1.057307307307307 	299.9574714653812 	0.8771059133732333 	101274.7324500136
-1.054804804804805 	299.9582644680285 	0.879398887245941 	101275.6694175995
-1.052302302302302 	299.9598205843471 	0.8838965396286735 	101277.5079618074
-1.0497997997998 	299.9621086147521 	0.8905109853815072 	101280.2118246715
-1.047297297297297 	299.9650858472741 	0.8991177201461358 	101283.7303015998
-1.044794794794795 	299.9686974181105 	0.9095580544716514 	101287.9986743655
-1.042292292292292 	299.9728772855659 	0.9216406816339782 	101292.9388093748
-1.03978978978979 	299.9775490565705 	0.9351448615894402 	101298.4605240447
-1.037287287287287 	299.9826275840871 	0.9498246521668967 	101304.4633080579
-1.034784784784785 	299.9880207133991 	0.9654135618943458 	101310.8382484299
-1.032282282282283 	299.9936308337653 	0.9816292025148098 	101317.469928145
-1.02977977977978 	299.9993562403477 	0.9981779969879813 	101324.2383034665
-1.027277277277277 	300.0050933765739 	1.014760293631326 	101331.020812909
-1.024774774774775 	300.0107382657478 	1.03107577655111 	101337.6946283354
-1.022272272272272 	300.0161886102542 	1.046828724262108 	101344.1387700545
-1.01976976976977 	300.021345529524 	1.061733148025737 	101350.2361904481
-1.017267267267267 	300.0261151227028 	1.075518114505797 	101355.8759737165
-1.014764764764765 	300.0304108041874 	1.087933048294786 	101360.9555393985
-1.012262262262262 	300.034154453102 	1.098752208982338 	101365.3825035661
-1.00975975975976 	300.0372777706959 	1.107778129608538 	101369.0760315981
-1.007257257257257 	300.0397232594274 	1.114844734003431 	101371.9680693863
-1.004754754754755 	300.0414453495565 	1.119820477780561 	101374.0047038902
-1.002252252252252 	300.0424115365805 	1.12261109731945 	101375.1473275852
-0.9997497497497498 	300.0426030173521 	1.123160929978765 	101375.3733690196
-0.9972472472472473 	300.0420129763103 	1.121453156010005 	101374.6755160755
-0.9947447447447449 	300.0406497356137 	1.117512911620608 	101373.0638451373
-0.9922422422422421 	300.0385380455215 	1.111408908534515 	101370.5669251623
-0.9897397397397399 	300.0357155307572 	1.103249599409202 	101367.2291964552
-0.9872372372372376 	300.0322321761554 	1.093180472548229 	101363.1100834958
-0.9847347347347346 	300.0281507326113 	1.081383005491847 	101358.2838577462
-0.9822322322322323 	300.0235456030539 	1.068072260119622 	101352.8385876422
-0.9797297297297296 	300.018501531834 	1.053493083885933 	101346.8745206241
-0.9772272272272275 	300.0131119567604 	1.037915463525372 	101340.5021848415
-0.9747247247247248 	300.0074771846798 	1.021629237837731 	101333.8402509543
-0.9722222222222224 	300.0017024353215 	1.004938404903384 	101327.0131019487
-0.9697197197197196 	299.9958957216424 	0.9881554586598349 	101320.1485579838
-0.9672172172172175 	299.9901661650429 	0.9715953420434438 	101313.3754953689
-0.9647147147147147 	299.9846212226918 	0.955568604720228 	101306.8209335165
-0.9622122122122124 	299.9793643467758 	0.9403747323151834 	101300.6072838641
-0.9597097097097099 	299.9744935485309 	0.9262962513839053 	101294.8500551203
-0.9572072072072073 	299.970098580633 	0.9135932600000214 	101289.6555190163
-0.9547047047047047 	299.9662600083221 	0.9024987084185971 	101285.1188048029
-0.9522022022022023 	299.9630478483226 	0.8932143592570826 	101281.3223877134
-0.9496996996996998 	299.9605194844439 	0.8859067632227943 	101278.3343217854
-0.9471971971971973 	299.9587194121789 	0.8807042494521471 	101276.2069307553
-0.9446946946946947 	299.9576783381419 	0.877695678421233 	101274.9765094026
-0.9421921921921923 	299.9574126488445 	0.8769298675568278 	101274.6628540643
-0.93968968968969 	299.9579260745948 	0.8784155879517269 	101275.2697197227
-0.9371871871871872 	299.9592079387776 	0.8821204388599382 	101276.7841271936
-0.9346846846846848 	299.9612316760785 	0.8879704370470237 	101279.175582047
-0.9321821821821823 	299.9639584718767 	0.8958530816383912 	101282.3980701472
-0.9296796796796799 	299.9673374559765 	0.9056209719709278 	101286.3914344729
-0.9271771771771771 	299.9713065304086 	0.9170946665930561 	101291.0824621001
-0.9246746746746748 	299.9757935944986 	0.9300649597354238 	101296.3857310025
-0.9221721721721724 	299.9807168640892 	0.9442964259551536 	101302.2049369837
-0.9196696696696698 	299.9859878455297 	0.9595326964533133 	101308.4353758347
-0.9171671671671672 	299.9915120467429 	0.9755000265954388 	101314.9653251172
-0.9146646646646649 	299.9971893926171 	0.9919101804066698 	101321.6768253787
-0.9121621621621623 	300.0029175404067 	1.008466764146015 	101328.4485207378
-0.9096596596596597 	300.0085933894159 	1.024872033578016 	101335.1587981447
-0.9071571571571573 	300.0141147651901 	1.040830477007683 	101341.6868345435
-0.9046546546546547 	300.0193818425787 	1.056053583207291 	101347.9143407175
-0.9021521521521524 	300.0242995594347 	1.070267261225411 	101353.7291978381
-0.8996496496496498 	300.0287798802463 	1.083215714256616 	101359.0270045372
-0.8971471471471473 	300.0327409382824 	1.09466282941438 	101363.7109551812
-0.894644644644645 	300.0361095598539 	1.104398189850226 	101367.6945859377
-0.892142142142142 	300.0388245489956 	1.112243769221703 	101370.9052512376
-0.8896396396396397 	300.0408356339713 	1.118054045845535 	101373.2835824661
-0.8871371371371374 	300.0421034211384 	1.121716298722662 	101374.7830023987
-0.8846346346346349 	300.0426028023941 	1.123156966356396 	101375.3733164648
-0.8821321321321324 	300.0423227715587 	1.122343459844518 	101375.0417352959
-0.8796296296296297 	300.0412636040027 	1.119280720150435 	101373.7896176361
-0.8771271271271271 	300.0394417875452 	1.11401461778237 	101371.6355310285
-0.8746246246246248 	300.0368895507838 	1.106637508489482 	101368.6175124263
-0.8721221221221224 	300.0336538927056 	1.097283738889052 	101364.7912084088
-0.8696196196196196 	300.0297918807904 	1.086119235586462 	101360.2244106902
-0.8671171171171175 	300.0253710263076 	1.073341474533828 	101354.9970192473
-0.8646146146146148 	300.0204735299966 	1.059186970617232 	101349.2060686382
-0.8621121121121121 	300.0151929453144 	1.043924293729687 	101342.9625719535
-0.8596096096096097 	300.009627293452 	1.027836704209819 	101336.3822123042
-0.857107107107107 	300.0038779978963 	1.011220514500025 	101329.5850630391
-0.8546046046046049 	299.998055277116 	0.9943933860757083 	101322.7014616759
-0.8521021021021022 	299.9922736848513 	0.9776825579096762 	101315.8667562417
-0.8495995995995997 	299.9866409557609 	0.9614002055374535 	101309.2083406916
-0.8470970970970974 	299.9812577815601 	0.9458417095358279 	101302.8452404584
-0.8445945945945946 	299.9762260625664 	0.9313011155823585 	101296.8978111702
-0.8420920920920922 	299.9716457149394 	0.918062070306251 	101291.4840487011
-0.8395895895895897 	299.9676003850495 	0.9063664070814417 	101286.7029106318
-0.8370870870870872 	299.9641557371558 	0.896409285788805 	101282.6317129609
-0.8345845845845846 	299.9613718153541 	0.8883664688342147 	101279.3415799272
-0.8320820820820823 	299.9593064339717 	0.882398408484938 	101276.9006712168
-0.8295795795795798 	299.9579983419445 	0.8786134253760369 	101275.3546208729
-0.8270770770770772 	299.9574580183435 	0.8770498693359017 	101274.7162994472
-0.8245745745745746 	299.957685502105 	0.8777133271541603 	101274.9854133759
-0.8220720720720721 	299.9586848887441 	0.8806068301748508 	101276.1661500626
-0.8195695695695699 	299.960446526949 	0.8856958131920099 	101278.2476973969
-0.817067067067067 	299.962928325598 	0.8928629300006643 	101281.1805542483
-0.8145645645645651 	299.9660660582061 	0.9019339631351748 	101284.8888810324
-0.8120620620620621 	299.9698030356706 	0.91274514320235 	101289.3054248574
-0.8095595595595597 	299.9740922888197 	0.9251478692941615 	101294.3748871824
-0.8070570570570572 	299.978865302086 	0.9389369471959017 	101300.0164245412
-0.8045545545545546 	299.9840158327321 	0.9538162406422996 	101306.1043186853
-0.8020520520520523 	299.9894299648382 	0.9694709581380885 	101312.5041387425
-0.7995495495495494 	299.9950232374362 	0.9856512660518006 	101319.1160558454
-0.7970470470470474 	300.0007276568101 	1.002141283352753 	101325.8595856775
-0.7945445445445446 	300.006445075869 	1.018653322345295 	101332.6189600567
-0.7920420420420423 	300.0120385149071 	1.034809432642467 	101339.2319859375
-0.7895395395395397 	300.0173806649104 	1.050258697110162 	101345.5482080443
-0.7870370370370371 	300.02239828302 	1.064779735478548 	101351.4810748576
-0.7845345345345348 	300.027048249327 	1.078221826859237 	101356.9793588792
-0.7820320320320323 	300.0312534007088 	1.090355719548879 	101361.9519595343
-0.7795295295295296 	300.0348881666739 	1.100841819179994 	101366.2501884732
-0.7770270270270272 	300.0378404619593 	1.10938112375446 	101369.7414623537
-0.7745245245245247 	300.0400763263938 	1.115868617068922 	101372.3856837161
-0.7720220220220222 	300.0416218731051 	1.120346135061581 	101374.2134602728
-0.7695195195195199 	300.0424779819875 	1.122797931414851 	101375.2259468803
-0.767017017017017 	300.0425746388671 	1.123040426439758 	101375.3396686224
-0.7645145145145147 	300.0418231296064 	1.120860095684129 	101374.4509556825
-0.7620120120120122 	300.0402203449186 	1.116258339530223 	101372.5561668615
-0.7595095095095097 	300.0378743104846 	1.10951092218992 	101369.7820262327
-0.7570070070070072 	300.0349140153778 	1.100951277285707 	101366.2813603772
-0.7545045045045048 	300.0313857736572 	1.09071222389182 	101362.109274277
-0.7520020020020022 	300.0272490351417 	1.078717008187634 	101357.2176477322
-0.7494994994994997 	300.022482437297 	1.064946230789872 	101351.581520476
-0.7469969969969972 	300.0171923145465 	1.049704498610611 	101345.3265828063
-0.7444944944944945 	300.0116033752739 	1.033594538232381 	101338.7185552009
-0.7419919919919924 	300.0059335159813 	1.017201683471536 	101332.0152962925
-0.7394894894894897 	300.0002742380833 	1.000791580328241 	101325.3246908876
-0.7369869869869872 	299.994593416027 	0.9843202295457067 	101318.6090031127
-0.7344844844844846 	299.98886236436 	0.9677547297494874 	101311.8343633069
-0.7319819819819822 	299.9831864655546 	0.9514041531823774 	101305.1250152528
-0.7294794794794797 	299.9778155355462 	0.9359464124921899 	101298.7765794222
-0.7269769769769773 	299.9730217269934 	0.9221108097108878 	101293.1105038407
-0.7244744744744747 	299.9689447906399 	0.9102807047791118 	101288.2917978689
-0.721971971971972 	299.9655366470243 	0.9003520042565782 	101284.2638771554
-0.7194694694694695 	299.9626535565332 	0.8919697750282387 	101280.8564219108
-0.7169669669669674 	299.960219210176 	0.8849538998485178 	101277.9794023939
-0.7144644644644647 	299.9583312332359 	0.8795745852015662 	101275.7482294046
-0.711961961961962 	299.9572265648177 	0.8764614855311997 	101274.4426282046
-0.7094594594594597 	299.9571308982868 	0.8762123517545037 	101274.3302030339
-0.7069569569569573 	299.9581072601538 	0.8789836355317417 	101275.4838474002
-0.7044544544544545 	299.9599969492603 	0.8843495608405304 	101277.7164352682
-0.7019519519519523 	299.9625089590969 	0.891533817031079 	101280.6850606226
-0.6994494494494495 	299.9653919198541 	0.8998581812554778 	101284.0921510708
-0.6969469469469471 	299.9685686976036 	0.9091072582517259 	101287.8466438032
-0.6944444444444446 	299.9721577821086 	0.9195861209589397 	101292.0885595356
-0.6919419419419421 	299.9763712367861 	0.9318488342984177 	101297.0684679381
-0.6894394394394396 	299.9813537934036 	0.9462676660347603 	101302.957767412
-0.6869369369369374 	299.9870568610731 	0.9626916779594321 	101309.698902196
-0.6844344344344344 	299.9932131682197 	0.9803794333712905 	101316.9761972324
-0.6819319319319321 	299.9994244147789 	0.9982328945142382 	101324.3189543108
-0.6794294294294296 	300.005310603258 	1.01520046956469 	101331.277686191
-0.6769269269269272 	300.0106436793432 	1.030644407103188 	101337.5829243972
-0.6744244244244245 	300.0154083401596 	1.044507367090285 	101343.2163264255
-0.6719219219219222 	300.0197672534256 	1.057221140156594 	101348.3701311882
-0.6694194194194195 	300.0239545298506 	1.069417089952905 	101353.3212964927
-0.6669169169169172 	300.0281482910943 	1.081574824293309 	101358.2801357621
-0.6644144144144146 	300.0323730286229 	1.093753951198295 	101363.2758629315
-0.661911911911912 	300.0364676317337 	1.105500646857315 	101368.1179350996
-0.6594094094094097 	300.0401205203572 	1.115942241990322 	101372.4377454124
-0.656906906906907 	300.0429523100609 	1.124016459499589 	101375.7868067479
-0.6544044044044046 	300.0446159334955 	1.128748401367108 	101377.7542744746
-0.6519019019019021 	300.0448819468031 	1.129488832878044 	101378.0679416867
-0.6493993993993996 	300.0436839273227 	1.126055763844511 	101376.6511472633
-0.6468968968968971 	300.0411343147218 	1.118764999343338 	101373.6370087029
-0.6443943943943946 	300.0374951474722 	1.10834867312131 	101369.3337831743
-0.6418918918918921 	300.0331146690092 	1.095793755258123 	101364.1537358254
-0.6393893893893897 	300.0283667612807 	1.082164164929487 	101358.5393706289
-0.6368868868868871 	300.0235967002141 	1.068446324979054 	101352.8990064045
-0.6343843843843846 	300.0190831736898 	1.055441337695144 	101347.5621674861
-0.6318818818818821 	300.0150208185623 	1.043712946884293 	101342.7589535423
-0.6293793793793795 	300.0115197184714 	1.033584072492618 	101338.6194692904
-0.6268768768768773 	300.0086165255249 	1.025167119266079 	101335.1869932157
-0.6243743743743745 	300.0062918979804 	1.018412674530975 	101332.4385274203
-0.6218718718718721 	300.0044892553107 	1.013163355360779 	101330.3072664202
-0.6193693693693696 	300.0031322758386 	1.009203270342937 	101328.7030688633
-0.6168668668668671 	300.0021389251403 	1.006297677537693 	101327.5287203411
-0.6143643643643645 	300.001430545525 	1.004220822763484 	101326.6912449785
-0.6118618618618621 	300.0009377154429 	1.002772598382925 	101326.1086021542
-0.6093593593593596 	300.000602809355 	1.001786176923331 	101325.7126637881
-0.6068568568568571 	300.0003802644549 	1.001129186002047 	101325.4495631772
-0.6043543543543546 	300.0002355201335 	1.000700887804359 	101325.2784411739
-0.6018518518518521 	300.0001432947795 	1.000427362187205 	101325.1694089322
-0.5993493493493496 	300.0000856844232 	1.000256104090204 	101325.101299741
-0.5968468468468471 	300.0000503777443 	1.000150905538979 	101325.0595587648
-0.5943443443443446 	300.0000291356678 	1.000087467283739 	101325.0344454993
-0.591841841841842 	300.0000165818372 	1.00004988964494 	101325.0196038653
-0.5893393393393397 	300.0000092902059 	1.000028013151976 	101325.0109833859
-0.5868368368368371 	300.0000051257742 	1.000015490088407 	101325.0060599643
-0.5843343343343346 	300.0000027860171 	1.000008437861655 	101325.0032937384
-0.5818318318318321 	300.0000014922235 	1.000004529331567 	101325.0017641358
-0.5793293293293297 	300.0000007877982 	1.00000239658417 	101325.000931388
-0.5768268268268271 	300.0000004100986 	1.000001250359526 	101325.0004848536
-0.5743243243243245 	300.0000002105701 	1.000000643398325 	101325.0002489376
-0.5718218218218221 	300.0000001066531 	1.000000326619509 	101325.0001260907
-0.5693193193193196 	300.0000000533339 	1.000000163618876 	101325.0000630219
-0.5668168168168171 	300.0000000263123 	1.000000080902644 	101325.0000310891
-0.5643143143143147 	300.0000000127608 	1.000000039494619 	101325.0000151399
-0.5618118118118121 	300.0000000061472 	1.000000019046368 	101325.0000072791
-0.5593093093093094 	300.0000000029396 	1.000000009068228 	101325.0000034553
-0.5568068068068072 	300.0000000013823 	1.000000004267506 	101325.0000016189
-0.5543043043043046 	300.0000000006436 	1.000000001988076 	101325.0000007473
-0.551801801801802 	300.0000000002454 	1.000000000916963 	101325.0000003389
-0.5492992992992995 	300.000000000108 	1.000000000419603 	101325.0000001496
-0.5467967967967969 	300.0000000000636 	1.000000000192246 	101325.0000000634
-0.5442942942942947 	300.0000000000389 	1.000000000089567 	101325.0000000243
-0.5417917917917919 	299.9999999999688 	1.000000000043029 	101325.0000000063
-0.5392892892892895 	299.9999999999501 	1.000000000021797 	101324.999999998
-0.536786786786787 	299.9999999999512 	1.000000000012727 	101324.9999999945
-0.5342842842842846 	299.99999999995 	1.000000000008333 	101324.9999999937
-0.531781781781782 	299.9999999999194 	1.000000000005334 	101324.9999999933
-0.5292792792792794 	299.9999999999203 	1.000000000003031 	101324.9999999927
-0.526776776776777 	299.9999999999316 	1.000000000002144 	101324.9999999923
-0.5242742742742745 	299.9999999999528 	1.000000000001984 	101324.9999999926
-0.521771771771772 	299.9999999999867 	1.000000000013891 	101324.9999999928
-0.5192692692692695 	299.999999999979 	1.000000000000772 	101324.9999999928
-0.516766766766767 	299.9999999999943 	1.000000000005954 	101324.999999993
-0.5142642642642645 	299.999999999955 	1.000000000002521 	101324.9999999925
-0.511761761761762 	299.9999999999645 	1.000000000006767 	101324.9999999924
-0.5092592592592596 	299.9999999999981 	1.000000000000776 	101324.9999999923
-0.506756756756757 	299.9999999999749 	1.000000000000241 	101324.9999999926
-0.5042542542542544 	299.9999999999999 	1.00000000000217 	101324.9999999927
-0.5017517517517521 	300.0000000000246 	1.000000000003407 	101324.9999999925
-0.4992492492492494 	300.0000000000248 	1.000000000004579 	101324.9999999925
-0.496746746746747 	300.0000000000069 	1.000000000005487 	101324.9999999928
-0.4942442442442445 	299.9999999999534 	1.000000000004471 	101324.9999999924
-0.4917417417417421 	299.9999999999407 	1.000000000003638 	101324.9999999923
-0.4892392392392395 	299.99999999994 	1.00000000000353 	101324.9999999918
-0.486736736736737 	299.9999999999541 	1.000000000003747 	101324.9999999922
-0.4842342342342345 	299.9999999999479 	1.000000000002824 	101324.9999999921
-0.481731731731732 	300.0000000000109 	1.000000000001751 	101324.9999999923
-0.4792292292292296 	300.0000000000261 	1.00000000000026 	101324.9999999925
-0.4767267267267268 	299.9999999999707 	1.000000000010761 	101324.9999999925
-0.4742242242242246 	299.9999999999753 	0.9999999999975011 	101324.9999999927
-0.471721721721722 	299.9999999999444 	0.9999999999987216 	101324.9999999921
-0.4692192192192195 	299.9999999999502 	1.000000000002978 	101324.9999999922
-0.4667167167167169 	299.9999999999307 	1.000000000003229 	101324.999999992
-0.4642142142142145 	299.9999999999936 	1.000000000002998 	101324.9999999922
-0.461711711711712 	300.0000000000103 	1.000000000002447 	101324.9999999921
-0.4592092092092094 	300.0000000000002 	1.000000000002207 	101324.9999999916
-0.456706706706707 	300.0000000000292 	1.00000000000309 	101324.9999999914
-0.4542042042042045 	299.9999999999732 	1.000000000004003 	101324.9999999912
-0.451701701701702 	299.9999999999649 	1.000000000003923 	101324.9999999914
-0.4491991991991995 	299.9999999999523 	1.000000000002459 	101324.9999999915
-0.4466966966966969 	299.9999999999448 	1.000000000001859 	101324.9999999914
-0.4441941941941945 	299.9999999999658 	1.000000000002329 	101324.9999999914
-0.441691691691692 	299.9999999999396 	1.000000000002568 	101324.9999999912
-0.4391891891891895 	299.9999999999634 	1.000000000000955 	101324.9999999913
-0.436686686686687 	299.9999999999598 	1.000000000011335 	101324.9999999917
-0.4341841841841846 	299.9999999999697 	0.9999999999970728 	101324.9999999916
-0.431681681681682 	299.9999999999617 	0.9999999999991163 	101324.9999999915
-0.4291791791791794 	299.999999999951 	1.000000000004546 	101324.999999992
-0.426676676676677 	299.9999999999281 	1.000000000004745 	101324.9999999919
-0.4241741741741744 	299.9999999999475 	1.000000000004071 	101324.9999999918
-0.421671671671672 	299.9999999999986 	1.000000000003857 	101324.9999999914
-0.4191691691691694 	300.0000000000199 	1.000000000002496 	101324.9999999911
-0.4166666666666669 	300.0000000000293 	1.000000000001661 	101324.9999999913
-0.4141641641641645 	299.9999999999728 	1.00000000000161 	101324.9999999919
-0.411661661661662 	299.9999999999864 	1.000000000002063 	101324.9999999919
-0.4091591591591594 	299.9999999999901 	1.000000000003032 	101324.9999999916
-0.406656656656657 	299.9999999999453 	1.000000000003032 	101324.9999999908
-0.4041541541541545 	299.999999999985 	1.000000000003268 	101324.9999999904
-0.401651651651652 	299.9999999999509 	1.000000000003025 	101324.9999999904
-0.3991491491491494 	299.9999999999816 	1.000000000000876 	101324.9999999908
-0.396646646646647 	299.9999999999664 	1.000000000010682 	101324.9999999906
-0.3941441441441444 	299.9999999999948 	0.9999999999954565 	101324.9999999907
-0.3916416416416419 	299.9999999999651 	0.9999999999969529 	101324.9999999907
-0.3891391391391395 	299.9999999999702 	1.000000000001979 	101324.9999999911
-0.3866366366366368 	299.9999999999834 	1.00000000000289 	101324.9999999915
-0.3841341341341344 	299.9999999999983 	1.000000000002375 	101324.9999999914
-0.381631631631632 	299.9999999999509 	1.000000000002173 	101324.9999999919
-0.3791291291291294 	299.9999999999777 	1.000000000002545 	101324.9999999917
-0.3766266266266269 	299.9999999999916 	1.000000000002914 	101324.9999999915
-0.3741241241241244 	300.0000000000137 	1.00000000000311 	101324.9999999917
-0.371621621621622 	300.0000000000063 	1.00000000000179 	101324.9999999919
-0.3691191191191194 	300.0000000000189 	1.000000000012645 	101324.9999999922
-0.366616616616617 	300.0000000000164 	0.9999999999965203 	101324.9999999916
-0.3641141141141143 	299.9999999999634 	0.9999999999973294 	101324.9999999916
-0.3616116116116119 	299.9999999999627 	1.000000000002109 	101324.9999999914
-0.3591091091091095 	299.9999999999914 	1.000000000002957 	101324.9999999917
-0.356606606606607 	299.9999999999806 	1.000000000002212 	101324.9999999917
-0.3541041041041044 	299.9999999999955 	1.000000000002686 	101324.999999992
-0.3516016016016019 	300.0000000000147 	1.000000000003384 	101324.9999999925
-0.3490990990990994 	300.0000000000114 	1.000000000003747 	101324.9999999927
-0.346596596596597 	300.0000000000317 	1.000000000009881 	101324.9999999921
-0.3440940940940944 	300.0000000000347 	1.000000000001734 	101324.9999999916
-0.3415915915915919 	300.0000000000226 	1.000000000002308 	101324.9999999914
-0.3390890890890895 	299.9999999999831 	1.000000000005356 	101324.9999999915
-0.3365865865865869 	300.0000000000015 	1.000000000005807 	101324.9999999911
-0.3340840840840844 	299.9999999999944 	1.000000000005617 	101324.9999999912
-0.3315815815815819 	300.0000000000153 	1.000000000005421 	101324.9999999911
-0.3290790790790794 	300.000000000019 	1.000000000004944 	101324.9999999914
-0.3265765765765769 	299.999999999955 	1.000000000004221 	101324.9999999918
-0.3240740740740744 	299.9999999999899 	1.000000000003974 	101324.9999999922
-0.3215715715715718 	299.999999999998 	1.000000000003548 	101324.9999999919
-0.3190690690690695 	299.9999999999523 	1.000000000004563 	101324.9999999917
-0.3165665665665668 	299.9999999999894 	1.000000000005257 	101324.9999999917
-0.3140640640640644 	300.0000000000004 	1.000000000004732 	101324.999999992
-0.311561561561562 	299.9999999999546 	1.00000000000486 	101324.9999999922
-0.3090590590590593 	299.999999999992 	1.000000000003366 	101324.9999999921
-0.3065565565565568 	299.9999999999981 	1.000000000014669 	101324.9999999917
-0.3040540540540545 	299.9999999999957 	0.9999999999983322 	101324.9999999912
-0.3015515515515518 	300.0000000000109 	0.9999999999998341 	101324.9999999908
-0.2990490490490494 	299.9999999999633 	1.000000000004495 	101324.9999999909
-0.2965465465465469 	299.9999999999827 	1.000000000004639 	101324.9999999912
-0.2940440440440444 	300.0000000000051 	1.000000000003974 	101324.9999999909
-0.2915415415415418 	300.0000000000078 	1.000000000003902 	101324.9999999912
-0.2890390390390395 	300.0000000000125 	1.000000000003201 	101324.9999999914
-0.2865365365365368 	299.9999999999867 	1.000000000001942 	101324.9999999918
-0.2840340340340343 	299.999999999992 	1.000000000006849 	101324.9999999921
-0.2815315315315318 	299.9999999999729 	0.9999999999978511 	101324.9999999925
-0.2790290290290295 	299.9999999999556 	0.999999999999754 	101324.9999999924
-0.2765265265265269 	299.9999999999935 	1.000000000004039 	101324.9999999917
-0.2740240240240244 	300.0000000000255 	1.000000000005381 	101324.999999992
-0.2715215215215219 	300.0000000000292 	1.000000000005209 	101324.9999999925
-0.2690190190190194 	299.999999999969 	1.000000000004535 	101324.9999999927
-0.2665165165165169 	299.999999999985 	1.000000000004749 	101324.9999999927
-0.2640140140140144 	299.99999999997 	1.000000000004548 	101324.9999999925
-0.2615115115115119 	299.9999999999914 	1.000000000009068 	101324.9999999924
-0.2590090090090094 	299.9999999999443 	0.9999999999997063 	101324.999999992
-0.2565065065065068 	299.999999999986 	1.000000000001633 	101324.9999999921
-0.2540040040040044 	300.0000000000026 	1.000000000004722 	101324.9999999925
-0.2515015015015019 	300.0000000000305 	1.000000000004991 	101324.9999999922
-0.2489989989989994 	300.0000000000393 	1.000000000004644 	101324.9999999917
-0.2464964964964968 	300.0000000000007 	1.000000000002804 	101324.9999999918
-0.2439939939939944 	299.9999999999945 	1.00000000000746 	101324.9999999921
-0.2414914914914919 	299.9999999999716 	0.9999999999990207 	101324.9999999922
-0.2389889889889893 	299.9999999999827 	1.000000000002132 	101324.9999999923
-0.2364864864864869 	300.0000000000151 	1.000000000005289 	101324.999999992
-0.2339839839839843 	299.9999999999614 	1.000000000011293 	101324.9999999919
-0.2314814814814819 	299.9999999999745 	1.000000000001934 	101324.9999999916
-0.2289789789789792 	299.9999999999375 	1.000000000003315 	101324.9999999917
-0.2264764764764769 	299.999999999942 	1.00000000000456 	101324.9999999918
-0.2239739739739743 	299.99999999996 	1.000000000003769 	101324.999999992
-0.2214714714714718 	299.9999999999396 	1.000000000004066 	101324.9999999924
-0.2189689689689693 	299.9999999999546 	1.000000000004087 	101324.9999999921
-0.2164664664664669 	299.9999999999772 	1.000000000010309 	101324.9999999922
-0.2139639639639643 	299.9999999999417 	1.000000000000923 	101324.9999999916
-0.2114614614614618 	299.9999999999596 	1.000000000002117 	101324.9999999921
-0.2089589589589593 	299.999999999994 	1.000000000004102 	101324.9999999924
-0.2064564564564568 	299.9999999999968 	1.000000000004673 	101324.9999999927
-0.2039539539539543 	299.9999999999332 	1.000000000004073 	101324.9999999927
-0.2014514514514518 	299.9999999999392 	1.000000000002824 	101324.9999999921
-0.1989489489489494 	299.9999999999652 	1.000000000007906 	101324.9999999922
-0.1964464464464468 	299.9999999999961 	0.9999999999987979 	101324.9999999923
-0.1939439439439443 	299.9999999999957 	1.000000000000747 	101324.9999999919
-0.1914414414414418 	299.9999999999481 	1.000000000003055 	101324.9999999921
-0.1889389389389393 	299.999999999981 	1.000000000002721 	101324.9999999925
-0.1864364364364368 	300.0000000000254 	1.000000000002249 	101324.9999999922
-0.1839339339339343 	299.9999999999872 	1.000000000002343 	101324.9999999915
-0.1814314314314318 	299.9999999999876 	1.000000000002373 	101324.9999999916
-0.1789289289289293 	299.9999999999279 	1.000000000002748 	101324.9999999924
-0.1764264264264268 	299.9999999999559 	1.000000000002321 	101324.9999999925
-0.1739239239239243 	299.9999999999214 	1.000000000001516 	101324.9999999927
-0.1714214214214218 	299.9999999999723 	1.00000000000106 	101324.9999999919
-0.1689189189189193 	299.999999999954 	1.00000000000094 	101324.9999999916
-0.1664164164164168 	299.9999999999908 	1.000000000001559 	101324.9999999915
-0.1639139139139143 	300.0000000000009 	1.000000000003007 	101324.999999992
-0.1614114114114118 	300.0000000000195 	1.000000000002799 	101324.9999999921
-0.1589089089089093 	300.0000000000124 	1.000000000015113 	101324.9999999922
-0.1564064064064068 	299.9999999999872 	0.9999999999966959 	101324.9999999921
-0.1539039039039043 	299.9999999999886 	1.000000000005817 	101324.999999992
-0.1514014014014018 	300.0000000000109 	0.9999999999989994 	101324.9999999921
-0.1488988988988993 	299.9999999999936 	1.00000000000575 	101324.9999999916
-0.1463963963963968 	299.9999999999921 	0.9999999999990682 	101324.9999999919
-0.1438938938938943 	299.9999999999619 	1.000000000002251 	101324.9999999923
-0.1413913913913918 	299.9999999999412 	1.000000000004381 	101324.9999999926
-0.1388888888888893 	299.9999999999671 	1.000000000003451 	101324.9999999925
-0.1363863863863868 	299.9999999999317 	1.000000000003541 	101324.9999999922
-0.1338838838838843 	299.9999999999118 	1.000000000004041 	101324.9999999928
-0.1313813813813818 	299.9999999999742 	1.000000000004273 	101324.9999999929
-0.1288788788788793 	299.9999999999549 	1.000000000003569 	101324.9999999927
-0.1263763763763768 	299.9999999999739 	1.000000000003226 	101324.9999999924
-0.1238738738738743 	299.9999999999491 	1.000000000002628 	101324.9999999925
-0.1213713713713717 	299.9999999999727 	1.000000000002377 	101324.9999999921
-0.1188688688688693 	300.0000000000084 	1.000000000001912 	101324.9999999922
-0.1163663663663668 	299.9999999999349 	1.000000000001229 	101324.9999999926
-0.1138638638638643 	299.9999999999745 	1.000000000008147 	101324.999999993
-0.1113613613613618 	299.9999999999868 	0.9999999999993615 	101324.9999999924
-0.1088588588588592 	299.9999999999857 	1.000000000008705 	101324.9999999924
-0.1063563563563568 	299.9999999999718 	1.000000000001249 	101324.9999999919
-0.1038538538538543 	299.9999999999766 	1.000000000001539 	101324.9999999917
-0.1013513513513517 	300.0000000000005 	1.000000000002365 	101324.9999999914
-0.09884884884884926 	299.9999999999782 	1.000000000001898 	101324.9999999917
-0.09634634634634676 	299.9999999999293 	1.000000000002104 	101324.9999999924
-0.09384384384384425 	299.9999999999076 	1.000000000002711 	101324.9999999933
-0.09134134134134177 	299.9999999999945 	1.000000000003709 	101324.9999999933
-0.08883883883883925 	300.0000000000069 	1.000000000004272 	101324.9999999935
-0.08633633633633674 	299.9999999999588 	1.000000000003411 	101324.9999999923
-0.08383383383383426 	299.9999999999912 	1.000000000002953 	101324.9999999919
-0.08133133133133173 	299.9999999999778 	1.000000000002672 	101324.9999999919
-0.07882882882882926 	299.9999999999238 	1.00000000000328 	101324.9999999926
-0.07632632632632676 	299.9999999999532 	1.000000000003813 	101324.9999999929
-0.07382382382382424 	299.9999999999148 	1.00000000000285 	101324.9999999932
-0.07132132132132173 	299.999999999972 	1.000000000002439 	101324.9999999925
-0.06881881881881925 	299.9999999999595 	1.00000000000155 	101324.9999999929
-0.06631631631631671 	299.9999999999151 	1.000000000001294 	101324.9999999928
-0.06381381381381425 	299.9999999999462 	1.00000000000107 	101324.999999992
-0.06131131131131173 	299.9999999999546 	1.000000000000898 	101324.9999999917
-0.05880880880880923 	299.9999999999586 	1.000000000000778 	101324.9999999915
-0.05630630630630672 	299.9999999999529 	1.00000000000144 	101324.9999999916
-0.05380380380380424 	300.0000000000182 	1.00000000000126 	101324.9999999922
-0.05130130130130173 	300.0000000000071 	1.000000000001483 	101324.9999999922
-0.04879879879879922 	299.9999999999282 	1.000000000002079 	101324.9999999927
-0.04629629629629672 	299.99999999993 	1.000000000002777 	101324.9999999929
-0.04379379379379422 	299.9999999999396 	1.000000000002154 	101324.9999999926
-0.04129129129129173 	299.9999999999495 	1.000000000001581 	101324.9999999929
-0.03878878878878922 	299.9999999999992 	1.000000000001789 	101324.9999999925
-0.03628628628628671 	299.9999999999822 	1.000000000001785 	101324.9999999923
-0.03378378378378422 	299.9999999999297 	1.000000000002018 	101324.9999999923
-0.03128128128128172 	299.999999999951 	1.000000000001859 	101324.9999999924
-0.02877877877877922 	299.999999999997 	1.000000000001355 	101324.9999999924
-0.0262762762762767 	299.9999999999244 	1.000000000000499 	101324.9999999928
-0.02377377377377422 	299.9999999999712 	1.000000000000486 	101324.9999999924
-0.0212712712712717 	299.9999999999126 	1.000000000000696 	101324.9999999924
-0.01876876876876921 	299.9999999999659 	1.000000000000933 	101324.9999999928
-0.01626626626626671 	299.9999999999862 	1.000000000000695 	101324.9999999925
-0.0137637637637642 	299.9999999999536 	0.9999999999999548 	101324.9999999922
-0.0112612612612617 	299.9999999999783 	0.99999999999904 	101324.9999999922
-0.008758758758759198 	299.9999999999731 	0.9999999999996273 	101324.999999992
-0.006256256256256697 	299.9999999999396 	1.000000000000189 	101324.9999999918
-0.003753753753754195 	299.9999999999405 	0.9999999999996162 	101324.9999999924
-0.001251251251251693 	299.9999999999417 	0.9999999999978575 	101324.9999999926
0.00125125125125081 	299.9999999999293 	0.9999999999982425 	101324.9999999924
0.003753753753753312 	299.9999999999341 	0.9999999999992569 	101324.9999999925
0.006256256256255817 	299.9999999999259 	0.9999999999986542 	101324.9999999919
0.008758758758758317 	299.9999999999397 	0.9999999999990932 	101324.9999999918
0.01126126126126082 	299.9999999999676 	0.9999999999994084 	101324.9999999919
0.01376376376376332 	299.99999999995 	0.9999999999997713 	101324.9999999924
0.01626626626626582 	299.9999999999813 	0.9999999999997273 	101324.9999999921
0.01876876876876833 	299.9999999999808 	1.000000000000164 	101324.9999999918
0.02127127127127083 	299.9999999999315 	1.000000000000015 	101324.9999999919
0.02377377377377332 	299.9999999999823 	1.000000000000537 	101324.9999999918
0.02627627627627583 	299.9999999999317 	0.9999999999995353 	101324.9999999918
0.02877877877877833 	299.9999999999704 	0.9999999999985258 	101324.9999999924
0.03128128128128083 	299.9999999999702 	0.999999999998081 	101324.9999999927
0.03378378378378333 	299.999999999933 	0.9999999999985355 	101324.9999999926
0.03628628628628584 	299.9999999999502 	0.9999999999988384 	101324.999999992
0.03878878878878834 	299.9999999999913 	0.9999999999993328 	101324.9999999917
0.04129129129129084 	299.99999999995 	0.999999999998971 	101324.9999999919
0.04379379379379333 	299.9999999999505 	0.9999999999989523 	101324.9999999923
0.04629629629629585 	299.9999999999383 	0.9999999999990281 	101324.9999999919
0.04879879879879834 	299.9999999999263 	0.999999999999867 	101324.999999992
0.05130130130130085 	299.9999999999955 	1.000000000000506 	101324.9999999923
0.05380380380380335 	300.0000000000128 	0.9999999999997927 	101324.9999999924
0.05630630630630584 	299.9999999999851 	0.9999999999989356 	101324.9999999923
0.05880880880880836 	299.9999999999494 	0.9999999999987056 	101324.9999999926
0.06131131131131085 	299.9999999999607 	0.9999999999980655 	101324.9999999925
0.06381381381381336 	299.9999999999667 	0.9999999999975357 	101324.9999999922
0.06631631631631586 	299.9999999999282 	0.9999999999959616 	101324.999999992
0.06881881881881835 	299.9999999999505 	0.9999999999960716 	101324.9999999926
0.07132132132132088 	299.9999999999811 	0.9999999999953381 	101324.9999999924
0.07382382382382337 	299.9999999999305 	0.999999999995386 	101324.9999999921
0.07632632632632587 	299.9999999999585 	0.9999999999951854 	101324.9999999917
0.07882882882882837 	299.9999999999524 	0.9999999999955128 	101324.9999999919
0.08133133133133086 	299.9999999999681 	0.9999999999967439 	101324.9999999917
0.08383383383383337 	299.999999999981 	0.9999999999972731 	101324.9999999918
0.08633633633633589 	299.9999999999268 	0.9999999999964139 	101324.999999992
0.08883883883883838 	299.999999999987 	0.9999999999961763 	101324.9999999923
0.09134134134134086 	299.9999999999846 	0.9999999999956064 	101324.9999999917
0.09384384384384339 	299.9999999999249 	0.9999999999959407 	101324.9999999917
0.09634634634634588 	299.9999999999559 	0.9999999999971879 	101324.9999999917
0.09884884884884838 	299.9999999999715 	0.9999999999979501 	101324.9999999915
0.1013513513513509 	300.0000000000199 	0.9999999999976887 	101324.9999999913
0.1038538538538534 	299.9999999999853 	0.9999999999960545 	101324.9999999916
0.1063563563563559 	299.9999999999933 	0.9999999999955808 	101324.9999999916
0.1088588588588584 	300.0000000000169 	0.999999999996383 	101324.9999999916
0.1113613613613609 	299.9999999999731 	0.99999999999661 	101324.9999999918
0.1138638638638634 	299.9999999999405 	0.9999999999966437 	101324.9999999916
0.1163663663663659 	299.9999999999427 	0.9999999999955649 	101324.9999999918
0.1188688688688684 	299.9999999999599 	0.9999999999958012 	101324.9999999925
0.1213713713713709 	299.9999999999936 	0.9999999999963419 	101324.9999999925
0.1238738738738734 	299.999999999945 	0.9999999999960297 	101324.9999999921
0.1263763763763759 	299.9999999999843 	0.9999999999950525 	101324.9999999924
0.1288788788788784 	299.9999999999858 	0.9999999999937899 	101324.9999999921
0.1313813813813809 	299.9999999999814 	0.9999999999933962 	101324.9999999924
0.1338838838838834 	299.9999999999804 	0.9999999999942706 	101324.9999999924
0.1363863863863859 	300.0000000000055 	0.9999999999958944 	101324.9999999916
0.1388888888888884 	300.0000000000239 	0.9999999999961801 	101324.9999999917
0.1413913913913909 	300.0000000000029 	0.9999999999961883 	101324.999999991
0.1438938938938934 	299.9999999999904 	0.9999999999953977 	101324.9999999904
0.1463963963963959 	299.9999999999633 	0.999999999995106 	101324.9999999908
0.1488988988988985 	299.9999999999269 	0.999999999995701 	101324.9999999913
0.1514014014014009 	299.9999999999624 	0.9999999999967994 	101324.9999999916
0.1539039039039035 	299.9999999999608 	0.9999999999974842 	101324.9999999916
0.1564064064064059 	299.9999999999447 	1.000000000002358 	101324.9999999919
0.1589089089089084 	299.9999999999659 	0.9999999999919038 	101324.9999999923
0.1614114114114109 	299.9999999999638 	0.9999999999938409 	101324.9999999926
0.1639139139139134 	299.9999999999348 	0.9999999999959542 	101324.9999999925
0.166416416416416 	299.9999999999662 	0.9999999999951706 	101324.999999992
0.1689189189189185 	300.0000000000243 	0.9999999999948087 	101324.9999999921
0.1714214214214209 	300.0000000000107 	0.9999999999965494 	101324.9999999919
0.1739239239239235 	299.999999999984 	0.9999999999989662 	101324.9999999915
0.1764264264264259 	299.999999999976 	0.999999999998329 	101324.9999999918
0.1789289289289284 	300.0000000000085 	1.00000000000232 	101324.9999999916
0.181431431431431 	299.9999999999902 	0.9999999999916487 	101324.9999999922
0.1839339339339334 	299.9999999999873 	0.9999999999944167 	101324.9999999923
0.186436436436436 	299.9999999999556 	0.9999999999972031 	101324.9999999915
0.1889389389389385 	299.9999999999768 	0.9999999999970511 	101324.9999999911
0.191441441441441 	299.9999999999741 	0.9999999999964418 	101324.9999999913
0.1939439439439434 	299.9999999999511 	0.9999999999959907 	101324.9999999919
0.196446446446446 	299.9999999999461 	1.000000000000202 	101324.9999999923
0.1989489489489485 	299.9999999999693 	0.9999999999904484 	101324.9999999922
0.2014514514514509 	299.9999999999901 	0.999999999994106 	101324.9999999922
0.2039539539539535 	299.9999999999869 	0.9999999999965582 	101324.999999992
0.2064564564564559 	299.9999999999559 	0.9999999999962048 	101324.999999992
0.2089589589589585 	299.9999999999777 	0.999999999996774 	101324.9999999911
0.211461461461461 	299.999999999953 	0.9999999999968691 	101324.9999999915
0.2139639639639635 	299.9999999999766 	0.9999999999978757 	101324.9999999917
0.2164664664664659 	300.0000000000116 	0.9999999999979906 	101324.9999999913
0.2189689689689684 	300.0000000000132 	1.000000000002069 	101324.9999999916
0.221471471471471 	300.0000000000096 	0.9999999999927145 	101324.9999999919
0.2239739739739735 	299.9999999999725 	0.9999999999948751 	101324.9999999919
0.226476476476476 	299.9999999999873 	0.9999999999967272 	101324.9999999924
0.2289789789789785 	299.9999999999978 	0.9999999999960724 	101324.9999999927
0.231481481481481 	299.9999999999886 	0.9999999999963796 	101324.9999999928
0.2339839839839835 	299.9999999999751 	0.999999999996842 	101324.9999999922
0.236486486486486 	300.0000000000076 	0.9999999999968294 	101324.9999999918
0.2389889889889885 	299.9999999999983 	0.9999999999971548 	101324.9999999921
0.241491491491491 	299.9999999999448 	1.000000000002214 	101324.999999992
0.2439939939939935 	299.9999999999771 	0.9999999999924345 	101324.9999999918
0.246496496496496 	299.9999999999923 	0.9999999999944402 	101324.9999999924
0.2489989989989985 	300.0000000000335 	0.9999999999965243 	101324.9999999924
0.251501501501501 	300.0000000000303 	0.9999999999966337 	101324.9999999921
0.2540040040040035 	300.0000000000027 	0.9999999999969178 	101324.9999999917
0.256506506506506 	300.0000000000195 	0.9999999999976221 	101324.9999999913
0.2590090090090086 	299.9999999999451 	1.000000000002756 	101324.9999999912
0.261511511511511 	299.9999999999873 	0.9999999999937969 	101324.9999999916
0.2640140140140135 	299.9999999999827 	0.9999999999967697 	101324.9999999911
0.2665165165165161 	299.9999999999458 	0.9999999999984779 	101324.9999999911
0.2690190190190185 	299.9999999999924 	0.9999999999977305 	101324.9999999913
0.271521521521521 	300.0000000000235 	0.9999999999965324 	101324.999999992
0.2740240240240235 	300.0000000000267 	0.999999999996478 	101324.9999999917
0.276526526526526 	300.0000000000199 	0.9999999999971008 	101324.9999999914
0.2790290290290286 	299.9999999999641 	0.9999999999970512 	101324.9999999917
0.281531531531531 	299.9999999999452 	1.000000000000776 	101324.999999992
0.2840340340340335 	299.9999999999735 	0.999999999992451 	101324.9999999921
0.2865365365365361 	299.9999999999771 	0.9999999999956768 	101324.9999999921
0.2890390390390385 	300.000000000007 	0.9999999999975412 	101324.9999999924
0.291541541541541 	300.0000000000146 	0.9999999999974549 	101324.9999999919
0.2940440440440436 	300.0000000000124 	0.9999999999972954 	101324.999999991
0.296546546546546 	300.0000000000108 	0.9999999999974498 	101324.9999999915
0.2990490490490486 	299.9999999999708 	0.9999999999972592 	101324.999999992
0.3015515515515511 	300.0000000000043 	0.9999999999988443 	101324.9999999916
0.3040540540540535 	300.0000000000001 	1.000000000009216 	101324.9999999917
0.3065565565565562 	300.0000000000041 	0.9999999999917309 	101324.9999999913
0.3090590590590585 	299.9999999999985 	0.9999999999965189 	101324.9999999915
0.3115615615615611 	299.999999999959 	1.000000000000113 	101324.9999999918
0.3140640640640635 	300.0000000000015 	0.9999999999991231 	101324.9999999918
0.316566566566566 	299.9999999999954 	0.9999999999990443 	101324.9999999916
0.3190690690690687 	299.9999999999513 	0.9999999999991278 	101324.999999991
0.3215715715715711 	299.9999999999915 	0.9999999999996793 	101324.9999999906
0.3240740740740735 	299.999999999991 	1.000000000000956 	101324.9999999907
0.326576576576576 	299.9999999999455 	1.000000000000967 	101324.9999999905
0.3290790790790786 	300.0000000000047 	0.9999999999991743 	101324.99999999
0.3315815815815811 	300.0000000000202 	0.9999999999970166 	101324.9999999904
0.3340840840840836 	300.0000000000072 	0.9999999999970743 	101324.9999999908
0.3365865865865861 	300.0000000000293 	0.9999999999976631 	101324.9999999908
0.3390890890890886 	300.0000000000395 	0.9999999999982631 	101324.9999999915
0.3415915915915911 	300.0000000000144 	0.9999999999988213 	101324.9999999919
0.3440940940940935 	299.9999999999516 	1.000000000003593 	101324.999999992
0.3465965965965962 	300.0000000000004 	0.9999999999954806 	101324.9999999916
0.3490990990990985 	300.0000000000099 	0.9999999999976684 	101324.9999999919
0.3516016016016011 	300.0000000000163 	0.9999999999993507 	101324.9999999916
0.3541041041041035 	300.0000000000063 	0.9999999999984965 	101324.9999999918
0.3566066066066061 	299.9999999999458 	0.999999999998098 	101324.9999999915
0.3591091091091085 	299.9999999999552 	0.9999999999990387 	101324.9999999914
0.3616116116116112 	299.999999999971 	0.9999999999995497 	101324.9999999915
0.3641141141141137 	299.9999999999481 	1.000000000000452 	101324.9999999913
0.3666166166166161 	299.9999999999158 	1.000000000007996 	101324.9999999916
0.3691191191191185 	299.9999999999892 	0.9999999999909989 	101324.9999999916
0.371621621621621 	300.0000000000001 	0.9999999999958332 	101324.9999999917
0.3741241241241237 	300.0000000000189 	0.9999999999992206 	101324.9999999914
0.3766266266266261 	300.0000000000099 	0.9999999999982405 	101324.9999999911
0.3791291291291286 	299.9999999999917 	0.9999999999971925 	101324.9999999903
0.3816316316316311 	299.9999999999586 	0.9999999999976253 	101324.9999999899
0.3841341341341336 	299.9999999999855 	0.9999999999976452 	101324.99999999
0.3866366366366362 	299.9999999999819 	0.9999999999970992 	101324.9999999907
0.3891391391391387 	299.9999999999642 	0.9999999999976542 	101324.9999999914
0.391641641641641 	299.9999999999943 	0.9999999999988372 	101324.9999999915
0.3941441441441436 	299.9999999999982 	0.9999999999989105 	101324.999999991
0.3966466466466462 	299.9999999999945 	0.9999999999977148 	101324.9999999911
0.3991491491491486 	299.9999999999766 	0.999999999997902 	101324.9999999913
0.4016516516516512 	299.999999999948 	0.9999999999987207 	101324.999999991
0.4041541541541536 	299.9999999999677 	0.9999999999996468 	101324.9999999909
0.4066566566566561 	299.999999999969 	1.000000000003052 	101324.9999999905
0.4091591591591587 	300.000000000007 	0.9999999999944028 	101324.9999999902
0.4116616616616612 	300.0000000000198 	0.9999999999961919 	101324.9999999907
0.4141641641641635 	300.000000000034 	0.9999999999979264 	101324.9999999908
0.4166666666666662 	300.0000000000163 	0.9999999999985932 	101324.9999999909
0.4191691691691687 	299.9999999999488 	0.9999999999998945 	101324.9999999916
0.421671671671671 	299.999999999987 	1.000000000000629 	101324.999999992
0.4241741741741737 	299.999999999972 	1.000000000000673 	101324.9999999921
0.4266766766766761 	299.9999999999494 	1.000000000001617 	101324.9999999917
0.4291791791791785 	299.9999999999842 	1.000000000008117 	101324.9999999916
0.4316816816816812 	299.9999999999842 	0.9999999999916285 	101324.9999999918
0.4341841841841836 	300.0000000000014 	0.999999999996783 	101324.9999999915
0.4366866866866862 	299.9999999999715 	1.000000000000362 	101324.9999999913
0.4391891891891885 	299.999999999998 	0.9999999999999567 	101324.9999999909
0.4416916916916913 	300.0000000000033 	1.0000000000005 	101324.9999999907
0.4441941941941936 	299.9999999999878 	1.000000000001305 	101324.9999999907
0.4466966966966961 	299.9999999999313 	1.000000000001211 	101324.9999999906
0.4491991991991987 	299.9999999999756 	1.000000000000226 	101324.9999999909
0.4517017017017012 	299.9999999999634 	1.000000000000298 	101324.9999999915
0.4542042042042035 	299.9999999999925 	1.000000000001619 	101324.9999999921
0.4567067067067062 	299.9999999999989 	1.00000000000228 	101324.9999999921
0.4592092092092087 	299.999999999932 	1.000000000002369 	101324.9999999921
0.4617117117117112 	299.9999999999742 	1.000000000002287 	101324.9999999923
0.4642142142142137 	299.9999999999579 	1.000000000001403 	101324.9999999923
0.4667167167167162 	299.9999999999844 	1.000000000000905 	101324.9999999918
0.4692192192192187 	299.999999999956 	1.000000000000526 	101324.9999999914
0.4717217217217212 	299.9999999999992 	1.000000000000541 	101324.9999999913
0.4742242242242236 	299.9999999999696 	1.000000000000583 	101324.9999999916
0.4767267267267262 	299.9999999999583 	1.000000000000905 	101324.999999992
0.4792292292292287 	299.9999999999964 	1.000000000000763 	101324.9999999921
0.4817317317317312 	300.0000000000155 	1.000000000001171 	101324.9999999922
0.4842342342342336 	300.0000000000112 	1.000000000001112 	101324.9999999921
0.4867367367367362 	299.9999999999937 	1.000000000000501 	101324.999999992
0.4892392392392387 	300.0000000000066 	1.00000000000018 	101324.9999999917
0.4917417417417412 	300.0000000000304 	1.000000000000973 	101324.9999999918
0.4942442442442437 	299.9999999999779 	1.000000000002388 	101324.9999999914
0.4967467467467462 	299.9999999999371 	1.00000000000554 	101324.9999999912
0.4992492492492487 	299.9999999999103 	0.9999999999974476 	101324.9999999911
0.5017517517517511 	299.9999999999317 	0.9999999999991105 	101324.9999999912
0.5042542542542537 	299.9999999999801 	1.000000000000212 	101324.9999999912
0.5067567567567562 	299.9999999999714 	0.9999999999991479 	101324.9999999911
0.5092592592592589 	299.9999999999612 	0.9999999999993324 	101324.999999991
0.5117617617617611 	299.9999999999811 	1.000000000000899 	101324.9999999915
0.5142642642642637 	300.0000000000119 	1.00000000000124 	101324.9999999915
0.5167667667667663 	300.0000000000007 	1.000000000002311 	101324.999999991
0.5192692692692688 	299.9999999999417 	1.000000000007184 	101324.9999999914
0.5217717717717714 	299.999999999958 	0.9999999999910909 	101324.9999999912
0.5242742742742736 	299.999999999957 	0.999999999996853 	101324.9999999912
0.5267767767767763 	299.9999999999511 	1.000000000000754 	101324.9999999912
0.5292792792792789 	299.999999999955 	0.9999999999996799 	101324.9999999912
0.5317817817817813 	299.999999999935 	0.9999999999990055 	101324.9999999916
0.5342842842842837 	299.9999999999782 	0.9999999999993485 	101324.9999999919
0.5367867867867864 	299.9999999999813 	0.9999999999991198 	101324.9999999919
0.5392892892892888 	299.9999999999484 	0.9999999999988475 	101324.9999999918
0.5417917917917912 	299.9999999999624 	0.9999999999984257 	101324.9999999913
0.5442942942942938 	299.9999999999565 	0.9999999999986531 	101324.9999999913
0.5467967967967964 	299.9999999999726 	0.9999999999994551 	101324.999999992
0.5492992992992988 	299.9999999999684 	0.9999999999996487 	101324.9999999924
0.5518018018018012 	299.9999999999595 	0.9999999999988904 	101324.9999999923
0.5543043043043039 	299.9999999999903 	0.9999999999984555 	101324.9999999922
0.5568068068068063 	299.9999999999844 	0.9999999999990192 	101324.9999999927
0.5593093093093087 	299.9999999999487 	1.000000000002007 	101324.9999999924
0.5618118118118114 	299.9999999999415 	0.9999999999949881 	101324.9999999923
0.5643143143143137 	299.9999999999288 	0.9999999999977459 	101324.9999999922
0.5668168168168163 	299.9999999999599 	1.000000000000283 	101324.999999992
0.5693193193193188 	300.0000000000005 	1.000000000000512 	101324.9999999916
0.5718218218218213 	300.0000000000257 	1.00000000000054 	101324.9999999914
0.5743243243243239 	300.0000000000258 	1.000000000000466 	101324.9999999915
0.5768268268268262 	300.0000000000123 	1.000000000000031 	101324.9999999913
0.5793293293293288 	299.9999999999745 	1.000000000003064 	101324.9999999913
0.5818318318318314 	299.9999999999561 	1.000000000008382 	101324.9999999917
0.5843343343343338 	299.9999999999974 	0.9999999999932028 	101324.9999999916
0.5868368368368363 	299.9999999999858 	0.9999999999974639 	101324.9999999915
0.5893393393393387 	299.9999999999435 	1.000000000000581 	101324.999999992
0.5918418418418413 	299.9999999999588 	0.9999999999995786 	101324.999999992
0.5943443443443439 	299.9999999999984 	0.999999999999911 	101324.9999999921
0.5968468468468463 	300.0000000000136 	1.000000000001598 	101324.9999999928
0.5993493493493487 	300.0000000000384 	1.000000000002031 	101324.9999999929
0.6018518518518514 	300.0000000000175 	1.000000000001477 	101324.9999999928
0.6043543543543537 	300.0000000000102 	0.9999999999999934 	101324.9999999921
0.6068568568568564 	299.9999999999952 	0.9999999999998531 	101324.9999999919
0.6093593593593587 	299.999999999942 	1.000000000000563 	101324.9999999923
0.6118618618618614 	299.9999999999402 	1.000000000000896 	101324.9999999928
0.6143643643643638 	299.9999999999999 	1.000000000000756 	101324.9999999928
0.6168668668668662 	299.999999999997 	1.000000000001017 	101324.9999999926
0.6193693693693688 	299.999999999978 	1.000000000001887 	101324.9999999918
0.6218718718718714 	299.9999999999895 	1.000000000003139 	101324.9999999922
0.6243743743743737 	299.9999999999761 	0.9999999999958114 	101324.9999999926
0.6268768768768762 	299.9999999999598 	0.9999999999983561 	101324.9999999923
0.629379379379379 	299.9999999999815 	1.000000000000622 	101324.9999999922
0.6318818818818812 	299.9999999999924 	1.000000000001481 	101324.9999999924
0.6343843843843838 	300.0000000000183 	1.00000000000179 	101324.9999999923
0.6368868868868864 	300.0000000000056 	1.000000000001468 	101324.9999999927
0.6393893893893888 	299.9999999999601 	1.000000000000679 	101324.9999999927
0.6418918918918912 	299.9999999999793 	1.000000000002888 	101324.9999999924
0.6443943943943939 	299.9999999999687 	1.000000000007383 	101324.999999992
0.6468968968968963 	299.9999999999732 	0.9999999999937249 	101324.9999999915
0.6493993993993988 	299.9999999999728 	0.9999999999992176 	101324.9999999917
0.6519019019019012 	299.999999999991 	1.000000000002448 	101324.9999999927
0.6544044044044038 	299.9999999999527 	1.000000000001483 	101324.9999999931
0.6569069069069065 	299.9999999999466 	1.000000000001178 	101324.9999999932
0.6594094094094087 	299.9999999999662 	1.000000000001006 	101324.9999999929
0.6619119119119113 	299.9999999999798 	1.000000000000216 	101324.9999999925
0.664414414414414 	299.9999999999947 	1.00000000000003 	101324.999999992
0.6669169169169162 	299.999999999998 	1.00000000000166 	101324.9999999919
0.6694194194194188 	299.9999999999843 	1.000000000003342 	101324.9999999923
0.6719219219219214 	299.999999999955 	1.000000000003964 	101324.9999999923
0.674424424424424 	299.9999999999741 	1.000000000002431 	101324.9999999922
0.6769269269269262 	299.9999999999516 	1.000000000000596 	101324.9999999924
0.679429429429429 	300.0000000000015 	1.000000000000139 	101324.999999992
0.6819319319319311 	300.0000000000168 	1.000000000001301 	101324.999999992
0.6844344344344341 	300.0000000000239 	1.000000000003143 	101324.999999992
0.686936936936936 	300.0000000000238 	0.9999999999975984 	101324.9999999917
0.6894394394394392 	300.0000000000215 	1.000000000001671 	101324.9999999913
0.6919419419419413 	300.0000000000062 	1.000000000004023 	101324.9999999912
0.694444444444444 	299.9999999999607 	1.000000000003179 	101324.9999999914
0.6969469469469463 	299.9999999999312 	1.000000000002841 	101324.9999999917
0.6994494494494489 	299.9999999999393 	1.000000000003182 	101324.9999999921
0.7019519519519515 	299.9999999999645 	1.000000000004479 	101324.9999999922
0.7044544544544538 	299.9999999999534 	1.000000000007301 	101324.9999999923
0.7069569569569564 	299.9999999999933 	1.00000000001033 	101324.9999999924
0.7094594594594589 	299.9999999999774 	0.9999999999967972 	101324.9999999923
0.7119619619619615 	299.9999999999467 	1.000000000002183 	101324.9999999922
0.7144644644644638 	299.9999999999657 	1.00000000000523 	101324.9999999919
0.7169669669669665 	299.9999999999573 	1.000000000004529 	101324.999999992
0.7194694694694688 	300.0000000000091 	1.000000000004148 	101324.9999999922
0.7219719719719715 	300.0000000000097 	1.000000000003753 	101324.9999999923
0.7244744744744737 	300.0000000000002 	1.000000000003392 	101324.9999999922
0.7269769769769764 	300.0000000000063 	1.000000000006467 	101324.999999992
0.7294794794794791 	299.9999999999966 	1.000000000009254 	101324.9999999916
0.7319819819819813 	299.9999999999802 	0.9999999999958191 	101324.9999999914
0.7344844844844839 	299.9999999999315 	1.00000000000079 	101324.9999999914
0.7369869869869864 	299.9999999999435 	1.000000000004139 	101324.9999999914
0.739489489489489 	299.999999999964 	1.000000000003322 	101324.9999999916
0.7419919919919914 	299.9999999999588 	1.000000000002111 	101324.9999999916
0.7444944944944939 	299.9999999999623 	1.000000000003279 	101324.9999999918
0.7469969969969963 	299.9999999999786 	1.000000000005367 	101324.9999999917
0.7494994994994989 	299.9999999999439 	1.000000000003246 	101324.9999999918
0.7520020020020015 	299.999999999952 	1.000000000009614 	101324.9999999919
0.7545045045045039 	299.9999999999584 	0.9999999999975429 	101324.999999992
0.7570070070070062 	299.9999999999557 	1.000000000000978 	101324.999999992
0.7595095095095092 	299.9999999999605 	1.000000000004017 	101324.9999999922
0.7620120120120112 	299.9999999999844 	1.000000000004324 	101324.9999999918
0.7645145145145138 	299.9999999999829 	1.000000000004066 	101324.9999999911
0.7670170170170165 	299.999999999954 	1.000000000006393 	101324.9999999907
0.7695195195195191 	299.9999999999291 	1.000000000007396 	101324.9999999906
0.7720220220220213 	299.9999999999495 	0.9999999999946465 	101324.9999999913
0.7745245245245239 	299.9999999999412 	1.000000000000728 	101324.9999999919
0.7770270270270263 	299.9999999999385 	1.000000000004433 	101324.9999999917
0.779529529529529 	299.9999999999601 	1.000000000003958 	101324.9999999916
0.7820320320320313 	299.9999999999613 	1.000000000003759 	101324.9999999916
0.784534534534534 	299.9999999999906 	1.00000000000486 	101324.9999999915
0.7870370370370364 	299.999999999984 	1.00000000000471 	101324.9999999915
0.7895395395395389 	299.9999999999735 	1.000000000002695 	101324.9999999913
0.7920420420420413 	299.9999999999862 	1.000000000000581 	101324.9999999912
0.794544544544544 	299.9999999999866 	1.000000000003579 	101324.9999999912
0.7970470470470463 	300.0000000000067 	1.000000000006699 	101324.9999999909
0.799549549549549 	300.0000000000097 	0.9999999999956974 	101324.9999999909
0.8020520520520515 	299.9999999999891 	1.000000000002136 	101324.9999999912
0.8045545545545539 	299.9999999999465 	1.00000000000608 	101324.9999999912
0.8070570570570563 	299.9999999999618 	1.000000000005405 	101324.9999999913
0.8095595595595589 	299.9999999999557 	1.000000000004351 	101324.9999999914
0.8120620620620614 	299.9999999999658 	1.00000000000447 	101324.9999999914
0.8145645645645638 	300.0000000000039 	1.000000000003352 	101324.9999999914
0.8170670670670666 	300.000000000023 	1.000000000005835 	101324.9999999909
0.8195695695695689 	300.0000000000034 	1.000000000008294 	101324.999999991
0.8220720720720714 	299.9999999999558 	0.9999999999970943 	101324.9999999914
0.8245745745745739 	299.9999999999691 	1.000000000002346 	101324.999999992
0.8270770770770765 	299.9999999999736 	1.000000000005659 	101324.9999999918
0.8295795795795788 	299.9999999999715 	1.000000000005092 	101324.9999999916
0.8320820820820815 	300.0000000000047 	1.000000000004282 	101324.9999999914
0.834584584584584 	300.0000000000025 	1.00000000000626 	101324.999999991
0.8370870870870865 	299.9999999999703 	1.000000000007213 	101324.9999999907
0.8395895895895891 	299.9999999999382 	1.000000000000919 	101324.9999999905
0.8420920920920915 	299.9999999999677 	1.000000000003044 	101324.9999999905
0.844594594594594 	299.9999999999649 	1.000000000004182 	101324.9999999908
0.8470970970970964 	299.9999999999594 	1.000000000004001 	101324.9999999908
0.8495995995995991 	299.9999999999971 	1.000000000004192 	101324.9999999907
0.8521021021021015 	299.9999999999908 	1.000000000004919 	101324.9999999909
0.8546046046046039 	299.9999999999715 	1.000000000005021 	101324.9999999909
0.8571071071071066 	299.9999999999912 	1.000000000008504 	101324.9999999907
0.8596096096096089 	299.999999999984 	1.000000000009547 	101324.9999999908
0.8621121121121116 	299.999999999971 	0.9999999999977167 	101324.9999999907
0.8646146146146139 	300.0000000000052 	1.000000000002411 	101324.9999999907
0.8671171171171166 	299.9999999999833 	1.000000000004086 	101324.9999999904
0.8696196196196189 	299.9999999999459 	1.000000000002902 	101324.9999999905
0.8721221221221216 	299.9999999999721 	1.000000000003073 	101324.999999991
0.874624624624624 	300.0000000000026 	1.000000000004612 	101324.9999999913
0.8771271271271264 	300 	1.000000000005659 	101324.9999999912
0.879629629629629 	299.9999999999952 	1.000000000009172 	101324.9999999912
0.8821321321321317 	299.9999999999854 	1.000000000009299 	101324.9999999915
0.8846346346346339 	299.9999999999528 	0.9999999999971891 	101324.9999999913
0.8871371371371364 	299.9999999999561 	1.000000000001995 	101324.9999999905
0.8896396396396391 	299.9999999999598 	1.000000000005259 	101324.9999999901
0.8921421421421414 	299.9999999999649 	1.000000000005306 	101324.9999999902
0.8946446446446441 	299.9999999999799 	1.000000000005265 	101324.9999999903
0.8971471471471464 	299.9999999999936 	1.000000000007376 	101324.9999999905
0.8996496496496489 	299.9999999999918 	1.000000000007239 	101324.9999999907
0.9021521521521517 	299.9999999999882 	1.000000000001067 	101324.9999999909
0.9046546546546541 	299.9999999999961 	1.000000000003564 	101324.9999999909
0.9071571571571564 	299.9999999999708 	1.000000000004637 	101324.9999999908
0.9096596596596589 	299.9999999999551 	1.000000000003377 	101324.9999999906
0.9121621621621616 	299.9999999999879 	1.000000000002546 	101324.9999999907
0.9146646646646639 	299.9999999999755 	1.000000000002981 	101324.9999999903
0.9171671671671666 	299.9999999999537 	1.000000000002893 	101324.99999999
0.9196696696696689 	299.9999999999784 	1.000000000006757 	101324.9999999899
0.9221721721721714 	299.999999999979 	1.000000000007329 	101324.99999999
0.9246746746746741 	299.9999999999463 	0.9999999999963656 	101324.9999999903
0.9271771771771765 	299.9999999999608 	1.000000000002368 	101324.9999999903
0.9296796796796791 	299.9999999999799 	1.000000000006013 	101324.9999999905
0.9321821821821816 	299.9999999999716 	1.000000000005344 	101324.9999999908
0.9346846846846838 	299.9999999999633 	1.000000000004472 	101324.9999999909
0.9371871871871866 	299.9999999999993 	1.000000000004281 	101324.9999999912
0.9396896896896891 	300.0000000000067 	1.000000000004373 	101324.9999999915
0.9421921921921914 	299.9999999999984 	1.000000000008896 	101324.9999999911
0.9446946946946939 	299.9999999999856 	1.000000000009174 	101324.9999999907
0.9471971971971965 	299.9999999999633 	0.999999999998573 	101324.9999999905
0.9496996996996991 	299.999999999956 	1.000000000004426 	101324.9999999905
0.9522022022022016 	299.9999999999776 	1.000000000006777 	101324.9999999907
0.9547047047047038 	299.9999999999948 	1.000000000005456 	101324.9999999904
0.9572072072072064 	299.9999999999874 	1.000000000004529 	101324.9999999895
0.9597097097097093 	299.9999999999702 	1.000000000006074 	101324.9999999893
0.9622122122122114 	299.9999999999616 	1.000000000005484 	101324.9999999898
0.964714714714714 	299.9999999999541 	1.000000000000344 	101324.9999999905
0.9672172172172167 	299.9999999999463 	1.000000000003663 	101324.999999991
0.969719719719719 	299.999999999969 	1.0000000000053 	101324.9999999909
0.9722222222222214 	299.9999999999751 	1.000000000004766 	101324.9999999905
0.9747247247247239 	299.9999999999728 	1.000000000003599 	101324.99999999
0.9772272272272267 	299.9999999999931 	1.000000000002811 	101324.9999999897
0.9797297297297292 	299.9999999999846 	1.000000000002301 	101324.9999999901
0.9822322322322313 	299.9999999999798 	1.000000000007119 	101324.9999999904
0.9847347347347344 	299.9999999999764 	1.000000000007336 	101324.9999999904
0.9872372372372363 	299.9999999999461 	0.9999999999974456 	101324.9999999904
0.9897397397397389 	299.9999999999463 	1.000000000002683 	101324.9999999906
0.9922422422422417 	299.9999999999447 	1.000000000004592 	101324.9999999904
0.9947447447447441 	299.9999999999667 	1.000000000003027 	101324.99999999
0.9972472472472468 	299.9999999999764 	1.000000000001904 	101324.9999999901
0.999749749749749 	299.9999999999716 	1.000000000001303 	101324.9999999902
1.002252252252252 	299.9999999999746 	1.000000000001347 	101324.9999999898
1.004754754754754 	299.9999999999918 	1.000000000006488 	101324.9999999896
1.007257257257256 	299.9999999999818 	1.000000000005641 	101324.9999999897
1.009759759759759 	299.9999999999698 	0.9999999999950373 	101324.9999999897
1.012262262262261 	299.9999999999699 	1.00000000000033 	101324.9999999898
1.014764764764764 	299.999999999953 	1.000000000003332 	101324.9999999896
1.017267267267267 	299.9999999999401 	1.000000000003316 	101324.9999999895
1.019769769769769 	299.999999999964 	1.000000000003113 	101324.9999999894
1.022272272272272 	299.999999999985 	1.000000000005714 	101324.9999999897
1.024774774774774 	299.9999999999915 	1.000000000005055 	101324.9999999902
1.027277277277277 	299.9999999999876 	1.000000000000177 	101324.9999999903
1.029779779779779 	300.0000000000045 	1.000000000003615 	101324.9999999901
1.032282282282282 	300.0000000000059 	1.00000000000554 	101324.9999999898
1.034784784784784 	300.0000000000016 	1.000000000005298 	101324.9999999892
1.037287287287286 	299.9999999999849 	1.000000000005021 	101324.9999999889
1.039789789789789 	299.9999999999844 	1.000000000005153 	101324.9999999889
1.042292292292291 	300.0000000000118 	1.000000000004815 	101324.9999999889
1.044794794794794 	300.0000000000292 	1.000000000009251 	101324.9999999891
1.047297297297296 	300.0000000000349 	1.000000000008087 	101324.9999999893
1.049799799799799 	300.0000000000094 	0.9999999999983913 	101324.9999999893
1.052302302302302 	299.9999999999854 	1.000000000003061 	101324.9999999891
1.054804804804804 	299.9999999999603 	1.00000000000496 	101324.9999999891
1.057307307307306 	299.9999999999399 	1.000000000004237 	101324.9999999896
1.059809809809809 	299.9999999999603 	1.0000000000044 	101324.99999999
1.062312312312312 	299.999999999967 	1.000000000005461 	101324.9999999902
1.064814814814814 	299.9999999999669 	1.000000000005935 	101324.9999999902
1.067317317317317 	299.9999999999487 	1.000000000011397 	101324.9999999901
1.069819819819819 	299.9999999999374 	1.000000000009953 	101324.9999999899
1.072322322322321 	299.9999999999775 	0.9999999999999852 	101324.9999999898
1.074824824824824 	300.0000000000131 	1.000000000004583 	101324.9999999899
1.077327327327327 	300.0000000000267 	1.000000000006083 	101324.9999999899
1.079829829829829 	300.000000000034 	1.000000000004719 	101324.9999999898
1.082332332332332 	300.0000000000109 	1.000000000003943 	101324.9999999896
1.084834834834834 	299.9999999999824 	1.000000000009059 	101324.9999999894
1.087337337337337 	299.9999999999502 	1.000000000007739 	101324.9999999895
1.089839839839839 	299.9999999999316 	0.9999999999990463 	101324.9999999895
1.092342342342342 	299.9999999999541 	1.000000000003629 	101324.9999999896
1.094844844844844 	299.9999999999609 	1.000000000010791 	101324.9999999897
1.097347347347347 	299.9999999999439 	1.000000000008909 	101324.9999999898
1.099849849849849 	299.9999999999367 	0.9999999999994758 	101324.9999999897
1.102352352352352 	299.9999999999602 	1.000000000004169 	101324.9999999897
1.104854854854854 	299.999999999981 	1.000000000006191 	101324.9999999896
1.107357357357357 	299.9999999999681 	1.000000000005656 	101324.9999999893
1.109859859859859 	299.9999999999555 	1.000000000005131 	101324.9999999895
1.112362362362362 	299.9999999999933 	1.000000000010538 	101324.99999999
1.114864864864865 	300 	1.000000000008332 	101324.9999999901
1.117367367367367 	299.9999999999716 	0.9999999999980352 	101324.9999999897
1.119869869869869 	299.9999999999431 	1.00000000000219 	101324.9999999894
1.122372372372372 	299.9999999999565 	1.000000000004757 	101324.9999999894
1.124874874874874 	299.9999999999619 	1.000000000005087 	101324.9999999893
1.127377377377377 	299.9999999999578 	1.000000000005442 	101324.9999999892
1.129879879879879 	299.9999999999858 	1.000000000005471 	101324.9999999891
1.132382382382382 	300.000000000025 	1.000000000004523 	101324.9999999891
1.134884884884884 	300.0000000000192 	1.000000000010288 	101324.9999999893
1.137387387387387 	300.0000000000117 	1.000000000009306 	101324.9999999894
1.139889889889889 	299.9999999999741 	1.000000000000662 	101324.9999999898
1.142392392392392 	299.9999999999589 	1.000000000004895 	101324.99999999
1.144894894894894 	299.9999999999943 	1.000000000007068 	101324.9999999896
1.147397397397397 	299.9999999999941 	1.000000000007523 	101324.9999999895
1.149899899899899 	299.9999999999635 	1.00000000000766 	101324.9999999896
1.152402402402402 	299.9999999999447 	1.000000000007023 	101324.9999999894
1.154904904904904 	299.9999999999619 	1.000000000005782 	101324.9999999892
1.157407407407407 	299.9999999999654 	1.00000000001051 	101324.9999999891
1.159909909909909 	299.9999999999472 	1.000000000007816 	101324.9999999892
1.162412412412412 	299.9999999999422 	0.9999999999996364 	101324.9999999895
1.164914914914914 	299.9999999999608 	1.000000000004975 	101324.99999999
1.167417417417417 	299.9999999999587 	1.000000000007724 	101324.9999999901
1.169919919919919 	299.9999999999872 	1.000000000007796 	101324.9999999901
1.172422422422422 	300.0000000000219 	1.000000000007389 	101324.9999999898
1.174924924924925 	300.000000000008 	1.000000000012451 	101324.9999999893
1.177427427427427 	299.9999999999789 	1.000000000008935 	101324.9999999893
1.179929929929929 	299.9999999999931 	1.000000000001067 	101324.9999999894
1.182432432432432 	300.0000000000263 	1.00000000000679 	101324.9999999896
1.184934934934934 	300.0000000000093 	1.000000000008454 	101324.9999999896
1.187437437437437 	299.9999999999845 	1.000000000007254 	101324.9999999892
1.189939939939939 	299.9999999999778 	1.000000000007135 	101324.9999999891
1.192442442442442 	299.9999999999534 	1.000000000007488 	101324.9999999891
1.194944944944944 	299.9999999999408 	1.000000000007145 	101324.9999999894
1.197447447447447 	299.9999999999822 	1.000000000013158 	101324.9999999899
1.199949949949949 	300.0000000000122 	1.000000000010418 	101324.9999999902
1.202452452452452 	299.9999999999784 	1.000000000002092 	101324.99999999
1.204954954954955 	299.9999999999592 	1.000000000006475 	101324.9999999894
1.207457457457457 	299.9999999999711 	1.000000000007872 	101324.9999999892
1.20995995995996 	299.9999999999768 	1.0000000000074 	101324.9999999891
1.212462462462462 	299.9999999999872 	1.000000000007349 	101324.9999999892
1.214964964964964 	299.9999999999894 	1.000000000006968 	101324.9999999892
1.217467467467467 	299.9999999999881 	1.000000000006896 	101324.9999999891
1.219969969969969 	299.9999999999643 	1.000000000013377 	101324.9999999891
1.222472472472472 	299.9999999999851 	1.000000000009795 	101324.999999989
1.224974974974975 	300.0000000000214 	1.000000000001282 	101324.9999999886
1.227477477477477 	299.9999999999961 	1.000000000005121 	101324.9999999884
1.229979979979979 	299.9999999999814 	1.000000000006823 	101324.9999999886
1.232482482482482 	299.9999999999628 	1.000000000007115 	101324.9999999886
1.234984984984984 	299.9999999999574 	1.000000000006585 	101324.9999999884
1.237487487487487 	299.9999999999782 	1.000000000012337 	101324.9999999884
1.239989989989989 	299.9999999999899 	1.000000000008716 	101324.9999999886
1.242492492492492 	300.0000000000082 	1.000000000001272 	101324.9999999889
1.244994994994994 	299.9999999999873 	1.000000000006784 	101324.9999999889
1.247497497497497 	299.9999999999899 	1.000000000008791 	101324.9999999889
1.249999999999999 	299.9999999999325 	1.000000000008629 	101324.9999999891
