-1.25 	300.0189018715718 	1 	101277.4471741852
-1.247497497497497 	299.9925364858835 	0.7551423803062145 	101318.5739958081
-1.244994994994995 	299.9704959797008 	0.9517921062670021 	101292.0543710914
-1.242492492492492 	299.9779481800492 	0.9778888655931917 	101298.9660598954
-1.23998998998999 	299.9819755411995 	0.9033199883071026 	101303.8965872374
-1.237487487487487 	299.9842290343199 	0.9768264964302478 	101306.2338322277
-1.234984984984985 	299.9865275493137 	0.9508100564574543 	101309.1907429857
-1.232482482482482 	299.987855651357 	0.9736881968936582 	101310.6178787291
-1.22997997997998 	299.9890062060186 	0.9616718105994242 	101312.0295934935
-1.227477477477477 	299.9906536866866 	0.9768742294041899 	101313.9407648466
-1.224974974974975 	299.99287967858 	0.979819140681542 	101316.5844239328
-1.222472472472472 	299.9956043726459 	0.9869051868917003 	101319.8040251067
-1.21996996996997 	299.998811707103 	0.9967361056019604 	101323.59472829
-1.217467467467467 	300.0025036133105 	1.007441039449923 	101327.959728886
-1.214964964964965 	300.0065305370752 	1.018894864604347 	101332.7205488277
-1.212462462462462 	300.010431872214 	1.029898894294189 	101337.3329956045
-1.20995995995996 	300.0134265563323 	1.038371343207343 	101340.8738500578
-1.207457457457457 	300.0150020773228 	1.04309407708489 	101342.7366738327
-1.204954954954955 	300.0155834971239 	1.045183012280801 	101343.4240257442
-1.202452452452452 	300.016233928206 	1.047376093656558 	101344.1934205111
-1.19994994994995 	300.0177819645102 	1.051908726059382 	101346.0236452764
-1.197447447447447 	300.0203583255155 	1.059148163827234 	101349.0692203741
-1.194944944944945 	300.0233520110859 	1.067393708027978 	101352.6088780464
-1.192442442442442 	300.0256267599863 	1.073601292110556 	101355.2989077237
-1.18993993993994 	300.0261821667706 	1.07513363089756 	101355.954615916
-1.187437437437437 	300.0248258927749 	1.071438692043944 	101354.3506680937
-1.184934934934935 	300.0221863700424 	1.064147690245823 	101351.2309424336
-1.182432432432432 	300.0192155391947 	1.055818274637436 	101347.7186686732
-1.17992992992993 	300.016654171641 	1.048462267528302 	101344.6899940157
-1.177427427427427 	300.0146822943086 	1.042630570498696 	101342.3585437998
-1.174924924924925 	300.0130002750248 	1.037639971496973 	101340.3699946259
-1.172422422422422 	300.0112952024936 	1.03268052357859 	101338.353949496
-1.16991991991992 	300.0094885699988 	1.027420627199292 	101336.2179570727
-1.167417417417417 	300.0074873960946 	1.021495637575203 	101333.8522102128
-1.164914914914915 	300.0049569665183 	1.014040103938308 	101330.8605769525
-1.162412412412412 	300.0015870878619 	1.004334411244523 	101326.8765186131
-1.15990990990991 	299.9975448189269 	0.9928927766185338 	101322.0979678397
-1.157407407407407 	299.9935510550816 	0.9816540822930013 	101317.376762602
-1.154904904904904 	299.9904827732209 	0.9729303528827888 	101313.7493348585
-1.152402402402403 	299.9887638516498 	0.9677901610848809 	101311.7173808491
-1.1498998998999 	299.9879574225071 	0.9650502615446069 	101310.7642486976
-1.147397397397397 	299.986996627071 	0.9619199902272046 	101309.6281602808
-1.144894894894895 	299.9849701275862 	0.9560122089750127 	101307.2328962234
-1.142392392392392 	299.981784126651 	0.9470713702320861 	101303.4673988245
-1.13988988988989 	299.9782134009382 	0.9371649446676351 	101299.2466524312
-1.137387387387387 	299.9754282888989 	0.929427970635155 	101295.9545867941
-1.134884884884885 	299.9743050785039 	0.9262087339231673 	101294.6275361004
-1.132382382382382 	299.9749297862024 	0.9277906700010011 	101295.3661593876
-1.12987987987988 	299.9766985536337 	0.932644645373759 	101297.4560869985
-1.127377377377377 	299.9788888700859 	0.938843164028873 	101300.0446136541
-1.124874874874875 	299.9810888007629 	0.945173464956772 	101302.6448625442
-1.122372372372372 	299.9831619319765 	0.9511490845681714 	101305.0953884862
-1.11986986986987 	299.9850200198744 	0.956490513083187 	101307.2918277864
-1.117367367367367 	299.9865601744483 	0.9609632327180526 	101309.1123118052
-1.114864864864865 	299.987826656622 	0.9647654170486425 	101310.609449388
-1.112362362362362 	299.9891832703123 	0.9689181884138836 	101312.2130074321
-1.10985985985986 	299.9912190031949 	0.9749815181014203 	101314.6192607012
-1.107357357357357 	299.9943629210738 	0.9840558001762871 	101318.335800396
-1.104854854854855 	299.9985122550563 	0.9958266214171887 	101323.2408257314
-1.102352352352353 	300.0029919649205 	1.008460759218558 	101328.5367072831
-1.09984984984985 	300.006881802577 	1.01947971359935 	101333.1357278675
-1.097347347347347 	300.0095213916509 	1.02713181792598 	101336.2564030591
-1.094844844844845 	300.0109365522948 	1.031511357262084 	101337.9295956513
-1.092342342342342 	300.0118746343196 	1.034594900672237 	101339.0388301822
-1.08983983983984 	300.013303748143 	1.038924000059104 	101340.7282176473
-1.087337337337337 	300.0157255429582 	1.045835921142799 	101343.5915943173
-1.084834834834835 	300.0188664809978 	1.054638256827773 	101347.3053586943
-1.082332332332332 	300.0219374241542 	1.063247144071068 	101350.9363620252
-1.07982982982983 	300.0241671016968 	1.069568427829338 	101353.5729778404
-1.077327327327327 	300.0251767095859 	1.072503938739244 	101354.7666263899
-1.074824824824825 	300.0249885455926 	1.072033272617523 	101354.5435773781
-1.072322322322323 	300.0238099098688 	1.068709677948209 	101353.1503379021
-1.06981981981982 	300.0219002105683 	1.06330373392895 	101350.8928375653
-1.067317317317317 	300.0196124943533 	1.056849933243339 	101348.1878751318
-1.064814814814815 	300.0174157820238 	1.050636522200439 	101345.5905141049
-1.062312312312312 	300.0157047720654 	1.045690251694857 	101343.5674633962
-1.05980980980981 	300.0144980463472 	1.042020974721432 	101342.1406636005
-1.057307307307307 	300.0133291109909 	1.038369309838861 	101340.7586027077
-1.054804804804805 	300.0114942955593 	1.032875365753566 	101338.589420603
-1.052302302302302 	300.0085281778352 	1.024337619891985 	101335.0826826123
-1.0497997997998 	300.0045895743149 	1.013218420764683 	101330.42622896
-1.047297297297297 	300.0004589217935 	1.001608741702127 	101325.542930535
-1.044794794794795 	299.9970823833475 	0.9920106865738051 	101321.551092551
-1.042292292292292 	299.9949411634999 	0.9856867546792384 	101319.0197177227
-1.03978978978979 	299.9937100597664 	0.9817837875890203 	101317.5644150045
-1.037287287287287 	299.9924963221624 	0.9779606565339996 	101316.1295906013
-1.034784784784785 	299.990485380665 	0.9720596517588268 	101313.752534319
-1.032282282282283 	299.9874728180737 	0.9634982863733142 	101310.1915643231
-1.02977977977978 	299.9838960872145 	0.9533976435993669 	101305.9635629453
-1.027277277277277 	299.9804566375011 	0.9436449837983596 	101301.8980817705
-1.024774774774775 	299.9777319449005 	0.935861143176857 	101298.6774953057
-1.022272272272272 	299.9760261852281 	0.9309469132590606 	101296.661148253
-1.01976976976977 	299.9754160318545 	0.9291633999717273 	101295.9402706371
-1.017267267267267 	299.9758510121653 	0.9303796172639018 	101296.4547006719
-1.014764764764765 	299.9771962743006 	0.9341800542804382 	101298.0442384644
-1.012262262262262 	299.9791754291386 	0.9397404322665124 	101300.3832180707
-1.00975975975976 	299.9813141623449 	0.9457290429946781 	101302.9111962468
-1.007257257257257 	299.9830594439754 	0.9506678275082734 	101304.9741779325
-1.004754754754755 	299.9841077166224 	0.9537901882851602 	101306.2133772473
-1.002252252252252 	299.9846944657617 	0.9557590213914717 	101306.9068872693
-0.9997497497497498 	299.9855372420243 	0.9584935678836721 	101307.9033077862
-0.9972472472472473 	299.987408406468 	0.9640333751551199 	101310.1149992494
-0.9947447447447449 	299.9906146964802 	0.9731761991690189 	101313.9047551311
-0.9922422422422421 	299.9947620599428 	0.9848698112220226 	101318.8074134975
-0.9897397397397399 	299.9989928462446 	0.9968332968694082 	101323.8089189198
-0.9872372372372376 	300.0025239929607 	1.006962689798636 	101327.9835200865
-0.9847347347347346 	300.0050824274832 	1.014479903173215 	101331.0082604621
-0.9822322322322323 	300.0069435069946 	1.02006795958559 	101333.2085805286
-0.9797297297297296 	300.0086331688348 	1.025126320819721 	101335.2061921289
-0.9772272272272275 	300.0105976898324 	1.030895091557628 	101337.5287476409
-0.9747247247247248 	300.0130529579818 	1.037999392810128 	101340.4316421446
-0.9722222222222224 	300.0159747255837 	1.046372108635737 	101343.8861062847
-0.9697197197197196 	300.0191088943768 	1.055283099286725 	101347.5918243413
-0.9672172172172175 	300.0219947407009 	1.063436542650926 	101351.0041443087
-0.9647147147147147 	300.0240753008613 	1.069298593128916 	101353.4643053456
-0.9622122122122124 	300.0249143071305 	1.071692167312828 	101354.4560417769
-0.9597097097097099 	300.0244277190664 	1.070414692658657 	101353.8802744433
-0.9572072072072073 	300.0229833627844 	1.066482352941773 	101352.1730408943
-0.9547047047047047 	300.0212564015646 	1.061709004157146 	101350.1314669646
-0.9522022022022023 	300.0198566137063 	1.057718705450822 	101348.4763590108
-0.9496996996996998 	300.0189544723184 	1.054961366455038 	101347.409676613
-0.9471971971971973 	300.0181664710208 	1.052420307860753 	101346.4779609297
-0.9446946946946947 	300.0168087050987 	1.048293800360647 	101344.8726971273
-0.9421921921921923 	300.0143750267598 	1.041261885253567 	101341.9953213952
-0.93968968968969 	300.0109235987168 	1.031502702492227 	101337.914688611
-0.9371871871871872 	300.0070973443795 	1.020734677579052 	101333.3910042883
-0.9346846846846848 	300.0037394180815 	1.011198406517368 	101329.4209916771
-0.9321821821821823 	300.0013581463801 	1.004249137667705 	101326.6057506154
-0.9296796796796799 	299.9998183799411 	0.9995480507379058 	101324.7854320644
-0.9271771771771771 	299.9984824111738 	0.9954251731896617 	101323.2060423298
-0.9246746746746748 	299.996676960457 	0.9900854484875758 	101321.0717884043
-0.9221721721721724 	299.9941037617172 	0.98268624973888 	101318.0299531758
-0.9196696696696698 	299.9909022843441 	0.9735401294548054 	101314.2454455191
-0.9171671671671672 	299.987415514817 	0.9635493275579147 	101310.1238112228
-0.9146646646646649 	299.9839504301792 	0.95359290541951 	101306.0278752891
-0.9121621621621623 	299.9807445881827 	0.9444055940101229 	101302.2384609816
-0.9096596596596597 	299.9780791518916 	0.9368223115289216 	101299.0879012967
-0.9071571571571573 	299.9763258625044 	0.9318681810371536 	101297.0154700757
-0.9046546546546547 	299.9758084070087 	0.9303916016739838 	101296.404274962
-0.9021521521521524 	299.9765674428951 	0.932454410297354 	101297.3015993902
-0.8996496496496498 	299.9782240932789 	0.9370006954067084 	101299.2591241563
-0.8971471471471473 	299.980098317477 	0.9421907557938753 	101301.474134041
-0.894644644644645 	299.9815496445094 	0.9462985397932937 	101303.1896941748
-0.892142142142142 	299.9823196387454 	0.9486239661354645 	101304.0998618205
-0.8896396396396397 	299.9826622822142 	0.9498443900566612 	101304.5049027012
-0.8871371371371374 	299.9831869648551 	0.9515991272574924 	101305.1254078824
-0.8846346346346349 	299.9845190474826 	0.9555756701093455 	101306.6997832461
-0.8821321321321324 	299.9869701496216 	0.9626216011043722 	101309.5967556421
-0.8796296296296297 	299.9903895676288 	0.9723330459001839 	101313.6386998712
-0.8771271271271271 	299.9942512557578 	0.9832828285577049 	101318.2036206945
-0.8746246246246248 	299.9979146937591 	0.9937266869477842 	101322.5344428026
-0.8721221221221224 	300.0009244070388 	1.002417682383846 	101326.092557724
-0.8696196196196196 	300.0032056710496 	1.009143260670382 	101328.7895045477
-0.8671171171171175 	300.0050736503146 	1.014750541043067 	101330.9979615123
-0.8646146146146148 	300.0070540998894 	1.020655329916562 	101333.3392575151
-0.8621121121121121 	300.0095944237268 	1.028055670991097 	101336.3425833288
-0.8596096096096097 	300.012800333783 	1.037219490595321 	101340.13290149
-0.857107107107107 	300.0163371956132 	1.047231786637612 	101344.3146739759
-0.8546046046046049 	300.0195784395509 	1.056401396888939 	101348.1471164
-0.8521021021021022 	300.0219372534355 	1.063147440239477 	101350.9362655347
-0.8495995995995997 	300.0231826015817 	1.066835262108707 	101352.4088724183
-0.8470970970970974 	300.023528463348 	1.068008285148095 	101352.8178100681
-0.8445945945945946 	300.0234304667517 	1.067857026569332 	101352.7019358365
-0.8420920920920922 	300.0232431261154 	1.067321470051551 	101352.4805588735
-0.8395895895895897 	300.0229885663372 	1.066475372201495 	101352.1795105979
-0.8370870870870872 	300.0223822097556 	1.064582596236294 	101351.4624177315
-0.8345845845845846 	300.0210663991648 	1.06070734678893 	101349.9068011519
-0.8320820820820823 	300.0188760589438 	1.054420149716108 	101347.3171174704
-0.8295795795795798 	300.0159716407553 	1.046167090897316 	101343.8830858765
-0.8270770770770772 	300.0127897841611 	1.037144696810694 	101340.1210688641
-0.8245745745745746 	300.0098587180062 	1.028800240161585 	101336.6555945724
-0.8220720720720721 	300.007573173482 	1.022212975281909 	101333.9534092566
-0.8195695695695699 	300.0060207070874 	1.017616121736086 	101332.117914625
-0.817067067067067 	300.0049293185118 	1.014259818257257 	101330.8276216555
-0.8145645645645651 	300.0037720682226 	1.010701224722079 	101329.4595342792
-0.8120620620620621 	300.0019938586103 	1.005424466609346 	101327.3573535318
-0.8095595595595597 	299.9992602528701 	0.9975179984745424 	101324.1257940929
-0.8070570570570572 	299.9956099154701 	0.9870866555303304 	101319.8105266554
-0.8045545545545546 	299.9914339829265 	0.9751978382930903 	101314.8740538116
-0.8020520520520523 	299.987299375707 	0.9634083503847434 	101309.9865685824
-0.7995495495495494 	299.9837188181828 	0.9531430780011283 	101305.7540872612
-0.7970470470470474 	299.9809869804965 	0.9452435043009465 	101302.524925017
-0.7945445445445446 	299.9791462893547 	0.9398632230353881 	101300.3491752494
-0.7920420420420423 	299.978068863898 	0.9366797873902917 	101299.0755853931
-0.7895395395395397 	299.9775855362422 	0.9352396772407812 	101298.5043341826
-0.7870370370370371 	299.977583702997 	0.9352248936698737 	101298.5023848336
-0.7845345345345348 	299.9780300043643 	0.9365192120935413 	101299.02980958
-0.7820320320320323 	299.9789221105066 	0.9390909098331197 	101300.0840217436
-0.7795295295295296 	299.9802218457934 	0.9428162317615147 	101301.6201818573
-0.7770270270270272 	299.9818187266216 	0.9473823147399938 	101303.5077117585
-0.7745245245245247 	299.9835494294941 	0.9523405316869713 	101305.5534172233
-0.7720220220220222 	299.9852640072439 	0.957284430628889 	101307.5801176261
-0.7695195195195199 	299.9869003025381 	0.962048158857934 	101309.5143343348
-0.767017017017017 	299.9885216544357 	0.9668067856378698 	101311.4308464867
-0.7645145145145147 	299.9902941407959 	0.9720142887660563 	101313.5260745879
-0.7620120120120122 	299.9924128208678 	0.9782019318147559 	101316.0305313082
-0.7595095095095097 	299.9950107517284 	0.9857309329611146 	101319.1015603943
-0.7570070070070072 	299.9980938336727 	0.9946144121700506 	101322.7462449861
-0.7545045045045048 	300.0015303088602 	1.004487506145671 	101326.8087571377
-0.7520020020020022 	300.0050966279767 	1.01473215075405 	101331.0249675107
-0.7494994994994997 	300.0085566316942 	1.024691539242796 	101335.1156209195
-0.7469969969969972 	300.0117357292006 	1.033874393353799 	101338.8742528095
-0.7444944944944945 	300.0145603655552 	1.042065249949261 	101342.2139505004
-0.7419919919919924 	300.0170514213301 	1.049307955904432 	101345.159247941
-0.7394894894894897 	300.019279691859 	1.055786300424334 	101347.7939163726
-0.7369869869869872 	300.0213078628731 	1.061664555210661 	101350.1920498979
-0.7344844844844846 	300.0231436286093 	1.066958190828955 	101352.3626737865
-0.7319819819819822 	300.0247213407325 	1.071482483196996 	101354.2282699964
-0.7294794794794797 	300.0259163090834 	1.074889601110359 	101355.6412842565
-0.7269769769769773 	300.0265817277879 	1.076770750180717 	101356.4281109843
-0.7244744744744747 	300.0265941328968 	1.076780306602944 	101356.4422797012
-0.721971971971972 	300.0258882069139 	1.074740892030598 	101355.6077210836
-0.7194694694694695 	300.0244819795458 	1.070703224066901 	101353.945417027
-0.7169669669669674 	300.0224742722178 	1.064944199865127 	101351.5716185093
-0.7144644644644647 	300.0200230095286 	1.057911331290166 	101348.6732709472
-0.711961961961962 	300.0173171584726 	1.050141257988356 	101345.4739488355
-0.7094594594594597 	300.0145464305045 	1.042174377889134 	101342.1979766455
-0.7069569569569573 	300.0118760617838 	1.034483730784673 	101339.0407229146
-0.7044544544544545 	300.0094312031389 	1.027429851758152 	101336.1501474922
-0.7019519519519523 	300.0072912252584 	1.021243551313334 	101333.6200751952
-0.6994494494494495 	300.0054920910817 	1.016031790610462 	101331.4930073467
-0.6969469469469471 	300.0040340423819 	1.011798930544504 	101329.7692142918
-0.6944444444444446 	300.002891756144 	1.008475309676948 	101328.4187457995
-0.6919419419419421 	300.0020246131332 	1.005946425859606 	101327.393571598
-0.6894394394394396 	300.0013855036833 	1.004078170340233 	101326.6379916838
-0.6869369369369374 	300.0009274036261 	1.002735834981466 	101326.0964093375
-0.6844344344344344 	300.0006076018041 	1.001796470378078 	101325.7183285775
-0.6819319319319321 	300.0003898842128 	1.001155394719157 	101325.4609354362
-0.6794294294294296 	300.0002451770401 	1.000728248850869 	101325.289857606
-0.6769269269269272 	300.0001511810228 	1.000450103488796 	101325.1787321902
-0.6744244244244245 	300.0000914575933 	1.000272934243987 	101325.1081249129
-0.6719219219219222 	300.0000543081343 	1.000162455169931 	101325.0642054288
-0.6694194194194195 	300.0000316693477 	1.000094960607205 	101325.0374409108
-0.6669169169169172 	300.000018144146 	1.00005453573641 	101325.0214508261
-0.6644144144144146 	300.0000102173959 	1.000030784320865 	101325.0120794841
-0.661911911911912 	300.0000056575005 	1.000017086851188 	101325.0066885747
-0.6594094094094097 	300.000003081436 	1.000009329172463 	101325.003643047
-0.656906906906907 	300.0000016515082 	1.000005012209279 	101325.0019525357
-0.6544044044044046 	300.0000008712544 	1.000002650752904 	101325.001030114
-0.6519019019019021 	300.0000004525898 	1.000001380400963 	101325.0005351378
-0.6493993993993996 	300.000000231611 	1.000000708063677 	101325.0002738261
-0.6468968968968971 	300.0000001167819 	1.000000357858049 	101325.0001380516
-0.6443943943943946 	300.0000000580396 	1.000000178240429 	101325.0000685939
-0.6418918918918921 	300.0000000284494 	1.000000087521997 	101325.0000335986
-0.6393893893893897 	300.0000000137584 	1.000000042383582 	101325.0000162276
-0.6368868868868871 	300.0000000065679 	1.00000002024525 	101325.0000077297
-0.6343843843843846 	300.000000003101 	1.000000009541137 	101325.0000036316
-0.6318818818818821 	300.0000000014137 	1.000000004438338 	101325.0000016822
-0.6293793793793795 	300.0000000006459 	1.000000002039192 	101325.0000007672
-0.6268768768768773 	300.0000000002933 	1.000000000925988 	101325.0000003439
-0.6243743743743745 	300.0000000000969 	1.000000000420034 	101325.0000001507
-0.6218718718718721 	300.0000000000322 	1.000000000182908 	101325.0000000634
-0.6193693693693696 	299.9999999999813 	1.000000000079057 	101325.0000000244
-0.6168668668668671 	299.9999999999977 	1.000000000035338 	101325.0000000072
-0.6143643643643645 	300.0000000000093 	1.000000000014783 	101324.9999999998
-0.6118618618618621 	300.0000000000176 	1.000000000005643 	101324.9999999964
-0.6093593593593596 	300.0000000000301 	1.000000000003859 	101324.9999999949
-0.6068568568568571 	299.9999999999873 	1.000000000004144 	101324.9999999943
-0.6043543543543546 	299.9999999999734 	1.000000000003494 	101324.9999999942
-0.6018518518518521 	299.9999999999596 	1.000000000002064 	101324.9999999937
-0.5993493493493496 	299.9999999999736 	1.000000000002031 	101324.9999999932
-0.5968468468468471 	299.9999999999833 	1.000000000001974 	101324.9999999933
-0.5943443443443446 	299.999999999985 	1.000000000002044 	101324.9999999937
-0.591841841841842 	299.9999999999499 	1.000000000002646 	101324.9999999937
-0.5893393393393397 	299.9999999999514 	1.000000000003747 	101324.9999999936
-0.5868368368368371 	299.9999999999811 	1.000000000003066 	101324.9999999935
-0.5843343343343346 	300.0000000000172 	1.00000000001153 	101324.9999999936
-0.5818318318318321 	300.0000000000272 	0.9999999999994743 	101324.9999999938
-0.5793293293293297 	299.999999999982 	0.9999999999982688 	101324.9999999938
-0.5768268268268271 	299.9999999999844 	1.000000000001317 	101324.9999999934
-0.5743243243243245 	299.9999999999973 	1.000000000001895 	101324.9999999934
-0.5718218218218221 	299.999999999997 	1.000000000002272 	101324.9999999935
-0.5693193193193196 	300.0000000000142 	1.000000000003023 	101324.9999999936
-0.5668168168168171 	300.0000000000093 	1.000000000003942 	101324.9999999939
-0.5643143143143147 	299.9999999999559 	1.000000000003869 	101324.9999999939
-0.5618118118118121 	299.9999999999876 	1.000000000007675 	101324.9999999936
-0.5593093093093094 	300.0000000000084 	1.000000000000483 	101324.9999999937
-0.5568068068068072 	300.0000000000052 	1.000000000000508 	101324.9999999939
-0.5543043043043046 	300.0000000000038 	1.000000000004022 	101324.9999999942
-0.551801801801802 	299.9999999999563 	1.000000000004336 	101324.9999999944
-0.5492992992992995 	299.9999999999792 	1.000000000003693 	101324.9999999942
-0.5467967967967969 	300.0000000000023 	1.000000000002616 	101324.9999999936
-0.5442942942942947 	300.0000000000103 	1.00000000000206 	101324.9999999934
-0.5417917917917919 	299.9999999999586 	1.000000000002463 	101324.9999999932
-0.5392892892892895 	299.9999999999512 	1.000000000002312 	101324.9999999935
-0.536786786786787 	299.9999999999539 	1.000000000001615 	101324.9999999934
-0.5342842842842846 	299.9999999999529 	1.0000000000009 	101324.9999999931
-0.531781781781782 	299.9999999999247 	1.000000000001357 	101324.999999993
-0.5292792792792794 	299.9999999999267 	1.000000000002487 	101324.9999999931
-0.526776776776777 	299.9999999999437 	1.000000000002151 	101324.9999999927
-0.5242742742742745 	299.9999999999543 	1.000000000001281 	101324.9999999927
-0.521771771771772 	299.9999999999808 	1.000000000009491 	101324.9999999926
-0.5192692692692695 	299.9999999999767 	0.9999999999952787 	101324.9999999927
-0.516766766766767 	299.9999999999921 	1.000000000000955 	101324.9999999925
-0.5142642642642645 	299.9999999999543 	0.9999999999987493 	101324.9999999927
-0.511761761761762 	299.999999999972 	1.000000000004418 	101324.9999999928
-0.5092592592592596 	299.9999999999997 	0.9999999999996337 	101324.999999993
-0.506756756756757 	299.9999999999737 	1.000000000000341 	101324.9999999932
-0.5042542542542544 	300.0000000000018 	1.000000000001943 	101324.999999993
-0.5017517517517521 	300.0000000000196 	1.000000000002895 	101324.9999999928
-0.4992492492492494 	300.0000000000191 	1.000000000003714 	101324.9999999926
-0.496746746746747 	300.0000000000082 	1.000000000004428 	101324.9999999928
-0.4942442442442445 	299.9999999999569 	1.000000000004059 	101324.9999999932
-0.4917417417417421 	299.9999999999516 	1.000000000003568 	101324.9999999935
-0.4892392392392395 	299.9999999999555 	1.000000000002767 	101324.9999999933
-0.486736736736737 	299.9999999999656 	1.00000000000172 	101324.9999999929
-0.4842342342342345 	299.9999999999578 	1.000000000001674 	101324.9999999927
-0.481731731731732 	300.0000000000127 	1.000000000002477 	101324.999999993
-0.4792292292292296 	300.0000000000267 	1.000000000001643 	101324.9999999928
-0.4767267267267268 	299.9999999999707 	1.000000000010038 	101324.9999999925
-0.4742242242242246 	299.9999999999771 	0.9999999999966223 	101324.9999999922
-0.471721721721722 	299.9999999999492 	0.9999999999974732 	101324.9999999925
-0.4692192192192195 	299.9999999999541 	1.000000000001391 	101324.9999999922
-0.4667167167167169 	299.9999999999393 	1.000000000001361 	101324.9999999917
-0.4642142142142145 	299.999999999996 	1.000000000001132 	101324.9999999922
-0.461711711711712 	300.0000000000097 	1.000000000001032 	101324.9999999926
-0.4592092092092094 	299.9999999999969 	1.000000000000828 	101324.9999999932
-0.456706706706707 	300.0000000000242 	1.000000000001269 	101324.9999999931
-0.4542042042042045 	299.999999999977 	1.000000000001861 	101324.9999999932
-0.451701701701702 	299.9999999999729 	1.000000000002703 	101324.999999993
-0.4491991991991995 	299.9999999999534 	1.000000000003082 	101324.9999999926
-0.4466966966966969 	299.9999999999498 	1.000000000002415 	101324.9999999925
-0.4441941941941945 	299.9999999999677 	1.000000000001122 	101324.9999999929
-0.441691691691692 	299.9999999999488 	1.000000000001036 	101324.9999999929
-0.4391891891891895 	299.9999999999683 	1.00000000000147 	101324.9999999931
-0.436686686686687 	299.9999999999651 	1.000000000011585 	101324.9999999926
-0.4341841841841846 	299.9999999999741 	0.9999999999973874 	101324.9999999927
-0.431681681681682 	299.9999999999612 	0.9999999999985153 	101324.9999999926
-0.4291791791791794 	299.9999999999532 	1.000000000002962 	101324.9999999925
-0.426676676676677 	299.9999999999365 	1.000000000003054 	101324.9999999923
-0.4241741741741744 	299.9999999999596 	1.000000000002477 	101324.9999999924
-0.421671671671672 	300.0000000000024 	1.000000000002589 	101324.9999999928
-0.4191691691691694 	300.0000000000159 	1.000000000002575 	101324.9999999927
-0.4166666666666669 	300.0000000000265 	1.000000000002852 	101324.9999999928
-0.4141641641641645 	299.9999999999747 	1.000000000002485 	101324.9999999932
-0.411661661661662 	299.9999999999868 	1.000000000002374 	101324.9999999931
-0.4091591591591594 	299.999999999989 	1.00000000000246 	101324.9999999933
-0.406656656656657 	299.9999999999513 	1.000000000002166 	101324.9999999937
-0.4041541541541545 	299.9999999999903 	1.000000000002433 	101324.9999999941
-0.401651651651652 	299.999999999959 	1.000000000003251 	101324.9999999938
-0.3991491491491494 	299.9999999999812 	1.000000000002408 	101324.9999999932
-0.396646646646647 	299.999999999973 	1.000000000011034 	101324.9999999927
-0.3941441441441444 	300.0000000000006 	0.999999999995842 	101324.9999999922
-0.3916416416416419 	299.9999999999727 	0.9999999999981166 	101324.999999992
-0.3891391391391395 	299.9999999999749 	1.000000000002903 	101324.9999999918
-0.3866366366366368 	299.9999999999862 	1.000000000001944 	101324.999999992
-0.3841341341341344 	299.9999999999979 	1.000000000000721 	101324.9999999922
-0.381631631631632 	299.9999999999546 	1.00000000000088 	101324.9999999919
-0.3791291291291294 	299.999999999979 	1.000000000001694 	101324.9999999916
-0.3766266266266269 	299.9999999999927 	1.000000000002154 	101324.9999999919
-0.3741241241241244 	300.0000000000148 	1.00000000000271 	101324.9999999922
-0.371621621621622 	300.0000000000036 	1.000000000001966 	101324.9999999925
-0.3691191191191194 	300.0000000000144 	1.00000000001157 	101324.9999999925
-0.366616616616617 	300.0000000000136 	0.9999999999969335 	101324.9999999924
-0.3641141141141143 	299.9999999999646 	1.000000000000158 	101324.9999999921
-0.3616116116116119 	299.9999999999679 	1.000000000004522 	101324.9999999919
-0.3591091091091095 	299.9999999999952 	1.000000000004079 	101324.9999999921
-0.356606606606607 	299.9999999999806 	1.000000000003351 	101324.9999999921
-0.3541041041041044 	299.9999999999974 	1.000000000002502 	101324.9999999923
-0.3516016016016019 	300.0000000000111 	1.00000000000191 	101324.9999999925
-0.3490990990990994 	300.0000000000098 	1.00000000000229 	101324.9999999932
-0.346596596596597 	300.0000000000269 	1.00000000000809 	101324.9999999934
-0.3440940940940944 	300.00000000003 	1.000000000001967 	101324.9999999931
-0.3415915915915919 	300.0000000000212 	1.000000000003834 	101324.9999999928
-0.3390890890890895 	299.9999999999842 	1.000000000005452 	101324.9999999924
-0.3365865865865869 	300.0000000000002 	1.000000000004194 	101324.9999999917
-0.3340840840840844 	299.9999999999931 	1.000000000003352 	101324.9999999912
-0.3315815815815819 	300.0000000000149 	1.00000000000374 	101324.9999999915
-0.3290790790790794 	300.0000000000182 	1.000000000003937 	101324.999999992
-0.3265765765765769 	299.9999999999597 	1.000000000004377 	101324.999999992
-0.3240740740740744 	299.9999999999895 	1.000000000005085 	101324.9999999924
-0.3215715715715718 	299.9999999999989 	1.000000000005612 	101324.9999999921
-0.3190690690690695 	299.9999999999574 	1.000000000005609 	101324.9999999922
-0.3165665665665668 	299.9999999999911 	1.000000000004661 	101324.9999999922
-0.3140640640640644 	299.9999999999987 	1.00000000000335 	101324.999999992
-0.311561561561562 	299.9999999999631 	1.00000000000324 	101324.9999999924
-0.3090590590590593 	299.9999999999937 	1.000000000002714 	101324.9999999926
-0.3065565565565568 	299.9999999999996 	1.000000000012664 	101324.9999999923
-0.3040540540540545 	299.9999999999929 	0.9999999999967135 	101324.9999999923
-0.3015515515515518 	300.0000000000091 	0.9999999999998441 	101324.9999999922
-0.2990490490490494 	299.9999999999658 	1.000000000005423 	101324.9999999929
-0.2965465465465469 	299.9999999999873 	1.00000000000678 	101324.9999999931
-0.2940440440440444 	300.0000000000094 	1.000000000005945 	101324.9999999929
-0.2915415415415418 	300.0000000000119 	1.000000000004455 	101324.9999999925
-0.2890390390390395 	300.0000000000115 	1.000000000003666 	101324.999999992
-0.2865365365365368 	299.9999999999856 	1.000000000003933 	101324.999999992
-0.2840340340340343 	299.9999999999911 	1.000000000009838 	101324.9999999922
-0.2815315315315318 	299.9999999999736 	1.000000000002066 	101324.9999999928
-0.2790290290290295 	299.9999999999575 	1.000000000003443 	101324.9999999928
-0.2765265265265269 	299.9999999999917 	1.000000000005203 	101324.9999999927
-0.2740240240240244 	300.0000000000201 	1.000000000004168 	101324.9999999925
-0.2715215215215219 	300.0000000000227 	1.000000000004006 	101324.9999999921
-0.2690190190190194 	299.9999999999668 	1.000000000004756 	101324.9999999914
-0.2665165165165169 	299.9999999999822 	1.000000000004453 	101324.9999999916
-0.2640140140140144 	299.9999999999729 	1.000000000004188 	101324.9999999924
-0.2615115115115119 	299.9999999999931 	1.000000000010456 	101324.9999999929
-0.2590090090090094 	299.9999999999508 	1.000000000001906 	101324.9999999931
-0.2565065065065068 	299.9999999999869 	1.000000000002546 	101324.9999999931
-0.2540040040040044 	300.0000000000007 	1.000000000005501 	101324.9999999926
-0.2515015015015019 	300.0000000000277 	1.000000000006269 	101324.9999999923
-0.2489989989989994 	300.0000000000316 	1.0000000000051 	101324.9999999927
-0.2464964964964968 	299.9999999999989 	1.000000000004052 	101324.9999999925
-0.2439939939939944 	299.9999999999976 	1.000000000009263 	101324.999999992
-0.2414914914914919 	299.9999999999748 	1.00000000000147 	101324.9999999917
-0.2389889889889893 	299.9999999999829 	1.0000000000041 	101324.999999992
-0.2364864864864869 	300.0000000000115 	1.000000000005688 	101324.9999999916
-0.2339839839839843 	299.9999999999613 	1.000000000010864 	101324.999999992
-0.2314814814814819 	299.9999999999784 	1.000000000002466 	101324.9999999924
-0.2289789789789792 	299.9999999999445 	1.000000000004456 	101324.9999999925
-0.2264764764764769 	299.9999999999487 	1.000000000006978 	101324.9999999924
-0.2239739739739743 	299.999999999964 	1.000000000007091 	101324.9999999925
-0.2214714714714718 	299.9999999999478 	1.000000000006194 	101324.9999999928
-0.2189689689689693 	299.9999999999565 	1.000000000003354 	101324.9999999923
-0.2164664664664669 	299.999999999981 	1.000000000007156 	101324.9999999925
-0.2139639639639643 	299.9999999999498 	0.9999999999990612 	101324.9999999924
-0.2114614614614618 	299.9999999999646 	1.000000000002027 	101324.9999999925
-0.2089589589589593 	299.999999999995 	1.000000000004489 	101324.9999999924
-0.2064564564564568 	299.9999999999972 	1.000000000005138 	101324.9999999929
-0.2039539539539543 	299.9999999999341 	1.000000000005342 	101324.9999999925
-0.2014514514514518 	299.9999999999498 	1.000000000004373 	101324.9999999924
-0.1989489489489494 	299.99999999997 	1.000000000008938 	101324.9999999926
-0.1964464464464468 	299.9999999999968 	1.000000000000346 	101324.9999999932
-0.1939439439439443 	299.9999999999945 	1.000000000002688 	101324.9999999932
-0.1914414414414418 	299.9999999999504 	1.000000000004016 	101324.9999999932
-0.1889389389389393 	299.9999999999874 	1.000000000003364 	101324.9999999934
-0.1864364364364368 	300.0000000000275 	1.000000000003497 	101324.9999999934
-0.1839339339339343 	299.9999999999878 	1.000000000003735 	101324.9999999928
-0.1814314314314318 	299.9999999999916 	1.000000000004079 	101324.999999993
-0.1789289289289293 	299.9999999999326 	1.000000000004426 	101324.9999999934
-0.1764264264264268 	299.9999999999642 	1.000000000004594 	101324.9999999933
-0.1739239239239243 	299.9999999999301 	1.000000000004393 	101324.9999999935
-0.1714214214214218 	299.9999999999763 	1.000000000004078 	101324.9999999928
-0.1689189189189193 	299.9999999999594 	1.000000000003878 	101324.9999999924
-0.1664164164164168 	299.9999999999927 	1.00000000000399 	101324.9999999925
-0.1639139139139143 	299.9999999999978 	1.000000000004179 	101324.9999999929
-0.1614114114114118 	300.0000000000175 	1.000000000002929 	101324.9999999932
-0.1589089089089093 	300.0000000000071 	1.000000000015146 	101324.9999999931
-0.1564064064064068 	299.9999999999866 	0.9999999999986656 	101324.9999999932
-0.1539039039039043 	299.9999999999891 	1.000000000008554 	101324.9999999932
-0.1514014014014018 	300.0000000000124 	1.000000000003225 	101324.9999999931
-0.1488988988988993 	299.9999999999917 	1.000000000009896 	101324.9999999929
-0.1463963963963968 	299.9999999999949 	1.000000000002828 	101324.9999999926
-0.1438938938938943 	299.9999999999656 	1.000000000003754 	101324.9999999935
-0.1413913913913918 	299.99999999995 	1.000000000003978 	101324.9999999937
-0.1388888888888893 	299.9999999999723 	1.000000000002435 	101324.9999999935
-0.1363863863863868 	299.9999999999414 	1.000000000002966 	101324.9999999939
-0.1338838838838843 	299.9999999999212 	1.000000000003549 	101324.9999999938
-0.1313813813813818 	299.9999999999817 	1.00000000000297 	101324.9999999933
-0.1288788788788793 	299.9999999999594 	1.000000000001041 	101324.9999999936
-0.1263763763763768 	299.9999999999776 	1.000000000001033 	101324.9999999934
-0.1238738738738743 	299.999999999953 	1.000000000001602 	101324.9999999933
-0.1213713713713717 	299.9999999999777 	1.000000000002407 	101324.9999999937
-0.1188688688688693 	300.0000000000089 	1.000000000002354 	101324.9999999938
-0.1163663663663668 	299.9999999999385 	1.000000000002483 	101324.9999999939
-0.1138638638638643 	299.999999999976 	1.000000000008859 	101324.9999999942
-0.1113613613613618 	299.9999999999853 	1.000000000000421 	101324.9999999938
-0.1088588588588592 	299.9999999999851 	1.000000000007662 	101324.9999999936
-0.1063563563563568 	299.9999999999745 	0.999999999999434 	101324.9999999931
-0.1038538538538543 	299.9999999999816 	1.000000000000036 	101324.9999999932
-0.1013513513513517 	300.0000000000038 	1.000000000000786 	101324.9999999939
-0.09884884884884926 	299.9999999999776 	1.000000000000815 	101324.999999994
-0.09634634634634676 	299.9999999999388 	1.000000000001343 	101324.9999999937
-0.09384384384384425 	299.9999999999181 	1.000000000001506 	101324.9999999933
-0.09134134134134177 	299.9999999999952 	1.000000000001654 	101324.9999999932
-0.08883883883883925 	300.0000000000067 	1.00000000000199 	101324.9999999932
-0.08633633633633674 	299.9999999999605 	1.000000000001376 	101324.9999999935
-0.08383383383383426 	299.9999999999935 	1.000000000002753 	101324.9999999929
-0.08133133133133173 	299.9999999999841 	1.000000000003059 	101324.9999999927
-0.07882882882882926 	299.9999999999352 	1.000000000002971 	101324.9999999933
-0.07632632632632676 	299.9999999999599 	1.000000000002838 	101324.9999999931
-0.07382382382382424 	299.9999999999285 	1.000000000002392 	101324.9999999928
-0.07132132132132173 	299.9999999999754 	1.000000000001712 	101324.9999999931
-0.06881881881881925 	299.99999999996 	1.000000000000933 	101324.9999999931
-0.06631631631631671 	299.9999999999219 	1.000000000000533 	101324.9999999933
-0.06381381381381425 	299.9999999999549 	1.000000000000612 	101324.9999999933
-0.06131131131131173 	299.9999999999615 	1.000000000001118 	101324.9999999929
-0.05880880880880923 	299.999999999965 	1.000000000001147 	101324.999999993
-0.05630630630630672 	299.9999999999671 	1.00000000000086 	101324.9999999937
-0.05380380380380424 	300.0000000000165 	0.9999999999997606 	101324.9999999936
-0.05130130130130173 	300.0000000000098 	0.9999999999984223 	101324.9999999932
-0.04879879879879922 	299.9999999999346 	0.9999999999989754 	101324.9999999931
-0.04629629629629672 	299.9999999999382 	1.000000000000242 	101324.9999999931
-0.04379379379379422 	299.9999999999482 	1.000000000000835 	101324.9999999927
-0.04129129129129173 	299.9999999999554 	1.000000000001829 	101324.9999999928
-0.03878878878878922 	299.9999999999981 	1.000000000002212 	101324.9999999923
-0.03628628628628671 	299.9999999999802 	1.000000000000561 	101324.9999999923
-0.03378378378378422 	299.9999999999355 	0.9999999999993291 	101324.9999999926
-0.03128128128128172 	299.9999999999539 	0.999999999998797 	101324.9999999927
-0.02877877877877922 	299.9999999999965 	0.9999999999984984 	101324.9999999932
-0.0262762762762767 	299.9999999999307 	0.9999999999977187 	101324.9999999934
-0.02377377377377422 	299.9999999999742 	0.9999999999987597 	101324.9999999931
-0.0212712712712717 	299.9999999999204 	1.000000000000053 	101324.9999999934
-0.01876876876876921 	299.9999999999718 	1.000000000000754 	101324.9999999933
-0.01626626626626671 	299.9999999999905 	1.000000000000608 	101324.9999999934
-0.0137637637637642 	299.9999999999583 	1.000000000000126 	101324.9999999932
-0.0112612612612617 	299.9999999999812 	0.9999999999999233 	101324.9999999934
-0.008758758758759198 	299.9999999999746 	1.000000000000047 	101324.9999999932
-0.006256256256256697 	299.9999999999436 	0.9999999999988102 	101324.9999999928
-0.003753753753754195 	299.9999999999479 	0.9999999999981676 	101324.9999999927
-0.001251251251251693 	299.9999999999495 	0.9999999999979134 	101324.9999999924
0.00125125125125081 	299.9999999999342 	0.9999999999981011 	101324.9999999919
0.003753753753753312 	299.9999999999404 	0.9999999999986875 	101324.9999999924
0.006256256256255817 	299.9999999999351 	0.9999999999989911 	101324.9999999929
0.008758758758758317 	299.9999999999469 	0.999999999998975 	101324.9999999931
0.01126126126126082 	299.9999999999717 	0.9999999999991037 	101324.9999999925
0.01376376376376332 	299.9999999999546 	1.000000000000146 	101324.9999999927
0.01626626626626582 	299.9999999999827 	0.9999999999997564 	101324.9999999927
0.01876876876876833 	299.9999999999845 	0.9999999999990775 	101324.9999999933
0.02127127127127083 	299.9999999999375 	0.9999999999981838 	101324.9999999933
0.02377377377377332 	299.9999999999849 	0.9999999999977141 	101324.9999999931
0.02627627627627583 	299.9999999999395 	0.9999999999972753 	101324.9999999927
0.02877877877877833 	299.9999999999727 	0.9999999999978926 	101324.9999999924
0.03128128128128083 	299.9999999999718 	0.9999999999983074 	101324.9999999921
0.03378378378378333 	299.9999999999391 	0.9999999999979606 	101324.9999999927
0.03628628628628584 	299.9999999999601 	0.9999999999984872 	101324.9999999927
0.03878878878878834 	299.9999999999974 	0.9999999999981909 	101324.999999993
0.04129129129129084 	299.9999999999553 	0.9999999999976665 	101324.9999999927
0.04379379379379333 	299.9999999999562 	0.9999999999981619 	101324.999999993
0.04629629629629585 	299.9999999999451 	0.9999999999988746 	101324.9999999932
0.04879879879879834 	299.9999999999344 	0.9999999999985673 	101324.9999999926
0.05130130130130085 	299.9999999999993 	0.9999999999992475 	101324.9999999931
0.05380380380380335 	300.0000000000152 	0.9999999999992513 	101324.9999999941
0.05630630630630584 	299.9999999999833 	0.999999999998737 	101324.9999999935
0.05880880880880836 	299.9999999999573 	0.9999999999980149 	101324.9999999926
0.06131131131131085 	299.9999999999656 	0.9999999999964206 	101324.9999999922
0.06381381381381336 	299.9999999999732 	0.9999999999947414 	101324.9999999925
0.06631631631631586 	299.9999999999363 	0.9999999999942203 	101324.9999999927
0.06881881881881835 	299.9999999999598 	0.999999999995409 	101324.9999999928
0.07132132132132088 	299.9999999999861 	0.9999999999953163 	101324.9999999935
0.07382382382382337 	299.9999999999375 	0.9999999999961982 	101324.9999999935
0.07632632632632587 	299.9999999999639 	0.9999999999971876 	101324.9999999929
0.07882882882882837 	299.9999999999603 	0.9999999999970014 	101324.9999999924
0.08133133133133086 	299.9999999999705 	0.9999999999963505 	101324.9999999924
0.08383383383383337 	299.9999999999829 	0.9999999999966241 	101324.9999999925
0.08633633633633589 	299.9999999999339 	0.9999999999975799 	101324.9999999927
0.08883883883883838 	299.9999999999878 	0.9999999999985678 	101324.9999999922
0.09134134134134086 	299.9999999999873 	0.9999999999982001 	101324.9999999927
0.09384384384384339 	299.9999999999312 	0.9999999999968932 	101324.9999999933
0.09634634634634588 	299.9999999999628 	0.9999999999958801 	101324.9999999924
0.09884884884884838 	299.9999999999766 	0.9999999999950228 	101324.9999999923
0.1013513513513509 	300.0000000000169 	0.9999999999950656 	101324.9999999922
0.1038538538538534 	299.999999999989 	0.9999999999960056 	101324.9999999925
0.1063563563563559 	299.9999999999887 	0.9999999999974842 	101324.9999999928
0.1088588588588584 	300.0000000000178 	0.9999999999982098 	101324.999999993
0.1113613613613609 	299.9999999999736 	0.9999999999985032 	101324.9999999933
0.1138638638638634 	299.9999999999455 	0.9999999999977736 	101324.9999999934
0.1163663663663659 	299.999999999949 	0.9999999999966014 	101324.9999999928
0.1188688688688684 	299.9999999999652 	0.9999999999964255 	101324.9999999929
0.1213713713713709 	299.9999999999981 	0.9999999999964299 	101324.9999999929
0.1238738738738734 	299.9999999999512 	0.9999999999968616 	101324.9999999929
0.1263763763763759 	299.9999999999858 	0.9999999999977097 	101324.9999999931
0.1288788788788784 	299.9999999999889 	0.9999999999977878 	101324.9999999929
0.1313813813813809 	299.9999999999779 	0.9999999999971558 	101324.9999999934
0.1338838838838834 	299.999999999983 	0.9999999999959123 	101324.9999999935
0.1363863863863859 	300.0000000000048 	0.9999999999967519 	101324.9999999934
0.1388888888888884 	300.0000000000243 	0.9999999999965943 	101324.9999999931
0.1413913913913909 	300.0000000000029 	0.9999999999972768 	101324.9999999935
0.1438938938938934 	299.9999999999906 	0.9999999999969105 	101324.9999999935
0.1463963963963959 	299.9999999999674 	0.9999999999960348 	101324.999999993
0.1488988988988985 	299.9999999999397 	0.9999999999957569 	101324.9999999929
0.1514014014014009 	299.9999999999688 	0.9999999999963211 	101324.9999999927
0.1539039039039035 	299.9999999999666 	0.9999999999968979 	101324.9999999934
0.1564064064064059 	299.9999999999516 	1.000000000002551 	101324.9999999939
0.1589089089089084 	299.9999999999686 	0.9999999999931497 	101324.9999999935
0.1614114114114109 	299.999999999966 	0.9999999999956816 	101324.999999993
0.1639139139139134 	299.9999999999422 	0.9999999999982093 	101324.9999999929
0.166416416416416 	299.9999999999733 	0.9999999999976971 	101324.999999993
0.1689189189189185 	300.0000000000215 	0.999999999996584 	101324.9999999931
0.1714214214214209 	300.0000000000093 	0.9999999999970148 	101324.9999999929
0.1739239239239235 	299.9999999999848 	0.9999999999974623 	101324.9999999922
0.1764264264264259 	299.9999999999804 	0.9999999999969182 	101324.9999999925
0.1789289289289284 	300.0000000000079 	1.000000000001027 	101324.9999999931
0.181431431431431 	299.9999999999905 	0.99999999999195 	101324.9999999937
0.1839339339339334 	299.9999999999868 	0.9999999999948365 	101324.9999999939
0.186436436436436 	299.9999999999609 	0.9999999999960907 	101324.9999999933
0.1889389389389385 	299.999999999979 	0.9999999999949734 	101324.9999999926
0.191441441441441 	299.9999999999769 	0.9999999999947358 	101324.9999999931
0.1939439439439434 	299.9999999999567 	0.9999999999953305 	101324.9999999938
0.196446446446446 	299.9999999999548 	0.9999999999999069 	101324.9999999937
0.1989489489489485 	299.9999999999727 	0.9999999999908368 	101324.9999999939
0.2014514514514509 	299.999999999991 	0.9999999999937327 	101324.9999999935
0.2039539539539535 	299.9999999999881 	0.9999999999960076 	101324.9999999927
0.2064564564564559 	299.9999999999603 	0.9999999999952947 	101324.9999999924
0.2089589589589585 	299.999999999985 	0.9999999999948826 	101324.9999999923
0.211461461461461 	299.9999999999566 	0.9999999999943177 	101324.9999999921
0.2139639639639635 	299.9999999999799 	0.9999999999950071 	101324.999999992
0.2164664664664659 	300.0000000000122 	0.9999999999964769 	101324.999999992
0.2189689689689684 	300.0000000000118 	1.000000000001497 	101324.9999999921
0.221471471471471 	300.000000000005 	0.9999999999931214 	101324.9999999925
0.2239739739739735 	299.9999999999737 	0.9999999999946838 	101324.9999999924
0.226476476476476 	299.9999999999886 	0.9999999999947354 	101324.9999999929
0.2289789789789785 	299.9999999999989 	0.9999999999936704 	101324.9999999932
0.231481481481481 	299.9999999999899 	0.9999999999934179 	101324.9999999932
0.2339839839839835 	299.9999999999766 	0.9999999999952214 	101324.9999999929
0.236486486486486 	300.00000000001 	0.9999999999972571 	101324.9999999928
0.2389889889889885 	299.9999999999975 	0.9999999999988914 	101324.9999999927
0.241491491491491 	299.9999999999495 	1.000000000002573 	101324.9999999924
0.2439939939939935 	299.999999999979 	0.9999999999927786 	101324.9999999923
0.246496496496496 	299.999999999994 	0.9999999999953136 	101324.9999999925
0.2489989989989985 	300.0000000000327 	0.9999999999976577 	101324.9999999924
0.251501501501501 	300.0000000000293 	0.9999999999979442 	101324.9999999919
0.2540040040040035 	300.0000000000018 	0.999999999997949 	101324.9999999919
0.256506506506506 	300.0000000000177 	0.9999999999980638 	101324.9999999921
0.2590090090090086 	299.9999999999497 	1.000000000002218 	101324.9999999921
0.261511511511511 	299.9999999999902 	0.9999999999937377 	101324.9999999927
0.2640140140140135 	299.9999999999856 	0.9999999999946063 	101324.9999999927
0.2665165165165161 	299.9999999999516 	0.9999999999936218 	101324.9999999924
0.2690190190190185 	299.9999999999972 	0.9999999999935727 	101324.999999992
0.271521521521521 	300.0000000000226 	0.9999999999950482 	101324.9999999925
0.2740240240240235 	300.0000000000226 	0.9999999999966659 	101324.9999999921
0.276526526526526 	300.000000000016 	0.9999999999979858 	101324.999999992
0.2790290290290286 	299.9999999999625 	0.9999999999986401 	101324.9999999919
0.281531531531531 	299.9999999999507 	1.000000000002536 	101324.9999999916
0.2840340340340335 	299.9999999999729 	0.9999999999937306 	101324.9999999916
0.2865365365365361 	299.9999999999792 	0.9999999999961027 	101324.999999992
0.2890390390390385 	300.0000000000088 	0.9999999999974108 	101324.9999999922
0.291541541541541 	300.0000000000154 	0.9999999999972704 	101324.9999999927
0.2940440440440436 	300.0000000000132 	0.9999999999977986 	101324.9999999936
0.296546546546546 	300.0000000000093 	0.9999999999986338 	101324.9999999925
0.2990490490490486 	299.9999999999711 	0.9999999999972367 	101324.9999999923
0.3015515515515511 	300.0000000000008 	0.9999999999959819 	101324.9999999926
0.3040540540540535 	299.9999999999974 	1.000000000004426 	101324.9999999925
0.3065565565565562 	300.0000000000041 	0.999999999988478 	101324.9999999925
0.3090590590590585 	299.9999999999984 	0.9999999999938833 	101324.9999999922
0.3115615615615611 	299.999999999958 	0.9999999999962583 	101324.9999999916
0.3140640640640635 	299.9999999999998 	0.9999999999953404 	101324.9999999913
0.316566566566566 	299.9999999999957 	0.9999999999956357 	101324.9999999918
0.3190690690690687 	299.9999999999537 	0.9999999999960196 	101324.9999999921
0.3215715715715711 	299.9999999999922 	0.9999999999966609 	101324.9999999917
0.3240740740740735 	299.999999999991 	0.9999999999976769 	101324.9999999918
0.326576576576576 	299.9999999999515 	0.9999999999982264 	101324.9999999921
0.3290790790790786 	300.00000000001 	0.9999999999980816 	101324.9999999917
0.3315815815815811 	300.0000000000185 	0.9999999999976251 	101324.9999999914
0.3340840840840836 	300.000000000007 	0.9999999999974528 	101324.9999999914
0.3365865865865861 	300.0000000000256 	0.9999999999977555 	101324.9999999911
0.3390890890890886 	300.0000000000321 	0.9999999999986801 	101324.9999999914
0.3415915915915911 	300.0000000000071 	0.9999999999995538 	101324.9999999913
0.3440940940940935 	299.9999999999509 	1.000000000002217 	101324.9999999913
0.3465965965965962 	300.0000000000008 	0.9999999999927719 	101324.9999999917
0.3490990990990985 	300.0000000000085 	0.9999999999957765 	101324.9999999921
0.3516016016016011 	300.0000000000161 	0.9999999999995586 	101324.9999999925
0.3541041041041035 	300.0000000000054 	1.000000000000454 	101324.9999999923
0.3566066066066061 	299.9999999999464 	1.000000000000584 	101324.9999999925
0.3591091091091085 	299.9999999999622 	0.9999999999996816 	101324.9999999925
0.3616116116116112 	299.999999999974 	0.9999999999984099 	101324.9999999928
0.3641141141141137 	299.9999999999528 	0.9999999999989582 	101324.9999999927
0.3666166166166161 	299.9999999999247 	1.000000000005923 	101324.9999999921
0.3691191191191185 	299.9999999999933 	0.9999999999910477 	101324.9999999917
0.371621621621621 	300.0000000000024 	0.9999999999967306 	101324.9999999916
0.3741241241241237 	300.0000000000193 	0.999999999999672 	101324.9999999914
0.3766266266266261 	300.000000000008 	0.999999999998945 	101324.9999999917
0.3791291291291286 	299.9999999999917 	0.9999999999987833 	101324.9999999924
0.3816316316316311 	299.9999999999632 	0.999999999999014 	101324.9999999925
0.3841341341341336 	299.9999999999898 	0.9999999999997164 	101324.9999999924
0.3866366366366362 	299.9999999999851 	1.000000000000762 	101324.9999999921
0.3891391391391387 	299.9999999999661 	1.000000000002021 	101324.9999999916
0.391641641641641 	299.9999999999942 	1.000000000002689 	101324.9999999916
0.3941441441441436 	299.9999999999954 	1.000000000003068 	101324.9999999919
0.3966466466466462 	299.9999999999941 	1.000000000002317 	101324.9999999921
0.3991491491491486 	299.999999999978 	1.000000000000249 	101324.9999999923
0.4016516516516512 	299.999999999953 	0.9999999999997968 	101324.9999999921
0.4041541541541536 	299.99999999997 	1.000000000000736 	101324.999999992
0.4066566566566561 	299.9999999999714 	1.000000000003965 	101324.9999999925
0.4091591591591587 	300.0000000000058 	0.9999999999961878 	101324.9999999927
0.4116616616616612 	300.0000000000159 	0.9999999999990535 	101324.9999999928
0.4141641641641635 	300.0000000000287 	1.000000000001065 	101324.9999999928
0.4166666666666662 	300.0000000000128 	1.000000000000952 	101324.9999999931
0.4191691691691687 	299.9999999999548 	1.000000000000431 	101324.9999999931
0.421671671671671 	299.9999999999885 	1.000000000000269 	101324.9999999927
0.4241741741741737 	299.9999999999728 	0.9999999999993598 	101324.9999999924
0.4266766766766761 	299.9999999999536 	0.9999999999999514 	101324.9999999924
0.4291791791791785 	299.9999999999883 	1.000000000006309 	101324.9999999923
0.4316816816816812 	299.999999999988 	0.9999999999912021 	101324.9999999921
0.4341841841841836 	299.9999999999996 	0.9999999999957485 	101324.9999999923
0.4366866866866862 	299.999999999972 	0.9999999999981097 	101324.9999999929
0.4391891891891885 	300 	0.9999999999978313 	101324.9999999927
0.4416916916916913 	300.0000000000041 	0.9999999999985952 	101324.9999999924
0.4441941941941936 	299.9999999999908 	0.9999999999992231 	101324.9999999919
0.4466966966966961 	299.999999999938 	0.9999999999993382 	101324.9999999919
0.4491991991991987 	299.9999999999794 	0.9999999999993348 	101324.9999999918
0.4517017017017012 	299.9999999999687 	0.9999999999986957 	101324.9999999927
0.4542042042042035 	299.9999999999916 	0.9999999999985129 	101324.9999999929
0.4567067067067062 	299.9999999999949 	0.9999999999984081 	101324.9999999922
0.4592092092092087 	299.9999999999381 	0.9999999999993119 	101324.9999999921
0.4617117117117112 	299.9999999999775 	0.9999999999994829 	101324.9999999924
0.4642142142142137 	299.9999999999613 	0.9999999999991209 	101324.9999999929
0.4667167167167162 	299.9999999999861 	0.9999999999991109 	101324.9999999928
0.4692192192192187 	299.999999999962 	0.9999999999991709 	101324.9999999922
0.4717217217217212 	300.0000000000009 	0.9999999999988624 	101324.9999999918
0.4742242242242236 	299.9999999999735 	0.9999999999993344 	101324.9999999924
0.4767267267267262 	299.9999999999652 	0.9999999999989801 	101324.9999999926
0.4792292292292287 	299.9999999999979 	0.9999999999987387 	101324.9999999923
0.4817317317317312 	300.0000000000117 	1.000000000000477 	101324.9999999924
0.4842342342342336 	300.0000000000074 	1.000000000002053 	101324.9999999924
0.4867367367367362 	299.9999999999908 	1.000000000003215 	101324.9999999925
0.4892392392392387 	300.0000000000035 	1.000000000003278 	101324.9999999928
0.4917417417417412 	300.0000000000248 	1.000000000002415 	101324.9999999925
0.4942442442442437 	299.9999999999793 	1.000000000002065 	101324.9999999926
0.4967467467467462 	299.9999999999462 	1.00000000000394 	101324.9999999923
0.4992492492492487 	299.9999999999235 	0.9999999999970384 	101324.9999999921
0.5017517517517511 	299.9999999999429 	0.9999999999997367 	101324.9999999923
0.5042542542542537 	299.9999999999857 	1.000000000002295 	101324.999999992
0.5067567567567562 	299.9999999999772 	1.000000000002817 	101324.9999999921
0.5092592592592589 	299.9999999999663 	1.000000000003064 	101324.9999999923
0.5117617617617611 	299.9999999999829 	1.000000000002928 	101324.9999999925
0.5142642642642637 	300.0000000000081 	1.000000000002775 	101324.9999999927
0.5167667667667663 	299.9999999999968 	1.000000000004838 	101324.9999999925
0.5192692692692688 	299.9999999999451 	1.000000000009644 	101324.9999999924
0.5217717717717714 	299.9999999999626 	0.999999999994346 	101324.9999999926
0.5242742742742736 	299.9999999999621 	0.9999999999985153 	101324.9999999927
0.5267767767767763 	299.9999999999563 	1.000000000001097 	101324.999999993
0.5292792792792789 	299.9999999999595 	1.000000000001127 	101324.9999999929
0.5317817817817813 	299.9999999999401 	1.000000000000773 	101324.9999999931
0.5342842842842837 	299.999999999984 	1.000000000000655 	101324.9999999934
0.5367867867867864 	299.9999999999848 	1.000000000000497 	101324.9999999937
0.5392892892892888 	299.9999999999515 	1.000000000000032 	101324.9999999931
0.5417917917917912 	299.9999999999676 	0.9999999999996969 	101324.9999999926
0.5442942942942938 	299.999999999961 	0.9999999999995103 	101324.9999999931
0.5467967967967964 	299.9999999999777 	1.000000000000284 	101324.9999999938
0.5492992992992988 	299.9999999999727 	1.000000000000935 	101324.9999999939
0.5518018018018012 	299.9999999999627 	1.000000000000976 	101324.9999999936
0.5543043043043039 	299.9999999999916 	1.00000000000021 	101324.9999999927
0.5568068068068063 	299.9999999999851 	1.000000000000604 	101324.9999999919
0.5593093093093087 	299.9999999999524 	1.00000000000371 	101324.9999999923
0.5618118118118114 	299.999999999947 	0.9999999999970424 	101324.9999999927
0.5643143143143137 	299.9999999999355 	0.9999999999998312 	101324.999999993
0.5668168168168163 	299.9999999999658 	1.000000000001548 	101324.9999999932
0.5693193193193188 	300.0000000000038 	1.000000000001054 	101324.9999999934
0.5718218218218213 	300.0000000000232 	1.000000000000628 	101324.9999999937
0.5743243243243239 	300.0000000000229 	1.00000000000017 	101324.9999999935
0.5768268268268262 	300.000000000011 	0.9999999999992213 	101324.9999999934
0.5793293293293288 	299.9999999999775 	1.000000000001699 	101324.9999999933
0.5818318318318314 	299.9999999999606 	1.000000000006391 	101324.9999999936
0.5843343343343338 	299.9999999999985 	0.9999999999928846 	101324.9999999935
0.5868368368368363 	299.9999999999877 	0.9999999999986933 	101324.9999999933
0.5893393393393387 	299.9999999999512 	1.000000000001768 	101324.9999999932
0.5918418418418413 	299.9999999999666 	1.000000000000524 	101324.9999999934
0.5943443443443439 	300.0000000000006 	0.9999999999994759 	101324.9999999934
0.5968468468468463 	300.0000000000114 	0.9999999999988806 	101324.9999999936
0.5993493493493487 	300.0000000000325 	0.9999999999997412 	101324.9999999936
0.6018518518518514 	300.0000000000152 	1.000000000001257 	101324.9999999933
0.6043543543543537 	300.000000000009 	1.000000000001766 	101324.9999999931
0.6068568568568564 	299.9999999999958 	1.000000000001277 	101324.9999999929
0.6093593593593587 	299.9999999999466 	1.000000000001398 	101324.9999999925
0.6118618618618614 	299.9999999999478 	1.000000000001064 	101324.9999999923
0.6143643643643638 	300.0000000000022 	0.9999999999996155 	101324.9999999923
0.6168668668668662 	299.999999999997 	0.9999999999995215 	101324.9999999928
0.6193693693693688 	299.999999999981 	1.00000000000077 	101324.9999999931
0.6218718718718714 	299.9999999999947 	1.000000000002986 	101324.9999999938
0.6243743743743737 	299.9999999999828 	0.99999999999693 	101324.9999999941
0.6268768768768762 	299.9999999999674 	1.000000000000236 	101324.9999999936
0.629379379379379 	299.9999999999814 	1.000000000002709 	101324.9999999933
0.6318818818818812 	299.9999999999952 	1.000000000003108 	101324.9999999935
0.6343843843843838 	300.0000000000196 	1.000000000002909 	101324.9999999934
0.6368868868868864 	300.0000000000036 	1.000000000002985 	101324.9999999934
0.6393893893893888 	299.9999999999604 	1.000000000003394 	101324.9999999933
0.6418918918918912 	299.9999999999823 	1.000000000005788 	101324.9999999934
0.6443943943943939 	299.9999999999734 	1.000000000008672 	101324.9999999934
0.6468968968968963 	299.9999999999765 	0.999999999995354 	101324.9999999931
0.6493993993993988 	299.9999999999783 	1.000000000000534 	101324.9999999931
0.6519019019019012 	299.9999999999935 	1.000000000003389 	101324.9999999934
0.6544044044044038 	299.9999999999571 	1.000000000002426 	101324.9999999933
0.6569069069069065 	299.9999999999509 	1.000000000001936 	101324.9999999934
0.6594094094094087 	299.9999999999719 	1.000000000002228 	101324.9999999935
0.6619119119119113 	299.9999999999845 	1.000000000002232 	101324.9999999932
0.664414414414414 	299.9999999999951 	1.000000000001437 	101324.9999999933
0.6669169169169162 	299.9999999999947 	1.000000000001701 	101324.9999999936
0.6694194194194188 	299.9999999999848 	1.000000000002254 	101324.9999999938
0.6719219219219214 	299.9999999999612 	1.000000000001287 	101324.9999999937
0.674424424424424 	299.9999999999783 	1.00000000000031 	101324.9999999936
0.6769269269269262 	299.9999999999588 	1.000000000000435 	101324.9999999937
0.679429429429429 	300.0000000000063 	1.000000000001066 	101324.9999999935
0.6819319319319311 	300.0000000000201 	1.000000000002478 	101324.9999999935
0.6844344344344341 	300.0000000000275 	1.000000000004601 	101324.999999994
0.686936936936936 	300.0000000000261 	0.9999999999985902 	101324.9999999941
0.6894394394394392 	300.0000000000219 	1.000000000001431 	101324.9999999939
0.6919419419419413 	300.000000000008 	1.000000000002751 	101324.9999999937
0.694444444444444 	299.9999999999641 	1.000000000001847 	101324.9999999934
0.6969469469469463 	299.9999999999356 	1.000000000002315 	101324.9999999928
0.6994494494494489 	299.9999999999492 	1.000000000002789 	101324.9999999928
0.7019519519519515 	299.9999999999691 	1.000000000002618 	101324.9999999932
0.7044544544544538 	299.999999999957 	1.000000000004743 	101324.9999999936
0.7069569569569564 	299.9999999999976 	1.000000000006658 	101324.9999999936
0.7094594594594589 	299.9999999999827 	0.9999999999936011 	101324.9999999934
0.7119619619619615 	299.9999999999542 	0.9999999999994671 	101324.9999999933
0.7144644644644638 	299.9999999999724 	1.000000000003335 	101324.9999999933
0.7169669669669665 	299.999999999964 	1.000000000002952 	101324.9999999936
0.7194694694694688 	300.0000000000103 	1.000000000002508 	101324.9999999939
0.7219719719719715 	300.0000000000095 	1.000000000002057 	101324.9999999935
0.7244744744744737 	299.9999999999981 	1.000000000001298 	101324.9999999933
0.7269769769769764 	300.0000000000044 	1.000000000003576 	101324.999999993
0.7294794794794791 	300.0000000000005 	1.00000000000582 	101324.9999999926
0.7319819819819813 	299.9999999999817 	0.9999999999945659 	101324.9999999924
0.7344844844844839 	299.9999999999348 	1.000000000001147 	101324.9999999928
0.7369869869869864 	299.9999999999499 	1.000000000004211 	101324.9999999933
0.739489489489489 	299.9999999999707 	1.000000000003273 	101324.9999999936
0.7419919919919914 	299.9999999999642 	1.000000000002072 	101324.9999999939
0.7444944944944939 	299.9999999999644 	1.000000000002865 	101324.9999999942
0.7469969969969963 	299.9999999999844 	1.00000000000384 	101324.9999999942
0.7494994994994989 	299.9999999999505 	1.000000000001319 	101324.9999999938
0.7520020020020015 	299.9999999999596 	1.000000000006727 	101324.9999999934
0.7545045045045039 	299.9999999999626 	0.9999999999967526 	101324.9999999931
0.7570070070070062 	299.9999999999605 	1.000000000002249 	101324.999999993
0.7595095095095092 	299.9999999999656 	1.000000000004965 	101324.9999999933
0.7620120120120112 	299.9999999999879 	1.000000000004793 	101324.9999999934
0.7645145145145138 	299.999999999989 	1.000000000004107 	101324.9999999932
0.7670170170170165 	299.9999999999628 	1.000000000006275 	101324.9999999929
0.7695195195195191 	299.9999999999383 	1.000000000007924 	101324.9999999926
0.7720220220220213 	299.9999999999581 	0.9999999999961182 	101324.9999999929
0.7745245245245239 	299.9999999999498 	1.000000000001054 	101324.9999999934
0.7770270270270263 	299.9999999999453 	1.000000000003439 	101324.9999999932
0.779529529529529 	299.9999999999654 	1.00000000000271 	101324.9999999927
0.7820320320320313 	299.9999999999656 	1.00000000000165 	101324.9999999927
0.784534534534534 	299.9999999999964 	1.000000000001205 	101324.9999999931
0.7870370370370364 	299.9999999999885 	1.000000000001652 	101324.9999999931
0.7895395395395389 	299.9999999999783 	1.000000000002335 	101324.9999999928
0.7920420420420413 	299.9999999999919 	1.000000000002075 	101324.9999999929
0.794544544544544 	299.9999999999898 	1.000000000004803 	101324.9999999929
0.7970470470470463 	300.0000000000064 	1.000000000005635 	101324.9999999927
0.799549549549549 	300.0000000000076 	0.999999999994065 	101324.9999999929
0.8020520520520515 	299.9999999999873 	0.9999999999999836 	101324.9999999931
0.8045545545545539 	299.99999999995 	1.000000000002944 	101324.999999993
0.8070570570570563 	299.9999999999646 	1.000000000002739 	101324.9999999928
0.8095595595595589 	299.9999999999588 	1.000000000002657 	101324.9999999925
0.8120620620620614 	299.9999999999719 	1.000000000003372 	101324.9999999922
0.8145645645645638 	300.0000000000072 	1.000000000003621 	101324.9999999923
0.8170670670670666 	300.0000000000279 	1.000000000005832 	101324.9999999927
0.8195695695695689 	300.0000000000053 	1.000000000006321 	101324.9999999927
0.8220720720720714 	299.9999999999546 	0.9999999999951336 	101324.9999999923
0.8245745745745739 	299.9999999999682 	1.000000000001085 	101324.9999999924
0.8270770770770765 	299.9999999999774 	1.000000000004417 	101324.9999999926
0.8295795795795788 	299.9999999999781 	1.000000000003838 	101324.9999999931
0.8320820820820815 	300.000000000008 	1.000000000004128 	101324.9999999932
0.834584584584584 	300.0000000000045 	1.000000000007007 	101324.9999999928
0.8370870870870865 	299.9999999999701 	1.000000000006749 	101324.9999999924
0.8395895895895891 	299.9999999999419 	0.9999999999992659 	101324.999999992
0.8420920920920915 	299.9999999999735 	1.000000000000983 	101324.9999999921
0.844594594594594 	299.9999999999675 	1.00000000000206 	101324.9999999925
0.8470970970970964 	299.9999999999641 	1.000000000001634 	101324.9999999927
0.8495995995995991 	300.000000000002 	1.000000000001439 	101324.9999999926
0.8521021021021015 	299.9999999999937 	1.000000000001519 	101324.9999999922
0.8546046046046039 	299.9999999999725 	1.000000000001428 	101324.9999999919
0.8571071071071066 	299.9999999999919 	1.000000000005326 	101324.999999992
0.8596096096096089 	299.9999999999889 	1.000000000007259 	101324.9999999921
0.8621121121121116 	299.9999999999781 	0.9999999999970537 	101324.9999999922
0.8646146146146139 	300.0000000000085 	1.000000000002243 	101324.9999999924
0.8671171171171166 	299.9999999999878 	1.000000000004985 	101324.9999999925
0.8696196196196189 	299.9999999999521 	1.000000000004957 	101324.9999999925
0.8721221221221216 	299.9999999999752 	1.000000000004049 	101324.9999999924
0.874624624624624 	300.0000000000003 	1.000000000002367 	101324.9999999918
0.8771271271271264 	299.9999999999981 	1.000000000001074 	101324.9999999912
0.879629629629629 	299.9999999999922 	1.000000000005061 	101324.9999999912
0.8821321321321317 	299.9999999999829 	1.000000000007068 	101324.9999999913
0.8846346346346339 	299.9999999999582 	0.9999999999971971 	101324.9999999913
0.8871371371371364 	299.9999999999626 	1.000000000001757 	101324.9999999916
0.8896396396396391 	299.9999999999629 	1.000000000003614 	101324.999999992
0.8921421421421414 	299.9999999999682 	1.000000000003365 	101324.9999999918
0.8946446446446441 	299.9999999999818 	1.000000000003395 	101324.9999999914
0.8971471471471464 	299.9999999999917 	1.000000000005277 	101324.9999999911
0.8996496496496489 	299.9999999999938 	1.000000000005974 	101324.9999999914
0.9021521521521517 	299.9999999999877 	1.000000000000586 	101324.9999999919
0.9046546546546541 	299.9999999999931 	1.000000000003055 	101324.999999992
0.9071571571571564 	299.9999999999715 	1.000000000004262 	101324.9999999918
0.9096596596596589 	299.9999999999566 	1.000000000003398 	101324.9999999913
0.9121621621621616 	299.9999999999881 	1.000000000003151 	101324.9999999908
0.9146646646646639 	299.9999999999748 	1.00000000000313 	101324.9999999909
0.9171671671671666 	299.9999999999557 	1.000000000003218 	101324.9999999915
0.9196696696696689 	299.9999999999806 	1.000000000008023 	101324.9999999919
0.9221721721721714 	299.9999999999815 	1.000000000007768 	101324.9999999921
0.9246746746746741 	299.99999999995 	0.9999999999959395 	101324.9999999923
0.9271771771771765 	299.9999999999645 	1.000000000000608 	101324.9999999918
0.9296796796796791 	299.9999999999807 	1.000000000003034 	101324.9999999914
0.9321821821821816 	299.9999999999724 	1.000000000002345 	101324.9999999913
0.9346846846846838 	299.9999999999666 	1.000000000002219 	101324.9999999914
0.9371871871871866 	299.9999999999991 	1.000000000002545 	101324.9999999912
0.9396896896896891 	299.9999999999998 	1.000000000003053 	101324.9999999908
0.9421921921921914 	299.999999999993 	1.000000000007387 	101324.9999999907
0.9446946946946939 	299.9999999999864 	1.000000000006978 	101324.9999999906
0.9471971971971965 	299.9999999999662 	0.9999999999958469 	101324.9999999908
0.9496996996996991 	299.9999999999606 	0.9999999999999953 	101324.9999999909
0.9522022022022016 	299.9999999999808 	1.000000000002251 	101324.9999999906
0.9547047047047038 	299.9999999999969 	1.000000000003312 	101324.9999999909
0.9572072072072064 	299.9999999999889 	1.000000000004351 	101324.9999999912
0.9597097097097093 	299.9999999999727 	1.000000000006206 	101324.9999999909
0.9622122122122114 	299.9999999999656 	1.000000000005003 	101324.9999999904
0.964714714714714 	299.9999999999546 	0.9999999999993726 	101324.9999999901
0.9672172172172167 	299.9999999999519 	1.000000000001553 	101324.9999999907
0.969719719719719 	299.9999999999756 	1.000000000002445 	101324.9999999913
0.9722222222222214 	299.9999999999791 	1.000000000001858 	101324.9999999914
0.9747247247247239 	299.9999999999795 	1.000000000001656 	101324.9999999912
0.9772272272272267 	299.9999999999982 	1.000000000002215 	101324.9999999909
0.9797297297297292 	299.9999999999873 	1.000000000002568 	101324.9999999906
0.9822322322322313 	299.9999999999816 	1.00000000000722 	101324.9999999909
0.9847347347347344 	299.9999999999777 	1.000000000007236 	101324.9999999913
0.9872372372372363 	299.9999999999487 	0.9999999999971315 	101324.9999999912
0.9897397397397389 	299.9999999999493 	1.000000000001138 	101324.9999999911
0.9922422422422417 	299.9999999999523 	1.000000000002997 	101324.9999999913
0.9947447447447441 	299.9999999999748 	1.000000000003467 	101324.9999999912
0.9972472472472468 	299.9999999999798 	1.000000000005018 	101324.9999999911
0.999749749749749 	299.9999999999733 	1.000000000005869 	101324.999999991
1.002252252252252 	299.9999999999765 	1.000000000005216 	101324.9999999912
1.004754754754754 	299.9999999999949 	1.000000000008794 	101324.9999999913
1.007257257257256 	299.999999999986 	1.000000000007979 	101324.9999999912
1.009759759759759 	299.9999999999758 	0.999999999998133 	101324.9999999909
1.012262262262261 	299.9999999999761 	1.000000000002175 	101324.9999999907
1.014764764764764 	299.9999999999592 	1.000000000003892 	101324.9999999902
1.017267267267267 	299.9999999999472 	1.00000000000308 	101324.99999999
1.019769769769769 	299.9999999999725 	1.000000000002792 	101324.9999999899
1.022272272272272 	299.9999999999911 	1.000000000005042 	101324.99999999
1.024774774774774 	299.9999999999953 	1.00000000000478 	101324.9999999901
1.027277277277277 	299.9999999999914 	1.000000000000859 	101324.9999999903
1.029779779779779 	300.0000000000052 	1.000000000003398 	101324.9999999906
1.032282282282282 	300.000000000008 	1.000000000004029 	101324.9999999908
1.034784784784784 	300.0000000000042 	1.000000000002932 	101324.9999999909
1.037287287287286 	299.9999999999886 	1.000000000002476 	101324.9999999909
1.039789789789789 	299.9999999999853 	1.000000000003168 	101324.9999999904
1.042292292292291 	300.0000000000103 	1.000000000003142 	101324.9999999904
1.044794794794794 	300.000000000028 	1.000000000007644 	101324.9999999909
1.047297297297296 	300.0000000000304 	1.000000000006902 	101324.9999999911
1.049799799799799 	300.0000000000107 	0.999999999998165 	101324.9999999908
1.052302302302302 	299.9999999999902 	1.000000000002878 	101324.9999999905
1.054804804804804 	299.9999999999648 	1.000000000004991 	101324.9999999903
1.057307307307306 	299.9999999999457 	1.000000000005447 	101324.9999999904
1.059809809809809 	299.9999999999644 	1.000000000005825 	101324.9999999909
1.062312312312312 	299.9999999999686 	1.000000000005146 	101324.999999991
1.064814814814814 	299.9999999999682 	1.00000000000464 	101324.9999999907
1.067317317317317 	299.9999999999536 	1.000000000008764 	101324.9999999903
1.069819819819819 	299.9999999999448 	1.000000000006027 	101324.9999999902
1.072322322322321 	299.9999999999836 	0.9999999999969018 	101324.9999999904
1.074824824824824 	300.0000000000141 	1.000000000002149 	101324.9999999907
1.077327327327327 	300.0000000000232 	1.000000000004622 	101324.9999999905
1.079829829829829 	300.0000000000259 	1.000000000004947 	101324.9999999903
1.082332332332332 	300.0000000000044 	1.000000000005904 	101324.9999999903
1.084834834834834 	299.9999999999794 	1.000000000011204 	101324.9999999906
1.087337337337337 	299.9999999999532 	1.000000000008864 	101324.9999999908
1.089839839839839 	299.9999999999401 	0.9999999999997818 	101324.9999999907
1.092342342342342 	299.9999999999598 	1.000000000004433 	101324.9999999907
1.094844844844844 	299.999999999965 	1.000000000011288 	101324.9999999907
1.097347347347347 	299.9999999999496 	1.000000000009016 	101324.9999999908
1.099849849849849 	299.9999999999424 	1.000000000000551 	101324.9999999908
1.102352352352352 	299.9999999999625 	1.000000000004876 	101324.9999999907
1.104854854854854 	299.9999999999825 	1.000000000005939 	101324.9999999908
1.107357357357357 	299.9999999999716 	1.000000000005136 	101324.9999999909
1.109859859859859 	299.9999999999616 	1.000000000004851 	101324.9999999907
1.112362362362362 	299.9999999999969 	1.000000000009846 	101324.9999999905
1.114864864864865 	300.000000000003 	1.00000000000769 	101324.9999999904
1.117367367367367 	299.9999999999751 	0.9999999999989237 	101324.9999999905
1.119869869869869 	299.9999999999492 	1.000000000002483 	101324.9999999906
1.122372372372372 	299.999999999964 	1.00000000000392 	101324.9999999904
1.124874874874874 	299.9999999999694 	1.000000000004182 	101324.9999999902
1.127377377377377 	299.9999999999654 	1.000000000005341 	101324.9999999901
1.129879879879879 	299.9999999999909 	1.000000000006114 	101324.9999999903
1.132382382382382 	300.0000000000241 	1.000000000005674 	101324.9999999905
1.134884884884884 	300.0000000000147 	1.00000000001064 	101324.9999999908
1.137387387387387 	300.0000000000068 	1.000000000007947 	101324.999999991
1.139889889889889 	299.9999999999727 	0.9999999999994729 	101324.9999999906
1.142392392392392 	299.9999999999609 	1.000000000003942 	101324.9999999903
1.144894894894894 	299.999999999994 	1.00000000000618 	101324.9999999903
1.147397397397397 	299.999999999994 	1.000000000006249 	101324.9999999905
1.149899899899899 	299.9999999999668 	1.000000000005733 	101324.9999999908
1.152402402402402 	299.9999999999498 	1.000000000005359 	101324.9999999906
1.154904904904904 	299.9999999999646 	1.000000000005057 	101324.9999999903
1.157407407407407 	299.9999999999656 	1.000000000009909 	101324.9999999903
1.159909909909909 	299.999999999949 	1.000000000007194 	101324.9999999904
1.162412412412412 	299.9999999999454 	0.9999999999995584 	101324.9999999903
1.164914914914914 	299.9999999999628 	1.000000000004212 	101324.99999999
1.167417417417417 	299.9999999999604 	1.000000000005824 	101324.9999999898
1.169919919919919 	299.9999999999857 	1.000000000005272 	101324.99999999
1.172422422422422 	300.0000000000168 	1.000000000004668 	101324.9999999903
1.174924924924925 	300.0000000000036 	1.00000000001006 	101324.9999999905
1.177427427427427 	299.99999999998 	1.000000000007602 	101324.9999999905
1.179929929929929 	299.9999999999964 	1.000000000000055 	101324.9999999907
1.182432432432432 	300.0000000000246 	1.000000000004534 	101324.9999999904
1.184934934934934 	300.0000000000074 	1.000000000006096 	101324.9999999899
1.187437437437437 	299.9999999999804 	1.000000000005783 	101324.9999999898
1.189939939939939 	299.9999999999721 	1.000000000005647 	101324.99999999
1.192442442442442 	299.9999999999542 	1.000000000005703 	101324.99999999
1.194944944944944 	299.9999999999458 	1.000000000005528 	101324.9999999898
1.197447447447447 	299.9999999999833 	1.00000000001098 	101324.99999999
1.199949949949949 	300.0000000000086 	1.000000000008389 	101324.9999999905
1.202452452452452 	299.9999999999764 	1.000000000001194 	101324.9999999905
1.204954954954955 	299.9999999999596 	1.000000000005373 	101324.9999999901
1.207457457457457 	299.9999999999709 	1.000000000006524 	101324.9999999897
1.20995995995996 	299.9999999999771 	1.000000000005824 	101324.9999999896
1.212462462462462 	299.9999999999876 	1.000000000005787 	101324.9999999899
1.214964964964964 	299.9999999999903 	1.000000000006357 	101324.99999999
1.217467467467467 	299.9999999999926 	1.000000000006795 	101324.99999999
1.219969969969969 	299.9999999999732 	1.000000000012102 	101324.9999999899
1.222472472472472 	299.9999999999907 	1.000000000008129 	101324.9999999897
1.224974974974975 	300.0000000000218 	1.000000000000909 	101324.9999999897
1.227477477477477 	299.9999999999962 	1.000000000005555 	101324.9999999898
1.229979979979979 	299.9999999999816 	1.000000000007504 	101324.9999999901
1.232482482482482 	299.9999999999664 	1.000000000007978 	101324.9999999902
1.234984984984984 	299.9999999999626 	1.000000000007773 	101324.9999999902
1.237487487487487 	299.9999999999786 	1.00000000001277 	101324.99999999
1.239989989989989 	299.999999999986 	1.000000000008974 	101324.9999999903
1.242492492492492 	300.0000000000035 	1.000000000002025 	101324.9999999904
1.244994994994994 	299.9999999999851 	1.000000000006435 	101324.9999999902
1.247497497497497 	299.9999999999894 	1.000000000007768 	101324.9999999901
1.249999999999999 	299.9999999999387 	1.000000000007574 	101324.99999999
