-1.25 	300 	1 	101277.4471741852
-1.247497497497497 	299.4967944398883 	32.47101337478536 	101330.3167064197
-1.244994994994995 	299.4987376417316 	30.61464545126019 	101283.5165182719
-1.242492492492492 	299.579011486528 	28.84601131849886 	101326.8828086739
-1.23998998998999 	299.6044995075133 	27.16890667276606 	101292.8522740211
-1.237487487487487 	299.6681274058054 	25.5805021629806 	101325.3597344862
-1.234984984984985 	299.6929343827786 	24.06596624962201 	101304.0190759689
-1.232482482482482 	299.7420271815174 	22.63756177909687 	101327.4975075991
-1.22997997997998 	299.7665553707192 	21.2675574831758 	101316.4826420494
-1.227477477477477 	299.8035369088957 	19.98149637709446 	101332.3102630529
-1.224974974974975 	299.827499772987 	18.7394010764936 	101329.0191414349
-1.222472472472472 	299.8547345670307 	17.5805889340405 	101338.7703743674
-1.21996996996997 	299.8778304729042 	16.4543265736121 	101341.1589964691
-1.217467467467467 	299.8977007754008 	15.41031577430469 	101346.6463462942
-1.214964964964965 	299.9195923556144 	14.39097134500444 	101353.0009664354
-1.212462462462462 	299.9334437871937 	13.45263857969554 	101355.0263985435
-1.20995995995996 	299.9536372185755 	12.53287854978818 	101363.6966702781
-1.207457457457457 	299.9623933669064 	11.69294931291502 	101362.7257709938
-1.204954954954955 	299.9807842342791 	10.86662825427013 	101372.7157961516
-1.202452452452452 	299.9853401675025 	10.11799139607417 	101369.2461694313
-1.19994994994995 	300.0017696581402 	9.37993122404267 	101379.6836962395
-1.197447447447447 	300.0026034382543 	8.715546332610735 	101373.8004035412
-1.194944944944945 	300.0170586634853 	8.060264322451884 	101384.0853082729
-1.192442442442442 	300.0148735465054 	7.473255472747463 	101376.2203210437
-1.18993993993994 	300.0274255836082 	6.894660705380751 	101385.9628811342
-1.187437437437437 	300.022500210914 	6.378104335227113 	101376.1208262026
-1.184934934934935 	300.0330531046047 	5.870589363246697 	101384.8113884725
-1.182432432432432 	300.0260101265933 	5.416831141122985 	101373.4518079296
-1.17992992992993 	300.0349200692469 	4.974976171194839 	101381.2098891436
-1.177427427427427 	300.0261828570615 	4.577482003379391 	101368.6088363011
-1.174924924924925 	300.0334001951243 	4.19410772755495 	101375.1177503251
-1.172422422422422 	300.0235145041373 	3.846945153028406 	101361.7458052114
-1.16991991991992 	300.0295239526456 	3.517647495881219 	101367.3984430929
-1.167417417417417 	300.0188703626009 	3.213417806806723 	101353.5602117303
-1.164914914914915 	300.0235311213738 	2.93168779003589 	101358.0334772653
-1.162412412412412 	300.012569161201 	2.666861843228701 	101344.1701920015
-1.15990990990991 	300.0166714853467 	2.427893430516794 	101348.298535328
-1.157407407407407 	300.0059739411016 	2.19593752580328 	101334.9944475358
-1.154904904904904 	300.0094466874015 	1.993307958126562 	101338.5969832413
-1.152402402402403 	299.9996019118701 	1.793539672435535 	101326.4894227496
-1.1498998998999 	300.0033464130088 	1.622866524962318 	101330.5730794848
-1.147397397397397 	299.9942870818625 	1.447805854371319 	101319.5303390434
-1.144894894894895 	299.9971934416013 	1.304925748736877 	101322.727124647
-1.142392392392392 	299.9897225215236 	1.156650550356571 	101313.6787996609
-1.13988988988989 	299.994243039067 	1.036240632388955 	101318.8518165359
-1.137387387387387 	299.987704956953 	0.908748255569222 	101310.9844240429
-1.134884884884885 	299.9903117932935 	0.8095111568975464 	101313.9434159338
-1.132382382382382 	299.985526048536 	0.7015962074514605 	101308.2082452478
-1.12987987987988 	299.9914565393999 	0.6155429951010568 	101315.1300762645
-1.127377377377377 	299.9889228948369 	0.5343254070188599 	101312.0944053215
-1.124874874874875 	299.992924489626 	0.4596935864369575 	101316.7625321185
-1.122372372372372 	299.991103283757 	0.3839159516956887 	101314.5847372965
-1.11986986986987 	299.9954294640643 	0.3236520654270968 	101319.6587869489
-1.117367367367367 	299.9955567963057 	0.2851888177258842 	101319.8039770769
-1.114864864864865 	300.0049389412333 	0.2205910306367158 	101330.8684619674
-1.112362362362362 	300.0093278262423 	0.1824849607615242 	101336.0550306352
-1.10985985985986 	300.0074540980402 	0.1137637311824947 	101333.8173163887
-1.107357357357357 	300.0154483550212 	0.0867117799604426 	101343.2712663673
-1.104854854854855 	300.0171412299339 	0.05634523719849229 	101345.2640483004
-1.102352352352353 	300.0218558510368 	0.06092548130638986 	101350.8407175062
-1.09984984984985 	300.025617049606 	0.07598409118074191 	101355.2857556927
-1.097347347347347 	300.0294988369637 	0.08457475711403521 	101359.8767631384
-1.094844844844845 	300.0330815257348 	0.09706569724963823 	101364.1127966072
-1.092342342342342 	300.0364444284529 	0.1049756509320933 	101368.0898100176
-1.08983983983984 	300.0394818194051 	0.1152159465561252 	101371.6817495182
-1.087337337337337 	300.0421584921366 	0.1215404693911544 	101374.8471123653
-1.084834834834835 	300.0444094722266 	0.128780122370163 	101377.5092138649
-1.082332332332332 	300.0462607774951 	0.1337399009605807 	101379.6987677402
-1.07982982982983 	300.0477037499447 	0.1379571926143441 	101381.4052898814
-1.077327327327327 	300.0486810278903 	0.1407142514341338 	101382.5611281279
-1.074824824824825 	300.0491334897646 	0.1420627026492601 	101383.0963637166
-1.072322322322323 	300.0490313379369 	0.1417392479549018 	101382.9754934448
-1.06981981981982 	300.0483688423693 	0.1398074338229904 	101382.1920283504
-1.067317317317317 	300.0471753988343 	0.1363566470967754 	101380.7807686546
-1.064814814814815 	300.0455311657095 	0.1315946639418905 	101378.8362376697
-1.062312312312312 	300.043528007956 	0.1258358744480991 	101376.4672256411
-1.05980980980981 	300.0411199398928 	0.1187905907494597 	101373.6195565474
-1.057307307307307 	300.0381355407573 	0.110082148434324 	101370.0903078612
-1.054804804804805 	300.0345973911634 	0.09996425007692018 	101365.9062842371
-1.052302302302302 	300.030867166403 	0.08932364084056821 	101361.4952891086
-1.0497997997998 	300.0272719334873 	0.07886919638867033 	101357.2439551431
-1.047297297297297 	300.0237513740691 	0.0685875205292646 	101353.0811077605
-1.044794794794795 	300.0201139055594 	0.05802618441560539 	101348.7802323929
-1.042292292292292 	300.0162484838443 	0.04682167378294223 	101344.2098299563
-1.03978978978979 	300.012218078886 	0.035234517557126 	101339.4445436324
-1.037287287287287 	300.008276255875 	0.02394219177964721 	101334.7842072812
-1.034784784784785 	300.0047055863545 	0.0136556181927347 	101330.5626756652
-1.032282282282283 	300.0016540938496 	0.004836185452449533 	101326.9550951836
-1.02977977977978 	299.9991136855394 	0.003797391885694928 	101323.9518460633
-1.027277277277277 	299.996926465142 	0.008971232037895771 	101321.3660868543
-1.024774774774775 	299.994974736349 	0.01455309031262781 	101319.0588557452
-1.022272272272272 	299.9933404123175 	0.01920771486937477 	101317.1268630588
-1.01976976976977 	299.9922170542467 	0.02243330002831188 	101315.7987788972
-1.017267267267267 	299.9917630311092 	0.02373149248895965 	101315.2620557575
-1.014764764764765 	299.992060905859 	0.02288723942203735 	101315.6141447107
-1.012262262262262 	299.9930665276374 	0.01999372360366104 	101316.8027856444
-1.00975975975976 	299.9946672245092 	0.01536907103538412 	101318.6950207617
-1.007257257257257 	299.9967467438669 	0.009401648143912349 	101321.1532863404
-1.004754754754755 	299.9991786209409 	0.003126061691316011 	101324.0280972045
-1.002252252252252 	300.0019428980908 	0.005700627408987299 	101327.2960681695
-0.9997497497497498 	300.0050531966076 	0.01469038547156405 	101330.9730844814
-0.9972472472472473 	300.008455249042 	0.0245466719920139 	101334.9951018713
-0.9947447447447449 	300.01208847222 	0.03505784016635616 	101339.2907331501
-0.9922422422422421 	300.015920051477 	0.0461027038853798 	101343.8208543997
-0.9897397397397399 	300.0199054245828 	0.05760672884394541 	101348.5329692265
-0.9872372372372376 	300.0239450620876 	0.06925226989057946 	101353.3095791332
-0.9847347347347346 	300.0278984587979 	0.08068755932629505 	101357.9842462947
-0.9822322322322323 	300.0316788980352 	0.09166149000688356 	101362.4545220598
-0.9797297297297296 	300.0352971442159 	0.1021272578513848 	101366.7332741745
-0.9772272272272275 	300.038756460154 	0.1121200268246903 	101370.8241090476
-0.9747247247247248 	300.0419728867906 	0.1214015733468826 	101374.6278278506
-0.9722222222222224 	300.0448283298207 	0.1296492867961144 	101378.0048288224
-0.9697197197197196 	300.0472507820439 	0.1366524297614445 	101380.8697383786
-0.9672172172172175 	300.0492476911671 	0.142418125185395 	101383.2314647147
-0.9647147147147147 	300.0508542383162 	0.1470554637019925 	101385.1315770114
-0.9622122122122124 	300.0520350933205 	0.150444938269856 	101386.5281725416
-0.9597097097097099 	300.0526957239521 	0.1523545644649154 	101387.3095955751
-0.9572072072072073 	300.0527675402949 	0.1525534875625129 	101387.3945463894
-0.9547047047047047 	300.0522461437153 	0.1510310146953913 	101386.7778755004
-0.9522022022022023 	300.0512024884745 	0.1480511142962355 	101385.5437198179
-0.9496996996996998 	300.0497340445356 	0.1437999201016383 	101383.8070408134
-0.9471971971971973 	300.0478692231431 	0.1383791516136171 	101381.6015377272
-0.9446946946946947 	300.0455756665406 	0.1317242347670654 	101378.8892020625
-0.9421921921921923 	300.0428190693326 	0.1237008712255566 	101375.6291745406
-0.93968968968969 	300.0396021307475 	0.1144279172391384 	101371.824836868
-0.9371871871871872 	300.0360244485325 	0.1041511653614385 	101367.5940976519
-0.9346846846846848 	300.0322549320665 	0.09327104015625985 	101363.1365032371
-0.9321821821821823 	300.028432503703 	0.08222809168712814 	101358.6165107294
-0.9296796796796799 	300.0246456045787 	0.07124051318519599 	101354.1387366292
-0.9271771771771771 	300.0209265535394 	0.06043705001445338 	101349.7412218351
-0.9246746746746748 	300.0172639103438 	0.04984635450186081 	101345.4105951996
-0.9221721721721724 	300.0136714793715 	0.03946560411384816 	101341.1631383299
-0.9196696696696698 	300.0102032276456 	0.02943292434662479 	101337.0625178817
-0.9171671671671672 	300.006927738278 	0.01997672441649284 	101333.1900080273
-0.9146646646646649 	300.003960012165 	0.011432178757004 	101329.6814085952
-0.9121621621621623 	300.0014225295704 	0.004129477127248597 	101326.6814410594
-0.9096596596596597 	299.9993982686559 	0.002865123550776354 	101324.2884013397
-0.9071571571571573 	299.9979917675854 	0.005720123147134559 	101322.6255750996
-0.9046546546546547 	299.9972441566706 	0.007951313263152991 	101321.74166675
-0.9021521521521524 	299.9971081493177 	0.008345838253986458 	101321.5809132612
-0.8996496496496498 	299.9975454075288 	0.007066900259869552 	101322.0977253306
-0.8971471471471473 	299.9984627981107 	0.004437660756836092 	101323.1821949448
-0.894644644644645 	299.9997697862395 	0.001755954882538215 	101324.7273137713
-0.892142142142142 	300.0014748162155 	0.004357095544381637 	101326.7428867344
-0.8896396396396397 	300.0036322592247 	0.01062828381322513 	101329.2934461764
-0.8871371371371374 	300.0062468570779 	0.01819767398116595 	101332.3845064293
-0.8846346346346349 	300.0092790705499 	0.02696464598818126 	101335.9692880879
-0.8821321321321324 	300.0126689042547 	0.03676030511586196 	101339.9771426114
-0.8796296296296297 	300.016343050712 	0.04737623545636664 	101344.3211725528
-0.8771271271271271 	300.0202236199427 	0.0585920928255754 	101348.9093664663
-0.8746246246246248 	300.0242401507141 	0.07020800801693243 	101353.6586395425
-0.8721221221221224 	300.0283382366712 	0.08206288931528774 	101358.5043932054
-0.8696196196196196 	300.0324704247705 	0.0940094066051378 	101363.3906237221
-0.8671171171171175 	300.0365705713644 	0.1058489178943265 	101368.2392588508
-0.8646146146146148 	300.0405367169926 	0.1172926339740104 	101372.9295035725
-0.8621121121121121 	300.0442503578006 	0.1280156931065925 	101377.3213200739
-0.8596096096096097 	300.0476234512391 	0.1377739156845044 	101381.3105531231
-0.857107107107107 	300.0506253242517 	0.1464708062289746 	101384.8607964746
-0.8546046046046049 	300.0532626142171 	0.1541098608243721 	101387.9800200282
-0.8521021021021022 	300.0555378942787 	0.1606890629675189 	101390.6710710987
-0.8495995995995997 	300.0574252403374 	0.1661342987915185 	101392.9033249461
-0.8470970970970974 	300.0588721158066 	0.1702982191304728 	101394.6147922526
-0.8445945945945946 	300.0598126420729 	0.1729969069216659 	101395.72720836
-0.8420920920920922 	300.060188934887 	0.1740769095291386 	101396.1722699329
-0.8395895895895897 	300.0599871888663 	0.1735084569718873 	101395.9337544809
-0.8370870870870872 	300.0592601967587 	0.1714320201495572 	101395.0739013281
-0.8345845845845846 	300.0580927362964 	0.1680618157426406 	101393.6931309074
-0.8320820820820823 	300.0565218096705 	0.1634881702615931 	101391.83522384
-0.8295795795795798 	300.0544974540109 	0.1575920864859533 	101389.4409181028
-0.8270770770770772 	300.0519525942913 	0.1502303470616221 	101386.431150646
-0.8245745745745746 	300.0489311755387 	0.1415476765927276 	101382.8578008162
-0.8220720720720721 	300.0456265980362 	0.1320565092103861 	101378.9495728365
-0.8195695695695699 	300.0422561534704 	0.1223169775837073 	101374.9636830245
-0.817067067067067 	300.0388856916765 	0.1125048304155609 	101370.9777765174
-0.8145645645645651 	300.035397372329 	0.1023429949116725 	101366.8526264517
-0.8120620620620621 	300.0316585056225 	0.09153212584372358 	101362.4314132245
-0.8095595595595597 	300.0277370942813 	0.0802856955646183 	101357.7943592899
-0.8070570570570572 	300.0239375884442 	0.0694078391781726 	101353.3016393244
-0.8045545545545546 	300.0205984191521 	0.0597834800259558 	101349.353341033
-0.8020520520520523 	300.017847019404 	0.05176017677203845 	101346.1000355961
-0.7995495495495494 	300.0155486952271 	0.04502278648482264 	101343.3826488488
-0.7970470470470474 	300.0135010086962 	0.0390792429688869 	101340.961539141
-0.7945445445445446 	300.0116771090411 	0.03387686345635704 	101338.8050209552
-0.7920420420420423 	300.0102865967385 	0.02996867951927707 	101337.1610833567
-0.7895395395395397 	300.0096197803785 	0.02810199426630044 	101336.3725692892
-0.7870370370370371 	300.0097993812026 	0.0285607456555612 	101336.5848146744
-0.7845345345345348 	300.0106270535542 	0.03082064178913706 	101337.563420019
-0.7820320320320323 	300.0117344037655 	0.03395648612125562 	101338.8725480291
-0.7795295295295296 	300.0129374709737 	0.03751373941713307 	101340.2949275658
-0.7770270270270272 	300.014425840582 	0.04200083968741722 	101342.0546584799
-0.7745245245245247 	300.0166366353221 	0.04856217572271688 	101344.6684249808
-0.7720220220220222 	300.0199169252157 	0.05805219515965974 	101348.5469031215
-0.7695195195195199 	300.0241609537412 	0.0701239070736379 	101353.565017182
-0.767017017017017 	300.0287502813187 	0.08313772102571398 	101358.9916554512
-0.7645145145145147 	300.032946223156 	0.09515459773497614 	101363.9534636969
-0.7620120120120122 	300.0364046302273 	0.1052876609533638 	101368.0431580367
-0.7595095095095097 	300.0394476279972 	0.1144165470525821 	101371.6416832838
-0.7570070070070072 	300.0429081325456 	0.1247879056679625 	101375.7340006394
-0.7545045045045048 	300.0476681126399 	0.1387565665369025 	101381.363129089
-0.7520020020020022 	300.054124602466 	0.1573143621703497 	101388.9990910929
-0.7494994994994997 	300.0618186596593 	0.1791510398428006 	101398.0992875248
-0.7469969969969972 	300.0695199612561 	0.2008962587097306 	101407.2087540849
-0.7444944944944945 	300.0757421597575 	0.2184613987532849 	101414.5693878058
-0.7419919919919924 	300.0793444677687 	0.2287325247208054 	101418.8309461263
-0.7394894894894897 	300.0800279982305 	0.2309565112214337 	101419.6394521358
-0.7369869869869872 	300.0785666657687 	0.2273070589150119 	101417.9109932277
-0.7344844844844846 	300.076577981712 	0.2222386281577916 	101415.5585529837
-0.7319819819819822 	300.0759162921412 	0.2209235659042915 	101414.7760050259
-0.7294794794794797 	300.0781038285409 	0.2276229348863077 	101417.3638056939
-0.7269769769769773 	300.0839175449065 	0.2444455235729729 	101424.2404862653
-0.7244744744744747 	300.0930933629692 	0.2705850872756365 	101435.0956146241
-0.721971971971972 	300.1043116513442 	0.3023648279194454 	101448.3685924904
-0.7194694694694695 	300.1155986909286 	0.3343048016732106 	101461.7244098448
-0.7169669669669674 	300.1249266947696 	0.3606885930110639 	101472.7633957608
-0.7144644644644647 	300.1306538006726 	0.3768438430733972 	101479.541475819
-0.711961961961962 	300.1317689876501 	0.3798869637456721 	101480.8606182107
-0.7094594594594597 	300.1279942558364 	0.369028226514782 	101476.3935187636
-0.7069569569569573 	300.1197664066508 	0.3454960741106987 	101466.6579206604
-0.7044544544544545 	300.1080870053707 	0.3121032178293511 	101452.8380983277
-0.7019519519519523 	300.0942688242114 	0.2725491007872712 	101436.4886927796
-0.6994494494494495 	300.079660185535 	0.2306432649388075 	101419.2059893714
-0.6969469469469471 	300.0654063418053 	0.1896468041526621 	101402.344985949
-0.6944444444444446 	300.0523155183409 	0.1518994793360981 	101386.8614427947
-0.6919419419419421 	300.0408523787646 	0.1187724223531029 	101373.304435133
-0.6894394394394396 	300.0312005738607 	0.09082586486440725 	101361.8905940294
-0.6869369369369374 	300.0233411606386 	0.06802953229246803 	101352.5970168118
-0.6844344344344344 	300.0171259077229 	0.04997338987108763 	101345.2480336109
-0.6819319319319321 	300.0123376658354 	0.03604232520275867 	101339.5866096603
-0.6794294294294296 	300.0087352077246 	0.02554665284849581 	101335.3273477272
-0.6769269269269272 	300.0060832330129 	0.01781001344611606 	101332.1919373849
-0.6744244244244245 	300.0041699787584 	0.01222143234252927 	101329.929949385
-0.6719219219219222 	300.0028154844579 	0.008260198527484301 	101328.3285869226
-0.6694194194194195 	300.0018734608146 	0.005502025692402155 	101327.2148801812
-0.6669169169169172 	300.0012292376989 	0.00361365662757747 	101326.4532517571
-0.6644144144144146 	300.0007956711704 	0.002341373499726596 	101325.9406723064
-0.661911911911912 	300.0005083079423 	0.001497213004300688 	101325.6009406944
-0.6594094094094097 	300.0003206191037 	0.0009452783735835267 	101325.3790480364
-0.656906906906907 	300.0001997475613 	0.000589467591473865 	101325.2361493011
-0.6544044044044046 	300.0001229566849 	0.0003631896001755841 	101325.1453642692
-0.6519019019019021 	300.0000748066263 	0.0002211663513542255 	101325.0884394154
-0.6493993993993996 	300.0000449961072 	0.0001331516826173601 	101325.0531962187
-0.6468968968968971 	300.0000267656585 	7.92752982595021e-05 	101325.0316434459
-0.6443943943943946 	300.0000157493345 	4.668818570687454e-05 	101325.0186195414
-0.6418918918918921 	300.0000091693138 	2.720581636751947e-05 	101325.0108403646
-0.6393893893893897 	300.0000052832722 	1.56893079870051e-05 	101325.006246115
-0.6368868868868871 	300.000003013378 	8.956316056002208e-06 	101325.0035625688
-0.6343843843843846 	300.0000017017114 	5.062088849275988e-06 	101325.002011846
-0.6318818818818821 	300.0000009516226 	2.833293589529564e-06 	101325.0011250991
-0.6293793793793795 	300.0000005271497 	1.570714428964311e-06 	101325.0006232086
-0.6268768768768773 	300.000000289284 	8.6263107131318e-07 	101325.0003419802
-0.6243743743743745 	300.0000001572598 	4.694082212096901e-07 	101325.000185938
-0.6218718718718721 	300.0000000847645 	2.531334500540691e-07 	101325.000100186
-0.6193693693693696 	300.0000000452077 	1.353013306199196e-07 	101325.0000535022
-0.6168668668668671 	300.0000000239424 	7.168807015898682e-08 	101325.0000283216
-0.6143643643643645 	300.000000012592 	3.765982249133424e-08 	101325.0000148626
-0.6118618618618621 	300.0000000065357 	1.96166955139362e-08 	101325.0000077325
-0.6093593593593596 	300.0000000033696 	1.013480646248211e-08 	101325.0000039881
-0.6068568568568571 	300.0000000017205 	5.193081113226676e-09 	101325.0000020384
-0.6043543543543546 	300.0000000008375 	2.640692770125654e-09 	101325.000001032
-0.6018518518518521 	300.0000000004127 	1.33185305975725e-09 	101325.0000005166
-0.5993493493493496 	300.0000000001704 	6.680653037475444e-10 	101325.0000002548
-0.5968468468468471 	300.0000000000694 	3.319141772014211e-10 	101325.0000001231
-0.5943443443443446 	300.0000000000459 	1.652429822475538e-10 	101325.0000000574
-0.591841841841842 	299.9999999999887 	8.008252918518515e-11 	101325.0000000247
-0.5893393393393397 	299.9999999999577 	4.060949601409982e-11 	101325.0000000085
-0.5868368368368371 	299.9999999999997 	1.785038490668666e-11 	101325.0000000007
-0.5843343343343346 	300.0000000000142 	1.118968893083708e-11 	101324.9999999968
-0.5818318318318321 	300.0000000000331 	3.828637294996815e-12 	101324.9999999951
-0.5793293293293297 	299.9999999999897 	4.096337936303551e-12 	101324.9999999941
-0.5768268268268271 	300.0000000000041 	1.505983885974203e-12 	101324.9999999935
-0.5743243243243245 	300.0000000000187 	2.370702609790054e-12 	101324.999999993
-0.5718218218218221 	300.0000000000189 	9.70443207900826e-13 	101324.9999999928
-0.5693193193193196 	300.000000000041 	1.1954426605247e-12 	101324.9999999927
-0.5668168168168171 	299.999999999989 	2.065064939837142e-12 	101324.9999999929
-0.5643143143143147 	299.9999999999521 	1.568747427529936e-12 	101324.9999999929
-0.5618118118118121 	300.0000000000122 	2.684966910134931e-12 	101324.999999993
-0.5593093093093094 	300.0000000000306 	1.503950912487162e-12 	101324.9999999929
-0.5568068068068072 	300.0000000000147 	2.463476172534237e-12 	101324.999999993
-0.5543043043043046 	300.0000000000138 	1.777356807152665e-12 	101324.9999999933
-0.551801801801802 	299.9999999999565 	2.607344904252284e-12 	101324.9999999934
-0.5492992992992995 	299.9999999999962 	1.910853807215721e-12 	101324.9999999933
-0.5467967967967969 	300.0000000000121 	3.284371680453469e-12 	101324.9999999933
-0.5442942942942947 	300.000000000009 	3.101414771096095e-12 	101324.9999999932
-0.5417917917917919 	299.9999999999607 	4.685727663374563e-12 	101324.9999999933
-0.5392892892892895 	299.9999999999335 	2.926290535476855e-12 	101324.9999999935
-0.536786786786787 	299.9999999999557 	4.38999813959476e-12 	101324.9999999933
-0.5342842842842846 	299.9999999999612 	1.515535950416981e-12 	101324.999999993
-0.531781781781782 	299.999999999936 	3.848491494277073e-12 	101324.9999999927
-0.5292792792792794 	299.9999999999327 	2.148414821103693e-12 	101324.9999999926
-0.526776776776777 	299.9999999999153 	3.964449526130845e-12 	101324.9999999926
-0.5242742742742745 	299.999999999974 	4.328818619371121e-12 	101324.9999999924
-0.521771771771772 	300.000000000015 	4.694387750620466e-12 	101324.9999999925
-0.5192692692692695 	299.9999999999628 	5.055074503843364e-12 	101324.9999999928
-0.516766766766767 	300.0000000000019 	4.841239200940423e-12 	101324.9999999931
-0.5142642642642645 	299.9999999999706 	4.223678613303697e-12 	101324.9999999932
-0.511761761761762 	299.9999999999552 	4.628665236967472e-12 	101324.9999999932
-0.5092592592592596 	299.9999999999719 	3.344706181629835e-12 	101324.9999999931
-0.506756756756757 	299.9999999999409 	3.719002447628835e-12 	101324.9999999929
-0.5042542542542544 	299.9999999999926 	2.421783612623923e-12 	101324.9999999925
-0.5017517517517521 	300.0000000000266 	3.113972109581836e-12 	101324.9999999924
-0.4992492492492494 	300.0000000000287 	1.461211044120367e-12 	101324.9999999923
-0.496746746746747 	299.999999999987 	3.141431367889594e-12 	101324.9999999924
-0.4942442442442445 	299.9999999999479 	1.114831090610965e-12 	101324.9999999926
-0.4917417417417421 	299.9999999999472 	2.967032240763425e-12 	101324.999999993
-0.4892392392392395 	299.9999999999615 	7.949824173693133e-13 	101324.9999999932
-0.486736736736737 	299.9999999999609 	2.354387631795921e-12 	101324.999999993
-0.4842342342342345 	299.9999999999268 	1.23617770209074e-12 	101324.9999999929
-0.481731731731732 	300.0000000000325 	3.20200694691178e-12 	101324.9999999929
-0.4792292292292296 	300.0000000000163 	8.958816478787825e-13 	101324.999999993
-0.4767267267267268 	299.9999999999613 	4.580826149012594e-12 	101324.9999999928
-0.4742242242242246 	299.9999999999988 	1.864336520106685e-12 	101324.9999999925
-0.471721721721722 	299.9999999999598 	3.704781851010382e-12 	101324.9999999922
-0.4692192192192195 	299.9999999999793 	1.723659728394848e-12 	101324.9999999922
-0.4667167167167169 	299.999999999917 	2.551747871375378e-12 	101324.9999999922
-0.4642142142142145 	299.999999999995 	1.700084840371126e-12 	101324.9999999923
-0.461711711711712 	300.0000000000158 	2.61872288713733e-12 	101324.9999999922
-0.4592092092092094 	300.0000000000052 	6.158273343870343e-13 	101324.9999999922
-0.456706706706707 	300.0000000000445 	2.958855317366036e-12 	101324.9999999923
-0.4542042042042045 	299.9999999999424 	1.770788920374057e-12 	101324.9999999926
-0.451701701701702 	299.9999999999557 	2.971185092017284e-12 	101324.9999999926
-0.4491991991991995 	299.9999999999626 	1.524590730059622e-12 	101324.9999999925
-0.4466966966966969 	299.9999999999593 	2.85042481835023e-12 	101324.9999999925
-0.4441941941941945 	299.9999999999964 	7.926933455714251e-13 	101324.9999999923
-0.441691691691692 	299.9999999999641 	3.862197586990729e-12 	101324.9999999924
-0.4391891891891895 	299.9999999999903 	8.890999112642126e-13 	101324.9999999923
-0.436686686686687 	299.9999999999735 	4.591855387160446e-12 	101324.9999999924
-0.4341841841841846 	299.9999999999976 	1.981481844211999e-12 	101324.9999999926
-0.431681681681682 	299.9999999999532 	3.798735492389405e-12 	101324.9999999924
-0.4291791791791794 	299.9999999999385 	1.544871188180866e-12 	101324.9999999922
-0.426676676676677 	299.9999999999201 	2.916257610222571e-12 	101324.9999999921
-0.4241741741741744 	299.9999999999675 	1.484611562522897e-12 	101324.9999999919
-0.421671671671672 	300.0000000000027 	2.552186130843039e-12 	101324.9999999917
-0.4191691691691694 	300.000000000043 	7.495340366041275e-13 	101324.9999999916
-0.4166666666666669 	300.0000000000493 	2.40471884185318e-12 	101324.9999999916
-0.4141641641641645 	299.9999999999424 	1.156044518875983e-12 	101324.9999999916
-0.411661661661662 	299.9999999999998 	2.234748677107904e-12 	101324.9999999915
-0.4091591591591594 	300.000000000006 	2.040623117226746e-12 	101324.9999999916
-0.406656656656657 	299.9999999999528 	3.182402878731865e-12 	101324.9999999916
-0.4041541541541545 	300.0000000000139 	1.759959641459743e-12 	101324.9999999918
-0.401651651651652 	299.9999999999338 	4.641307241582351e-12 	101324.999999992
-0.3991491491491494 	300.0000000000014 	1.385154585313545e-12 	101324.999999992
-0.396646646646647 	299.9999999999578 	5.170674411142537e-12 	101324.999999992
-0.3941441441441444 	299.9999999999821 	1.276636074457524e-12 	101324.9999999919
-0.3916416416416419 	299.9999999999444 	4.67934620186019e-12 	101324.9999999916
-0.3891391391391395 	299.9999999999623 	1.54526953114893e-12 	101324.9999999917
-0.3866366366366368 	299.9999999999616 	3.660631942095058e-12 	101324.9999999915
-0.3841341341341344 	299.9999999999948 	1.745101731885061e-12 	101324.9999999917
-0.381631631631632 	299.9999999999538 	2.353049492630826e-12 	101324.9999999919
-0.3791291291291294 	299.9999999999986 	1.728512684814482e-12 	101324.9999999917
-0.3766266266266269 	300.0000000000178 	1.657978587350721e-12 	101324.9999999916
-0.3741241241241244 	300.0000000000201 	2.747516397851088e-12 	101324.9999999918
-0.371621621621622 	300.0000000000159 	1.181197258029989e-12 	101324.9999999918
-0.3691191191191194 	300.0000000000061 	4.271437838522424e-12 	101324.9999999917
-0.366616616616617 	300.000000000004 	1.38923544913858e-12 	101324.9999999918
-0.3641141141141143 	299.9999999999758 	4.244027030000928e-12 	101324.9999999918
-0.3616116116116119 	299.999999999953 	2.169810230937649e-12 	101324.9999999919
-0.3591091091091095 	299.9999999999844 	3.716681043061051e-12 	101324.999999992
-0.356606606606607 	299.9999999999794 	2.901349313109487e-12 	101324.9999999921
-0.3541041041041044 	299.9999999999914 	2.695700704257864e-12 	101324.999999992
-0.3516016016016019 	300.0000000000099 	4.117200380874165e-12 	101324.9999999923
-0.3490990990990994 	299.9999999999952 	3.056409623796519e-12 	101324.9999999924
-0.346596596596597 	300.0000000000349 	5.593626414003457e-12 	101324.9999999927
-0.3440940940940944 	300.0000000000422 	3.014241954121882e-12 	101324.9999999926
-0.3415915915915919 	300.0000000000181 	5.253512435443409e-12 	101324.9999999924
-0.3390890890890895 	299.9999999999795 	3.091142687296993e-12 	101324.9999999923
-0.3365865865865869 	300.0000000000164 	4.438323540545243e-12 	101324.9999999923
-0.3340840840840844 	300.0000000000007 	3.754121653000181e-12 	101324.9999999923
-0.3315815815815819 	300.000000000019 	4.397856734207383e-12 	101324.9999999922
-0.3290790790790794 	300.0000000000181 	3.766268661262826e-12 	101324.9999999924
-0.3265765765765769 	299.9999999999358 	3.791560001860329e-12 	101324.9999999924
-0.3240740740740744 	299.999999999995 	2.214106643231433e-12 	101324.9999999922
-0.3215715715715718 	300.0000000000058 	3.465685013190583e-12 	101324.9999999919
-0.3190690690690695 	299.9999999999424 	2.27114882923943e-12 	101324.9999999919
-0.3165665665665668 	299.9999999999906 	4.425203653005417e-12 	101324.999999992
-0.3140640640640644 	300.0000000000017 	2.836718470816962e-12 	101324.999999992
-0.311561561561562 	299.9999999999382 	5.831548519386619e-12 	101324.9999999919
-0.3090590590590593 	299.9999999999961 	9.983869264363557e-13 	101324.9999999918
-0.3065565565565568 	300.0000000000053 	5.875223425436805e-12 	101324.9999999918
-0.3040540540540545 	300.0000000000004 	1.508163333786807e-12 	101324.999999992
-0.3015515515515518 	300.0000000000292 	4.946274206439472e-12 	101324.999999992
-0.2990490490490494 	299.9999999999523 	1.161007165865903e-12 	101324.999999992
-0.2965465465465469 	299.9999999999865 	3.491569893001136e-12 	101324.999999992
-0.2940440440440444 	299.9999999999994 	2.4373448659765e-12 	101324.9999999922
-0.2915415415415418 	300.0000000000049 	2.746137339842788e-12 	101324.9999999923
-0.2890390390390395 	300.0000000000062 	3.798849407580675e-12 	101324.9999999923
-0.2865365365365368 	299.9999999999831 	2.632215320562395e-12 	101324.9999999922
-0.2840340340340343 	299.9999999999956 	4.67006971012926e-12 	101324.9999999923
-0.2815315315315318 	299.9999999999343 	1.928325060921256e-12 	101324.999999992
-0.2790290290290295 	299.9999999999668 	3.708931027141991e-12 	101324.9999999917
-0.2765265265265269 	300.0000000000048 	2.381346599395169e-12 	101324.9999999915
-0.2740240240240244 	300.00000000002 	3.975851499237471e-12 	101324.9999999913
-0.2715215215215219 	300.0000000000106 	4.307083509289884e-12 	101324.9999999916
-0.2690190190190194 	299.9999999999476 	4.092876937945747e-12 	101324.9999999916
-0.2665165165165169 	299.9999999999964 	4.790536934949306e-12 	101324.9999999918
-0.2640140140140144 	299.9999999999727 	3.863307362464247e-12 	101324.999999992
-0.2615115115115119 	300.0000000000011 	6.182056499274547e-12 	101324.999999992
-0.2590090090090094 	299.9999999999393 	4.052260527436731e-12 	101324.9999999924
-0.2565065065065068 	299.9999999999913 	4.705483856683638e-12 	101324.9999999925
-0.2540040040040044 	299.9999999999954 	4.488985598578862e-12 	101324.9999999926
-0.2515015015015019 	300.0000000000338 	3.824786334787727e-12 	101324.9999999927
-0.2489989989989994 	300.0000000000369 	5.907430921497178e-12 	101324.9999999927
-0.2464964964964968 	299.9999999999934 	3.873656414831389e-12 	101324.9999999927
-0.2439939939939944 	299.9999999999982 	7.824033146297239e-12 	101324.9999999929
-0.2414914914914919 	299.9999999999724 	3.841187218456758e-12 	101324.999999993
-0.2389889889889893 	300.0000000000055 	7.525567991946288e-12 	101324.9999999931
-0.2364864864864869 	300.0000000000216 	3.829665136348935e-12 	101324.9999999933
-0.2339839839839843 	299.9999999999437 	7.556091699530027e-12 	101324.9999999933
-0.2314814814814819 	299.9999999999833 	3.015465497192107e-12 	101324.9999999932
-0.2289789789789792 	299.9999999999292 	5.796330274075605e-12 	101324.9999999931
-0.2264764764764769 	299.9999999999528 	3.072379278087153e-12 	101324.9999999931
-0.2239739739739743 	299.999999999966 	4.349734961087549e-12 	101324.999999993
-0.2214714714714718 	299.9999999999472 	3.942753513040846e-12 	101324.9999999927
-0.2189689689689693 	299.9999999999735 	3.081830579580737e-12 	101324.9999999925
-0.2164664664664669 	299.9999999999841 	4.12825136309169e-12 	101324.9999999924
-0.2139639639639643 	299.9999999999459 	1.834520303752978e-12 	101324.9999999925
-0.2114614614614618 	299.9999999999774 	3.206300617332809e-12 	101324.9999999928
-0.2089589589589593 	299.9999999999929 	2.772078159123676e-12 	101324.9999999928
-0.2064564564564568 	299.9999999999924 	2.235175082848227e-12 	101324.9999999929
-0.2039539539539543 	299.9999999999245 	2.750035883793801e-12 	101324.9999999929
-0.2014514514514518 	299.9999999999526 	3.765898421175558e-13 	101324.9999999928
-0.1989489489489494 	299.9999999999699 	3.651815604673375e-12 	101324.999999993
-0.1964464464464468 	299.9999999999919 	7.122207787991935e-13 	101324.9999999932
-0.1939439439439443 	299.9999999999906 	4.030782391709356e-12 	101324.9999999931
-0.1914414414414418 	299.9999999999347 	1.755661132374694e-12 	101324.9999999931
-0.1889389389389393 	300.0000000000027 	3.127179667956968e-12 	101324.9999999929
-0.1864364364364368 	300.0000000000331 	2.063538881037468e-12 	101324.9999999928
-0.1839339339339343 	299.9999999999801 	2.465513040687246e-12 	101324.9999999928
-0.1814314314314318 	299.9999999999967 	1.680623541226927e-12 	101324.9999999928
-0.1789289289289293 	299.9999999999143 	2.466687214898387e-12 	101324.9999999928
-0.1764264264264268 	299.9999999999808 	1.37614968279757e-12 	101324.9999999925
-0.1739239239239243 	299.9999999999137 	3.401336116043086e-12 	101324.9999999925
-0.1714214214214218 	299.9999999999887 	3.354562853740974e-13 	101324.9999999924
-0.1689189189189193 	299.9999999999582 	3.888172455272916e-12 	101324.9999999923
-0.1664164164164168 	300.0000000000031 	9.444429289461518e-13 	101324.9999999922
-0.1639139139139143 	299.9999999999861 	5.89477240994881e-12 	101324.9999999923
-0.1614114114114118 	300.0000000000194 	2.015149084522144e-12 	101324.9999999924
-0.1589089089089093 	299.9999999999964 	7.719524111442167e-12 	101324.9999999926
-0.1564064064064068 	299.9999999999851 	3.419229838511431e-12 	101324.9999999927
-0.1539039039039043 	299.9999999999928 	8.26138226513837e-12 	101324.9999999928
-0.1514014014014018 	300.0000000000212 	2.103835485526693e-12 	101324.9999999929
-0.1488988988988993 	299.9999999999887 	8.278466448436215e-12 	101324.9999999929
-0.1463963963963968 	300.0000000000016 	7.890742553308521e-13 	101324.9999999931
-0.1438938938938943 	299.9999999999635 	7.238212910007651e-12 	101324.999999993
-0.1413913913913918 	299.9999999999345 	1.789701236592356e-12 	101324.9999999931
-0.1388888888888893 	299.9999999999812 	5.652971161217877e-12 	101324.999999993
-0.1363863863863868 	299.9999999999066 	1.727665203612659e-12 	101324.9999999927
-0.1338838838838843 	299.9999999999306 	3.30554425322758e-12 	101324.9999999927
-0.1313813813813818 	299.9999999999957 	9.980845683864773e-13 	101324.9999999929
-0.1288788788788793 	299.9999999999679 	2.21338593477973e-12 	101324.9999999928
-0.1263763763763768 	299.9999999999754 	1.360480516763418e-13 	101324.9999999925
-0.1238738738738743 	299.9999999999429 	2.361046990071522e-12 	101324.9999999926
-0.1213713713713717 	299.9999999999864 	4.322306211602262e-13 	101324.9999999927
-0.1188688688688693 	300.0000000000068 	3.792393988945381e-12 	101324.9999999925
-0.1163663663663668 	299.9999999999201 	3.35508307231489e-13 	101324.9999999927
-0.1138638638638643 	299.9999999999899 	4.62092599479821e-12 	101324.9999999929
-0.1113613613613618 	299.9999999999884 	4.117531343903802e-13 	101324.9999999929
-0.1088588588588592 	299.9999999999823 	6.232608824243405e-12 	101324.9999999926
-0.1063563563563568 	299.999999999965 	1.217077559126137e-12 	101324.9999999927
-0.1038538538538543 	299.9999999999803 	5.60117551378915e-12 	101324.9999999929
-0.1013513513513517 	300.0000000000106 	2.102113010578709e-12 	101324.9999999928
-0.09884884884884926 	299.999999999957 	4.713875236757174e-12 	101324.9999999928
-0.09634634634634676 	299.9999999999125 	1.527204768558912e-12 	101324.9999999928
-0.09384384384384425 	299.9999999999373 	3.216602356074179e-12 	101324.9999999927
-0.09134134134134177 	300.0000000000165 	1.708378287404112e-12 	101324.9999999927
-0.08883883883883925 	300.0000000000076 	3.254687597794009e-12 	101324.9999999927
-0.08633633633633674 	299.9999999999593 	2.782577509422295e-12 	101324.9999999928
-0.08383383383383426 	300.0000000000064 	3.347779445610598e-12 	101324.9999999929
-0.08133133133133173 	299.9999999999737 	3.236056871522854e-12 	101324.9999999929
-0.07882882882882926 	299.9999999999022 	2.238328477120686e-12 	101324.9999999928
-0.07632632632632676 	299.9999999999665 	2.143438932633029e-12 	101324.9999999926
-0.07382382382382424 	299.9999999999134 	1.564221918379466e-12 	101324.9999999925
-0.07132132132132173 	300.0000000000094 	1.180290302134214e-12 	101324.9999999925
-0.06881881881881925 	299.9999999999651 	1.275484141567044e-12 	101324.9999999925
-0.06631631631631671 	299.9999999999082 	1.15531250157792e-12 	101324.9999999924
-0.06381381381381425 	299.9999999999612 	1.278337235965831e-12 	101324.9999999926
-0.06131131131131173 	299.9999999999624 	9.76845123287635e-13 	101324.9999999924
-0.05880880880880923 	299.9999999999324 	8.140683760831124e-13 	101324.9999999922
-0.05630630630630672 	299.9999999999703 	6.21039499318391e-13 	101324.9999999922
-0.05380380380380424 	300.0000000000127 	6.531255102304278e-13 	101324.9999999922
-0.05130130130130173 	300.0000000000086 	7.623247844800083e-13 	101324.9999999923
-0.04879879879879922 	299.9999999999532 	1.161581170763498e-12 	101324.9999999928
-0.04629629629629672 	299.9999999999449 	7.138345131265307e-13 	101324.999999993
-0.04379379379379422 	299.999999999929 	1.064053135386082e-12 	101324.9999999933
-0.04129129129129173 	299.9999999999803 	3.930588970975716e-13 	101324.9999999932
-0.03878878878878922 	299.9999999999843 	8.575606062125614e-13 	101324.9999999929
-0.03628628628628671 	299.9999999999815 	6.322067245227714e-13 	101324.9999999928
-0.03378378378378422 	299.9999999999415 	1.23491559564625e-12 	101324.9999999927
-0.03128128128128172 	299.9999999999724 	4.981037675523633e-13 	101324.9999999924
-0.02877877877877922 	299.9999999999718 	9.982976864088758e-13 	101324.9999999921
-0.0262762762762767 	299.9999999999141 	8.470925740662576e-13 	101324.9999999921
-0.02377377377377422 	300.0000000000146 	7.37735159712609e-13 	101324.9999999922
-0.0212712712712717 	299.9999999999171 	9.433670675891142e-13 	101324.9999999922
-0.01876876876876921 	299.9999999999762 	2.128464779336244e-13 	101324.9999999924
-0.01626626626626671 	300.000000000011 	8.623308711387742e-13 	101324.9999999924
-0.0137637637637642 	299.9999999999686 	7.512273991833549e-13 	101324.9999999921
-0.0112612612612617 	300.0000000000122 	1.012748287324983e-12 	101324.9999999919
-0.008758758758759198 	299.9999999999966 	9.881485702686569e-13 	101324.9999999916
-0.006256256256256697 	299.999999999905 	1.415706081205208e-12 	101324.9999999915
-0.003753753753754195 	299.9999999999578 	3.397070928062492e-13 	101324.9999999913
-0.001251251251251693 	299.999999999936 	5.072069951869574e-13 	101324.9999999913
0.00125125125125081 	299.9999999999572 	1.965423820005388e-13 	101324.9999999912
0.003753753753753312 	299.9999999999708 	3.704243993375417e-13 	101324.9999999915
0.006256256256255817 	299.9999999999053 	1.994601995618136e-13 	101324.9999999918
0.008758758758758317 	299.999999999989 	1.387551236890156e-13 	101324.9999999919
0.01126126126126082 	300.0000000000066 	3.071139971101292e-13 	101324.9999999919
0.01376376376376332 	299.9999999999717 	4.306129371438756e-13 	101324.9999999922
0.01626626626626582 	300.0000000000065 	6.298020639173316e-13 	101324.9999999923
0.01876876876876833 	299.9999999999619 	1.152816734945598e-13 	101324.9999999923
0.02127127127127083 	299.9999999999767 	1.03026732911984e-13 	101324.9999999925
0.02377377377377332 	299.999999999994 	1.597139975509471e-13 	101324.9999999924
0.02627627627627583 	299.9999999999202 	2.005875857112885e-13 	101324.9999999923
0.02877877877877833 	300.0000000000045 	3.152139176265191e-13 	101324.9999999923
0.03128128128128083 	299.9999999999525 	3.881839405751021e-13 	101324.9999999921
0.03378378378378333 	299.9999999999167 	1.163465408124378e-12 	101324.9999999922
0.03628628628628584 	299.9999999999766 	1.417286430991018e-12 	101324.9999999923
0.03878878878878834 	299.9999999999824 	1.667648956281237e-12 	101324.9999999922
0.04129129129129084 	299.999999999979 	2.106633241301137e-12 	101324.9999999924
0.04379379379379333 	299.9999999999488 	2.352990386181842e-12 	101324.9999999925
0.04629629629629585 	299.9999999999035 	2.467419437859762e-12 	101324.9999999922
0.04879879879879834 	299.9999999999609 	2.115573472471276e-12 	101324.9999999924
0.05130130130130085 	300.0000000000106 	1.532100699463493e-12 	101324.9999999925
0.05380380380380335 	300.0000000000167 	1.243960399380091e-12 	101324.9999999926
0.05630630630630584 	299.9999999999918 	1.855810721884144e-12 	101324.9999999927
0.05880880880880836 	299.9999999999341 	1.893689695368059e-12 	101324.9999999928
0.06131131131131085 	299.9999999999787 	2.465137056843258e-12 	101324.9999999928
0.06381381381381336 	299.9999999999699 	2.59176050357432e-12 	101324.9999999928
0.06631631631631586 	299.999999999908 	3.190334139404782e-12 	101324.9999999928
0.06881881881881835 	299.9999999999592 	3.77740332588273e-12 	101324.9999999926
0.07132132132132088 	299.9999999999911 	3.596592860320691e-12 	101324.9999999924
0.07382382382382337 	299.9999999999193 	3.281593180006092e-12 	101324.9999999924
0.07632632632632587 	299.9999999999739 	2.887831031964845e-12 	101324.9999999925
0.07882882882882837 	299.9999999999478 	2.616407015307197e-12 	101324.9999999929
0.08133133133133086 	299.999999999988 	2.572164656180797e-12 	101324.9999999928
0.08383383383383337 	299.9999999999872 	2.123114282406344e-12 	101324.9999999929
0.08633633633633589 	299.9999999999201 	2.301774169521853e-12 	101324.9999999927
0.08883883883883838 	300.0000000000082 	3.236192901126201e-12 	101324.9999999929
0.09134134134134086 	299.9999999999888 	3.233847851752119e-12 	101324.9999999929
0.09384384384384339 	299.9999999999143 	4.222390952647065e-12 	101324.9999999929
0.09634634634634588 	299.9999999999712 	3.714329512299317e-12 	101324.9999999927
0.09884884884884838 	299.9999999999762 	3.750760139334388e-12 	101324.9999999925
0.1013513513513509 	300.0000000000156 	3.544333505850482e-12 	101324.9999999925
0.1038538538538534 	299.9999999999601 	3.246191783495406e-12 	101324.9999999927
0.1063563563563559 	300.0000000000129 	3.669437550890703e-12 	101324.9999999929
0.1088588588588584 	300.0000000000198 	3.123189519844782e-12 	101324.9999999932
0.1113613613613609 	299.9999999999333 	3.075051318237064e-12 	101324.9999999932
0.1138638638638634 	299.9999999999545 	2.902590641726362e-12 	101324.999999993
0.1163663663663659 	299.9999999999526 	2.868161810185499e-12 	101324.9999999928
0.1188688688688684 	299.9999999999739 	2.742157508760964e-12 	101324.9999999927
0.1213713713713709 	299.9999999999956 	2.664470908406245e-12 	101324.9999999928
0.1238738738738734 	299.9999999999389 	2.824568380269822e-12 	101324.9999999929
0.1263763763763759 	299.9999999999859 	3.025031173376358e-12 	101324.9999999931
0.1288788788788784 	299.9999999999894 	1.874913887964477e-12 	101324.9999999928
0.1313813813813809 	299.9999999999878 	2.101333878699523e-12 	101324.9999999929
0.1338838838838834 	299.9999999999805 	1.657403279185035e-12 	101324.9999999926
0.1363863863863859 	300.0000000000235 	9.235984286398608e-13 	101324.9999999925
0.1388888888888884 	300.0000000000388 	5.938555064609829e-13 	101324.9999999925
0.1413913913913909 	300.0000000000016 	7.422117517492155e-13 	101324.9999999925
0.1438938938938934 	299.9999999999962 	1.466409347621556e-12 	101324.9999999922
0.1463963963963959 	299.9999999999629 	9.859547186858141e-13 	101324.9999999923
0.1488988988988985 	299.999999999927 	1.981273749840315e-12 	101324.9999999923
0.1514014014014009 	299.9999999999714 	6.172718978627445e-13 	101324.9999999922
0.1539039039039035 	299.9999999999669 	2.07912816853618e-12 	101324.9999999921
0.1564064064064059 	299.9999999999495 	7.361057639816672e-13 	101324.9999999922
0.1589089089089084 	299.9999999999858 	2.393425246965995e-12 	101324.9999999924
0.1614114114114109 	299.9999999999821 	3.551013834550877e-13 	101324.9999999923
0.1639139139139134 	299.9999999999249 	2.625934439353262e-12 	101324.9999999924
0.166416416416416 	300.0000000000014 	2.385886510335636e-12 	101324.9999999923
0.1689189189189185 	300.0000000000222 	2.867908150355171e-12 	101324.9999999924
0.1714214214214209 	299.9999999999942 	3.561825192327709e-12 	101324.9999999922
0.1739239239239235 	299.999999999986 	2.785591094924934e-12 	101324.9999999923
0.1764264264264259 	299.999999999974 	5.002123481109961e-12 	101324.9999999924
0.1789289289289284 	300.0000000000015 	2.234382942820386e-12 	101324.9999999924
0.181431431431431 	299.9999999999654 	4.470337311301438e-12 	101324.999999992
0.1839339339339334 	299.9999999999683 	1.915383846691501e-12 	101324.9999999919
0.186436436436436 	299.999999999938 	2.468123538174562e-12 	101324.9999999921
0.1889389389389385 	299.9999999999866 	1.726806983730191e-12 	101324.9999999921
0.191441441441441 	299.9999999999832 	1.351605086333859e-12 	101324.999999992
0.1939439439439434 	299.9999999999325 	2.844202568192952e-12 	101324.9999999922
0.196446446446446 	299.9999999999534 	9.467824921693075e-13 	101324.9999999923
0.1989489489489485 	299.9999999999696 	3.217808490587603e-12 	101324.9999999922
0.2014514514514509 	299.9999999999839 	1.122697044467374e-12 	101324.9999999923
0.2039539539539535 	299.9999999999937 	2.654249970255533e-12 	101324.9999999923
0.2064564564564559 	299.999999999965 	1.577726417577081e-12 	101324.9999999922
0.2089589589589585 	299.9999999999853 	2.188528545284492e-12 	101324.999999992
0.211461461461461 	299.9999999999421 	2.556857593820808e-12 	101324.999999992
0.2139639639639635 	299.9999999999832 	2.050742080282673e-12 	101324.999999992
0.2164664664664659 	299.9999999999955 	2.75047607026959e-12 	101324.999999992
0.2189689689689684 	299.9999999999931 	7.89507507502572e-13 	101324.9999999918
0.221471471471471 	299.9999999999939 	3.490594173449153e-12 	101324.9999999918
0.2239739739739735 	299.9999999999608 	1.777999558530925e-12 	101324.9999999917
0.226476476476476 	299.9999999999838 	3.824902048705451e-12 	101324.9999999918
0.2289789789789785 	299.999999999994 	2.655558312012605e-12 	101324.9999999918
0.231481481481481 	299.9999999999899 	2.950475095471683e-12 	101324.9999999918
0.2339839839839835 	299.9999999999863 	3.185559518288411e-12 	101324.9999999918
0.236486486486486 	300.0000000000167 	1.979771827334584e-12 	101324.9999999919
0.2389889889889885 	299.9999999999986 	2.920720904780473e-12 	101324.9999999919
0.241491491491491 	299.9999999999354 	1.124152515603283e-12 	101324.9999999919
0.2439939939939935 	299.9999999999856 	4.076222428548673e-12 	101324.9999999922
0.246496496496496 	299.9999999999907 	1.940969071928877e-12 	101324.9999999924
0.2489989989989985 	300.0000000000315 	3.308198621745147e-12 	101324.9999999922
0.251501501501501 	300.0000000000218 	2.1203552529773e-12 	101324.9999999921
0.2540040040040035 	299.9999999999891 	2.274952067689683e-12 	101324.999999992
0.256506506506506 	300.0000000000211 	3.520467637314277e-12 	101324.9999999919
0.2590090090090086 	299.9999999999231 	2.608303464300491e-12 	101324.9999999921
0.261511511511511 	300.0000000000007 	5.23526137603561e-12 	101324.9999999923
0.2640140140140135 	299.9999999999926 	2.659616834731388e-12 	101324.9999999924
0.2665165165165161 	299.9999999999412 	4.775539531678553e-12 	101324.9999999925
0.2690190190190185 	300.0000000000035 	3.253884202025109e-12 	101324.9999999925
0.271521521521521 	300.000000000007 	2.919200453714897e-12 	101324.9999999925
0.2740240240240235 	300.0000000000114 	2.489486568959617e-12 	101324.9999999924
0.276526526526526 	300.0000000000038 	1.299173756115832e-12 	101324.9999999925
0.2790290290290286 	299.9999999999477 	2.086178646364535e-12 	101324.9999999923
0.281531531531531 	299.9999999999393 	4.605652206669501e-13 	101324.9999999921
0.2840340340340335 	299.9999999999813 	2.396363638255416e-12 	101324.9999999921
0.2865365365365361 	299.9999999999644 	9.394230120962831e-13 	101324.9999999922
0.2890390390390385 	299.9999999999983 	1.907740432227505e-12 	101324.9999999924
0.291541541541541 	299.999999999999 	1.496822712920494e-12 	101324.9999999923
0.2940440440440436 	299.9999999999908 	9.773454781920792e-13 	101324.9999999923
0.296546546546546 	299.999999999992 	2.033800979078864e-12 	101324.9999999922
0.2990490490490486 	299.9999999999466 	1.239600948704112e-12 	101324.9999999922
0.3015515515515511 	300.0000000000274 	4.052869559621341e-12 	101324.9999999921
0.3040540540540535 	299.9999999999965 	1.915875347337751e-12 	101324.9999999922
0.3065565565565562 	299.9999999999989 	5.026705344952935e-12 	101324.9999999923
0.3090590590590585 	299.9999999999919 	9.422413789991765e-13 	101324.999999992
0.3115615615615611 	299.9999999999485 	5.136833190796773e-12 	101324.999999992
0.3140640640640635 	300.0000000000029 	2.072368511789917e-12 	101324.9999999918
0.316566566566566 	299.9999999999902 	4.504862910400753e-12 	101324.9999999918
0.3190690690690687 	299.9999999999603 	2.820692698832434e-12 	101324.9999999915
0.3215715715715711 	300.0000000000118 	4.768948419675207e-12 	101324.9999999914
0.3240740740740735 	299.999999999998 	2.661138402368078e-12 	101324.9999999913
0.326576576576576 	299.9999999999176 	3.883883051149145e-12 	101324.9999999915
0.3290790790790786 	300.0000000000049 	2.663101094433443e-12 	101324.9999999914
0.3315815815815811 	300.0000000000238 	3.062088131584887e-12 	101324.9999999913
0.3340840840840836 	299.9999999999882 	2.07910261852696e-12 	101324.9999999914
0.3365865865865861 	300.0000000000436 	2.767025161392049e-12 	101324.9999999919
0.3390890890890886 	300.0000000000389 	1.256956270586827e-12 	101324.999999992
0.3415915915915911 	300.0000000000009 	2.17233355420735e-12 	101324.999999992
0.3440940940940935 	299.9999999999604 	4.796009654203221e-13 	101324.9999999922
0.3465965965965962 	300.0000000000284 	2.020518351343249e-12 	101324.9999999923
0.3490990990990985 	300.0000000000212 	8.558258240393467e-13 	101324.9999999923
0.3516016016016011 	299.9999999999855 	1.566247281117983e-12 	101324.9999999922
0.3541041041041035 	300.0000000000044 	1.301116918621434e-12 	101324.9999999921
0.3566066066066061 	299.9999999999624 	5.854633677322743e-13 	101324.9999999921
0.3591091091091085 	299.9999999999367 	1.689393536192967e-12 	101324.9999999921
0.3616116116116112 	299.9999999999469 	1.063597715997623e-12 	101324.9999999918
0.3641141141141137 	299.9999999999428 	2.562328783911918e-12 	101324.9999999919
0.3666166166166161 	299.9999999999376 	1.104090297917468e-12 	101324.9999999919
0.3691191191191185 	300.0000000000322 	3.831412915731298e-12 	101324.9999999919
0.371621621621621 	300.0000000000119 	1.345728319215875e-12 	101324.9999999919
0.3741241241241237 	300.0000000000367 	2.258838350693983e-12 	101324.999999992
0.3766266266266261 	300.0000000000176 	1.404335488019369e-12 	101324.999999992
0.3791291291291286 	299.9999999999864 	1.268206585328716e-12 	101324.9999999921
0.3816316316316311 	299.9999999999341 	1.021543753472787e-12 	101324.9999999919
0.3841341341341336 	300.0000000000087 	1.161388405917314e-12 	101324.999999992
0.3866366366366362 	299.9999999999976 	7.799822991097663e-13 	101324.9999999918
0.3891391391391387 	299.9999999999661 	1.264566731085576e-12 	101324.9999999918
0.391641641641641 	299.9999999999955 	5.819599829670635e-13 	101324.9999999918
0.3941441441441436 	300.0000000000077 	3.727290255077675e-13 	101324.9999999916
0.3966466466466462 	299.9999999999994 	7.715812893626507e-13 	101324.9999999916
0.3991491491491486 	299.9999999999582 	5.855774210433614e-13 	101324.9999999913
0.4016516516516512 	299.9999999999306 	9.348509197741459e-13 	101324.9999999914
0.4041541541541536 	299.9999999999561 	1.116115307058137e-12 	101324.9999999915
0.4066566566566561 	299.9999999999563 	1.750549087436454e-12 	101324.9999999919
0.4091591591591587 	299.9999999999945 	5.767222260506351e-13 	101324.9999999921
0.4116616616616612 	300.0000000000064 	1.037358399161195e-12 	101324.9999999921
0.4141641641641635 	300.000000000029 	2.364437334562801e-13 	101324.9999999922
0.4166666666666662 	299.9999999999953 	3.28276806358129e-13 	101324.9999999923
0.4191691691691687 	299.9999999999517 	1.397589711503853e-12 	101324.9999999925
0.421671671671671 	300.0000000000079 	1.73207784337525e-12 	101324.9999999924
0.4241741741741737 	299.9999999999807 	2.246481174341181e-12 	101324.9999999923
0.4266766766766761 	299.9999999999584 	2.607469371692009e-12 	101324.999999992
0.4291791791791785 	300.000000000018 	2.633301341144986e-12 	101324.9999999918
0.4316816816816812 	300.0000000000095 	2.805248348597762e-12 	101324.9999999915
0.4341841841841836 	299.9999999999866 	2.520177331467351e-12 	101324.9999999913
0.4366866866866862 	299.9999999999322 	1.633003928510376e-12 	101324.9999999913
0.4391891891891885 	299.9999999999899 	1.771468466982993e-12 	101324.9999999914
0.4416916916916913 	299.9999999999857 	9.633988216782984e-13 	101324.9999999915
0.4441941941941936 	299.9999999999918 	1.757844601371022e-12 	101324.9999999914
0.4466966966966961 	299.9999999999321 	5.026377797678607e-13 	101324.9999999915
0.4491991991991987 	299.9999999999822 	4.907855568886949e-13 	101324.9999999918
0.4517017017017012 	299.9999999999819 	1.621265478260514e-13 	101324.9999999921
0.4542042042042035 	299.999999999986 	5.633298996630709e-13 	101324.9999999923
0.4567067067067062 	299.9999999999967 	2.159180846473922e-13 	101324.9999999922
0.4592092092092087 	299.9999999999414 	4.645389733342059e-13 	101324.999999992
0.4617117117117112 	300.000000000015 	4.27461998500792e-13 	101324.9999999921
0.4642142142142137 	299.9999999999692 	4.392911693579821e-13 	101324.999999992
0.4667167167167162 	299.9999999999912 	4.428195876027011e-13 	101324.9999999921
0.4692192192192187 	299.9999999999646 	2.57823758351488e-13 	101324.999999992
0.4717217217217212 	300.0000000000082 	1.855976823700026e-13 	101324.999999992
0.4742242242242236 	299.9999999999643 	4.952586291376285e-13 	101324.9999999922
0.4767267267267262 	299.9999999999762 	3.961320030677232e-13 	101324.9999999922
0.4792292292292287 	300.0000000000093 	5.314286343696655e-13 	101324.9999999921
0.4817317317317312 	300.0000000000243 	5.152329064990043e-13 	101324.9999999922
0.4842342342342336 	299.9999999999866 	5.864356688358409e-13 	101324.999999992
0.4867367367367362 	299.9999999999625 	1.18332885402507e-12 	101324.9999999919
0.4892392392392387 	300.0000000000255 	5.850218791369392e-13 	101324.9999999917
0.4917417417417412 	300.0000000000062 	2.150883684625576e-12 	101324.9999999916
0.4942442442442437 	299.9999999999249 	1.03896033624628e-12 	101324.9999999914
0.4967467467467462 	299.9999999999404 	2.292836824464644e-12 	101324.9999999915
0.4992492492492487 	299.9999999999372 	7.03119117189031e-13 	101324.9999999916
0.5017517517517511 	299.9999999999633 	2.268891503705987e-12 	101324.9999999918
0.5042542542542537 	299.9999999999705 	1.554582326523542e-12 	101324.9999999918
0.5067567567567562 	299.9999999999573 	1.620213578556667e-12 	101324.9999999918
0.5092592592592589 	299.9999999999756 	1.451678635347295e-12 	101324.9999999917
0.5117617617617611 	299.9999999999642 	7.08143243282909e-13 	101324.9999999917
0.5142642642642637 	299.9999999999873 	2.213643766796933e-12 	101324.9999999917
0.5167667667667663 	299.9999999999768 	1.825383322571146e-12 	101324.9999999917
0.5192692692692688 	299.999999999939 	3.295386627523538e-12 	101324.9999999919
0.5217717717717714 	299.9999999999491 	3.192005635307242e-12 	101324.999999992
0.5242742742742736 	299.9999999999503 	2.459641230384534e-12 	101324.9999999919
0.5267767767767763 	299.9999999999644 	2.598091581452054e-12 	101324.9999999916
0.5292792792792789 	299.9999999999486 	1.984801043002678e-12 	101324.9999999914
0.5317817817817813 	299.9999999999273 	1.137299623854247e-12 	101324.9999999915
0.5342842842842837 	300.0000000000154 	1.214435851827249e-12 	101324.9999999915
0.5367867867867864 	300.0000000000018 	6.917342306207799e-13 	101324.9999999916
0.5392892892892888 	299.9999999999654 	1.017993447762568e-12 	101324.999999992
0.5417917917917912 	300.0000000000045 	4.92687147715299e-13 	101324.9999999922
0.5442942942942938 	299.9999999999872 	4.777513204888621e-13 	101324.9999999922
0.5467967967967964 	299.9999999999642 	6.800519344486617e-13 	101324.9999999924
0.5492992992992988 	299.999999999954 	4.827027682377952e-13 	101324.9999999924
0.5518018018018012 	299.999999999947 	5.83402602191093e-13 	101324.9999999924
0.5543043043043039 	300.0000000000167 	7.800580077125408e-13 	101324.9999999923
0.5568068068068063 	299.9999999999914 	9.289097469516173e-13 	101324.9999999924
0.5593093093093087 	299.9999999999211 	2.007010004791373e-12 	101324.9999999926
0.5618118118118114 	299.9999999999708 	1.148853656941353e-12 	101324.9999999926
0.5643143143143137 	299.9999999999546 	2.414183524902601e-12 	101324.9999999925
0.5668168168168163 	299.9999999999916 	1.325641114536881e-12 	101324.9999999925
0.5693193193193188 	300.0000000000259 	1.528003729706873e-12 	101324.9999999926
0.5718218218218213 	300.0000000000217 	1.599382603989488e-12 	101324.9999999924
0.5743243243243239 	300.0000000000064 	1.104470794901458e-12 	101324.9999999922
0.5768268268268262 	300.000000000007 	2.404977900834503e-12 	101324.9999999919
0.5793293293293288 	299.9999999999603 	1.749320785995793e-12 	101324.9999999912
0.5818318318318314 	299.999999999933 	6.227597518336815e-12 	101324.9999999903
0.5843343343343338 	299.9999999999787 	8.405944572916102e-12 	101324.9999999881
0.5868368368368363 	299.9999999999711 	2.301739395869099e-11 	101324.9999999835
0.5893393393393387 	299.9999999999405 	4.476110363132512e-11 	101324.9999999741
0.5918418418418413 	299.9999999999195 	9.652017620928962e-11 	101324.9999999546
0.5943443443443439 	299.9999999999433 	1.96602863096316e-10 	101324.9999999149
0.5968468468468463 	299.9999999998789 	4.036150393092913e-10 	101324.9999998343
0.5993493493493487 	299.9999999997626 	8.145436512853999e-10 	101324.9999996726
0.6018518518518514 	299.9999999994431 	1.63327035378502e-09 	101324.9999993507
0.6043543543543537 	299.9999999989148 	3.243712467807878e-09 	101324.9999987162
0.6068568568568564 	299.9999999978579 	6.393611284608995e-09 	101324.9999974749
0.6093593593593587 	299.9999999957813 	1.249656660625038e-08 	101324.9999950672
0.6118618618618614 	299.9999999918563 	2.422541708841144e-08 	101324.9999904364
0.6143643643643638 	299.9999999844602 	4.657111818413832e-08 	101324.9999816064
0.6168668668668662 	299.9999999703194 	8.877533918134979e-08 	101324.9999649164
0.6193693693693688 	299.9999999438526 	1.677700268715238e-07 	101324.9999336507
0.6218718718718714 	299.9999998947606 	3.142898835217654e-07 	101324.9998756106
0.6243743743743737 	299.9999998044254 	5.835316674174303e-07 	101324.9997688635
0.6268768768768762 	299.9999996399343 	1.073661381578979e-06 	101324.9995743844
0.629379379379379 	299.9999993431356 	1.957316072108132e-06 	101324.9992234597
0.6318818818818812 	299.9999988127999 	3.534804296502042e-06 	101324.9985964491
0.6343843843843838 	299.9999978747206 	6.322675996148511e-06 	101324.9974873684
0.6368868868868864 	299.9999962323163 	1.11991305259016e-05 	101324.9955456772
0.6393893893893888 	299.9999933870654 	1.963936812837782e-05 	101324.9921819491
0.6418918918918912 	299.9999885111015 	3.409083050778639e-05 	101324.9864172934
0.6443943943943939 	299.9999802466762 	5.856207941052732e-05 	101324.9766467614
0.6468968968968963 	299.9999663975614 	9.953144770548269e-05 	101324.9602737834
0.6493993993993988 	299.9999434593457 	0.0001673243287223518 	101324.9331553436
0.6519019019019012 	299.9999059208327 	0.0002781607579200855 	101324.8887759074
0.6544044044044038 	299.9998452449738 	0.0004571368483233806 	101324.8170428
0.6569069069069065 	299.9997484167041 	0.0007424675230922764 	101324.7025691061
0.6594094094094087 	299.9995959237598 	0.001191372789319532 	101324.5222871751
0.6619119119119113 	299.9993590304073 	0.001888012422048562 	101324.24222521
0.664414414414414 	299.9989962140244 	0.002953831599397375 	101323.8132950047
0.6669169169169162 	299.9984486884834 	0.004560523044308869 	101323.1660004309
0.6694194194194188 	299.9976350504149 	0.006945478322975037 	101322.2041093778
0.6719219219219214 	299.9964452814593 	0.01042902024027988 	101320.7975658973
0.674424424424424 	299.9947346468425 	0.01543181471281303 	101318.7752820806
0.6769269269269262 	299.9923184588487 	0.02248961672752858 	101315.9189569916
0.679429429429429 	299.9889692188315 	0.03226094133315016 	101311.9597124804
0.6819319319319311 	299.9844182566715 	0.04552150976158724 	101306.5800562907
0.6844344344344341 	299.9783645635583 	0.06313770978901406 	101299.4243576501
0.686936936936936 	299.9704938681089 	0.08601033314871961 	101290.1214429806
0.6894394394394392 	299.9605109154573 	0.1149802118750066 	101278.322800747
0.6919419419419413 	299.9481870673127 	0.1506898959739963 	101263.7588818949
0.694444444444444 	299.933423476113 	0.1934009970371404 	101246.3137624925
0.6969469469469463 	299.9163269974533 	0.242775810351213 	101226.1147711202
0.6994494494494489 	299.8972916760043 	0.2976449739360821 	101203.6285665077
0.7019519519519515 	299.8770718125582 	0.3558096495524939 	101179.747106009
0.7044544544544538 	299.856811513631 	0.4139862900180588 	101155.8220867498
0.7069569569569564 	299.8379674233407 	0.4680400437712096 	101133.5732672512
0.7094594594594589 	299.8221032096957 	0.5135495448055698 	101114.8456595923
0.7119619619619615 	299.8106106615422 	0.5465845552390409 	101101.2805716112
0.7144644644644638 	299.8044226889221 	0.5645159054469467 	101093.9772041955
0.7169669669669665 	299.8037771801955 	0.5666862162955975 	101093.2145524613
0.7194694694694688 	299.8080806062324 	0.5547893521155791 	101098.2936219807
0.7219719719719715 	299.815922116993 	0.5328412836389687 	101107.5515496595
0.7244744744744737 	299.8252481870211 	0.5066900962195423 	101118.5604918406
0.7269769769769764 	299.8336934831001 	0.4829773256073275 	101128.530085323
0.7294794794794791 	299.8391658398081 	0.4675083224635673 	101134.9905381091
0.7319819819819813 	299.8405154003365 	0.4634808112877407 	101136.5841935645
0.7344844844844839 	299.8379192195641 	0.4704429630400809 	101133.5194117198
0.7369869869869864 	299.8327873791887 	0.484502445444984 	101127.4595211385
0.739489489489489 	299.8272767708321 	0.4996683434237129 	101120.9538919418
0.7419919919919914 	299.8235561013433 	0.5099801428334649 	101116.5617422341
0.7444944944944939 	299.8229405567736 	0.5118280270365315 	101115.8348970126
0.7469969969969963 	299.8253458909431 	0.5053985773972941 	101118.6740240083
0.7494994994994989 	299.8293907873186 	0.4944344030879021 	101123.4501784471
0.7520020020020015 	299.8330643785854 	0.4844186539185582 	101127.7871480132
0.7545045045045039 	299.8346725956831 	0.4799359739407397 	101129.6857771855
0.7570070070070062 	299.8336995689359 	0.4824040895682581 	101128.5373591756
0.7595095095095092 	299.831034150058 	0.489470122212456 	101125.3901265195
0.7620120120120112 	299.8284103411491 	0.4964853907508673 	101122.2923538817
0.7645145145145138 	299.8273992245907 	0.4992505056816643 	101121.0983513459
0.7670170170170165 	299.8284742184574 	0.4964735518263999 	101122.3672553144
0.7695195195195191 	299.830778454693 	0.4903901777962729 	101125.0882345447
0.7720220220220213 	299.8327533515553 	0.4851229941000306 	101127.4197308875
0.7745245245245239 	299.8331900454091 	0.483866209389596 	101127.9354478215
0.7770270270270263 	299.8320425633811 	0.4867742044837247 	101126.5809136925
0.779529529529529 	299.8303888553092 	0.4910543977325667 	101124.6281400184
0.7820320320320313 	299.8295744055202 	0.4931963221947444 	101123.6663467705
0.784534534534534 	299.8301881001213 	0.4916466763673346 	101124.3907058138
0.7870370370370364 	299.8316538665114 	0.4878594370774936 	101126.1216285313
0.7895395395395389 	299.8327763288228 	0.4849119107948675 	101127.4467416476
0.7920420420420413 	299.8327546755108 	0.4848763106284031 	101127.4213774061
0.794544544544544 	299.8318308030498 	0.4871667158145543 	101126.330792396
0.7970470470470463 	299.8310020231161 	0.4892583569758557 	101125.3517867805
0.799549549549549 	299.8310795263553 	0.4890764591182942 	101125.4431192541
0.8020520520520515 	299.8319669221148 	0.4868327569529912 	101126.4911276707
0.8045545545545539 	299.8328247409759 	0.484627023473544 	101127.5038529096
0.8070570570570563 	299.8329290107023 	0.4842875694067729 	101127.6270072912
0.8095595595595589 	299.8323675321984 	0.4856231022594372 	101126.9642932933
0.8120620620620614 	299.8318837925526 	0.4867998753411468 	101126.3928563303
0.8145645645645638 	299.8320601995673 	0.4863591548835718 	101126.6009567518
0.8170670670670666 	299.8327263584011 	0.4846933760609353 	101127.3876281906
0.8195695695695689 	299.83321003601 	0.4834469231679027 	101127.958722158
0.8220720720720714 	299.8331123453194 	0.4836131028096768 	101127.8434676588
0.8245745745745739 	299.8327248060679 	0.4845054692741069 	101127.3858518452
0.8270770770770765 	299.8326331366349 	0.484704427770456 	101127.2774069978
0.8295795795795788 	299.8330129978676 	0.4837637454064846 	101127.7258912818
0.8320820820820815 	299.8334649802583 	0.4826269014623089 	101128.2596894391
0.834584584584584 	299.8335512483073 	0.4823512398710372 	101128.3615390969
0.8370870870870865 	299.8333322363204 	0.4828134143920322 	101128.102952176
0.8395895895895891 	299.8332402498013 	0.4829948036541942 	101127.9942468708
0.8420920920920915 	299.8334933847993 	0.4823643048677605 	101128.2930093752
0.844594594594594 	299.8338385855875 	0.4815003251193879 	101128.7006620987
0.8470970970970964 	299.8339347196048 	0.4812073373261482 	101128.8141478768
0.8495995995995991 	299.8338147028575 	0.4814256179848753 	101128.672524099
0.8521021021021015 	299.8337994502523 	0.4814167537754271 	101128.654501375
0.8546046046046039 	299.8340240545725 	0.4808556200725175 	101128.919391439
0.8571071071071066 	299.8342707187875 	0.4802292722820639 	101129.2107661615
0.8596096096096089 	299.8343197045747 	0.4800477974729959 	101129.2688501713
0.8621121121121116 	299.8342651435246 	0.4801120922892189 	101129.2041638398
0.8646146146146139 	299.8343391966092 	0.4798951975231466 	101129.291421117
0.8671171171171166 	299.8345513243069 	0.479361902345913 	101129.542173866
0.8696196196196189 	299.8347024684879 	0.4789557384401268 	101129.7205110037
0.8721221221221216 	299.8347138307461 	0.4788617217876636 	101129.7338217198
0.874624624624624 	299.8347340167058 	0.4787570486538734 	101129.7577864192
0.8771271271271264 	299.8348767466445 	0.4783847708868024 	101129.9262024965
0.879629629629629 	299.8350441191253 	0.4779507778944863 	101130.1237357663
0.8821321321321317 	299.8351125896355 	0.4777284494306083 	101130.2047258863
0.8846346346346339 	299.8351383309863 	0.4776052009017002 	101130.2350357466
0.8871371371371364 	299.8352396846497 	0.4773232781981717 	101130.3546476471
0.8896396396396391 	299.8353905344433 	0.4769304801927371 	101130.532837235
0.8921421421421414 	299.8354846874532 	0.4766546044522373 	101130.6438517212
0.8946446446446441 	299.8355290276428 	0.476487325776736 	101130.6962787553
0.8971471471471464 	299.8356163177645 	0.4762339067433653 	101130.7993763818
0.8996496496496489 	299.8357492581664 	0.4758825850117137 	101130.9562042115
0.9021521521521517 	299.8358483598406 	0.475597612758801 	101131.0732818908
0.9046546546546541 	299.8359075978242 	0.4753974182639032 	101131.1432603828
0.9071571571571564 	299.8359946780235 	0.4751436300375374 	101131.2459405569
0.9096596596596589 	299.8361149463985 	0.4748197840177758 	101131.388014298
0.9121621621621616 	299.836210860398 	0.4745427659483971 	101131.5012555683
0.9146646646646639 	299.8362799184764 	0.4743220073965433 	101131.5826498755
0.9171671671671666 	299.8363711726361 	0.4740587462081112 	101131.6904980773
0.9196696696696689 	299.8364828795934 	0.4737531043540864 	101131.8224491052
0.9221721721721714 	299.8365735669615 	0.4734879040240639 	101131.9292209089
0.9246746746746741 	299.8366495773931 	0.4732526525674223 	101132.0191354186
0.9271771771771765 	299.8367456770591 	0.4729795297605308 	101132.1327371677
0.9296796796796791 	299.8368502687611 	0.4726888263813027 	101132.2559907816
0.9321821821821816 	299.8369360688698 	0.4724333182937924 	101132.3572963284
0.9346846846846838 	299.8370189811774 	0.4721848091579861 	101132.4553299656
0.9371871871871866 	299.8371182194596 	0.471905913446826 	101132.5723790198
0.9396896896896891 	299.8372152697555 	0.4716296696179737 	101132.6869092475
0.9421921921921914 	299.8372992897085 	0.4713780751814796 	101132.7861456351
0.9446946946946939 	299.8373890605992 	0.4711171057365378 	101132.8921009078
0.9471971971971965 	299.8374875413481 	0.4708393049817103 	101133.0084239645
0.9496996996996991 	299.8375780985878 	0.470575515687409 	101133.1153335372
0.9522022022022016 	299.8376642966878 	0.4703207791588371 	101133.2169741594
0.9547047047047038 	299.8377585618928 	0.4700513618890068 	101133.3283879276
0.9572072072072064 	299.8378530817164 	0.4697809203499803 	101133.4399752518
0.9597097097097093 	299.8379406192062 	0.4695232818650591 	101133.5431977693
0.9622122122122114 	299.8380309772174 	0.4692610503578498 	101133.6499385694
0.964714714714714 	299.8381256569113 	0.4689909393983113 	101133.7617920334
0.9672172172172167 	299.8382157732021 	0.468728922910376 	101133.868021088
0.969719719719719 	299.8383044514164 	0.4684696462693419 	101133.9727710432
0.9722222222222214 	299.838397596237 	0.4682026961005956 	101134.0828356198
0.9747247247247239 	299.8384893728552 	0.4679381570531901 	101134.1910003066
0.9772272272272267 	299.8385780178019 	0.4676788899679076 	101134.2956874759
0.9797297297297292 	299.8386695030249 	0.4674148742371985 	101134.4038594633
0.9822322322322313 	299.8387617126467 	0.4671498848456992 	101134.5125913299
0.9847347347347344 	299.8388509954614 	0.4668898890086321 	101134.6179127799
0.9872372372372363 	299.838941431062 	0.4666278937003857 	101134.7248455856
0.9897397397397389 	299.8390334059157 	0.4663635247178637 	101134.8333427152
0.9922422422422417 	299.8391231596689 	0.4661028274161932 	101134.939240357
0.9947447447447441 	299.8392131175778 	0.4658420018145985 	101135.0455241686
0.9972472472472468 	299.8393046329797 	0.4655788265804336 	101135.1534972953
0.999749749749749 	299.8393945554068 	0.4653179481533637 	101135.2596953611
1.002252252252252 	299.8394842266682 	0.4650576232105439 	101135.3656782043
1.004754754754754 	299.8395753896718 	0.4647954487291254 	101135.473107372
1.007257257257256 	299.8396654040549 	0.4645347892397301 	101135.5793616259
1.009759759759759 	299.8397548787166 	0.464274924356872 	101135.6852233008
1.012262262262261 	299.8398456568504 	0.4640137046344692 	101135.7922207188
1.014764764764764 	299.8399356912352 	0.4637534369895768 	101135.8983862543
1.017267267267267 	299.8400251195131 	0.4634938488972241 	101136.0041631126
1.019769769769769 	299.8401154665694 	0.4632333266757404 	101136.1107847157
1.022272272272272 	299.8402053401795 	0.462973608422368 	101136.2167594603
1.024774774774774 	299.8402947101707 	0.462714473123337 	101136.3224520936
1.027277277277277 	299.8403847723757 	0.4624546596321034 	101136.4287594703
1.029779779779779 	299.8404744872487 	0.4621954436822252 	101136.5345223991
1.032282282282282 	299.8405638952667 	0.4619365590856081 	101136.6401442907
1.034784784784784 	299.8406536851633 	0.4616774132019637 	101136.7461864031
1.037287287287286 	299.8407431518557 	0.4614189660759175 	101136.8517368692
1.039789789789789 	299.8408325123406 	0.461160528765067 	101136.9572554231
1.042292292292291 	299.8409220281455 	0.460901859822261 	101137.0630019928
1.044794794794794 	299.8410113290017 	0.4606439402781507 	101137.1683282133
1.047297297297296 	299.8411006450332 	0.4603861028594746 	101137.2737420058
1.049799799799799 	299.8411898854567 	0.4601281239804849 	101137.3792341427
1.052302302302302 	299.8412790811428 	0.4598706017017507 	101137.4843953336
1.054804804804804 	299.841368327265 	0.459613122075477 	101137.5896814893
1.057307307307306 	299.8414572344303 	0.459355808319881 	101137.69488858
1.059809809809809 	299.8415462538899 	0.4590988129654628 	101137.7998716011
1.062312312312312 	299.8416354033536 	0.4588418492948565 	101137.9049809996
1.064814814814814 	299.8417242034801 	0.4585852441575021 	101138.0099424272
1.067317317317317 	299.8418130264561 	0.4583288262582103 	101138.1148151229
1.069819819819819 	299.8419019740127 	0.4580724120597067 	101138.2197411012
1.072322322322321 	299.8419906563938 	0.4578163322899722 	101138.324472559
1.074824824824824 	299.8420792990175 	0.457560338816055 	101138.4291890532
1.077327327327327 	299.8421680528893 	0.4573044702263426 	101138.5338700155
1.079829829829829 	299.842256652779 	0.4570490638504518 	101138.6384142202
1.082332332332332 	299.8423451112897 	0.4567938821224295 	101138.742984827
1.084834834834834 	299.8424337125593 	0.4565387858662702 	101138.8474510066
1.087337337337337 	299.842522235666 	0.4562836962185376 	101138.9518420451
1.089839839839839 	299.8426104777571 	0.4560288228050632 	101139.0562155359
1.092342342342342 	299.8426988145295 	0.4557744442075249 	101139.1604707052
1.094844844844844 	299.8427871792199 	0.4555201598417043 	101139.2647043475
1.097347347347347 	299.8428753576544 	0.4552659137391563 	101139.3688674007
1.099849849849849 	299.842963400687 	0.4550119675359717 	101139.4729472722
1.102352352352352 	299.8430516776847 	0.4547582771492528 	101139.5769966789
1.104854854854854 	299.843139844261 	0.4545048184796291 	101139.6809486112
1.107357357357357 	299.8432277059502 	0.4542514949165624 	101139.7848609949
1.109859859859859 	299.8433156961935 	0.4539983782473418 	101139.8887146879
1.112362362362362 	299.8434037193126 	0.4537455893854705 	101139.9924977504
1.114864864864865 	299.8434915745294 	0.4534929264716611 	101140.0962400867
1.117367367367367 	299.8435793123183 	0.4532404189369284 	101140.1998971019
1.119869869869869 	299.8436671383 	0.4529883135397788 	101140.3035055737
1.122372372372372 	299.8437548868243 	0.4527365163915178 	101140.4070509199
1.124874874874874 	299.8438424386749 	0.4524848029276665 	101140.5105325474
1.127377377377377 	299.8439301408296 	0.4522331484803457 	101140.6139624988
1.129879879879879 	299.8440177836201 	0.451981686804776 	101140.7173166105
1.132382382382382 	299.8441052117246 	0.4517306584979461 	101140.8206199026
1.134884884884884 	299.8441925858198 	0.4514800268467324 	101140.9238576583
1.137387387387387 	299.8442800146108 	0.4512294684211084 	101141.0270430443
1.139889889889889 	299.8443674547816 	0.4509791006571439 	101141.1301781868
1.142392392392392 	299.8444548097813 	0.4507290958636568 	101141.2332517868
1.144894894894894 	299.8445420920843 	0.4504793722682829 	101141.3362681428
1.147397397397397 	299.844629303242 	0.4502298752422294 	101141.4392100899
1.149899899899899 	299.8447164565565 	0.4499804669936066 	101141.5420919624
1.152402402402402 	299.844803521554 	0.4497314045015599 	101141.6449148239
1.154904904904904 	299.8448906555425 	0.4494829133540932 	101141.7476891051
1.157407407407407 	299.844977741144 	0.4492346916251873 	101141.8504140313
1.159909909909909 	299.8450646683182 	0.4489865460604029 	101141.9530817396
1.162412412412412 	299.8451515931204 	0.4487385760363477 	101142.0556915009
1.164914914914914 	299.8452384623549 	0.4484909303901246 	101142.1582346979
1.167417417417417 	299.8453252926075 	0.448243713826796 	101142.2607188784
1.169919919919919 	299.8454120240447 	0.4479969802399943 	101142.3631439432
1.172422422422422 	299.8454987812925 	0.4477505085627463 	101142.4655191499
1.174924924924925 	299.8455855928936 	0.4475042186726698 	101142.5678455052
1.177427427427427 	299.8456723105138 	0.4472583207875675 	101142.6701217236
1.179929929929929 	299.8457588756335 	0.4470126979642358 	101142.7723428937
1.182432432432432 	299.8458454010334 	0.4467674819572371 	101142.8745070028
1.184934934934934 	299.8459319625708 	0.4465228567551675 	101142.9766186784
1.187437437437437 	299.8460185627276 	0.4462784298299901 	101143.078679396
1.189939939939939 	299.8461049583457 	0.4460342067203453 	101143.1806915602
1.192442442442442 	299.8461911583375 	0.4457904617602055 	101143.2826544685
1.194944944944944 	299.8462776045597 	0.4455471108175726 	101143.3845725062
1.197447447447447 	299.8463641119865 	0.4453042293258773 	101143.4864435027
1.199949949949949 	299.8464505478206 	0.445061948802062 	101143.5882639934
1.202452452452452 	299.8465367482876 	0.4448198972880812 	101143.690029383
1.204954954954955 	299.846622797902 	0.4445781555691308 	101143.7917426986
1.207457457457457 	299.8467089833583 	0.4443370259084231 	101143.8934131294
1.20995995995996 	299.8467952666485 	0.4440964227106351 	101143.9950512682
1.212462462462462 	299.8468815053311 	0.4438556494323637 	101144.0966578514
1.214964964964964 	299.8469677939023 	0.4436165876458719 	101144.1982267333
1.217467467467467 	299.8470539491252 	0.4433753592928691 	101144.2997507554
1.219969969969969 	299.8471398519152 	0.4431402193027074 	101144.4012338129
1.222472472472472 	299.8472258992089 	0.4428898644591041 	101144.5026689775
1.224974974974975 	299.8473120336223 	0.4426815901967582 	101144.6040978768
1.227477477477477 	299.8473981613595 	0.4423486908509633 	101144.7054269577
1.229979979979979 	299.8474845644939 	0.4423676082931804 	101144.8070661106
1.232482482482482 	299.8475702048693 	0.4410434518457474 	101144.9075009496
1.234984984984984 	299.8476567762443 	0.4425052852914354 	101145.0101768766
1.237487487487487 	299.8477446100451 	0.4400341025818336 	101145.1105955614
1.239989989989989 	299.8478242274916 	0.4417268046118772 	101145.2091732838
1.242492492492492 	299.8479202697752 	0.4419170244421692 	101145.3151221676
1.244994994994994 	299.8463783542287 	0.4384104688574773 	101145.4097345902
1.247497497497497 	299.2563189075073 	0.441380893192361 	101145.5130073919
1.249999999999999 	302.3655688587357 	0.4402139192509126 	101145.6157782945
