-1.25 	300 	0.1183438467059321 	101372.5528258148
-1.247497497497497 	300.0377268671215 	0.1111168435590216 	101370.4713554389
-1.244994994994995 	300.0354746330258 	0.1017072671956015 	101366.936716691
-1.242492492492492 	300.0319213890709 	0.09298436704772434 	101362.7413603264
-1.23998998998999 	300.0277584037939 	0.08017439052999548 	101357.8198394129
-1.237487487487487 	300.0230987033868 	0.06681423706143559 	101352.3099419045
-1.234984984984985 	300.0181111784167 	0.0523128267947825 	101346.412780399
-1.232482482482482 	300.0127690150304 	0.03687389653629589 	101340.0965287865
-1.22997997997998 	300.0071829432842 	0.02071663900061689 	101333.4921664118
-1.227477477477477 	300.0014848057059 	0.008174924616040283 	101326.755634858
-1.224974974974975 	299.9957742978533 	0.01224615572079039 	101320.0047879867
-1.222472472472472 	299.9901047979881 	0.02867285919598939 	101313.3027450095
-1.21996996996997 	299.9845693635812 	0.04468101534970825 	101306.759488299
-1.217467467467467 	299.9793314931158 	0.05984996755596897 	101300.5682215217
-1.214964964964965 	299.974464725498 	0.07391218218465993 	101294.8158388012
-1.212462462462462 	299.9700274431362 	0.08668033635335848 	101289.5712769837
-1.20995995995996 	299.9661607323195 	0.09784789151164408 	101285.0012452551
-1.207457457457457 	299.9629706086935 	0.1070804540970407 	101281.230968614
-1.204954954954955 	299.9604782420728 	0.1142792421716836 	101278.2853778452
-1.202452452452452 	299.9586969122585 	0.1194034009189972 	101276.1800924094
-1.19994994994995 	299.9576622853667 	0.1223749204823831 	101274.9572927097
-1.197447447447447 	299.9574020681865 	0.123157012657625 	101274.6497403708
-1.194944944944945 	299.957925465752 	0.1216583474663815 	101275.2682386933
-1.192442442442442 	299.9592463142916 	0.1178206842384776 	101276.8291295606
-1.18993993993994 	299.9613612017146 	0.1116856962131921 	101279.328417191
-1.187437437437437 	299.9642120422378 	0.103442324576011 	101282.6975445712
-1.184934934934935 	299.9677074734656 	0.09334545894177436 	101286.8285824859
-1.182432432432432 	299.9717724913696 	0.08157840812457817 	101291.6329536222
-1.17992992992993 	299.9763314323408 	0.06837775336850285 	101297.0212973041
-1.177427427427427 	299.9813027333458 	0.053970394195248 	101302.8972452168
-1.174924924924925 	299.9866193647263 	0.03859954024443073 	101309.1816624166
-1.172422422422422 	299.9921841478449 	0.02257973347059112 	101315.7597036527
-1.16991991991992 	299.9978505903818 	0.007813076261751942 	101322.4582514591
-1.167417417417417 	300.0035359100227 	0.01027713607857242 	101329.179446243
-1.164914914914915 	300.0091903410412 	0.02662601383044567 	101335.8644236988
-1.162412412412412 	300.014713593939 	0.04261725695464581 	101342.3946519216
-1.15990990990991 	300.0199963709335 	0.05787082464399454 	101348.6408430947
-1.157407407407407 	300.0249200935534 	0.07208840922922073 	101354.462769672
-1.154904904904904 	300.0293678166225 	0.08496158782807968 	101359.7220910834
-1.152402402402403 	300.0332578378537 	0.09620320904714987 	101364.3220961552
-1.1498998998999 	300.0365276745772 	0.1056441647984794 	101368.188869876
-1.147397397397397 	300.0391305430597 	0.113152172523433 	101371.2669959009
-1.144894894894895 	300.0410406287422 	0.1186365428256605 	101373.5259154542
-1.142392392392392 	300.0422102751397 	0.1219922278791226 	101374.90922857
-1.13988988988989 	300.0425919428534 	0.1231162320737855 	101375.3606235234
-1.137387387387387 	300.0421629999806 	0.121890952780457 	101374.8534054473
-1.134884884884885 	300.0409136450022 	0.1182791117801481 	101373.3760292428
-1.132382382382382 	300.038879721384 	0.1124293544342818 	101370.9708485486
-1.12987987987988 	300.036150406052 	0.1045147914690893 	101367.7433346534
-1.127377377377377 	300.0327768251749 	0.09474541123593933 	101363.7540188582
-1.124874874874875 	300.0288033270525 	0.08328180293233522 	101359.0554295983
-1.122372372372372 	300.0243001907129 	0.07022104918804334 	101353.7307064907
-1.11986986986987 	300.0193400413485 	0.05584314624969375 	101347.8658287039
-1.117367367367367 	300.0140161968817 	0.04047696396931848 	101341.5711801867
-1.114864864864865 	300.0084684936458 	0.02444592533651015 	101335.0121202607
-1.112362362362362 	300.002789935746 	0.008089452509390364 	101328.2986688205
-1.10985985985986 	299.9970757679659 	0.00912549833999393 	101321.543413295
-1.107357357357357 	299.9913888324468 	0.02494051884176671 	101314.8206889182
-1.104854854854855 	299.9858115722805 	0.04107024330280337 	101308.227914038
-1.102352352352353 	299.9804880229266 	0.05646563112182934 	101301.9353029038
-1.09984984984985 	299.9755410729131 	0.07076253937522932 	101296.088098868
-1.097347347347347 	299.971063042341 	0.08370076295723665 	101290.7953198321
-1.094844844844845 	299.9671202626606 	0.09512606941582799 	101286.1353557983
-1.092342342342342 	299.963759620761 	0.1048048198552118 	101282.1635256712
-1.08983983983984 	299.9610449363449 	0.1125901912275036 	101278.9551796069
-1.087337337337337 	299.9590566230971 	0.1183030466279446 	101276.605294789
-1.084834834834835 	299.9578524189947 	0.1217832498118421 	101275.182050985
-1.082332332332332 	299.9574556135341 	0.1229807740664066 	101274.7130832231
-1.07982982982983 	299.9578622918626 	0.1218234162890047 	101275.1936661313
-1.077327327327327 	299.9590450352538 	0.118402287267238 	101276.5913247099
-1.074824824824825 	299.9609789067621 	0.1128075989254065 	101278.876704974
-1.072322322322323 	299.963630814528 	0.1051441817912801 	101282.010710462
-1.06981981981982 	299.9669428548412 	0.09557264097715534 	101285.9249760725
-1.067317317317317 	299.9708570782362 	0.08419496016587653 	101290.5511006939
-1.064814814814815 	299.9753088914535 	0.07129716735170803 	101295.8127611274
-1.062312312312312 	299.9802056581541 	0.0571295244283735 	101301.600570772
-1.05980980980981 	299.9854513507372 	0.04198274923592836 	101307.8010746595
-1.057307307307307 	299.9909379549056 	0.02619062357606876 	101314.2866338077
-1.054804804804805 	299.9965480951361 	0.009937368545619161 	101320.9185582984
-1.052302302302302 	300.0022199301908 	0.009005880362554371 	101327.6237160369
-1.0497997997998 	300.0078897750173 	0.02283334424337023 	101334.3268540094
-1.047297297297297 	300.0134360857653 	0.03888700640209825 	101340.8842708991
-1.044794794794795 	300.0187362550499 	0.05419288933357303 	101347.150955567
-1.042292292292292 	300.0236802480642 	0.06852532291616695 	101352.9967958078
-1.03978978978979 	300.0281932729143 	0.08160034161090604 	101358.3332555632
-1.037287287287287 	300.0322147848554 	0.09320914063506719 	101363.0887130893
-1.034784784784785 	300.0356681880629 	0.1031834007812693 	101367.1725243186
-1.032282282282283 	300.0384731037324 	0.1112575001354534 	101370.4895542542
-1.02977977977978 	300.0405773147127 	0.1173018312357297 	101372.9780485454
-1.027277277277277 	300.0419231305568 	0.1211593625681415 	101374.5696702414
-1.024774774774775 	300.0424794958651 	0.122758280586943 	101375.2276895355
-1.022272272272272 	300.0422336085983 	0.1220710906115813 	101374.936930639
-1.01976976976977 	300.0411886238584 	0.1190562814055078 	101373.7012165166
-1.017267267267267 	300.0393690890828 	0.1138352899408835 	101371.5495819071
-1.014764764764765 	300.0368332070494 	0.1064853706009949 	101368.5507899164
-1.012262262262262 	300.0336146029197 	0.09718366594600904 	101364.7447267749
-1.00975975975976 	300.029778685334 	0.08611954069362569 	101360.2087996425
-1.007257257257257 	300.025397738706 	0.07340875224009148 	101355.0285119871
-1.004754754754755 	300.0205523067135 	0.05935572233860079 	101349.2992340097
-1.002252252252252 	300.0153222018438 	0.0442234740935719 	101343.1153404295
-0.9997497497497498 	300.009816566855 	0.028292706421266 	101336.6059576715
-0.9972472472472473 	300.0041277617181 	0.01192578360168185 	101329.8803283512
-0.9947447447447449 	299.9983828185136 	0.008946384599711369 	101323.0886160666
-0.9922422422422421 	299.9926648647213 	0.02124248768712529 	101316.3291542705
-0.9897397397397399 	299.9870730258119 	0.03739416317488057 	101309.7190609914
-0.9872372372372376 	299.9817219287776 	0.05289169550854374 	101303.3938324357
-0.9847347347347346 	299.9767017872898 	0.06737667834311471 	101297.4600668309
-0.9822322322322323 	299.9721061807018 	0.08067141591869395 	101292.0282814955
-0.9797297297297296 	299.9680138787195 	0.09254361670292116 	101287.1915634732
-0.9772272272272275 	299.9645008353287 	0.1026602022954154 	101283.0395721076
-0.9747247247247248 	299.9616543565746 	0.1108908509570549 	101279.6754585184
-0.9722222222222224 	299.9595338174134 	0.1169780700873843 	101277.169311725
-0.9697197197197196 	299.9581756378821 	0.120873628015442 	101275.5640940126
-0.9672172172172175 	299.9576076678797 	0.1225553349369333 	101274.8928446756
-0.9647147147147147 	299.9578262146215 	0.1219121462990101 	101275.1510775631
-0.9622122122122124 	299.9588188529945 	0.1190484435151073 	101276.3240954564
-0.9597097097097099 	299.9605800416716 	0.1139455893572292 	101278.4053854712
-0.9572072072072073 	299.9630677117824 	0.1067639329592866 	101281.345283798
-0.9547047047047047 	299.9662268270042 	0.09764782448787046 	101285.0788099305
-0.9522022022022023 	299.9700074329822 	0.08669458618963607 	101289.5469494709
-0.9496996996996998 	299.9743292973125 	0.07420378050383181 	101294.654999701
-0.9471971971971973 	299.979109707189 	0.06031459062418391 	101300.3052275935
-0.9446946946946947 	299.984272009718 	0.04541075218136502 	101306.4070957584
-0.9421921921921923 	299.9896970417636 	0.02978321249978769 	101312.8198225002
-0.93968968968969 	299.9952716019359 	0.01362687539206952 	101319.4095854346
-0.9371871871871872 	300.0009125526469 	0.008266891979463455 	101326.0781796922
-0.9346846846846848 	300.0065340495183 	0.01893605444857142 	101332.7240905735
-0.9321821821821823 	300.0120498832665 	0.03490372944995952 	101339.2453797983
-0.9296796796796799 	300.0173814751383 	0.05023152258509921 	101345.5491620654
-0.9271771771771771 	300.0224092189852 	0.06481055649814152 	101351.4939275677
-0.9246746746746748 	300.02704837276 	0.07823117955630286 	101356.9794824856
-0.9221721721721724 	300.0312137942627 	0.09029634024582908 	101361.9050838107
-0.9196696696696698 	300.034805581208 	0.1006800070479326 	101366.1524795592
-0.9171671671671672 	300.037754110409 	0.1091479540403679 	101369.6393433247
-0.9146646646646649 	300.0400212905392 	0.1156815635187405 	101372.3205126888
-0.9121621621621623 	300.0415459638015 	0.1200680847448796 	101374.1236550091
-0.9096596596596597 	300.0423044991009 	0.1222818286407543 	101375.0207966016
-0.9071571571571573 	300.0422686523996 	0.12215386651051 	101374.9783889047
-0.9046546546546547 	300.0414221984129 	0.1196808558797764 	101373.9774646127
-0.9021521521521524 	300.0397973788796 	0.1150344927021014 	101372.0560866888
-0.8996496496496498 	300.0374449963556 	0.108217601673562 	101369.2742869647
-0.8971471471471473 	300.0344000385048 	0.09946100110843423 	101365.67356698
-0.894644644644645 	300.03072509618 	0.08882520228636703 	101361.3279421346
-0.892142142142142 	300.0264645629505 	0.07643369966254854 	101356.290018694
-0.8896396396396397 	300.0216789519809 	0.06261205723233733 	101350.6314210268
-0.8871371371371374 	300.0164832325348 	0.04756582937404903 	101344.488118931
-0.8846346346346349 	300.010996928259 	0.03171676481283545 	101338.0015441931
-0.8821321321321324 	300.0053356426794 	0.01540159746547407 	101331.3083652989
-0.8796296296296297 	299.9996223866419 	0.00792017324393561 	101324.5540578817
-0.8771271271271271 	299.9939167848829 	0.0176605741187914 	101317.8091293572
-0.8746246246246248 	299.9883102775304 	0.03383422545377136 	101311.1816205339
-0.8721221221221224 	299.9829331735975 	0.04936552685177915 	101304.825605619
-0.8696196196196196 	299.977861083729 	0.06402345153564815 	101298.8303632822
-0.8671171171171175 	299.9731546826472 	0.07766041851589742 	101293.2675905077
-0.8646146146146148 	299.9689077300607 	0.08997571069166727 	101288.2480567144
-0.8621121121121121 	299.9652157588602 	0.1006515800094902 	101283.8845628415
-0.8596096096096097 	299.9622085531021 	0.1092891089839998 	101280.3304922819
-0.857107107107107 	299.9599845850448 	0.1156985588901184 	101277.7020909915
-0.8546046046046049 	299.9585333806664 	0.1199280377572034 	101275.9869458002
-0.8521021021021022 	299.9578096290556 	0.1219916654681321 	101275.1315698718
-0.8495995995995997 	299.9578166872516 	0.1219939422088 	101275.139892262
-0.8470970970970974 	299.9585642781644 	0.1197827307352215 	101276.0233206569
-0.8445945945945946 	299.9601078734923 	0.1152459210098427 	101277.847439251
-0.8420920920920922 	299.9624586653488 	0.1085279116997055 	101280.6255597243
-0.8395895895895897 	299.9655284206822 	0.09968842064166653 	101284.2534370725
-0.8370870870870872 	299.9692025287644 	0.08909450316438697 	101288.5957084209
-0.8345845845845846 	299.9733728576521 	0.07707085421829851 	101293.5246220926
-0.8320820820820823 	299.9779314132414 	0.06380065446494131 	101298.9125667869
-0.8295795795795798 	299.9828584459953 	0.0495151624980354 	101304.7362803199
-0.8270770770770772 	299.9881482136628 	0.03422107717779287 	101310.9890130867
-0.8245745745745746 	299.99373348723 	0.01805266046823602 	101317.5913539036
-0.8220720720720721 	299.9995226159074 	0.006986014176877092 	101324.4350238808
-0.8195695695695699 	300.005365795259 	0.01552118624471902 	101331.342931604
-0.817067067067067 	300.0110394270713 	0.03187624280758076 	101338.0507482154
-0.8145645645645651 	300.0163271560793 	0.04715062571357448 	101344.3026262569
-0.8120620620620621 	300.0211206994364 	0.06104320430145292 	101349.9704443776
-0.8095595595595597 	300.0254441353035 	0.07360373239697554 	101355.0826163234
-0.8070570570570572 	300.0293974287882 	0.08508639365087786 	101359.7572705756
-0.8045545545545546 	300.033063051138 	0.09570040913232776 	101364.0918968111
-0.8020520520520523 	300.036428532897 	0.1053989420769157 	101368.0717449001
-0.7995495495495494 	300.0393598157489 	0.1138023422289496 	101371.5382342401
-0.7970470470470474 	300.0416282771066 	0.1202699102282723 	101374.220980579
-0.7945445445445446 	300.0429735040217 	0.1240734281504026 	101375.8119604672
-0.7920420420420423 	300.0431772397553 	0.124604131610331 	101376.0529110016
-0.7895395395395397 	300.0421261469045 	0.1215505463997112 	101374.8099818645
-0.7870370370370371 	300.0398498710504 	0.1150032316026893 	101372.118256465
-0.7845345345345348 	300.0365243431507 	0.1054630290630919 	101368.1857023508
-0.7820320320320323 	300.0324406717151 	0.09375400187356676 	101363.3566795225
-0.7795295295295296 	300.0279497267755 	0.08086755485736077 	101358.0462021545
-0.7770270270270272 	300.0233968653039 	0.0677813741034678 	101352.6626851357
-0.7745245245245247 	300.0190660126659 	0.05530687872681881 	101347.5418506912
-0.7720220220220222 	300.0151519376008 	0.04400950565900736 	101342.9139606862
-0.7695195195195199 	300.0117616345501 	0.03420545227609396 	101338.9054738846
-0.767017017017017 	300.0089300650797 	0.02600290463736556 	101335.5576773278
-0.7645145145145147 	300.0066397482158 	0.01935748262025726 	101332.8498610123
-0.7620120120120122 	300.0048397152868 	0.01412660824397361 	101330.7217334702
-0.7595095095095097 	300.0034615354755 	0.01011576936289396 	101329.0923690593
-0.7570070070070072 	300.0024314452796 	0.007113745664542846 	101327.8745462215
-0.7545045045045048 	300.0016785561252 	0.004916607114192683 	101326.9844488979
-0.7520020020020022 	300.0011396726781 	0.003341936006327022 	101326.3473605398
-0.7494994994994997 	300.000761495656 	0.002235458976971065 	101325.900266348
-0.7469969969969972 	300.0005010076955 	0.001472374268147575 	101325.5923086186
-0.7444944944944945 	300.0003247410741 	0.0009553868032980157 	101325.3839203273
-0.7419919919919924 	300.000207469537 	0.0006110242704683718 	101325.2452779706
-0.7394894894894897 	300.0001307038527 	0.0003853442550052705 	101325.1545229742
-0.7369869869869872 	300.0000812303795 	0.0002397339960271933 	101325.0960336617
-0.7344844844844846 	300.0000498208043 	0.0001471863130334564 	101325.0589001427
-0.7319819819819822 	300.0000301662591 	8.921091956240129e-05 	101325.0356637603
-0.7294794794794797 	300.0000180382866 	5.339826939167421e-05 	101325.021325609
-0.7269769769769773 	300.0000106554045 	3.157416120234626e-05 	101325.0125972558
-0.7244744744744747 	300.0000062197544 	1.844848412962971e-05 	101325.0073532483
-0.721971971971972 	300.0000035885664 	1.065455288773409e-05 	101325.0042426041
-0.7194694694694695 	300.0000020471049 	6.083732932068356e-06 	101325.0024201946
-0.7169669669669674 	300.0000011548195 	3.435374343195031e-06 	101325.0013653402
-0.7144644644644647 	300.000000644448 	1.918889714847528e-06 	101325.0007619157
-0.711961961961962 	300.0000003558387 	1.060463514742635e-06 	101325.0004206741
-0.7094594594594597 	300.0000001944329 	5.799692944297019e-07 	101325.0002298528
-0.7069569569569573 	300.0000001051699 	3.139532398465144e-07 	101325.00012431
-0.7044544544544545 	300.0000000563269 	1.682535717433146e-07 	101325.0000665574
-0.7019519519519523 	300.0000000298584 	8.928533804959209e-08 	101325.0000352855
-0.6994494494494495 	300.0000000156207 	4.692375816844923e-08 	101325.0000185254
-0.6969469469469471 	300.0000000081071 	2.442682355461186e-08 	101325.0000096332
-0.6944444444444446 	300.0000000041672 	1.259776576360051e-08 	101325.0000049615
-0.6919419419419421 	300.0000000021686 	6.43722865575738e-09 	101325.0000025307
-0.6894394394394396 	300.0000000010828 	3.260049409259432e-09 	101325.0000012779
-0.6869369369369374 	300.0000000005541 	1.635702487845276e-09 	101325.0000006384
-0.6844344344344344 	300.0000000002894 	8.136864763999625e-10 	101325.0000003148
-0.6819319319319321 	300.0000000001026 	4.005266125241627e-10 	101325.0000001524
-0.6794294294294296 	300.0000000000204 	1.952470297235711e-10 	101325.0000000718
-0.6769269269269272 	299.9999999999637 	9.400499358792226e-11 	101325.000000032
-0.6744244244244245 	299.9999999999876 	4.441345639948088e-11 	101325.0000000127
-0.6719219219219222 	299.9999999999714 	2.075935458908919e-11 	101325.0000000034
-0.6694194194194195 	300.0000000000016 	8.726184734346739e-12 	101324.999999999
-0.6669169169169172 	300.0000000000172 	4.212509360322798e-12 	101324.9999999969
-0.6644144144144146 	299.9999999999735 	1.457604965709959e-12 	101324.9999999957
-0.661911911911912 	299.9999999999742 	1.218217763531466e-12 	101324.9999999952
-0.6594094094094097 	299.9999999999819 	5.026361372147442e-13 	101324.9999999949
-0.656906906906907 	299.9999999999499 	1.44811401469513e-12 	101324.9999999948
-0.6544044044044046 	299.9999999999544 	1.487971406268851e-12 	101324.9999999947
-0.6519019019019021 	299.9999999999864 	1.994435575364956e-12 	101324.9999999948
-0.6493993993993996 	300.0000000000195 	1.849929047278116e-12 	101324.9999999947
-0.6468968968968971 	300.0000000000277 	2.959314425385624e-12 	101324.9999999948
-0.6443943943943946 	300.0000000000002 	2.268006191545943e-12 	101324.999999995
-0.6418918918918921 	299.9999999999954 	2.161753008827794e-12 	101324.9999999948
-0.6393893893893897 	299.9999999999969 	1.813661147735575e-12 	101324.9999999946
-0.6368868868868871 	299.9999999999812 	8.243481058284098e-13 	101324.9999999946
-0.6343843843843846 	299.999999999994 	1.72145946252839e-12 	101324.9999999946
-0.6318818818818821 	299.9999999999588 	1.762219537429897e-12 	101324.9999999948
-0.6293793793793795 	300.0000000000016 	1.879139477388664e-12 	101324.999999995
-0.6268768768768773 	300.0000000000185 	1.711743297900343e-12 	101324.9999999949
-0.6243743743743745 	299.9999999999827 	1.009570028956962e-12 	101324.9999999949
-0.6218718718718721 	300.000000000004 	1.975152846001619e-12 	101324.9999999949
-0.6193693693693696 	299.9999999999466 	9.025198675672765e-13 	101324.9999999949
-0.6168668668668671 	299.9999999999861 	1.23706207711564e-12 	101324.9999999947
-0.6143643643643645 	300.0000000000122 	1.036865901296374e-12 	101324.9999999945
-0.6118618618618621 	299.9999999999853 	9.175884475531503e-13 	101324.9999999944
-0.6093593593593596 	299.9999999999877 	4.44943497667735e-13 	101324.9999999943
-0.6068568568568571 	299.9999999999884 	5.156152503894201e-13 	101324.9999999941
-0.6043543543543546 	299.9999999999649 	5.828551326957019e-13 	101324.9999999941
-0.6018518518518521 	299.9999999999714 	5.856613602550491e-13 	101324.9999999941
-0.5993493493493496 	299.9999999999536 	4.645974604650825e-13 	101324.9999999942
-0.5968468468468471 	299.9999999999645 	1.453938786970794e-12 	101324.9999999944
-0.5943443443443446 	299.9999999999947 	1.221284592320548e-12 	101324.9999999946
-0.591841841841842 	299.9999999999662 	1.480927170784364e-12 	101324.9999999948
-0.5893393393393397 	299.9999999999559 	1.620174279202728e-12 	101324.9999999947
-0.5868368368368371 	299.9999999999901 	2.338654566302192e-12 	101324.9999999945
-0.5843343343343346 	300.0000000000011 	2.552832919516458e-12 	101324.9999999945
-0.5818318318318321 	300.0000000000246 	2.393023813159839e-12 	101324.9999999944
-0.5793293293293297 	299.9999999999902 	2.289112321584615e-12 	101324.9999999942
-0.5768268268268271 	299.9999999999988 	1.615459060943387e-12 	101324.999999994
-0.5743243243243245 	300.0000000000168 	1.615108475640955e-12 	101324.9999999939
-0.5718218218218221 	300.0000000000167 	7.165156638999702e-13 	101324.9999999937
-0.5693193193193196 	300.0000000000374 	3.285532853187618e-13 	101324.9999999936
-0.5668168168168171 	299.9999999999893 	7.675413505545131e-13 	101324.9999999938
-0.5643143143143147 	299.9999999999563 	4.851102661739153e-13 	101324.9999999938
-0.5618118118118121 	300.0000000000107 	1.373345344969583e-12 	101324.999999994
-0.5593093093093094 	300.000000000028 	6.247865105060381e-13 	101324.9999999939
-0.5568068068068072 	300.0000000000122 	2.028177434070522e-12 	101324.9999999939
-0.5543043043043046 	300.0000000000127 	1.751352042462718e-12 	101324.9999999938
-0.551801801801802 	299.9999999999629 	2.446261538833094e-12 	101324.9999999936
-0.5492992992992995 	299.9999999999953 	1.64532377541528e-12 	101324.9999999935
-0.5467967967967969 	300.0000000000092 	2.078485428291847e-12 	101324.9999999936
-0.5442942942942947 	300.0000000000062 	1.163563095375793e-12 	101324.9999999936
-0.5417917917917919 	299.9999999999659 	1.553721816158588e-12 	101324.9999999936
-0.5392892892892895 	299.999999999944 	1.188786810887781e-12 	101324.9999999937
-0.536786786786787 	299.9999999999617 	1.168451489721337e-12 	101324.9999999938
-0.5342842842842846 	299.9999999999685 	1.867443459633372e-12 	101324.9999999937
-0.531781781781782 	299.9999999999455 	1.728600230256725e-12 	101324.9999999938
-0.5292792792792794 	299.9999999999409 	2.942941672571254e-12 	101324.9999999938
-0.526776776776777 	299.9999999999274 	2.585306653499211e-12 	101324.9999999938
-0.5242742742742745 	299.9999999999802 	4.593367606663838e-12 	101324.9999999938
-0.521771771771772 	300.0000000000117 	3.530557969336185e-12 	101324.9999999938
-0.5192692692692695 	299.9999999999696 	5.224138541247101e-12 	101324.9999999939
-0.516766766766767 	300.0000000000036 	4.173046637260804e-12 	101324.999999994
-0.5142642642642645 	299.9999999999763 	4.538548092853255e-12 	101324.999999994
-0.511761761761762 	299.9999999999603 	3.483029677320435e-12 	101324.9999999941
-0.5092592592592596 	299.9999999999774 	3.422437144241561e-12 	101324.9999999941
-0.506756756756757 	299.9999999999505 	3.033431552232089e-12 	101324.9999999939
-0.5042542542542544 	299.9999999999943 	2.660115092013716e-12 	101324.9999999939
-0.5017517517517521 	300.0000000000251 	2.48172995000352e-12 	101324.9999999938
-0.4992492492492494 	300.0000000000273 	1.543360179588436e-12 	101324.9999999937
-0.496746746746747 	299.9999999999908 	1.831995239402618e-12 	101324.9999999936
-0.4942442442442445 	299.999999999951 	1.363556485929991e-12 	101324.9999999935
-0.4917417417417421 	299.9999999999513 	1.376337883030081e-12 	101324.9999999935
-0.4892392392392395 	299.9999999999643 	9.551997613854194e-13 	101324.9999999937
-0.486736736736737 	299.999999999965 	2.190425313597369e-12 	101324.9999999938
-0.4842342342342345 	299.999999999937 	9.677546703948639e-13 	101324.9999999936
-0.481731731731732 	300.0000000000289 	2.31644088897498e-12 	101324.9999999934
-0.4792292292292296 	300.0000000000173 	1.492798829735208e-12 	101324.9999999932
-0.4767267267267268 	299.9999999999662 	3.179037937741257e-12 	101324.9999999928
-0.4742242242242246 	299.9999999999998 	2.170369596576823e-12 	101324.9999999927
-0.471721721721722 	299.999999999965 	3.242367329124316e-12 	101324.9999999928
-0.4692192192192195 	299.9999999999836 	1.206245305357512e-12 	101324.999999993
-0.4667167167167169 	299.9999999999288 	3.196030910306921e-12 	101324.9999999931
-0.4642142142142145 	299.9999999999951 	8.121578628717337e-13 	101324.9999999933
-0.461711711711712 	300.0000000000128 	2.165901334499367e-12 	101324.9999999934
-0.4592092092092094 	300.0000000000067 	7.131918132663279e-13 	101324.9999999935
-0.456706706706707 	300.0000000000405 	1.918028959784202e-12 	101324.9999999936
-0.4542042042042045 	299.9999999999527 	8.235248962477561e-13 	101324.9999999937
-0.451701701701702 	299.9999999999611 	1.165677720023843e-12 	101324.9999999939
-0.4491991991991995 	299.9999999999681 	5.608372037559299e-13 	101324.999999994
-0.4466966966966969 	299.9999999999676 	1.212221829423832e-12 	101324.9999999938
-0.4441941941941945 	299.9999999999974 	4.331610900606402e-13 	101324.9999999939
-0.441691691691692 	299.999999999967 	2.960961468634768e-12 	101324.9999999938
-0.4391891891891895 	299.9999999999905 	8.829490975278367e-13 	101324.9999999938
-0.436686686686687 	299.9999999999754 	3.832143642343191e-12 	101324.9999999939
-0.4341841841841846 	299.999999999999 	1.848684939285695e-12 	101324.9999999939
-0.431681681681682 	299.9999999999593 	3.75418290131772e-12 	101324.9999999937
-0.4291791791791794 	299.9999999999435 	7.377999519223294e-13 	101324.9999999938
-0.426676676676677 	299.9999999999293 	2.951000463922772e-12 	101324.9999999937
-0.4241741741741744 	299.9999999999733 	1.138811608311226e-12 	101324.9999999936
-0.421671671671672 	300.0000000000031 	1.787431406503095e-12 	101324.9999999937
-0.4191691691691694 	300.0000000000369 	1.032349744876768e-12 	101324.9999999937
-0.4166666666666669 	300.0000000000444 	1.069271624501635e-12 	101324.9999999936
-0.4141641641641645 	299.9999999999517 	3.269144826881929e-13 	101324.9999999937
-0.411661661661662 	300.0000000000014 	1.074862189080546e-12 	101324.9999999936
-0.4091591591591594 	300.0000000000092 	1.170018381673746e-12 	101324.9999999938
-0.406656656656657 	299.9999999999629 	2.280756849956867e-12 	101324.9999999939
-0.4041541541541545 	300.0000000000089 	1.132155105165708e-12 	101324.9999999939
-0.401651651651652 	299.9999999999417 	3.501497158336463e-12 	101324.9999999938
-0.3991491491491494 	300.0000000000045 	9.072943248274185e-13 	101324.9999999935
-0.396646646646647 	299.999999999965 	3.473937602978779e-12 	101324.9999999933
-0.3941441441441444 	299.9999999999842 	1.754343608621448e-12 	101324.9999999932
-0.3916416416416419 	299.9999999999475 	3.469385751334498e-12 	101324.9999999931
-0.3891391391391395 	299.999999999962 	7.197825700792961e-13 	101324.9999999932
-0.3866366366366368 	299.9999999999651 	2.666524395622922e-12 	101324.9999999934
-0.3841341341341344 	299.9999999999994 	1.222076930251653e-12 	101324.9999999933
-0.381631631631632 	299.9999999999586 	1.980797537612597e-12 	101324.9999999932
-0.3791291291291294 	299.9999999999997 	1.774833022498522e-12 	101324.9999999932
-0.3766266266266269 	300.0000000000148 	1.616140719850764e-12 	101324.9999999932
-0.3741241241241244 	300.0000000000161 	2.053837873703319e-12 	101324.9999999932
-0.371621621621622 	300.0000000000153 	4.125336130728827e-13 	101324.9999999931
-0.3691191191191194 	300.0000000000067 	2.808761813425671e-12 	101324.9999999933
-0.366616616616617 	300.0000000000038 	8.928803876285631e-13 	101324.9999999931
-0.3641141141141143 	299.9999999999777 	2.861189466689928e-12 	101324.9999999927
-0.3616116116116119 	299.9999999999577 	1.057763200071519e-12 	101324.9999999927
-0.3591091091091095 	299.9999999999823 	2.41464793326076e-12 	101324.9999999925
-0.356606606606607 	299.9999999999825 	2.389154826451962e-12 	101324.9999999924
-0.3541041041041044 	299.9999999999908 	2.57099724912122e-12 	101324.9999999926
-0.3516016016016019 	300.0000000000119 	3.333743542564711e-12 	101324.9999999926
-0.3490990990990994 	299.9999999999933 	1.843741503925925e-12 	101324.9999999926
-0.346596596596597 	300.0000000000271 	3.882634980992199e-12 	101324.9999999925
-0.3440940940940944 	300.0000000000325 	1.471882902216874e-12 	101324.9999999926
-0.3415915915915919 	300.0000000000166 	3.67920548110372e-12 	101324.9999999927
-0.3390890890890895 	299.9999999999845 	1.93360282545053e-12 	101324.9999999928
-0.3365865865865869 	300.0000000000155 	3.679879194199399e-12 	101324.9999999928
-0.3340840840840844 	299.9999999999959 	3.243420573251265e-12 	101324.9999999927
-0.3315815815815819 	300.0000000000145 	3.935642771871098e-12 	101324.9999999925
-0.3290790790790794 	300.0000000000155 	3.804086362099808e-12 	101324.9999999925
-0.3265765765765769 	299.9999999999457 	4.578159792153825e-12 	101324.9999999925
-0.3240740740740744 	299.9999999999962 	3.305487002299408e-12 	101324.9999999924
-0.3215715715715718 	300.0000000000056 	4.851990511532678e-12 	101324.9999999923
-0.3190690690690695 	299.9999999999492 	4.319597361240866e-12 	101324.9999999925
-0.3165665665665668 	299.9999999999912 	6.686365773406716e-12 	101324.9999999926
-0.3140640640640644 	300.0000000000005 	4.967652471491285e-12 	101324.9999999929
-0.311561561561562 	299.999999999945 	7.978527997132601e-12 	101324.9999999933
-0.3090590590590593 	299.9999999999953 	3.779456714761578e-12 	101324.9999999931
-0.3065565565565568 	300.0000000000044 	8.282234102890398e-12 	101324.9999999932
-0.3040540540540545 	300.0000000000014 	3.044667658094304e-12 	101324.9999999931
-0.3015515515515518 	300.0000000000255 	7.274836203925011e-12 	101324.9999999929
-0.2990490490490494 	299.9999999999581 	4.169825554508299e-12 	101324.9999999928
-0.2965465465465469 	299.9999999999891 	6.001066207773578e-12 	101324.9999999929
-0.2940440440440444 	299.9999999999939 	5.049980382880393e-12 	101324.999999993
-0.2915415415415418 	300.0000000000055 	5.32194850636912e-12 	101324.9999999929
-0.2890390390390395 	300.0000000000069 	5.730153254039341e-12 	101324.9999999931
-0.2865365365365368 	299.999999999984 	4.487480175555209e-12 	101324.999999993
-0.2840340340340343 	299.999999999999 	6.673768291058066e-12 	101324.9999999929
-0.2815315315315318 	299.9999999999417 	3.934178262210617e-12 	101324.9999999927
-0.2790290290290295 	299.9999999999697 	5.19679614129766e-12 	101324.9999999925
-0.2765265265265269 	300.0000000000038 	3.31904658376132e-12 	101324.9999999926
-0.2740240240240244 	300.000000000018 	4.200405339092129e-12 	101324.9999999929
-0.2715215215215219 	300.0000000000093 	4.272063039050929e-12 	101324.9999999928
-0.2690190190190194 	299.9999999999555 	4.1948551956302e-12 	101324.999999993
-0.2665165165165169 	299.9999999999978 	5.230330933558566e-12 	101324.9999999931
-0.2640140140140144 	299.9999999999795 	3.853420731077645e-12 	101324.9999999931
-0.2615115115115119 	300.0000000000008 	5.897135040415045e-12 	101324.9999999933
-0.2590090090090094 	299.9999999999467 	3.712700441898344e-12 	101324.9999999933
-0.2565065065065068 	299.9999999999932 	5.001945523833578e-12 	101324.9999999934
-0.2540040040040044 	299.9999999999953 	5.013932721108856e-12 	101324.9999999937
-0.2515015015015019 	300.0000000000285 	3.985728180371597e-12 	101324.9999999934
-0.2489989989989994 	300.0000000000308 	5.237476151496479e-12 	101324.999999993
-0.2464964964964968 	299.9999999999898 	2.874412493969268e-12 	101324.9999999925
-0.2439939939939944 	299.9999999999943 	6.017333559678949e-12 	101324.9999999922
-0.2414914914914919 	299.9999999999712 	2.098633018430467e-12 	101324.9999999923
-0.2389889889889893 	299.9999999999988 	5.649025022339628e-12 	101324.9999999927
-0.2364864864864869 	300.0000000000186 	2.428936452868333e-12 	101324.9999999929
-0.2339839839839843 	299.9999999999502 	6.475645673722206e-12 	101324.999999993
-0.2314814814814819 	299.9999999999855 	2.962380423918257e-12 	101324.9999999932
-0.2289789789789792 	299.999999999935 	5.854377921012713e-12 	101324.9999999931
-0.2264764764764769 	299.9999999999588 	3.249504814993357e-12 	101324.9999999932
-0.2239739739739743 	299.9999999999739 	4.642296438619996e-12 	101324.9999999934
-0.2214714714714718 	299.9999999999508 	4.294830441836549e-12 	101324.9999999936
-0.2189689689689693 	299.9999999999767 	3.657728117757681e-12 	101324.9999999936
-0.2164664664664669 	299.9999999999864 	5.957211380535097e-12 	101324.9999999935
-0.2139639639639643 	299.9999999999501 	4.385815702485139e-12 	101324.9999999936
-0.2114614614614618 	299.9999999999775 	5.910924549032428e-12 	101324.9999999934
-0.2089589589589593 	299.9999999999932 	5.82491666696277e-12 	101324.9999999931
-0.2064564564564568 	299.9999999999926 	5.516235106533279e-12 	101324.9999999931
-0.2039539539539543 	299.9999999999357 	6.55666014491299e-12 	101324.9999999929
-0.2014514514514518 	299.999999999956 	3.833651339745246e-12 	101324.9999999929
-0.1989489489489494 	299.9999999999733 	6.474988379103442e-12 	101324.999999993
-0.1964464464464468 	299.9999999999925 	2.746964845872676e-12 	101324.9999999931
-0.1939439439439443 	299.9999999999913 	5.360683085825504e-12 	101324.9999999935
-0.1914414414414418 	299.9999999999413 	2.999943497750823e-12 	101324.9999999939
-0.1889389389389393 	300.0000000000032 	4.593198036565918e-12 	101324.9999999937
-0.1864364364364368 	300.0000000000269 	4.060957608663359e-12 	101324.9999999936
-0.1839339339339343 	299.9999999999819 	4.483931643645519e-12 	101324.9999999933
-0.1814314314314318 	299.9999999999967 	4.294271482522751e-12 	101324.9999999934
-0.1789289289289293 	299.9999999999241 	4.508931443371534e-12 	101324.9999999934
-0.1764264264264268 	299.9999999999853 	3.056198342670108e-12 	101324.9999999936
-0.1739239239239243 	299.9999999999264 	3.6799244336015e-12 	101324.9999999937
-0.1714214214214218 	299.9999999999906 	1.479415799543576e-12 	101324.9999999938
-0.1689189189189193 	299.9999999999648 	4.531943945783455e-12 	101324.9999999937
-0.1664164164164168 	300.0000000000035 	4.112281899091838e-13 	101324.9999999934
-0.1639139139139143 	299.9999999999882 	5.498042877859088e-12 	101324.9999999933
-0.1614114114114118 	300.0000000000175 	1.381656707630454e-12 	101324.9999999933
-0.1589089089089093 	299.9999999999963 	8.012942419412385e-12 	101324.9999999935
-0.1564064064064068 	299.9999999999833 	2.957592402495273e-12 	101324.9999999934
-0.1539039039039043 	299.9999999999943 	7.695588066642229e-12 	101324.9999999935
-0.1514014014014018 	300.0000000000184 	1.882274984386842e-12 	101324.9999999937
-0.1488988988988993 	299.9999999999904 	7.472158277190187e-12 	101324.9999999937
-0.1463963963963968 	300.0000000000011 	6.172636026037485e-13 	101324.9999999938
-0.1438938938938943 	299.9999999999685 	6.227584097377114e-12 	101324.999999994
-0.1413913913913918 	299.9999999999458 	6.15041664122807e-13 	101324.9999999941
-0.1388888888888893 	299.9999999999843 	3.273170920271912e-12 	101324.9999999939
-0.1363863863863868 	299.9999999999171 	4.437244583798016e-13 	101324.9999999936
-0.1338838838838843 	299.9999999999403 	1.116296712533849e-12 	101324.9999999935
-0.1313813813813818 	299.9999999999956 	1.016170494958702e-13 	101324.9999999935
-0.1288788788788793 	299.9999999999707 	1.447833907858315e-12 	101324.9999999933
-0.1263763763763768 	299.9999999999771 	3.550698262412017e-13 	101324.9999999932
-0.1238738738738743 	299.9999999999505 	2.195458901089694e-12 	101324.9999999934
-0.1213713713713717 	299.9999999999903 	2.226479354006085e-13 	101324.9999999936
-0.1188688688688693 	300.0000000000078 	3.461190885609084e-12 	101324.9999999937
-0.1163663663663668 	299.9999999999312 	1.798618735082058e-13 	101324.9999999938
-0.1138638638638643 	299.9999999999934 	4.168756008898441e-12 	101324.9999999939
-0.1113613613613618 	299.9999999999898 	7.389252541692464e-13 	101324.9999999937
-0.1088588588588592 	299.9999999999839 	4.45780409906687e-12 	101324.9999999937
-0.1063563563563568 	299.9999999999687 	2.419693566261221e-13 	101324.9999999938
-0.1038538538538543 	299.9999999999848 	3.95356854101425e-12 	101324.9999999938
-0.1013513513513517 	300.0000000000105 	1.607651957160182e-12 	101324.9999999935
-0.09884884884884926 	299.9999999999616 	4.441216167469928e-12 	101324.9999999933
-0.09634634634634676 	299.9999999999228 	1.959991840922936e-12 	101324.9999999931
-0.09384384384384425 	299.9999999999432 	2.740752674902556e-12 	101324.999999993
-0.09134134134134177 	300.0000000000134 	1.231566533720896e-12 	101324.999999993
-0.08883883883883925 	300.0000000000074 	2.035871967402047e-12 	101324.999999993
-0.08633633633633674 	299.9999999999645 	1.772864671209531e-12 	101324.9999999931
-0.08383383383383426 	300.0000000000035 	1.949899012713422e-12 	101324.9999999931
-0.08133133133133173 	299.999999999977 	1.872684725958196e-12 	101324.9999999932
-0.07882882882882926 	299.9999999999146 	1.028289237991421e-12 	101324.9999999933
-0.07632632632632676 	299.9999999999688 	9.089394930169769e-13 	101324.9999999933
-0.07382382382382424 	299.9999999999241 	6.48162711526197e-13 	101324.9999999932
-0.07132132132132173 	300.0000000000086 	4.815968459481524e-14 	101324.9999999933
-0.06881881881881925 	299.9999999999717 	1.333387961614211e-13 	101324.9999999933
-0.06631631631631671 	299.9999999999214 	2.316568683347547e-13 	101324.9999999935
-0.06381381381381425 	299.9999999999665 	4.993477048461392e-14 	101324.9999999934
-0.06131131131131173 	299.9999999999679 	3.189338671184634e-13 	101324.9999999933
-0.05880880880880923 	299.9999999999407 	1.938060019095743e-13 	101324.9999999936
-0.05630630630630672 	299.9999999999746 	2.94408537361711e-13 	101324.9999999937
-0.05380380380380424 	300.000000000011 	9.562773074495491e-13 	101324.9999999936
-0.05130130130130173 	300.000000000007 	1.276255351836683e-12 	101324.9999999936
-0.04879879879879922 	299.9999999999596 	1.311726143914569e-12 	101324.9999999936
-0.04629629629629672 	299.9999999999523 	8.047142684899587e-13 	101324.9999999934
-0.04379379379379422 	299.9999999999372 	1.115812884276359e-12 	101324.9999999934
-0.04129129129129173 	299.999999999984 	7.985884710133471e-13 	101324.9999999933
-0.03878878878878922 	299.9999999999869 	1.268521275960658e-12 	101324.9999999931
-0.03628628628628671 	299.9999999999849 	6.133471301520186e-13 	101324.9999999932
-0.03378378378378422 	299.9999999999475 	8.263939516535432e-13 	101324.9999999933
-0.03128128128128172 	299.9999999999774 	2.571064606803685e-13 	101324.9999999933
-0.02877877877877922 	299.9999999999762 	5.146728903027012e-14 	101324.9999999931
-0.0262762762762767 	299.9999999999247 	3.865826261170551e-13 	101324.9999999931
-0.02377377377377422 	300.0000000000142 	5.592938651062745e-13 	101324.999999993
-0.0212712712712717 	299.9999999999271 	1.632079562380305e-13 	101324.999999993
-0.01876876876876921 	299.999999999979 	3.783104171225463e-13 	101324.9999999933
-0.01626626626626671 	300.0000000000086 	8.536170470699714e-13 	101324.9999999933
-0.0137637637637642 	299.999999999973 	8.628854675546945e-13 	101324.9999999936
-0.0112612612612617 	300.0000000000113 	9.469955678452793e-13 	101324.9999999935
-0.008758758758759198 	299.9999999999972 	1.398402445423105e-14 	101324.9999999934
-0.006256256256256697 	299.9999999999181 	1.873118889231782e-14 	101324.9999999934
-0.003753753753754195 	299.9999999999641 	9.961107496014909e-13 	101324.9999999934
-0.001251251251251693 	299.9999999999439 	7.837216713576514e-13 	101324.9999999932
0.00125125125125081 	299.9999999999653 	1.139783390334057e-12 	101324.9999999932
0.003753753753753312 	299.9999999999745 	4.27830796931382e-13 	101324.9999999931
0.006256256256255817 	299.9999999999166 	7.5589222941615e-13 	101324.999999993
0.008758758758758317 	299.9999999999897 	2.704168987562875e-13 	101324.9999999931
0.01126126126126082 	300.0000000000063 	3.777741502878839e-13 	101324.9999999934
0.01376376376376332 	299.9999999999756 	2.872007934550422e-13 	101324.9999999934
0.01626626626626582 	300.0000000000061 	4.265214803981121e-13 	101324.9999999934
0.01876876876876833 	299.9999999999685 	6.009386481955933e-13 	101324.9999999934
0.02127127127127083 	299.9999999999782 	1.082202310113034e-12 	101324.9999999936
0.02377377377377332 	299.9999999999962 	1.307188403907568e-12 	101324.9999999937
0.02627627627627583 	299.9999999999309 	1.208029107400134e-12 	101324.9999999936
0.02877877877877833 	300.0000000000045 	1.181925631893687e-12 	101324.9999999936
0.03128128128128083 	299.9999999999574 	6.074494338979243e-13 	101324.9999999933
0.03378378378378333 	299.9999999999271 	1.328015735906556e-12 	101324.9999999933
0.03628628628628584 	299.9999999999801 	1.138673841954841e-12 	101324.9999999934
0.03878878878878834 	299.9999999999857 	7.403588795541318e-13 	101324.9999999934
0.04129129129129084 	299.9999999999827 	9.052378263739075e-13 	101324.9999999934
0.04379379379379333 	299.9999999999548 	7.864944458716073e-13 	101324.9999999934
0.04629629629629585 	299.9999999999167 	6.472286769288384e-13 	101324.9999999935
0.04879879879879834 	299.9999999999651 	9.616439042472065e-13 	101324.9999999935
0.05130130130130085 	300.0000000000095 	6.945577902960819e-13 	101324.9999999935
0.05380380380380335 	300.0000000000131 	3.592739943390558e-13 	101324.9999999935
0.05630630630630584 	299.9999999999908 	6.273941319975372e-13 	101324.9999999934
0.05880880880880836 	299.9999999999417 	7.201689688518004e-13 	101324.9999999933
0.06131131131131085 	299.9999999999822 	7.484941342153863e-13 	101324.9999999934
0.06381381381381336 	299.9999999999726 	1.024924666892958e-12 	101324.9999999932
0.06631631631631586 	299.9999999999187 	3.219815186249352e-13 	101324.9999999931
0.06881881881881835 	299.9999999999611 	4.958507561153704e-13 	101324.9999999931
0.07132132132132088 	299.9999999999905 	2.86416160300796e-13 	101324.9999999932
0.07382382382382337 	299.9999999999295 	8.35628518063843e-13 	101324.9999999931
0.07632632632632587 	299.9999999999785 	1.319134356353272e-12 	101324.999999993
0.07882882882882837 	299.9999999999542 	1.383412876836026e-12 	101324.9999999931
0.08133133133133086 	299.9999999999908 	1.424334423282554e-12 	101324.9999999932
0.08383383383383337 	299.9999999999898 	8.328117507041364e-13 	101324.999999993
0.08633633633633589 	299.9999999999304 	1.244614424794838e-12 	101324.9999999931
0.08883883883883838 	300.0000000000068 	2.450190220237203e-12 	101324.9999999932
0.09134134134134086 	299.9999999999906 	1.945146554271309e-12 	101324.9999999932
0.09384384384384339 	299.9999999999251 	2.203121283870528e-12 	101324.9999999935
0.09634634634634588 	299.9999999999741 	2.488095597398936e-12 	101324.9999999932
0.09884884884884838 	299.9999999999769 	3.187165569895488e-12 	101324.9999999935
0.1013513513513509 	300.0000000000167 	3.526235942567837e-12 	101324.9999999933
0.1038538538538534 	299.999999999965 	3.274029066470917e-12 	101324.9999999933
0.1063563563563559 	300.0000000000109 	3.745511533386411e-12 	101324.9999999932
0.1088588588588584 	300.0000000000172 	2.827607737266946e-12 	101324.9999999931
0.1113613613613609 	299.999999999944 	2.775570334518306e-12 	101324.9999999933
0.1138638638638634 	299.9999999999602 	2.383725372110479e-12 	101324.9999999933
0.1163663663663659 	299.999999999957 	2.597939236793971e-12 	101324.999999993
0.1188688688688684 	299.9999999999753 	2.818361662419216e-12 	101324.9999999933
0.1213713713713709 	299.9999999999951 	2.751881597762115e-12 	101324.9999999935
0.1238738738738734 	299.9999999999457 	2.631516788999987e-12 	101324.9999999937
0.1263763763763759 	299.9999999999879 	2.840715189262137e-12 	101324.9999999939
0.1288788788788784 	299.9999999999906 	2.608798945331831e-12 	101324.9999999939
0.1313813813813809 	299.99999999999 	3.200455494973025e-12 	101324.9999999937
0.1338838838838834 	299.9999999999818 	3.367712746621971e-12 	101324.9999999939
0.1363863863863859 	300.0000000000193 	3.61665937403229e-12 	101324.999999994
0.1388888888888884 	300.0000000000354 	3.487264501836467e-12 	101324.999999994
0.1413913913913909 	300.0000000000015 	3.021343876018931e-12 	101324.9999999936
0.1438938938938934 	299.9999999999926 	3.17038835826757e-12 	101324.9999999935
0.1463963963963959 	299.9999999999681 	2.534513924869367e-12 	101324.9999999937
0.1488988988988985 	299.9999999999346 	3.533531509415902e-12 	101324.9999999938
0.1514014014014009 	299.9999999999736 	3.222830427418187e-12 	101324.9999999938
0.1539039039039035 	299.9999999999712 	5.182372279806333e-12 	101324.9999999937
0.1564064064064059 	299.999999999957 	3.20731437799788e-12 	101324.9999999935
0.1589089089089084 	299.9999999999873 	6.482391201706611e-12 	101324.9999999931
0.1614114114114109 	299.9999999999835 	3.311512162110532e-12 	101324.9999999932
0.1639139139139134 	299.999999999932 	4.51650823667946e-12 	101324.9999999933
0.166416416416416 	300.0000000000027 	3.384275122924363e-12 	101324.9999999935
0.1689189189189185 	300.0000000000169 	3.271508118767225e-12 	101324.9999999934
0.1714214214214209 	299.9999999999949 	3.545559060844901e-12 	101324.9999999936
0.1739239239239235 	299.9999999999861 	2.424218677113394e-12 	101324.9999999938
0.1764264264264259 	299.9999999999769 	4.496258170115744e-12 	101324.9999999939
0.1789289289289284 	299.9999999999991 	1.922610313833355e-12 	101324.9999999938
0.181431431431431 	299.9999999999688 	4.503187119322668e-12 	101324.9999999937
0.1839339339339334 	299.9999999999726 	2.158041246483573e-12 	101324.9999999937
0.186436436436436 	299.9999999999454 	3.319392022514612e-12 	101324.9999999936
0.1889389389389385 	299.9999999999862 	2.816448944548696e-12 	101324.9999999934
0.191441441441441 	299.9999999999843 	2.672882073586162e-12 	101324.9999999932
0.1939439439439434 	299.999999999941 	4.462835324262325e-12 	101324.9999999931
0.196446446446446 	299.999999999962 	3.03239646861274e-12 	101324.999999993
0.1989489489489485 	299.9999999999729 	5.541516147739512e-12 	101324.9999999929
0.2014514514514509 	299.9999999999869 	3.5682021373656e-12 	101324.9999999932
0.2039539539539535 	299.9999999999945 	5.113652988070251e-12 	101324.9999999932
0.2064564564564559 	299.9999999999698 	4.146714015358221e-12 	101324.9999999932
0.2089589589589585 	299.999999999987 	4.436394813148744e-12 	101324.9999999931
0.211461461461461 	299.9999999999479 	4.056597178840255e-12 	101324.9999999929
0.2139639639639635 	299.9999999999858 	3.094709585990197e-12 	101324.9999999926
0.2164664664664659 	299.9999999999981 	3.927393955597664e-12 	101324.9999999928
0.2189689689689684 	299.999999999998 	1.591487428118567e-12 	101324.999999993
0.221471471471471 	299.9999999999933 	3.869107442581315e-12 	101324.9999999929
0.2239739739739735 	299.9999999999672 	1.292152607022866e-12 	101324.9999999927
0.226476476476476 	299.9999999999863 	2.983563052140148e-12 	101324.9999999928
0.2289789789789785 	299.999999999993 	1.702637800235734e-12 	101324.999999993
0.231481481481481 	299.9999999999885 	2.039400496435265e-12 	101324.9999999934
0.2339839839839835 	299.9999999999899 	3.103891171404377e-12 	101324.9999999932
0.236486486486486 	300.0000000000175 	2.921626940413456e-12 	101324.9999999931
0.2389889889889885 	300.0000000000018 	4.397556298866786e-12 	101324.9999999931
0.241491491491491 	299.9999999999454 	2.705980815992126e-12 	101324.999999993
0.2439939939939935 	299.9999999999815 	5.955923716731396e-12 	101324.9999999928
0.246496496496496 	299.9999999999914 	3.838400391994945e-12 	101324.9999999928
0.2489989989989985 	300.0000000000248 	5.525603581788064e-12 	101324.9999999925
0.251501501501501 	300.0000000000197 	4.029489375643826e-12 	101324.9999999926
0.2540040040040035 	299.9999999999907 	3.743829142322472e-12 	101324.9999999924
0.256506506506506 	300.0000000000186 	4.052270802662453e-12 	101324.9999999923
0.2590090090090086 	299.9999999999326 	2.53861096989785e-12 	101324.9999999923
0.261511511511511 	299.9999999999984 	4.876610166391136e-12 	101324.9999999923
0.2640140140140135 	299.9999999999925 	2.4397863109411e-12 	101324.9999999923
0.2665165165165161 	299.9999999999478 	3.449004935610822e-12 	101324.9999999922
0.2690190190190185 	300.0000000000035 	1.521830597527073e-12 	101324.9999999921
0.271521521521521 	300.0000000000023 	1.123891879087734e-12 	101324.9999999923
0.2740240240240235 	300.0000000000102 	9.306859824855173e-13 	101324.9999999924
0.276526526526526 	300.0000000000032 	6.536581843612521e-13 	101324.9999999924
0.2790290290290286 	299.9999999999538 	1.086833191087934e-12 	101324.9999999925
0.281531531531531 	299.9999999999465 	6.912793608451195e-13 	101324.9999999925
0.2840340340340335 	299.9999999999847 	2.9717868094308e-12 	101324.9999999925
0.2865365365365361 	299.9999999999682 	1.365289402842222e-12 	101324.9999999926
0.2890390390390385 	299.9999999999966 	2.537602823560611e-12 	101324.9999999925
0.291541541541541 	299.9999999999965 	1.920381052879969e-12 	101324.9999999926
0.2940440440440436 	299.9999999999912 	1.750676439787095e-12 	101324.9999999928
0.296546546546546 	299.9999999999925 	2.675736586389227e-12 	101324.9999999927
0.2990490490490486 	299.9999999999495 	1.360013591612388e-12 	101324.9999999929
0.3015515515515511 	300.000000000024 	4.437630794765836e-12 	101324.9999999928
0.3040540540540535 	299.99999999999 	1.428364966553453e-12 	101324.9999999926
0.3065565565565562 	299.9999999999951 	4.253785201218519e-12 	101324.9999999927
0.3090590590590585 	299.999999999991 	1.363724386752509e-12 	101324.999999993
0.3115615615615611 	299.9999999999526 	3.161929802227237e-12 	101324.9999999931
0.3140640640640635 	299.9999999999996 	5.095953994740902e-13 	101324.9999999933
0.316566566566566 	299.9999999999906 	2.437982677716687e-12 	101324.9999999934
0.3190690690690687 	299.9999999999631 	8.981262474184976e-13 	101324.9999999931
0.3215715715715711 	300.0000000000094 	2.717093915352949e-12 	101324.999999993
0.3240740740740735 	299.9999999999963 	9.166587479970037e-13 	101324.9999999929
0.326576576576576 	299.9999999999276 	2.065088340413477e-12 	101324.999999993
0.3290790790790786 	300.0000000000023 	9.708793772995234e-13 	101324.9999999929
0.3315815815815811 	300.0000000000247 	1.747056799206791e-12 	101324.9999999928
0.3340840840840836 	299.9999999999914 	1.101524478328876e-12 	101324.9999999929
0.3365865865865861 	300.0000000000392 	1.794518626733295e-12 	101324.999999993
0.3390890890890886 	300.0000000000349 	5.745208583575959e-13 	101324.999999993
0.3415915915915911 	300.0000000000008 	1.672835030769088e-12 	101324.9999999931
0.3440940940940935 	299.9999999999636 	6.329423376230577e-13 	101324.9999999931
0.3465965965965962 	300.0000000000248 	2.136471716850585e-12 	101324.9999999931
0.3490990990990985 	300.0000000000194 	2.041778237804372e-13 	101324.9999999931
0.3516016016016011 	299.9999999999898 	8.561866296960755e-13 	101324.9999999931
0.3541041041041035 	300.000000000007 	3.626749294670989e-13 	101324.9999999929
0.3566066066066061 	299.999999999968 	4.650934939582494e-13 	101324.9999999929
0.3591091091091085 	299.9999999999437 	1.661751013840038e-12 	101324.9999999928
0.3616116116116112 	299.999999999954 	1.106979013787418e-12 	101324.9999999925
0.3641141141141137 	299.9999999999488 	2.889886782749208e-12 	101324.9999999924
0.3666166166166161 	299.9999999999428 	8.182455106841691e-13 	101324.9999999922
0.3691191191191185 	300.0000000000244 	3.425723296937067e-12 	101324.9999999922
0.371621621621621 	300.0000000000104 	8.164064358012291e-13 	101324.9999999923
0.3741241241241237 	300.0000000000349 	2.678547190722441e-12 	101324.9999999926
0.3766266266266261 	300.0000000000161 	4.190264650952439e-13 	101324.9999999927
0.3791291291291286 	299.9999999999855 	1.957002161335155e-12 	101324.9999999929
0.3816316316316311 	299.9999999999412 	6.713670410936772e-13 	101324.9999999928
0.3841341341341336 	300.0000000000039 	1.30309231203164e-12 	101324.9999999926
0.3866366366366362 	299.9999999999972 	6.342636064034401e-13 	101324.9999999925
0.3891391391391387 	299.9999999999675 	3.251686747565747e-13 	101324.9999999926
0.391641641641641 	299.9999999999944 	6.452231265423447e-13 	101324.9999999928
0.3941441441441436 	300.0000000000051 	2.877324088255502e-13 	101324.9999999931
0.3966466466466462 	299.9999999999989 	8.119825142499188e-13 	101324.9999999931
0.3991491491491486 	299.9999999999625 	4.788552571861574e-13 	101324.9999999929
0.4016516516516512 	299.999999999939 	1.412941049155348e-12 	101324.9999999928
0.4041541541541536 	299.9999999999631 	5.897680792636432e-13 	101324.9999999928
0.4066566566566561 	299.9999999999628 	2.175621321661541e-12 	101324.9999999926
0.4091591591591587 	299.9999999999962 	4.631893836944934e-13 	101324.9999999926
0.4116616616616612 	300.0000000000067 	1.610043380509332e-12 	101324.9999999927
0.4141641641641635 	300.0000000000275 	2.427025580980403e-13 	101324.9999999928
0.4166666666666662 	299.9999999999944 	2.50181395170342e-13 	101324.9999999927
0.4191691691691687 	299.9999999999563 	1.052926220124939e-12 	101324.9999999928
0.421671671671671 	300.0000000000067 	1.660691075397601e-12 	101324.9999999927
0.4241741741741737 	299.9999999999797 	2.048448855590371e-12 	101324.9999999927
0.4266766766766761 	299.9999999999627 	2.490455374208124e-12 	101324.9999999925
0.4291791791791785 	300.0000000000156 	3.064339942188466e-12 	101324.9999999924
0.4316816816816812 	300.000000000007 	2.528203616958816e-12 	101324.9999999924
0.4341841841841836 	299.9999999999824 	3.085373107535226e-12 	101324.9999999925
0.4366866866866862 	299.9999999999396 	1.205118131842519e-12 	101324.9999999927
0.4391891891891885 	299.9999999999949 	2.213524458359187e-12 	101324.9999999927
0.4416916916916913 	299.999999999989 	8.250395037870299e-13 	101324.9999999927
0.4441941941941936 	299.9999999999914 	1.724664386222283e-12 	101324.9999999927
0.4466966966966961 	299.9999999999443 	3.818668963127875e-13 	101324.9999999927
0.4491991991991987 	299.9999999999885 	9.341203411928646e-14 	101324.9999999926
0.4517017017017012 	299.9999999999871 	1.571152372356595e-13 	101324.9999999928
0.4542042042042035 	299.9999999999891 	4.598129571371917e-13 	101324.9999999928
0.4567067067067062 	299.9999999999984 	3.260429252856051e-13 	101324.999999993
0.4592092092092087 	299.9999999999498 	3.375065316856605e-13 	101324.9999999929
0.4617117117117112 	300.0000000000152 	5.255858868557722e-13 	101324.9999999927
0.4642142142142137 	299.9999999999763 	5.290820376229321e-13 	101324.9999999925
0.4667167167167162 	299.9999999999935 	1.958474120043455e-13 	101324.9999999926
0.4692192192192187 	299.9999999999695 	6.536161079811497e-13 	101324.9999999925
0.4717217217217212 	300.0000000000042 	8.873949115007261e-13 	101324.9999999926
0.4742242242242236 	299.9999999999656 	1.631814911035792e-12 	101324.9999999928
0.4767267267267262 	299.9999999999802 	1.189005220589049e-12 	101324.9999999929
0.4792292292292287 	300.0000000000093 	1.340997963187947e-12 	101324.9999999929
0.4817317317317312 	300.0000000000215 	1.584444790661204e-12 	101324.9999999932
0.4842342342342336 	299.9999999999872 	1.310658730988099e-12 	101324.9999999935
0.4867367367367362 	299.999999999969 	1.219821396183081e-12 	101324.9999999935
0.4892392392392387 	300.0000000000211 	5.801740880805267e-13 	101324.9999999935
0.4917417417417412 	300.0000000000047 	2.122797715342325e-12 	101324.9999999935
0.4942442442442437 	299.9999999999321 	1.346866666893221e-12 	101324.9999999933
0.4967467467467462 	299.999999999946 	3.036971619966367e-12 	101324.999999993
0.4992492492492487 	299.9999999999412 	1.18600862227401e-12 	101324.9999999931
0.5017517517517511 	299.9999999999685 	2.446754177957587e-12 	101324.999999993
0.5042542542542537 	299.9999999999754 	1.604395353331758e-12 	101324.999999993
0.5067567567567562 	299.9999999999645 	1.939159856891072e-12 	101324.9999999928
0.5092592592592589 	299.9999999999801 	1.502609504226812e-12 	101324.9999999926
0.5117617617617611 	299.9999999999706 	6.774032472269246e-13 	101324.9999999927
0.5142642642642637 	299.9999999999872 	2.096266472563948e-12 	101324.9999999929
0.5167667667667663 	299.9999999999795 	1.823888083618822e-12 	101324.9999999928
0.5192692692692688 	299.999999999947 	3.352183620671483e-12 	101324.999999993
0.5217717717717714 	299.9999999999544 	2.958926146808505e-12 	101324.9999999931
0.5242742742742736 	299.9999999999562 	3.017519624834624e-12 	101324.9999999932
0.5267767767767763 	299.9999999999684 	1.7228328620737e-12 	101324.9999999931
0.5292792792792789 	299.9999999999548 	2.292334430968907e-12 	101324.9999999931
0.5317817817817813 	299.9999999999364 	9.976719095079573e-13 	101324.9999999933
0.5342842842842837 	300.0000000000136 	1.182133710891415e-12 	101324.9999999931
0.5367867867867864 	300.0000000000026 	9.148262722188638e-13 	101324.9999999931
0.5392892892892888 	299.9999999999713 	1.606413976575523e-12 	101324.9999999932
0.5417917917917912 	300.0000000000041 	1.164168377196637e-12 	101324.9999999932
0.5442942942942938 	299.9999999999868 	2.141667187960069e-12 	101324.9999999934
0.5467967967967964 	299.9999999999658 	1.794134569588811e-12 	101324.9999999935
0.5492992992992988 	299.9999999999599 	2.340726322029902e-12 	101324.9999999935
0.5518018018018012 	299.9999999999546 	1.458877618814939e-12 	101324.9999999934
0.5543043043043039 	300.0000000000146 	2.078167193088007e-12 	101324.9999999934
0.5568068068068063 	299.9999999999939 	1.471990500472936e-12 	101324.9999999934
0.5593093093093087 	299.9999999999342 	2.081313700706492e-12 	101324.9999999937
0.5618118118118114 	299.9999999999757 	6.744651315467037e-13 	101324.9999999936
0.5643143143143137 	299.9999999999613 	1.816642212111649e-12 	101324.9999999936
0.5668168168168163 	299.9999999999901 	1.22777657850231e-12 	101324.9999999937
0.5693193193193188 	300.0000000000232 	1.911322687871621e-12 	101324.9999999936
0.5718218218218213 	300.0000000000199 	1.65818932885666e-12 	101324.9999999934
0.5743243243243239 	300.0000000000087 	1.132531196913823e-12 	101324.9999999932
0.5768268268268262 	300.0000000000038 	2.354074530023451e-12 	101324.9999999933
0.5793293293293288 	299.9999999999627 	1.436070837451699e-12 	101324.9999999932
0.5818318318318314 	299.9999999999422 	3.742851953381873e-12 	101324.9999999932
0.5843343343343338 	299.9999999999854 	1.43064376782317e-12 	101324.9999999934
0.5868368368368363 	299.9999999999809 	3.422227204435475e-12 	101324.9999999933
0.5893393393393387 	299.9999999999592 	9.56017057350286e-13 	101324.9999999934
0.5918418418418413 	299.9999999999598 	2.572714588031082e-12 	101324.9999999935
0.5943443443443439 	300.0000000000117 	1.0527684568914e-12 	101324.9999999938
0.5968468468468463 	300.0000000000127 	1.975887708023894e-12 	101324.9999999937
0.5993493493493487 	300.000000000027 	1.408857745924083e-12 	101324.9999999937
0.6018518518518514 	299.9999999999842 	2.16964249184683e-12 	101324.9999999936
0.6043543543543537 	299.9999999999923 	1.615203166581445e-12 	101324.9999999936
0.6068568568568564 	299.9999999999844 	2.156482702847794e-12 	101324.9999999937
0.6093593593593587 	299.999999999952 	1.055798663988403e-12 	101324.9999999937
0.6118618618618614 	299.9999999999493 	1.005086635506282e-12 	101324.9999999935
0.6143643643643638 	300.0000000000098 	1.182191005730957e-12 	101324.9999999936
0.6168668668668662 	299.9999999999897 	1.596157421611745e-12 	101324.9999999937
0.6193693693693688 	299.9999999999715 	1.081121750474384e-12 	101324.9999999936
0.6218718718718714 	299.999999999977 	2.881006193786934e-12 	101324.9999999936
0.6243743743743737 	299.9999999999563 	1.331669830770087e-12 	101324.9999999935
0.6268768768768762 	299.9999999999475 	2.732110813081949e-12 	101324.9999999934
0.629379379379379 	299.9999999999607 	1.917685780227298e-12 	101324.9999999933
0.6318818818818812 	299.9999999999803 	2.794954023271779e-12 	101324.9999999932
0.6343843843843838 	300.0000000000126 	2.88999291501461e-12 	101324.999999993
0.6368868868868864 	299.9999999999883 	2.796648807031457e-12 	101324.999999993
0.6393893893893888 	299.9999999999462 	3.669477100100166e-12 	101324.999999993
0.6418918918918912 	300.0000000000051 	1.939853491329754e-12 	101324.9999999932
0.6443943943943939 	299.9999999999917 	4.68991417913358e-12 	101324.9999999932
0.6468968968968963 	299.9999999999889 	2.005153745751248e-12 	101324.9999999932
0.6493993993993988 	299.9999999999829 	4.533112618766333e-12 	101324.9999999933
0.6519019019019012 	299.9999999999815 	2.323507855224588e-12 	101324.9999999934
0.6544044044044038 	299.9999999999313 	4.242284423201024e-12 	101324.9999999934
0.6569069069069065 	299.9999999999665 	1.496528070390818e-12 	101324.9999999934
0.6594094094094087 	299.9999999999699 	2.912196030571905e-12 	101324.9999999932
0.6619119119119113 	299.9999999999643 	1.115864782410263e-12 	101324.9999999931
0.664414414414414 	299.999999999999 	2.054472166825299e-12 	101324.999999993
0.6669169169169162 	300.0000000000111 	1.290818917932072e-12 	101324.9999999929
0.6694194194194188 	299.9999999999896 	2.313881659566845e-12 	101324.999999993
0.6719219219219214 	299.9999999999507 	1.645181522245524e-12 	101324.9999999932
0.674424424424424 	299.9999999999803 	2.25975124296403e-12 	101324.9999999934
0.6769269269269262 	299.9999999999438 	2.014602349241804e-12 	101324.9999999936
0.679429429429429 	300.0000000000023 	2.81227493253344e-12 	101324.9999999937
0.6819319319319311 	299.9999999999823 	2.600127329005481e-12 	101324.9999999938
0.6844344344344341 	299.9999999999939 	3.750770984088967e-12 	101324.9999999939
0.686936936936936 	299.9999999999917 	3.169317874019209e-12 	101324.9999999939
0.6894394394394392 	299.9999999999918 	4.135536099782009e-12 	101324.999999994
0.6919419419419413 	299.9999999999929 	3.85506911388247e-12 	101324.999999994
0.694444444444444 	299.9999999999581 	3.326062291039788e-12 	101324.9999999939
0.6969469469469463 	299.9999999999519 	2.955295768169639e-12 	101324.9999999939
0.6994494494494489 	299.9999999999436 	2.159685379113958e-12 	101324.9999999938
0.7019519519519515 	299.9999999999859 	2.689708515308397e-12 	101324.9999999937
0.7044544544544538 	299.9999999999653 	1.508539577471913e-12 	101324.9999999939
0.7069569569569564 	299.9999999999952 	3.007650381356685e-12 	101324.9999999942
0.7094594594594589 	299.9999999999735 	1.03613762471674e-12 	101324.9999999942
0.7119619619619615 	299.999999999935 	2.028287012747158e-12 	101324.9999999941
0.7144644644644638 	299.9999999999621 	5.816995845761227e-13 	101324.9999999941
0.7169669669669665 	299.999999999944 	1.241512417846151e-12 	101324.9999999939
0.7194694694694688 	299.9999999999922 	3.831636621601623e-13 	101324.9999999939
0.7219719719719715 	299.9999999999877 	1.149065331542637e-12 	101324.9999999937
0.7244744744744737 	299.9999999999985 	1.055678102053546e-12 	101324.9999999938
0.7269769769769764 	299.9999999999947 	1.143609201305856e-12 	101324.9999999939
0.7294794794794791 	299.9999999999921 	2.032436339303294e-12 	101324.999999994
0.7319819819819813 	299.9999999999881 	7.761684594183188e-13 	101324.999999994
0.7344844844844839 	299.999999999947 	1.516470948765507e-12 	101324.999999994
0.7369869869869864 	299.9999999999663 	3.572827284372825e-13 	101324.999999994
0.739489489489489 	299.9999999999566 	7.081475422304797e-13 	101324.9999999939
0.7419919919919914 	299.9999999999478 	1.40380201242978e-12 	101324.999999994
0.7444944944944939 	299.9999999999819 	1.443502056059782e-12 	101324.9999999939
0.7469969969969963 	299.9999999999777 	2.26650237369142e-12 	101324.9999999938
0.7494994994994989 	299.9999999999574 	2.420896664745971e-12 	101324.9999999937
0.7520020020020015 	299.9999999999768 	2.355932390581026e-12 	101324.9999999938
0.7545045045045039 	299.9999999999768 	2.046685192965239e-12 	101324.999999994
0.7570070070070062 	299.9999999999598 	8.449802784120454e-13 	101324.9999999939
0.7595095095095092 	299.9999999999523 	2.102928069022914e-12 	101324.9999999937
0.7620120120120112 	300.0000000000044 	1.034735392186273e-12 	101324.9999999935
0.7645145145145138 	299.999999999992 	6.96654701672249e-13 	101324.9999999933
0.7670170170170165 	299.9999999999515 	1.416084783604682e-12 	101324.9999999932
0.7695195195195191 	299.9999999999437 	1.652391010794484e-12 	101324.9999999933
0.7720220220220213 	299.9999999999545 	1.545833821825502e-12 	101324.9999999934
0.7745245245245239 	299.9999999999549 	1.589561621242623e-12 	101324.9999999934
0.7770270270270263 	299.9999999999801 	1.798619205667062e-12 	101324.9999999934
0.779529529529529 	299.9999999999826 	1.492438268557694e-12 	101324.9999999937
0.7820320320320313 	299.9999999999779 	2.438747029497694e-12 	101324.9999999939
0.784534534534534 	299.9999999999988 	2.094221494931611e-12 	101324.9999999941
0.7870370370370364 	299.9999999999937 	1.832293734104677e-12 	101324.9999999942
0.7895395395395389 	299.999999999981 	2.311199595216811e-12 	101324.9999999942
0.7920420420420413 	299.9999999999781 	1.166538371012924e-12 	101324.9999999943
0.794544544544544 	299.9999999999805 	2.9161326989099e-12 	101324.9999999943
0.7970470470470463 	300.0000000000027 	2.149534168345721e-12 	101324.9999999942
0.799549549549549 	299.9999999999896 	2.432924363651407e-12 	101324.9999999941
0.8020520520520515 	299.9999999999962 	1.304007962205229e-12 	101324.999999994
0.8045545545545539 	299.9999999999653 	1.921521207751752e-12 	101324.9999999941
0.8070570570570563 	299.9999999999889 	1.183569740791882e-12 	101324.9999999942
0.8095595595595589 	299.99999999997 	2.072387687913192e-12 	101324.9999999942
0.8120620620620614 	299.9999999999519 	2.2178318112443e-12 	101324.9999999942
0.8145645645645638 	299.9999999999949 	1.852220256255671e-12 	101324.9999999941
0.8170670670670666 	299.9999999999887 	2.337715890581972e-12 	101324.9999999942
0.8195695695695689 	299.9999999999819 	1.502839507124339e-12 	101324.9999999944
0.8220720720720714 	299.9999999999621 	2.766056126731405e-12 	101324.9999999944
0.8245745745745739 	299.999999999997 	1.182272301928185e-12 	101324.9999999944
0.8270770770770765 	299.9999999999828 	2.516948204292218e-12 	101324.9999999945
0.8295795795795788 	299.9999999999676 	1.910999966373635e-12 	101324.9999999946
0.8320820820820815 	300.0000000000117 	2.619641317128193e-12 	101324.9999999947
0.834584584584584 	300.0000000000018 	2.216887001991205e-12 	101324.9999999947
0.8370870870870865 	299.9999999999817 	2.624960926870043e-12 	101324.9999999948
0.8395895895895891 	299.9999999999524 	3.595821383246652e-12 	101324.9999999948
0.8420920920920915 	299.9999999999587 	3.450627927161483e-12 	101324.9999999948
0.844594594594594 	299.9999999999553 	4.447499156614163e-12 	101324.9999999947
0.8470970970970964 	299.9999999999625 	5.155902150256648e-12 	101324.9999999947
0.8495995995995991 	299.9999999999895 	5.483329106888817e-12 	101324.9999999946
0.8521021021021015 	299.9999999999851 	6.120206517974286e-12 	101324.9999999947
0.8546046046046039 	299.9999999999829 	5.815577310058972e-12 	101324.9999999948
0.8571071071071066 	299.9999999999963 	6.273012109633645e-12 	101324.9999999948
0.8596096096096089 	299.9999999999726 	4.623228898688151e-12 	101324.9999999947
0.8621121121121116 	299.9999999999513 	6.200522214721464e-12 	101324.9999999947
0.8646146146146139 	299.999999999997 	4.180121534060431e-12 	101324.9999999948
0.8671171171171166 	299.9999999999864 	5.31877220131869e-12 	101324.9999999949
0.8696196196196189 	299.9999999999676 	4.57802791510356e-12 	101324.9999999948
0.8721221221221216 	299.9999999999767 	5.043027333334211e-12 	101324.9999999948
0.874624624624624 	299.9999999999977 	5.20049698730057e-12 	101324.9999999949
0.8771271271271264 	299.9999999999993 	5.178374553660618e-12 	101324.999999995
0.879629629629629 	300.0000000000012 	6.108160822160264e-12 	101324.9999999948
0.8821321321321317 	299.9999999999854 	5.323685065437326e-12 	101324.9999999948
0.8846346346346339 	299.9999999999476 	7.453972307980273e-12 	101324.9999999947
0.8871371371371364 	299.9999999999699 	5.695674051730306e-12 	101324.9999999947
0.8896396396396391 	299.99999999997 	7.249524302673021e-12 	101324.9999999947
0.8921421421421414 	299.9999999999688 	7.349924128168974e-12 	101324.9999999946
0.8946446446446441 	299.9999999999848 	8.515823871622738e-12 	101324.9999999947
0.8971471471471464 	299.9999999999973 	8.44681782488528e-12 	101324.9999999948
0.8996496496496489 	299.999999999984 	8.013813497886574e-12 	101324.999999995
0.9021521521521517 	299.9999999999727 	8.216382479262689e-12 	101324.9999999949
0.9046546546546541 	299.9999999999891 	7.175528397593749e-12 	101324.999999995
0.9071571571571564 	299.9999999999615 	7.448715139960151e-12 	101324.9999999949
0.9096596596596589 	299.9999999999621 	6.906702326839354e-12 	101324.9999999949
0.9121621621621616 	300.0000000000053 	6.722518792165067e-12 	101324.999999995
0.9146646646646639 	299.9999999999828 	6.056913558645576e-12 	101324.999999995
0.9171671671671666 	299.9999999999597 	5.476595887782087e-12 	101324.9999999953
0.9196696696696689 	299.9999999999999 	5.436947431253704e-12 	101324.9999999953
0.9221721721721714 	300.0000000000014 	4.033620332243557e-12 	101324.9999999954
0.9246746746746741 	299.9999999999602 	5.962678745801788e-12 	101324.9999999952
0.9271771771771765 	299.9999999999604 	4.762525100543358e-12 	101324.9999999952
0.9296796796796791 	299.9999999999907 	6.560131094925332e-12 	101324.9999999953
0.9321821821821816 	299.999999999981 	6.145725791686268e-12 	101324.9999999953
0.9346846846846838 	299.9999999999693 	7.21394303930135e-12 	101324.9999999954
0.9371871871871866 	300.0000000000094 	7.17690263053757e-12 	101324.9999999953
0.9396896896896891 	300.0000000000114 	7.361547172662307e-12 	101324.9999999952
0.9421921921921914 	300.0000000000058 	7.403366336365202e-12 	101324.9999999954
0.9446946946946939 	299.9999999999729 	6.566790357466176e-12 	101324.9999999956
0.9471971971971965 	299.9999999999451 	8.51820225590029e-12 	101324.9999999955
0.9496996996996991 	299.9999999999685 	7.200552736293853e-12 	101324.9999999955
0.9522022022022016 	299.9999999999765 	8.613724960587753e-12 	101324.9999999955
0.9547047047047038 	299.9999999999788 	8.148914778662801e-12 	101324.9999999954
0.9572072072072064 	299.9999999999725 	8.863836346441765e-12 	101324.9999999955
0.9597097097097093 	299.9999999999716 	8.499557131092869e-12 	101324.9999999955
0.9622122122122114 	299.9999999999681 	8.040225973462416e-12 	101324.9999999953
0.964714714714714 	299.9999999999679 	8.861714747791967e-12 	101324.9999999953
0.9672172172172167 	299.9999999999732 	8.190660410619335e-12 	101324.9999999954
0.969719719719719 	299.9999999999922 	8.860269638130598e-12 	101324.9999999953
0.9722222222222214 	299.9999999999822 	8.332155507178148e-12 	101324.9999999953
0.9747247247247239 	299.9999999999783 	8.335730168205581e-12 	101324.9999999953
0.9772272272272267 	299.9999999999994 	8.126457187178073e-12 	101324.9999999953
0.9797297297297292 	299.9999999999908 	8.084552709039207e-12 	101324.9999999955
0.9822322322322313 	299.9999999999948 	9.054671331606291e-12 	101324.9999999957
0.9847347347347344 	299.9999999999946 	8.486766035136663e-12 	101324.9999999957
0.9872372372372363 	299.9999999999662 	1.082585152094654e-11 	101324.9999999954
0.9897397397397389 	299.9999999999792 	9.312646668028197e-12 	101324.9999999954
0.9922422422422417 	299.9999999999657 	1.097194712389798e-11 	101324.9999999956
0.9947447447447441 	299.9999999999691 	1.03286811603867e-11 	101324.9999999954
0.9972472472472468 	299.9999999999795 	1.117195060820549e-11 	101324.9999999953
0.999749749749749 	299.9999999999748 	1.028934785478992e-11 	101324.9999999954
1.002252252252252 	299.9999999999807 	1.014457412666944e-11 	101324.9999999954
1.004754754754754 	299.9999999999916 	1.031144464014154e-11 	101324.9999999955
1.007257257257256 	299.999999999979 	1.020414317948666e-11 	101324.9999999958
1.009759759759759 	299.9999999999725 	1.213648573330302e-11 	101324.999999996
1.012262262262261 	299.9999999999676 	1.063466564618409e-11 	101324.9999999962
1.014764764764764 	299.9999999999516 	1.146651674632388e-11 	101324.9999999963
1.017267267267267 	299.9999999999465 	1.008795183450506e-11 	101324.9999999964
1.019769769769769 	299.9999999999765 	1.015861893498291e-11 	101324.9999999963
1.022272272272272 	299.9999999999843 	9.458663404338898e-12 	101324.9999999962
1.024774774774774 	299.9999999999841 	9.30368411610156e-12 	101324.9999999963
1.027277277277277 	299.9999999999827 	9.999231330514895e-12 	101324.9999999965
1.029779779779779 	300.0000000000047 	9.424183168065247e-12 	101324.9999999966
1.032282282282282 	300.0000000000045 	1.002428093318514e-11 	101324.9999999967
1.034784784784784 	299.9999999999994 	9.921533365358554e-12 	101324.9999999968
1.037287287287286 	299.9999999999777 	1.06424654516028e-11 	101324.999999997
1.039789789789789 	299.9999999999839 	1.046514017014356e-11 	101324.9999999972
1.042292292292291 	300.0000000000105 	1.023338578733808e-11 	101324.9999999972
1.044794794794794 	300.0000000000155 	1.011622067446659e-11 	101324.9999999974
1.047297297297296 	300.0000000000255 	9.284895480542762e-12 	101324.9999999975
1.049799799799799 	299.9999999999962 	1.08084176163748e-11 	101324.9999999974
1.052302302302302 	299.9999999999713 	9.563465455710134e-12 	101324.9999999976
1.054804804804804 	299.9999999999579 	1.111571251756636e-11 	101324.9999999977
1.057307307307306 	299.9999999999487 	1.050284620576265e-11 	101324.9999999978
1.059809809809809 	299.9999999999715 	1.140544438176776e-11 	101324.9999999977
1.062312312312312 	299.9999999999679 	1.077618959633961e-11 	101324.9999999974
1.064814814814814 	299.999999999965 	1.067940207141585e-11 	101324.9999999972
1.067317317317317 	299.99999999995 	1.035585685497776e-11 	101324.9999999974
1.069819819819819 	299.9999999999492 	1.034226345814947e-11 	101324.9999999976
1.072322322322321 	299.9999999999935 	1.174752770053246e-11 	101324.9999999978
1.074824824824824 	300.0000000000128 	1.001663475667624e-11 	101324.9999999978
1.077327327327327 	300.0000000000235 	1.155724510345925e-11 	101324.9999999978
1.079829829829829 	300.000000000026 	1.069293800482186e-11 	101324.9999999978
1.082332332332332 	300.000000000001 	1.123495705480683e-11 	101324.9999999977
1.084834834834834 	299.9999999999848 	1.062457200820622e-11 	101324.9999999976
1.087337337337337 	299.9999999999623 	1.052449731196472e-11 	101324.9999999976
1.089839839839839 	299.9999999999551 	1.157022817515308e-11 	101324.9999999978
1.092342342342342 	299.9999999999776 	1.062513400246219e-11 	101324.999999998
1.094844844844844 	299.9999999999762 	1.163009233023826e-11 	101324.9999999982
1.097347347347347 	299.9999999999591 	1.071844247808368e-11 	101324.9999999982
1.099849849849849 	299.9999999999507 	1.285224163945993e-11 	101324.9999999981
1.102352352352352 	299.9999999999698 	1.110396739622186e-11 	101324.9999999981
1.104854854854854 	299.9999999999865 	1.279705568939884e-11 	101324.9999999982
1.107357357357357 	299.999999999977 	1.14820784330241e-11 	101324.9999999984
1.109859859859859 	299.9999999999695 	1.286256908718275e-11 	101324.9999999984
1.112362362362362 	300.0000000000095 	1.2383568074168e-11 	101324.9999999982
1.114864864864865 	300.0000000000083 	1.271104516327263e-11 	101324.999999998
1.117367367367367 	299.9999999999756 	1.380010491048528e-11 	101324.999999998
1.119869869869869 	299.9999999999533 	1.289247568585186e-11 	101324.9999999981
1.122372372372372 	299.9999999999767 	1.459264391688825e-11 	101324.999999998
1.124874874874874 	299.9999999999808 	1.422963058840516e-11 	101324.999999998
1.127377377377377 	299.9999999999899 	1.515601194769748e-11 	101324.999999998
1.129879879879879 	300.0000000000127 	1.401337437173295e-11 	101324.999999998
1.132382382382382 	300.0000000000203 	1.362496678166496e-11 	101324.9999999979
1.134884884884884 	300.0000000000044 	1.26346475048203e-11 	101324.999999998
1.137387387387387 	300.0000000000088 	1.245047342561841e-11 	101324.9999999982
1.139889889889889 	299.9999999999761 	1.363466709889835e-11 	101324.9999999982
1.142392392392392 	299.9999999999715 	1.277246657975045e-11 	101324.9999999981
1.144894894894894 	300.000000000014 	1.405200716681366e-11 	101324.9999999983
1.147397397397397 	300.0000000000013 	1.356065283447229e-11 	101324.9999999986
1.149899899899899 	299.9999999999621 	1.466420313392311e-11 	101324.9999999987
1.152402402402402 	299.9999999999521 	1.365997033099292e-11 	101324.9999999988
1.154904904904904 	299.9999999999744 	1.370127052655507e-11 	101324.9999999989
1.157407407407407 	299.9999999999769 	1.300038361131151e-11 	101324.9999999988
1.159909909909909 	299.9999999999573 	1.324364074524045e-11 	101324.9999999987
1.162412412412412 	299.9999999999541 	1.4494475164558e-11 	101324.9999999986
1.164914914914914 	299.9999999999792 	1.278898243590606e-11 	101324.9999999986
1.167417417417417 	299.9999999999746 	1.392273291184627e-11 	101324.9999999987
1.169919919919919 	300.000000000001 	1.339179790764988e-11 	101324.9999999989
1.172422422422422 	300.000000000027 	1.437559138067269e-11 	101324.9999999989
1.174924924924925 	299.9999999999917 	1.320250049480011e-11 	101324.9999999988
1.177427427427427 	299.999999999975 	1.373824238269034e-11 	101324.9999999989
1.179929929929929 	300.0000000000087 	1.501815146358807e-11 	101324.9999999989
1.182432432432432 	300.0000000000304 	1.398797428467958e-11 	101324.999999999
1.184934934934934 	300.0000000000081 	1.484698798976035e-11 	101324.999999999
1.187437437437437 	299.9999999999877 	1.376377884380122e-11 	101324.999999999
1.189939939939939 	299.999999999984 	1.436391582955476e-11 	101324.999999999
1.192442442442442 	299.9999999999584 	1.357154780981467e-11 	101324.999999999
1.194944944944944 	299.9999999999603 	1.477487929537217e-11 	101324.999999999
1.197447447447447 	300.0000000000003 	1.43001606065175e-11 	101324.9999999991
1.199949949949949 	300.0000000000093 	1.475855562331943e-11 	101324.9999999992
1.202452452452452 	299.9999999999745 	1.582428899308667e-11 	101324.9999999993
1.204954954954955 	299.9999999999691 	1.489091088376837e-11 	101324.9999999996
1.207457457457457 	299.9999999999902 	1.59600225837209e-11 	101324.9999999997
1.20995995995996 	299.9999999999906 	1.508186347199132e-11 	101324.9999999997
1.212462462462462 	299.9999999999948 	1.601644049729353e-11 	101324.9999999997
1.214964964964964 	299.9999999999911 	1.512048001803497e-11 	101324.9999999997
1.217467467467467 	299.9999999999849 	1.590662758408943e-11 	101324.9999999996
1.219969969969969 	299.9999999999774 	1.511313220650737e-11 	101324.9999999995
1.222472472472472 	300.0000000000131 	1.537470118543146e-11 	101324.9999999994
1.224974974974975 	300.0000000000309 	1.568654679359658e-11 	101324.9999999994
1.227477477477477 	299.9999999999958 	1.410239019836833e-11 	101324.9999999996
1.229979979979979 	299.9999999999876 	1.545939383443805e-11 	101324.9999999997
1.232482482482482 	299.9999999999704 	1.489457182305282e-11 	101324.9999999996
1.234984984984984 	299.999999999972 	1.65352192390124e-11 	101324.9999999995
1.237487487487487 	299.9999999999914 	1.515713605486648e-11 	101324.9999999996
1.239989989989989 	299.9999999999921 	1.553196481765655e-11 	101324.9999999995
1.242492492492492 	300.0000000000121 	1.590062658163919e-11 	101324.9999999994
1.244994994994994 	299.9999999999931 	1.460187782859627e-11 	101324.9999999997
1.247497497497497 	299.999999999987 	1.567412370313052e-11 	101325
1.249999999999999 	300 	1.490336158563606e-11 	101325.0000000003
