-1.25 	300 	0.1203999040340934 	101275.8856374636
-1.247497497497497 	299.957278103631 	0.1199348330455477 	101276.0127989242
-1.244994994994995 	299.9586585985066 	0.1196146748158058 	101276.1537690981
-1.242492492492492 	299.9588020786222 	0.1194250034633482 	101276.303651258
-1.23998998998999 	299.9589356667702 	0.1189348039963972 	101276.4624030641
-1.237487487487487 	299.9590774778438 	0.1185627668595008 	101276.6300263104
-1.234984984984985 	299.9592269298896 	0.1181283284711987 	101276.8066582613
-1.232482482482482 	299.959384127613 	0.1176715354281283 	101276.9924434937
-1.22997997997998 	299.9595487922189 	0.1171952851042447 	101277.1870538074
-1.227477477477477 	299.9597206794878 	0.116699949155949 	101277.3902006638
-1.224974974974975 	299.959899824868 	0.1161816577713417 	101277.6019253793
-1.222472472472472 	299.9600863123563 	0.1156398593893632 	101277.8223266998
-1.21996996996997 	299.9602802683048 	0.1150739479127624 	101278.0515542961
-1.217467467467467 	299.9604815563221 	0.1144865986797213 	101278.2894471662
-1.214964964964965 	299.9606899490917 	0.1138854511027678 	101278.535737821
-1.212462462462462 	299.9609056651644 	0.1132622302869198 	101278.7906833357
-1.20995995995996 	299.9611290393107 	0.1126161920113868 	101279.0546791394
-1.207457457457457 	299.9613598033189 	0.1119470255560157 	101279.3274087429
-1.204954954954955 	299.961597479598 	0.1112570085443179 	101279.6083081169
-1.202452452452452 	299.9618418371434 	0.1105526284000995 	101279.8971051384
-1.19994994994995 	299.9620929809182 	0.109825935470085 	101280.1939219683
-1.197447447447447 	299.9623513490073 	0.1090769632499865 	101280.4992765134
-1.194944944944945 	299.9626168102859 	0.1083047153770837 	101280.8130147225
-1.192442442442442 	299.9628888712004 	0.1075118298757986 	101281.1345532096
-1.18993993993994 	299.9631676154567 	0.1067058414109731 	101281.4639918412
-1.187437437437437 	299.9634534216539 	0.1058796411327159 	101281.8017770952
-1.184934934934935 	299.9637464723922 	0.1050328325205119 	101282.1481244716
-1.182432432432432 	299.9640463728524 	0.1041658351438219 	101282.5025678216
-1.17992992992993 	299.964352455955 	0.103278153327466 	101282.8643190227
-1.177427427427427 	299.9646646391942 	0.1023732328449057 	101283.2332811082
-1.174924924924925 	299.9649834986473 	0.1014496956362019 	101283.610134186
-1.172422422422422 	299.9653090833456 	0.1005076741642686 	101283.9949355603
-1.16991991991992 	299.965640831832 	0.09954557996325189 	101284.3870215311
-1.167417417417417 	299.9659787063689 	0.09856420316365599 	101284.7863494207
-1.164914914914915 	299.9663228958128 	0.09756578926319218 	101285.1931446441
-1.162412412412412 	299.9666735327023 	0.09655013605023505 	101285.6075620453
-1.15990990990991 	299.9670307885762 	0.09551825098330788 	101286.0298011321
-1.157407407407407 	299.9673940079039 	0.09446707104179647 	101286.459085193
-1.154904904904904 	299.9677626855091 	0.09339703218456885 	101286.8948190828
-1.152402402402403 	299.9681374316116 	0.09231076920520369 	101287.3377294456
-1.1498998998999 	299.9685181960542 	0.091208089012911 	101287.7877602158
-1.147397397397397 	299.9689044826779 	0.09008993540301721 	101288.2443233872
-1.144894894894895 	299.9692964452433 	0.08895424540068997 	101288.7075957381
-1.142392392392392 	299.9696940084392 	0.08780083722649751 	101289.1774833666
-1.13988988988989 	299.9700972016533 	0.08663105522581283 	101289.6540186127
-1.137387387387387 	299.970506392915 	0.08544630421283868 	101290.13763856
-1.134884884884885 	299.9709211529714 	0.08424694783405118 	101290.6278398602
-1.132382382382382 	299.9713410068202 	0.08303043975227443 	101291.1240627507
-1.12987987987988 	299.9717659806244 	0.08179890683742486 	101291.6263403565
-1.127377377377377 	299.9721961462251 	0.08055129700172546 	101292.1347589458
-1.124874874874875 	299.972631409428 	0.07928931616161353 	101292.6492066136
-1.122372372372372 	299.9730714332522 	0.07801708924769954 	101293.1692855583
-1.11986986986987 	299.9735160564655 	0.07672889775341568 	101293.6948046997
-1.117367367367367 	299.9739661027943 	0.07542424964451964 	101294.2267361103
-1.114864864864865 	299.9744213266331 	0.07410289577248989 	101294.7647890279
-1.112362362362362 	299.9748808305515 	0.07276921380978693 	101295.3079034552
-1.10985985985986 	299.9753451157893 	0.07142749655582988 	101295.8566725158
-1.107357357357357 	299.9758146738304 	0.0700698314282962 	101296.4116753036
-1.104854854854855 	299.9762880882821 	0.06869817663791865 	101296.9712375845
-1.102352352352353 	299.97676515335 	0.06731263744066707 	101297.5351172086
-1.09984984984985 	299.9772468719481 	0.06591499975869466 	101298.1044997923
-1.097347347347347 	299.9777332156163 	0.0645099453732475 	101298.6793515261
-1.094844844844845 	299.9782230146435 	0.06309244189520466 	101299.2582888929
-1.092342342342342 	299.978716344285 	0.06166312799996315 	101299.8414019143
-1.08983983983984 	299.979214095149 	0.06021875179396803 	101300.4297438427
-1.087337337337337 	299.9797167655188 	0.0587608807773684 	101301.0239024947
-1.084834834834835 	299.9802232156321 	0.05729639007390114 	101301.62253069
-1.082332332332332 	299.9807322814174 	0.05582245964799426 	101302.2242527695
-1.07982982982983 	299.9812443960446 	0.0543388530036987 	101302.8295813712
-1.077327327327327 	299.9817604575692 	0.05284367185749703 	101303.4395783086
-1.074824824824825 	299.9822802136712 	0.05133706097936071 	101304.0539447341
-1.072322322322323 	299.9828033008915 	0.04982231114551373 	101304.6722508089
-1.06981981981982 	299.9833294409263 	0.04829901663812064 	101305.2941676186
-1.067317317317317 	299.9838581183649 	0.04676809468052286 	101305.9190865964
-1.064814814814815 	299.9843892457218 	0.04522861354523552 	101306.5469042089
-1.062312312312312 	299.9849232116355 	0.04368045870333141 	101307.1780802037
-1.05980980980981 	299.9854606817485 	0.04212261023754135 	101307.8134016908
-1.057307307307307 	299.9860024416267 	0.04055347047772308 	101308.4537962018
-1.054804804804805 	299.9865477167143 	0.03897624858444231 	101309.0983476588
-1.052302302302302 	299.9870939311077 	0.03739425077925099 	101309.7440112736
-1.0497997997998 	299.9876396619554 	0.03581208618539194 	101310.3891059011
-1.047297297297297 	299.9881858961559 	0.03422902198779463 	101311.0347996904
-1.044794794794795 	299.9887351887677 	0.03263713339618237 	101311.6841135809
-1.042292292292292 	299.9892902540205 	0.03103005692592142 	101312.3402552547
-1.03978978978979 	299.9898512406754 	0.0294059800106031 	101313.0033986057
-1.037287287287287 	299.9904144430621 	0.02777391270732738 	101313.6691609828
-1.034784784784785 	299.990976073776 	0.02614630261436975 	101314.3330655423
-1.032282282282283 	299.9915344956187 	0.02452892776806865 	101314.9931806465
-1.02977977977978 	299.9920908514052 	0.02291708889631264 	101315.6508598805
-1.027277277277277 	299.9926487344586 	0.02129919250395769 	101316.310349166
-1.024774774774775 	299.9932117450035 	0.01966819535048418 	101316.9759029643
-1.022272272272272 	299.9937806746476 	0.01801975666167731 	101317.6484573275
-1.01976976976977 	299.9943552642785 	0.01635738180631955 	101318.3277058343
-1.017267267267267 	299.9949325568498 	0.01468905476713747 	101319.0101512224
-1.014764764764765 	299.9955082785115 	0.01301941908125107 	101319.690738571
-1.012262262262262 	299.9960804038833 	0.01135922434178276 	101320.3670743554
-1.00975975975976 	299.9966491434724 	0.009710874258400183 	101321.0394140401
-1.007257257257257 	299.9972136254946 	0.008072917797657881 	101321.70672793
-1.004754754754755 	299.9977770981698 	0.006442549947435946 	101322.3728512544
-1.002252252252252 	299.9983417234926 	0.004807978085382329 	101323.0403366471
-0.9997497497497498 	299.9989088035157 	0.003163763941030854 	101323.7107281279
-0.9972472472472473 	299.9994810403388 	0.001506662447492461 	101324.3872257008
-0.9947447447447449 	300.0000579266188 	0.0008341583277192469 	101325.0692261085
-0.9922422422422421 	300.0006360352112 	0.001836229045145652 	101325.7526690038
-0.9897397397397399 	300.0012132106845 	0.003508014613554881 	101326.4350020761
-0.9872372372372376 	300.0017890968008 	0.005176271933374021 	101327.1158108293
-0.9847347347347346 	300.0023637924892 	0.0068411354488634 	101327.7952236312
-0.9822322322322323 	300.0029374318292 	0.008502965141813229 	101328.4734024452
-0.9797297297297296 	300.0035101159456 	0.01016202063670722 	101329.1504568345
-0.9772272272272275 	300.0040818952748 	0.01181841472627067 	101329.8264328175
-0.9747247247247248 	300.0046527639892 	0.01347212722884579 	101330.501321404
-0.9722222222222224 	300.0052226690853 	0.01512303782238726 	101331.1750724217
-0.9697197197197196 	300.0057915312832 	0.01677095744391671 	101331.847607582
-0.9672172172172175 	300.0063592664378 	0.01841565169202078 	101332.5188306788
-0.9647147147147147 	300.0069257948568 	0.02005685924319371 	101333.1886347
-0.9622122122122124 	300.0074910358604 	0.02169430334550436 	101333.8569063622
-0.9597097097097099 	300.0080548972068 	0.02332769795899213 	101334.5235288781
-0.9572072072072073 	300.0086172704244 	0.0249567523891463 	101335.1883835413
-0.9547047047047047 	300.0091780384553 	0.02658117345189357 	101335.8513506318
-0.9522022022022023 	300.0097370877129 	0.02820066658428517 	101336.5123100185
-0.9496996996996998 	300.0102943172912 	0.02981493750779463 	101337.1711414837
-0.9471971971971973 	300.0108496382468 	0.03142369202411661 	101337.8277249191
-0.9446946946946947 	300.0114029649421 	0.03302663596851518 	101338.4819404658
-0.9421921921921923 	300.0119542056005 	0.03462347671997798 	101339.1336685077
-0.93968968968969 	300.0125032564953 	0.03621392230595234 	101339.7827897337
-0.9371871871871872 	300.0130500047142 	0.03779768101047475 	101340.4291852671
-0.9346846846846848 	300.0135943357566 	0.03937446284579591 	101341.07273668
-0.9321821821821823 	300.0141361402494 	0.04094397917634652 	101341.7133260559
-0.9296796796796799 	300.0146753177319 	0.04250594228840841 	101342.3508360274
-0.9271771771771771 	300.015211775955 	0.044060066039717 	101342.9851497122
-0.9246746746746748 	300.0157454280189 	0.04560606556422718 	101343.6161507964
-0.9221721721721724 	300.0162761882904 	0.04714365726390283 	101344.2437235815
-0.9196696696696698 	300.0168039675714 	0.04867255945353193 	101344.8677529399
-0.9171671671671672 	300.0173286716068 	0.05019249175870475 	101345.4881244186
-0.9146646646646649 	300.0178502014242 	0.05170317552252783 	101346.1047242457
-0.9121621621621623 	300.0183684555078 	0.05320433406783256 	101346.7174392854
-0.9096596596596597 	300.0188833327275 	0.05469569193080795 	101347.3261571726
-0.9071571571571573 	300.0193947333258 	0.05617697568363558 	101347.9307662737
-0.9046546546546547 	300.0199025595234 	0.05764791396341165 	101348.5311556107
-0.9021521521521524 	300.0204067157252 	0.05910823680872515 	101349.1272150752
-0.8996496496496498 	300.0209071086923 	0.0605576766754066 	101349.7188354298
-0.8971471471471473 	300.0214036467504 	0.06199596826121567 	101350.3059081678
-0.894644644644645 	300.0218962393413 	0.06342284760490034 	101350.8883256294
-0.892142142142142 	300.0223847972415 	0.06483805308347994 	101351.4659809701
-0.8896396396396397 	300.0228692318124 	0.06624132537379429 	101352.0387681276
-0.8871371371371374 	300.0233494551426 	0.06763240696319528 	101352.6065820536
-0.8846346346346349 	300.0238253802552 	0.06901104286671951 	101353.1693185792
-0.8821321321321324 	300.0242969202467 	0.07037698005325006 	101353.7268742235
-0.8796296296296297 	300.0247639891281 	0.07172996744736082 	101354.2791465417
-0.8771271271271271 	300.0252265015558 	0.07306975692831388 	101354.8260341956
-0.8746246246246248 	300.0256843729689 	0.07439610288856481 	101355.3674367215
-0.8721221221221224 	300.0261375195414 	0.07570876187466735 	101355.9032547507
-0.8696196196196196 	300.0265858582528 	0.07700749338532492 	101356.4333900254
-0.8671171171171175 	300.027029307045 	0.07829205909180761 	101356.9577451224
-0.8646146146146148 	300.0274677843867 	0.07956222329383901 	101357.4762237624
-0.8621121121121121 	300.027901210213 	0.08081775348300671 	101357.9887309645
-0.8596096096096097 	300.0283295050734 	0.08205841940681524 	101358.495172675
-0.857107107107107 	300.0287525901874 	0.08328399379774637 	101358.9954559617
-0.8546046046046049 	300.0291703884777 	0.08449425243214088 	101359.4894892655
-0.8521021021021022 	300.0295828231949 	0.08568897292240518 	101359.9771819309
-0.8495995995995997 	300.0299898185186 	0.08686793590265549 	101360.458444269
-0.8470970970970974 	300.0303913000333 	0.08803092557811926 	101360.9331881315
-0.8445945945945946 	300.0307871942972 	0.08917772864733058 	101361.4013266398
-0.8420920920920922 	300.0311774288439 	0.09030813500837015 	101361.862773865
-0.8395895895895897 	300.0315619318882 	0.09142193799798017 	101362.3174451842
-0.8370870870870872 	300.0319406330048 	0.09251893325355606 	101362.7652570979
-0.8345845845845846 	300.032313462363 	0.09359891938851689 	101363.2061269109
-0.8320820820820823 	300.0326803511942 	0.09466169856618389 	101363.6399734032
-0.8295795795795798 	300.0330412326698 	0.09570707629394566 	101364.0667172408
-0.8270770770770772 	300.0333960407047 	0.0967348610361575 	101364.4862803685
-0.8245745745745746 	300.0337447103163 	0.09774486369953909 	101364.8985858619
-0.8220720720720721 	300.0340871778293 	0.09873689832067693 	101365.3035583307
-0.8195695695695699 	300.0344233806009 	0.09971078259322874 	101365.7011236629
-0.817067067067067 	300.0347532567274 	0.1006663372239732 	101366.0912085873
-0.8145645645645651 	300.03507674527 	0.1016033867491096 	101366.4737410362
-0.8120620620620621 	300.0353937869368 	0.1025217599486922 	101366.8486506569
-0.8095595595595597 	300.0357043234258 	0.1034212883093186 	101367.2158686038
-0.8070570570570572 	300.0360082975138 	0.1043018063423822 	101367.5753272643
-0.8045545545545546 	300.0363056537464 	0.1051631526583424 	101367.9269607166
-0.8020520520520523 	300.0365963378708 	0.1060051702191094 	101368.2707048811
-0.7995495495495494 	300.0368802963711 	0.1068277056484099 	101368.6064963941
-0.7970470470470474 	300.0371574759848 	0.1076306075354053 	101368.9342722657
-0.7945445445445446 	300.0374278252773 	0.1084137278625998 	101369.253971624
-0.7920420420420423 	300.0376912951363 	0.1091769231697718 	101369.5655362503
-0.7895395395395397 	300.037947836845 	0.109920051669089 	101369.8689086022
-0.7870370370370371 	300.0381974026588 	0.1106429744181511 	101370.164032071
-0.7845345345345348 	300.0384399477978 	0.1113455601137777 	101370.4508536571
-0.7820320320320323 	300.0386754292419 	0.1120276810147047 	101370.7293224836
-0.7795295295295296 	300.0389038027471 	0.1126892079201813 	101370.9993861845
-0.7770270270270272 	300.0391250251694 	0.1133300165593666 	101371.2609936784
-0.7745245245245247 	300.0393390577878 	0.1139499935576242 	101371.514098945
-0.7720220220220222 	300.0395458617364 	0.1145490278413905 	101371.7586561808
-0.7695195195195199 	300.0397453955424 	0.1151270048794216 	101371.9946163429
-0.767017017017017 	300.0399376217255 	0.1156838186216114 	101372.221934885
-0.7645145145145147 	300.0401225086945 	0.1162193754396856 	101372.440574565
-0.7620120120120122 	300.0403000222149 	0.1167335753735067 	101372.6504947324
-0.7595095095095097 	300.0404701239409 	0.1172263108183083 	101372.8516501591
-0.7570070070070072 	300.0406327839969 	0.1176974915218502 	101373.0440053948
-0.7545045045045048 	300.0407879797557 	0.1181470424145599 	101373.2275336019
-0.7520020020020022 	300.0409356800882 	0.1185748735960569 	101373.4021980912
-0.7494994994994997 	300.0410758492512 	0.1189808895951621 	101373.5679560968
-0.7469969969969972 	300.0412084647376 	0.1193650262872049 	101373.72478138
-0.7444944944944945 	300.0413335119492 	0.1197272353138931 	101373.8726567553
-0.7419919919919924 	300.0414509609674 	0.1200674366965381 	101374.0115467734
-0.7394894894894897 	300.0415607768894 	0.1203855413591655 	101374.1414100716
-0.7369869869869872 	300.0416629488002 	0.120681508492656 	101374.2622332681
-0.7344844844844846 	300.041757474203 	0.1209553129523101 	101374.3740136928
-0.7319819819819822 	300.0418443243829 	0.1212068757151889 	101374.4767173569
-0.7294794794794797 	300.0419234620465 	0.1214361080126914 	101374.5703006258
-0.7269769769769773 	300.0419948858302 	0.1216429989733799 	101374.6547617471
-0.7244744744744747 	300.0420586079533 	0.1218275635924322 	101374.7301147421
-0.721971971971972 	300.042114599985 	0.1219897323385103 	101374.7963257547
-0.7194694694694695 	300.0421628182386 	0.1221294078395212 	101374.8533430319
-0.7169669669669674 	300.0422032713858 	0.1222466041731014 	101374.9011774685
-0.7144644644644647 	300.04223599572 	0.122341387074646 	101374.9398722034
-0.711961961961962 	300.0422609687393 	0.12241369621387 	101374.9694004838
-0.7094594594594597 	300.0422781296642 	0.1224634000474917 	101374.9896901806
-0.7069569569569573 	300.0422874870578 	0.1224905218857738 	101375.0007507475
-0.7044544544544545 	300.0422891091476 	0.1224952064837582 	101375.0026624099
-0.7019519519519523 	300.0422829901655 	0.1224774372731319 	101374.9954197247
-0.6994494494494495 	300.0422690422497 	0.1224370257500197 	101374.9789196862
-0.6969469469469471 	300.0422472539022 	0.1223739526860448 	101374.9531478294
-0.6944444444444446 	300.0422177337199 	0.1222884568664495 	101374.9182324672
-0.6919419419419421 	300.0421805340797 	0.1221806445446723 	101374.874234903
-0.6894394394394396 	300.0421355469481 	0.1220502802976 	101374.8210271676
-0.6869369369369374 	300.0420826893018 	0.121897201153346 	101374.7585109276
-0.6844344344344344 	300.0420220808174 	0.1217216895381999 	101374.6868284761
-0.6819319319319321 	300.0419538781585 	0.1215240885966525 	101374.6061657813
-0.6794294294294296 	300.0418780082993 	0.1213042261299047 	101374.5164366174
-0.6769269269269272 	300.0417942757318 	0.1210616802057481 	101374.4174097361
-0.6744244244244245 	300.0417027196233 	0.120796569466583 	101374.3091309659
-0.6719219219219222 	300.0416036198096 	0.1205095345264626 	101374.191930703
-0.6694194194194195 	300.0414970750632 	0.1202007844411572 	101374.0659249732
-0.6669169169169172 	300.0413828206084 	0.1198697217858192 	101373.930800755
-0.6644144144144146 	300.0412606504804 	0.1195159163781698 	101373.7863154082
-0.661911911911912 	300.041130823019 	0.1191399936795579 	101373.6327752548
-0.6594094094094097 	300.0409937504842 	0.1187428938915557 	101373.4706683025
-0.656906906906907 	300.040849370324 	0.1183244535321397 	101373.2999205249
-0.6544044044044046 	300.0406971942335 	0.117883567036639 	101373.1199541295
-0.6519019019019021 	300.0405370736327 	0.1174199509626588 	101372.9305933422
-0.6493993993993996 	300.040369556076 	0.1169349099770157 	101372.732485261
-0.6468968968968971 	300.0401951857697 	0.1164296851329286 	101372.5262726837
-0.6443943943943946 	300.0400136837923 	0.1159035942871954 	101372.3116250194
-0.6418918918918921 	300.039824277444 	0.1153548642956473 	101372.0876285097
-0.6393893893893897 	300.0396268570927 	0.1147833249782791 	101371.8541545388
-0.6368868868868871 	300.0394223222756 	0.1141911397418489 	101371.6122677012
-0.6343843843843846 	300.0392114630287 	0.1135801346273822 	101371.3629021599
-0.6318818818818821 	300.0389938148865 	0.1129491602994264 	101371.1055085568
-0.6293793793793795 	300.0387681697685 	0.1122953850908922 	101370.8386585619
-0.6268768768768773 	300.0385342526984 	0.1116182681813838 	101370.5620275155
-0.6243743743743745 	300.0382932901855 	0.1109209259213943 	101370.2771233077
-0.6218718718718721 	300.0380467188729 	0.1102065608400583 	101369.9855494509
-0.6193693693693696 	300.0377941950512 	0.1094741968801473 	101369.6868643518
-0.6168668668668671 	300.0375338070836 	0.108719458164808 	101369.3789151226
-0.6143643643643645 	300.0372645802498 	0.1079400818468496 	101369.0605325922
-0.6118618618618621 	300.0369878832124 	0.1071394760966307 	101368.7333187519
-0.6093593593593596 	300.036706077849 	0.1063233697455665 	101368.4000659471
-0.6068568568568571 	300.0364197121701 	0.1054929803830469 	101368.0614205093
-0.6043543543543546 	300.0361266148585 	0.1046429386511779 	101367.7148135941
-0.6018518518518521 	300.0358242667357 	0.1037671721908624 	101367.3572671168
-0.5993493493493496 	300.0355129116883 	0.102866468560933 	101366.9890718749
-0.5968468468468471 	300.0351957216731 	0.1019487330530719 	101366.6139795249
-0.5943443443443446 	300.0348754951701 	0.1010207901361244 	101366.2352978091
-0.591841841841842 	300.0345513992208 	0.1000804235207935 	101365.8520394259
-0.5893393393393397 	300.0342195176989 	0.09911788101309717 	101365.4595728599
-0.5868368368368371 	300.0338769551919 	0.09812611761203735 	101365.0544765235
-0.5843343343343346 	300.0335252552578 	0.09710920344356076 	101364.6385787706
-0.5818318318318321 	300.0331693185177 	0.0960794734733891 	101364.2176751029
-0.5793293293293297 	300.0328125945144 	0.09504545568452803 	101363.7958420138
-0.5768268268268271 	300.0324533394122 	0.09400258310572748 	101363.3710139711
-0.5743243243243245 	300.0320859193434 	0.09293661571786956 	101362.9365285205
-0.5718218218218221 	300.0317062060784 	0.0918372947787114 	101362.487507242
-0.5693193193193196 	300.0313159395035 	0.09070927600157781 	101362.0260114368
-0.5668168168168171 	300.0309216749098 	0.08956932153014584 	101361.55979402
-0.5643143143143147 	300.030528983437 	0.08843151375659822 	101361.0954395851
-0.5618118118118121 	300.0301371442847 	0.08729380795114877 	101360.6320910699
-0.5593093093093094 	300.0297393152928 	0.08613858959775103 	101360.1616560512
-0.5568068068068072 	300.0293283104351 	0.08494753495373916 	101359.6756398846
-0.5543043043043046 	300.0289030742716 	0.08371818338813385 	101359.172799801
-0.551801801801802 	300.0284701763077 	0.08246766697399668 	101358.6609077008
-0.5492992992992995 	300.0280388067966 	0.08121973418091369 	101358.1508291897
-0.5467967967967969 	300.0276132709109 	0.07998537029762821 	101357.6476498305
-0.5442942942942947 	300.0271891483578 	0.07875291348685916 	101357.1461377255
-0.5417917917917919 	300.0267563466546 	0.07749605293613188 	101356.6343582718
-0.5392892892892895 	300.0263067997966 	0.07619389861572025 	101356.1027782137
-0.536786786786787 	300.0258409322181 	0.07484780402166034 	101355.5519058672
-0.5342842842842846 	300.025367913127 	0.07348196012387223 	101354.992587257
-0.531781781781782 	300.0248993768348 	0.07212691687750959 	101354.438577349
-0.5292792792792794 	300.024441130607 	0.07079782540563899 	101353.8967365686
-0.526776776776777 	300.023988793479 	0.0694829665343684 	101353.3618783755
-0.5242742742742745 	300.0235304227146 	0.0681506882625291 	101352.8198792384
-0.521771771771772 	300.0230543356944 	0.06677011405243399 	101352.2569292561
-0.5192692692692695 	300.0225569344767 	0.06533188338530399 	101351.6687816942
-0.516766766766767 	300.0220454427863 	0.06385539791829931 	101351.0639839104
-0.5142642642642645 	300.0215338026121 	0.06237790720404424 	101350.4590226299
-0.511761761761762 	300.0210343386086 	0.06093230971601935 	101349.8684658499
-0.5092592592592596 	300.0205503425173 	0.05952732576205862 	101349.2961980476
-0.506756756756757 	300.0200739528736 	0.05814174819729081 	101348.7329176547
-0.5042542542542544 	300.0195903843274 	0.05673574747141386 	101348.1611409933
-0.5017517517517521 	300.0190859705035 	0.05527253091751709 	101347.5647135832
-0.4992492492492494 	300.0185556012076 	0.05373843043635353 	101346.9376010894
-0.496746746746747 	300.018005667666 	0.05215088159605618 	101346.2873676389
-0.4942442442442445 	300.0174510998249 	0.05055044385276305 	101345.6316690668
-0.4917417417417421 	300.0169081541898 	0.04898130687196863 	101344.9897238738
-0.4892392392392395 	300.0163866708344 	0.04747025978860236 	101344.3731597175
-0.486736736736737 	300.0158855091232 	0.04601416303864955 	101343.7806200199
-0.4842342342342345 	300.0153930340384 	0.04458113836435545 	101343.1983426508
-0.481731731731732 	300.0148920888849 	0.04312410038380444 	101342.6060413947
-0.4792292292292296 	300.0143670859032 	0.04160023111801982 	101341.9852907544
-0.4767267267267268 	300.0138102838264 	0.03998829383374598 	101341.3269453031
-0.4742242242242246 	300.0132248915618 	0.03829722670138131 	101340.6348065882
-0.471721721721722 	300.0126239889929 	0.03656321664332891 	101339.9243449339
-0.4692192192192195 	300.0120258787512 	0.03483693929427932 	101339.2172007353
-0.4667167167167169 	300.0114477805149 	0.03316619679166445 	101338.5337297155
-0.4642142142142145 	300.0109002400573 	0.0315803700578942 	101337.8863933589
-0.461711711711712 	300.0103839976682 	0.03008158292536914 	101337.276059731
-0.4592092092092094 	300.0098899754936 	0.02864453268261259 	101336.6919898755
-0.456706706706707 	300.0094020223571 	0.02722398951572536 	101336.115085019
-0.4542042042042045 	300.0089012381214 	0.02576685315651736 	101335.5230002064
-0.451701701701702 	300.0083705636113 	0.0242250910838238 	101334.89556957
-0.4491991991991995 	300.0077985838145 	0.02256652576882989 	101334.2193032359
-0.4466966966966969 	300.0071818658164 	0.02078149098766259 	101333.4901491852
-0.4441941941941945 	300.006525539904 	0.01888451569975099 	101332.7141790172
-0.441691691691692 	300.0058422027437 	0.01691125776681373 	101331.9062903583
-0.4391891891891895 	300.0051495297244 	0.01491178831152743 	101331.0873823545
-0.436686686686687 	300.0044671962491 	0.01294196542208196 	101330.2807163813
-0.4341841841841846 	300.0038138573823 	0.01105504964369831 	101329.5083449539
-0.431681681681682 	300.0032049913079 	0.009295535196009494 	101328.7885635966
-0.4291791791791794 	300.0026518315054 	0.007695903042250141 	101328.134648723
-0.426676676676677 	300.0021611123684 	0.00627578107628492 	101327.5545578169
-0.4241741741741744 	300.0017353803488 	0.005042772179259553 	101327.0512977581
-0.421671671671672 	300.001373661169 	0.003994326695514545 	101326.6237139128
-0.4191691691691694 	300.0010722983553 	0.003120125832754666 	101326.2674814085
-0.4166666666666669 	300.0008258167722 	0.002404553998020262 	101325.976126114
-0.4141641641641645 	300.0006277107784 	0.001828966350572024 	101325.7419564066
-0.411661661661662 	300.0004710997076 	0.001373580569726637 	101325.5568371618
-0.4091591591591594 	300.0003492247487 	0.001018922212640877 	101325.4127786121
-0.406656656656657 	300.0002557938415 	0.0007468269536942928 	101325.3023425839
-0.4041541541541545 	300.0001851888042 	0.0005410493689999986 	101325.218887428
-0.401651651651652 	300.0001325612729 	0.000387552136116331 	101325.1566824186
-0.3991491491491494 	300.0000938487279 	0.0002745559067916583 	101325.1109248701
-0.396646646646647 	300.0000657314054 	0.0001924257028017922 	101325.0776910713
-0.3941441441441444 	300.0000455584604 	0.0001334579998972085 	101325.0538473752
-0.3916416416416419 	300.0000312555323 	9.161929359708784e-05 	101325.0369420302
-0.3891391391391395 	300.0000212302159 	6.227241449945181e-05 	101325.0250925915
-0.3866366366366368 	300.0000142807167 	4.191517684362061e-05 	101325.0168787049
-0.3841341341341344 	300.0000095150616 	2.794530713720087e-05 	101325.0112459673
-0.381631631631632 	300.0000062809034 	1.845861297786827e-05 	101325.0074235058
-0.3791291291291294 	300.0000041084973 	1.208169271254627e-05 	101325.0048558119
-0.3766266266266269 	300.0000026635744 	7.83749088167484e-06 	101325.0031480172
-0.3741241241241244 	300.0000017117739 	5.039935791750593e-06 	101325.0020230783
-0.371621621621622 	300.0000010906883 	3.213260274878746e-06 	101325.0012890296
-0.3691191191191194 	300.0000006891274 	2.031476076398433e-06 	101325.0008144394
-0.366616616616617 	300.000000431838 	1.273763810769891e-06 	101325.0005103499
-0.3641141141141143 	300.0000002683596 	7.922194158189633e-07 	101325.0003172158
-0.3616116116116119 	300.0000001654498 	4.888092511712754e-07 	101325.0001956053
-0.3591091091091095 	300.0000001012571 	2.992524474871524e-07 	101325.0001196748
-0.356606606606607 	300.0000000614602 	1.817991406807996e-07 	101325.0000726572
-0.3541041041041044 	300.0000000370364 	1.096134210462038e-07 	101325.000043778
-0.3516016016016019 	300.0000000221601 	6.5600864465185e-08 	101325.0000261807
-0.3490990990990994 	300.000000013142 	3.897321628944823e-08 	101325.0000155412
-0.346596596596597 	300.0000000078167 	2.299087998199907e-08 	101325.0000091578
-0.3440940940940944 	300.0000000046113 	1.346490615319803e-08 	101325.0000053566
-0.3415915915915919 	300.0000000026592 	7.834248663309573e-09 	101325.0000031097
-0.3390890890890895 	300.0000000014987 	4.523867363917261e-09 	101325.000001791
-0.3365865865865869 	300.0000000009024 	2.597374809604965e-09 	101325.0000010227
-0.3340840840840844 	300.0000000005093 	1.478993707193786e-09 	101325.0000005779
-0.3315815815815819 	300.0000000003145 	8.389741977302597e-10 	101325.0000003225
-0.3290790790790794 	300.0000000001774 	4.714516895492925e-10 	101325.0000001768
-0.3265765765765769 	300.0000000000008 	2.652247591409858e-10 	101325.0000000943
-0.3240740740740744 	300.0000000000409 	1.452599615274214e-10 	101325.0000000479
-0.3215715715715718 	300.0000000000346 	8.253650303728386e-11 	101325.0000000218
-0.3190690690690695 	299.9999999999217 	4.37397073142473e-11 	101325.0000000071
-0.3165665665665668 	299.9999999999987 	2.714609987170597e-11 	101324.9999999988
-0.3140640640640644 	300.0000000000101 	1.309337136337199e-11 	101324.9999999943
-0.311561561561562 	299.999999999908 	1.176428913237385e-11 	101324.9999999919
-0.3090590590590593 	299.9999999999908 	3.243400538603221e-12 	101324.9999999907
-0.3065565565565568 	299.9999999999997 	7.07300606986041e-12 	101324.9999999901
-0.3040540540540545 	300.0000000000232 	2.093093571255983e-12 	101324.9999999897
-0.3015515515515518 	300.0000000000446 	5.610563177096487e-12 	101324.9999999893
-0.2990490490490494 	299.9999999999321 	1.101332698781065e-12 	101324.9999999894
-0.2965465465465469 	299.9999999999793 	3.613054244347609e-12 	101324.9999999893
-0.2940440440440444 	299.9999999999988 	1.419769888293827e-12 	101324.9999999894
-0.2915415415415418 	299.9999999999976 	2.319149604844822e-12 	101324.9999999893
-0.2890390390390395 	300.0000000000045 	1.85839216201183e-12 	101324.9999999893
-0.2865365365365368 	299.999999999972 	1.949674083960499e-12 	101324.9999999893
-0.2840340340340343 	300.0000000000093 	3.87982983259779e-12 	101324.9999999896
-0.2815315315315318 	299.9999999999104 	3.027479959890386e-12 	101324.9999999897
-0.2790290290290295 	299.9999999999457 	4.827943562235359e-12 	101324.9999999899
-0.2765265265265269 	300.0000000000137 	4.255844627184483e-12 	101324.9999999898
-0.2740240240240244 	300.0000000000393 	4.305553254459632e-12 	101324.9999999898
-0.2715215215215219 	300.0000000000155 	4.074075570962026e-12 	101324.9999999899
-0.2690190190190194 	299.9999999999323 	3.363634131033854e-12 	101324.99999999
-0.2665165165165169 	299.999999999999 	3.99722884087592e-12 	101324.9999999899
-0.2640140140140144 	299.9999999999544 	3.003137895775588e-12 	101324.9999999903
-0.2615115115115119 	299.9999999999962 	4.845246012344496e-12 	101324.9999999904
-0.2590090090090094 	299.9999999999207 	3.253253573649841e-12 	101324.9999999905
-0.2565065065065068 	300.0000000000008 	3.590065402774349e-12 	101324.9999999905
-0.2540040040040044 	300.0000000000017 	4.252755419211564e-12 	101324.9999999903
-0.2515015015015019 	300.0000000000588 	3.493094616534688e-12 	101324.9999999903
-0.2489989989989994 	300.0000000000672 	6.093184263071811e-12 	101324.9999999904
-0.2464964964964968 	299.9999999999914 	2.78246556115698e-12 	101324.9999999903
-0.2439939939939944 	300.0000000000031 	6.680595210835812e-12 	101324.9999999901
-0.2414914914914919 	299.999999999966 	2.316606133826721e-12 	101324.9999999903
-0.2389889889889893 	300.0000000000063 	7.548629498156788e-12 	101324.99999999
-0.2364864864864869 	300.0000000000239 	3.712096388049704e-12 	101324.99999999
-0.2339839839839843 	299.9999999999037 	8.057591306708672e-12 	101324.9999999898
-0.2314814814814819 	299.9999999999791 	3.716644967907743e-12 	101324.9999999898
-0.2289789789789792 	299.9999999999078 	7.998167696876125e-12 	101324.9999999897
-0.2264764764764769 	299.999999999931 	4.711486669410448e-12 	101324.9999999894
-0.2239739739739743 	299.9999999999496 	6.912350890278969e-12 	101324.9999999889
-0.2214714714714718 	299.9999999999224 	5.820242724367209e-12 	101324.9999999888
-0.2189689689689693 	299.9999999999654 	5.758186507518206e-12 	101324.9999999884
-0.2164664664664669 	299.9999999999775 	6.254300491224987e-12 	101324.9999999886
-0.2139639639639643 	299.9999999999087 	4.45110153658677e-12 	101324.999999989
-0.2114614614614618 	299.9999999999668 	4.409987363702631e-12 	101324.9999999894
-0.2089589589589593 	299.999999999991 	4.026783063493638e-12 	101324.9999999899
-0.2064564564564568 	299.9999999999889 	3.102428796854968e-12 	101324.9999999902
-0.2039539539539543 	299.9999999998803 	4.190320397923476e-12 	101324.9999999907
-0.2014514514514518 	299.9999999999399 	1.526626216117089e-12 	101324.9999999908
-0.1989489489489494 	299.9999999999681 	4.411268487773602e-12 	101324.9999999903
-0.1964464464464468 	299.9999999999974 	7.897622742131174e-13 	101324.9999999899
-0.1939439439439443 	299.9999999999833 	3.740913318724674e-12 	101324.9999999894
-0.1914414414414418 	299.9999999998973 	5.18725546020128e-13 	101324.9999999892
-0.1889389389389393 	300.0000000000092 	2.831958220916157e-12 	101324.999999989
-0.1864364364364368 	300.0000000000472 	1.063591908010172e-12 	101324.9999999891
-0.1839339339339343 	299.9999999999634 	3.591917890349681e-12 	101324.9999999891
-0.1814314314314318 	299.9999999999944 	1.327568684747599e-12 	101324.999999989
-0.1789289289289293 	299.999999999879 	3.732548903800226e-12 	101324.999999989
-0.1764264264264268 	299.9999999999696 	6.030444503421492e-13 	101324.9999999892
-0.1739239239239243 	299.9999999998703 	4.413219159562449e-12 	101324.9999999894
-0.1714214214214218 	299.9999999999854 	1.021421843389243e-12 	101324.9999999894
-0.1689189189189193 	299.9999999999408 	6.29165121251074e-12 	101324.9999999897
-0.1664164164164168 	300.0000000000067 	1.775508977653672e-12 	101324.9999999898
-0.1639139139139143 	299.9999999999935 	7.602745658204063e-12 	101324.9999999899
-0.1614114114114118 	300.0000000000378 	2.919567093547783e-12 	101324.9999999901
-0.1589089089089093 	299.999999999997 	9.671025119680904e-12 	101324.9999999902
-0.1564064064064068 	299.9999999999836 	3.818618473864762e-12 	101324.9999999901
-0.1539039039039043 	299.9999999999897 	1.076720502254325e-11 	101324.9999999899
-0.1514014014014018 	300.0000000000356 	2.929033495489195e-12 	101324.99999999
-0.1488988988988993 	299.9999999999896 	9.599152652365342e-12 	101324.9999999901
-0.1463963963963968 	300.0000000000026 	2.65956458220532e-12 	101324.9999999903
-0.1438938938938943 	299.9999999999428 	8.014373767162621e-12 	101324.9999999899
-0.1413913913913918 	299.9999999999071 	1.056774843711674e-12 	101324.9999999898
-0.1388888888888893 	299.9999999999731 	6.318987371558471e-12 	101324.9999999897
-0.1363863863863868 	299.9999999998641 	5.163411602559789e-13 	101324.9999999898
-0.1338838838838843 	299.9999999999017 	5.780389251727086e-12 	101324.9999999897
-0.1313813813813818 	299.9999999999928 	2.081945604345478e-12 	101324.9999999896
-0.1288788788788793 	299.9999999999591 	7.154799225156418e-12 	101324.9999999899
-0.1263763763763768 	299.9999999999609 	3.457116118144577e-12 	101324.9999999899
-0.1238738738738743 	299.9999999999061 	7.962275808154745e-12 	101324.9999999895
-0.1213713713713717 	299.9999999999729 	2.799134336859812e-12 	101324.9999999894
-0.1188688688688693 	300.0000000000026 	8.184569836534892e-12 	101324.9999999895
-0.1163663663663668 	299.9999999998801 	2.312735050838686e-12 	101324.9999999896
-0.1138638638638643 	299.9999999999873 	8.099481021774747e-12 	101324.9999999892
-0.1113613613613618 	299.9999999999845 	1.227414907833051e-12 	101324.9999999893
-0.1088588588588592 	299.9999999999706 	7.678287660540956e-12 	101324.9999999892
-0.1063563563563568 	299.9999999999375 	5.708715603873592e-13 	101324.9999999892
-0.1038538538538543 	299.9999999999665 	6.931604697246803e-12 	101324.9999999889
-0.1013513513513517 	300.0000000000189 	2.598709409664076e-12 	101324.9999999888
-0.09884884884884926 	299.9999999999266 	6.614296881596862e-12 	101324.999999989
-0.09634634634634676 	299.9999999998643 	2.545068598342565e-12 	101324.9999999891
-0.09384384384384425 	299.9999999999083 	4.87501427355854e-12 	101324.9999999892
-0.09134134134134177 	300.0000000000309 	1.536501451586849e-12 	101324.9999999892
-0.08883883883883925 	300.0000000000081 	3.059774335527484e-12 	101324.999999989
-0.08633633633633674 	299.9999999999427 	1.148358249463125e-12 	101324.999999989
-0.08383383383383426 	300.000000000015 	2.017072063298777e-12 	101324.9999999887
-0.08133133133133173 	299.9999999999579 	2.011151051785449e-12 	101324.9999999886
-0.07882882882882926 	299.999999999856 	2.310303464748146e-12 	101324.9999999884
-0.07632632632632676 	299.9999999999469 	2.370302047196273e-12 	101324.9999999882
-0.07382382382382424 	299.999999999869 	3.211763764463035e-12 	101324.9999999885
-0.07132132132132173 	300.0000000000189 	3.143975316524326e-12 	101324.9999999884
-0.06881881881881925 	299.9999999999507 	3.495521234403374e-12 	101324.9999999886
-0.06631631631631671 	299.9999999998682 	2.917567768145338e-12 	101324.9999999884
-0.06381381381381425 	299.9999999999406 	2.091375079146727e-12 	101324.9999999887
-0.06131131131131173 	299.9999999999453 	1.47235981876015e-12 	101324.9999999889
-0.05880880880880923 	299.9999999998872 	1.516829332797882e-12 	101324.9999999886
-0.05630630630630672 	299.999999999963 	8.807567420904595e-13 	101324.9999999887
-0.05380380380380424 	300.0000000000175 	1.433241809679145e-12 	101324.9999999888
-0.05130130130130173 	300.0000000000156 	1.656261712288022e-12 	101324.9999999891
-0.04879879879879922 	299.9999999999287 	2.093079471445299e-12 	101324.9999999891
-0.04629629629629672 	299.9999999999139 	9.236431301132641e-13 	101324.999999989
-0.04379379379379422 	299.9999999998983 	1.089907942164078e-12 	101324.999999989
-0.04129129129129173 	299.9999999999758 	3.576061577031165e-13 	101324.9999999894
-0.03878878878878922 	299.9999999999791 	1.043182646649052e-12 	101324.9999999892
-0.03628628628628671 	299.9999999999778 	1.346803095472732e-12 	101324.9999999889
-0.03378378378378422 	299.9999999998995 	2.0648635313953e-12 	101324.9999999887
-0.03128128128128172 	299.999999999959 	1.459408230465689e-12 	101324.9999999888
-0.02877877877877922 	299.9999999999579 	1.68203449075944e-12 	101324.9999999886
-0.0262762762762767 	299.9999999998772 	7.616542866614135e-13 	101324.9999999885
-0.02377377377377422 	300.0000000000246 	6.255577469670685e-13 	101324.9999999885
-0.0212712712712717 	299.9999999998818 	1.621600057252304e-13 	101324.9999999888
-0.01876876876876921 	299.9999999999572 	7.003753881324427e-13 	101324.999999989
-0.01626626626626671 	300.0000000000181 	1.308425859286311e-13 	101324.9999999888
-0.0137637637637642 	299.9999999999561 	4.03049823285228e-13 	101324.999999989
-0.0112612612612617 	300.0000000000232 	4.204084821108619e-13 	101324.999999989
-0.008758758758759198 	299.9999999999941 	1.095162789785229e-12 	101324.9999999889
-0.006256256256256697 	299.9999999998562 	6.362391482526059e-13 	101324.9999999889
-0.003753753753754195 	299.999999999939 	7.673549533643519e-13 	101324.9999999891
-0.001251251251251693 	299.9999999999105 	1.009797230180321e-13 	101324.9999999893
0.00125125125125081 	299.9999999999403 	9.228314580371595e-13 	101324.9999999894
0.003753753753753312 	299.9999999999536 	9.126479369272087e-13 	101324.9999999891
0.006256256256255817 	299.9999999998597 	2.001737559595474e-12 	101324.9999999891
0.008758758758758317 	299.9999999999823 	1.593659233668931e-12 	101324.9999999889
0.01126126126126082 	300.0000000000068 	1.459784691279881e-12 	101324.999999989
0.01376376376376332 	299.9999999999578 	7.199844357959391e-13 	101324.9999999889
0.01626626626626582 	300.0000000000093 	9.550121597145188e-13 	101324.9999999889
0.01876876876876833 	299.9999999999394 	4.06341300789323e-13 	101324.999999989
0.02127127127127083 	299.9999999999541 	1.994720746606418e-13 	101324.9999999887
0.02377377377377332 	299.9999999999948 	1.561709962801695e-13 	101324.9999999888
0.02627627627627583 	299.9999999998718 	3.986438426026579e-14 	101324.9999999889
0.02877877877877833 	300.0000000000153 	4.940516535743242e-13 	101324.9999999886
0.03128128128128083 	299.9999999999395 	2.25643637929453e-13 	101324.9999999888
0.03378378378378333 	299.9999999998792 	5.147846767335407e-13 	101324.9999999888
0.03628628628628584 	299.9999999999624 	3.342556155086302e-13 	101324.9999999888
0.03878878878878834 	299.9999999999724 	1.64586646596933e-13 	101324.999999989
0.04129129129129084 	299.9999999999727 	7.170356337021448e-13 	101324.999999989
0.04379379379379333 	299.9999999999372 	7.637707617344723e-14 	101324.999999989
0.04629629629629585 	299.999999999861 	1.124448737052983e-13 	101324.9999999888
0.04879879879879834 	299.9999999999487 	1.113750813583463e-12 	101324.999999989
0.05130130130130085 	300.0000000000136 	4.102789372192782e-13 	101324.9999999888
0.05380380380380335 	300.0000000000261 	5.887513537666012e-13 	101324.999999989
0.05630630630630584 	299.9999999999974 	1.34933652657334e-13 	101324.9999999887
0.05880880880880836 	299.9999999998923 	5.167013088914213e-13 	101324.9999999885
0.06131131131131085 	299.999999999962 	7.252950787903431e-13 	101324.9999999884
0.06381381381381336 	299.9999999999508 	1.412423528245831e-12 	101324.9999999882
0.06631631631631586 	299.9999999998613 	1.357722621834827e-12 	101324.9999999883
0.06881881881881835 	299.9999999999436 	2.230536393559049e-12 	101324.999999988
0.07132132132132088 	299.9999999999787 	1.519226864926239e-12 	101324.9999999884
0.07382382382382337 	299.9999999998676 	1.506282587340043e-12 	101324.9999999885
0.07632632632632587 	299.9999999999609 	1.140042032232188e-12 	101324.9999999884
0.07882882882882837 	299.9999999999173 	1.663468696577541e-12 	101324.9999999886
0.08133133133133086 	299.9999999999783 	1.766855366114235e-12 	101324.9999999888
0.08383383383383337 	299.9999999999798 	2.520027754791514e-12 	101324.9999999889
0.08633633633633589 	299.9999999998759 	3.484669881633038e-12 	101324.999999989
0.08883883883883838 	300.0000000000084 	4.020547928372854e-12 	101324.9999999891
0.09134134134134086 	299.9999999999758 	3.051944013401394e-12 	101324.9999999891
0.09384384384384339 	299.9999999998625 	3.049691571944765e-12 	101324.9999999888
0.09634634634634588 	299.9999999999526 	2.547036147557422e-12 	101324.9999999887
0.09884884884884838 	299.999999999968 	2.241712559818295e-12 	101324.9999999885
0.1013513513513509 	300.0000000000273 	2.242387888976665e-12 	101324.9999999886
0.1038538538538534 	299.9999999999449 	1.678030030352674e-12 	101324.9999999889
0.1063563563563559 	300.0000000000117 	2.239614554443066e-12 	101324.9999999888
0.1088588588588584 	300.0000000000338 	2.013440921598189e-12 	101324.9999999889
0.1113613613613609 	299.9999999999075 	2.507593266844469e-12 	101324.9999999887
0.1138638638638634 	299.9999999999328 	2.622250868344296e-12 	101324.9999999884
0.1163663663663659 	299.9999999999405 	2.497795884546694e-12 	101324.9999999887
0.1188688688688684 	299.9999999999642 	1.395087714882449e-12 	101324.9999999886
0.1213713713713709 	300.0000000000006 	4.619270711515752e-13 	101324.9999999885
0.1238738738738734 	299.9999999999056 	9.749411044473454e-14 	101324.9999999882
0.1263763763763759 	299.9999999999814 	1.052340702586424e-12 	101324.9999999885
0.1288788788788784 	299.9999999999774 	1.212644116625284e-12 	101324.9999999884
0.1313813813813809 	299.9999999999774 	1.241098380460704e-12 	101324.9999999883
0.1338838838838834 	299.9999999999686 	4.189887620274048e-13 	101324.9999999884
0.1363863863863859 	300.0000000000217 	6.178379203240882e-13 	101324.9999999886
0.1388888888888884 	300.0000000000531 	2.893588515598008e-13 	101324.9999999888
0.1413913913913909 	300.0000000000064 	9.613099774361045e-13 	101324.9999999892
0.1438938938938934 	299.9999999999898 	4.567122512270582e-13 	101324.9999999892
0.1463963963963959 	299.9999999999474 	7.858131055801489e-13 	101324.9999999895
0.1488988988988985 	299.9999999998853 	1.370373900488171e-12 	101324.9999999894
0.1514014014014009 	299.9999999999662 	1.133691244398382e-12 	101324.9999999894
0.1539039039039035 	299.9999999999548 	1.899855609983696e-12 	101324.9999999893
0.1564064064064059 	299.9999999999083 	3.485667069272339e-13 	101324.9999999894
0.1589089089089084 	299.999999999968 	3.961118307704146e-12 	101324.9999999892
0.1614114114114109 	299.9999999999598 	1.583744596592257e-12 	101324.9999999891
0.1639139139139134 	299.9999999998881 	3.834681932053789e-12 	101324.999999989
0.166416416416416 	300.0000000000072 	2.668307738555545e-12 	101324.9999999891
0.1689189189189185 	300.0000000000435 	2.205629340741576e-12 	101324.999999989
0.1714214214214209 	300.0000000000054 	1.882270659039605e-12 	101324.999999989
0.1739239239239235 	299.9999999999918 	7.858662821916334e-13 	101324.9999999889
0.1764264264264259 	299.999999999964 	1.858997666907524e-12 	101324.9999999887
0.1789289289289284 	300.0000000000133 	1.025868191896673e-12 	101324.9999999888
0.181431431431431 	299.9999999999582 	9.717156736711309e-13 	101324.9999999885
0.1839339339339334 	299.9999999999625 	7.443450573946763e-13 	101324.9999999885
0.186436436436436 	299.9999999999099 	1.395205012185213e-13 	101324.9999999886
0.1889389389389385 	299.9999999999707 	3.52921516415771e-14 	101324.9999999887
0.191441441441441 	299.9999999999634 	2.842004559378952e-13 	101324.9999999886
0.1939439439439434 	299.999999999895 	2.095262996411228e-12 	101324.9999999884
0.196446446446446 	299.9999999999326 	8.675289354324162e-13 	101324.9999999885
0.1989489489489485 	299.9999999999549 	2.689576208124724e-12 	101324.9999999887
0.2014514514514509 	299.9999999999824 	5.265339341345127e-13 	101324.9999999886
0.2039539539539535 	299.9999999999916 	1.764616803384093e-12 	101324.9999999886
0.2064564564564559 	299.9999999999444 	1.090474654721251e-12 	101324.9999999889
0.2089589589589585 	299.9999999999825 	1.356107657586915e-12 	101324.9999999891
0.211461461461461 	299.9999999999159 	1.864600341121541e-12 	101324.9999999892
0.2139639639639635 	299.999999999965 	1.326254446430555e-12 	101324.9999999893
0.2164664664664659 	299.999999999996 	2.833716440705388e-12 	101324.9999999891
0.2189689689689684 	299.999999999998 	7.02609747233982e-13 	101324.9999999894
0.221471471471471 	299.9999999999936 	2.633209312666638e-12 	101324.9999999891
0.2239739739739735 	299.9999999999386 	3.84382701897553e-13 	101324.9999999892
0.226476476476476 	299.9999999999767 	1.613585898652422e-12 	101324.999999989
0.2289789789789785 	299.9999999999934 	5.662255465001655e-13 	101324.9999999891
0.231481481481481 	299.9999999999862 	6.615767742461776e-13 	101324.9999999887
0.2339839839839835 	299.9999999999769 	1.033673209456003e-12 	101324.9999999885
0.236486486486486 	300.0000000000302 	5.464267291889545e-13 	101324.9999999883
0.2389889889889885 	300.0000000000016 	1.6959891825373e-12 	101324.9999999884
0.241491491491491 	299.9999999998947 	3.471135528066093e-13 	101324.9999999885
0.2439939939939935 	299.9999999999773 	3.133395991101475e-12 	101324.9999999886
0.246496496496496 	299.9999999999905 	1.553263976358783e-12 	101324.9999999886
0.2489989989989985 	300.0000000000457 	3.467593375306495e-12 	101324.9999999884
0.251501501501501 	300.0000000000397 	3.160830885948923e-12 	101324.9999999885
0.2540040040040035 	299.9999999999885 	3.187119172637647e-12 	101324.9999999889
0.256506506506506 	300.0000000000321 	3.604941176134882e-12 	101324.999999989
0.2590090090090086 	299.9999999998896 	2.056541652049959e-12 	101324.999999989
0.261511511511511 	299.9999999999987 	3.845066500572043e-12 	101324.999999989
0.2640140140140135 	299.9999999999856 	1.739649700654419e-12 	101324.9999999891
0.2665165165165161 	299.9999999999126 	3.490975811455749e-12 	101324.9999999889
0.2690190190190185 	300.0000000000211 	2.627506498663372e-12 	101324.999999989
0.271521521521521 	300.0000000000223 	2.660506790924527e-12 	101324.9999999887
0.2740240240240235 	300.0000000000221 	2.782690501611742e-12 	101324.9999999886
0.276526526526526 	300.0000000000116 	2.427105948534872e-12 	101324.9999999888
0.2790290290290286 	299.9999999999289 	3.223359216598003e-12 	101324.9999999888
0.281531531531531 	299.9999999999147 	1.947109041875618e-12 	101324.9999999888
0.2840340340340335 	299.9999999999773 	2.993586186630836e-12 	101324.9999999888
0.2865365365365361 	299.9999999999496 	1.891955656878649e-12 	101324.9999999889
0.2890390390390385 	299.9999999999945 	1.58750126200123e-12 	101324.9999999889
0.291541541541541 	299.9999999999948 	1.774510210506737e-12 	101324.9999999892
0.2940440440440436 	299.9999999999893 	4.444604588413494e-13 	101324.9999999896
0.296546546546546 	299.9999999999859 	2.725375530485145e-12 	101324.9999999894
0.2990490490490486 	299.9999999999246 	1.329776032084321e-12 	101324.9999999894
0.3015515515515511 	300.0000000000447 	3.963199391450909e-12 	101324.9999999892
0.3040540540540535 	300.0000000000063 	2.964547354663046e-12 	101324.999999989
0.3065565565565562 	299.9999999999885 	4.653617604418698e-12 	101324.9999999886
0.3090590590590585 	299.9999999999844 	2.16567652486326e-12 	101324.9999999882
0.3115615615615611 	299.9999999999238 	4.348989992395621e-12 	101324.999999988
0.3140640640640635 	300.0000000000074 	9.479967831393027e-13 	101324.9999999879
0.316566566566566 	299.9999999999898 	3.800382203965887e-12 	101324.9999999882
0.3190690690690687 	299.9999999999444 	8.924250412993103e-13 	101324.9999999881
0.3215715715715711 	300.0000000000158 	2.864483362722948e-12 	101324.9999999883
0.3240740740740735 	299.999999999994 	8.364905913911761e-13 	101324.9999999884
0.326576576576576 	299.9999999998749 	2.13522951187988e-12 	101324.9999999883
0.3290790790790786 	300.0000000000152 	5.037334249538316e-13 	101324.9999999886
0.3315815815815811 	300.00000000005 	1.093719477561356e-12 	101324.9999999885
0.3340840840840836 	299.9999999999881 	8.673612957499521e-13 	101324.9999999885
0.3365865865865861 	300.0000000000674 	1.377625472273036e-12 	101324.9999999889
0.3390890890890886 	300.0000000000566 	3.02784884891135e-13 	101324.9999999891
0.3415915915915911 	299.9999999999994 	1.455945085959468e-12 	101324.9999999893
0.3440940940940935 	299.9999999999437 	4.638295042189458e-13 	101324.9999999893
0.3465965965965962 	300.0000000000505 	1.809141878059645e-12 	101324.9999999891
0.3490990990990985 	300.0000000000389 	3.972899275767825e-13 	101324.9999999891
0.3516016016016011 	299.999999999986 	4.865532160926823e-13 	101324.9999999891
0.3541041041041035 	300.0000000000076 	4.947700646825735e-13 	101324.999999989
0.3566066066066061 	299.9999999999438 	6.380023579363142e-13 	101324.9999999888
0.3591091091091085 	299.9999999998968 	1.50232130665258e-12 	101324.9999999886
0.3616116116116112 	299.999999999926 	1.10385383383176e-12 	101324.9999999886
0.3641141141141137 	299.9999999999153 	2.867406840194885e-12 	101324.9999999886
0.3666166166166161 	299.999999999909 	1.042684831447387e-12 	101324.9999999886
0.3691191191191185 	300.0000000000467 	4.808621538471599e-12 	101324.9999999885
0.371621621621621 	300.0000000000159 	7.683282156923526e-13 	101324.9999999883
0.3741241241241237 	300.0000000000587 	3.319437041723004e-12 	101324.999999988
0.3766266266266261 	300.0000000000339 	1.182689596770362e-12 	101324.999999988
0.3791291291291286 	299.9999999999822 	2.255012181341968e-12 	101324.9999999881
0.3816316316316311 	299.9999999998959 	1.314190715984491e-12 	101324.9999999881
0.3841341341341336 	300.0000000000123 	2.151991085942081e-12 	101324.9999999882
0.3866366366366362 	299.9999999999959 	1.49128938748732e-12 	101324.9999999883
0.3891391391391387 	299.9999999999461 	7.729389151767872e-13 	101324.9999999884
0.391641641641641 	299.9999999999912 	2.056978125419312e-12 	101324.9999999885
0.3941441441441436 	300.0000000000072 	9.016508530920631e-13 	101324.9999999886
0.3966466466466462 	299.9999999999968 	2.039317038623866e-12 	101324.9999999886
0.3991491491491486 	299.9999999999341 	1.137100671477318e-12 	101324.9999999885
0.4016516516516512 	299.9999999998947 	2.25066569963891e-12 	101324.9999999886
0.4041541541541536 	299.9999999999397 	4.140090964944358e-13 	101324.9999999888
0.4066566566566561 	299.999999999935 	1.490241315113001e-12 	101324.9999999888
0.4091591591591587 	299.9999999999823 	7.240824843843578e-13 	101324.9999999889
0.4116616616616612 	299.9999999999972 	4.021901037386437e-13 	101324.9999999891
0.4141641641641635 	300.0000000000532 	8.444629752556252e-13 	101324.9999999894
0.4166666666666662 	299.9999999999946 	9.880885453284186e-13 	101324.9999999895
0.4191691691691687 	299.999999999926 	6.414816302386525e-13 	101324.9999999899
0.421671671671671 	300.0000000000174 	2.609418992000595e-12 	101324.9999999897
0.4241741741741737 	299.999999999966 	2.333783025961598e-12 	101324.9999999899
0.4266766766766761 	299.9999999999455 	3.027821084780268e-12 	101324.9999999897
0.4291791791791785 	300.0000000000175 	3.019433826522273e-12 	101324.9999999896
0.4316816816816812 	300.0000000000148 	3.379648164653718e-12 	101324.9999999896
0.4341841841841836 	299.9999999999848 	2.900559040008556e-12 	101324.9999999897
0.4366866866866862 	299.9999999999021 	2.69650118455517e-12 	101324.9999999896
0.4391891891891885 	299.9999999999819 	1.61321704781905e-12 	101324.9999999893
0.4416916916916913 	299.9999999999804 	2.089482326312956e-12 	101324.9999999892
0.4441941941941936 	299.9999999999831 	1.874573708010093e-12 	101324.9999999891
0.4466966966966961 	299.9999999998975 	5.644520704308573e-13 	101324.9999999893
0.4491991991991987 	299.9999999999706 	8.666097564169042e-13 	101324.9999999894
0.4517017017017012 	299.9999999999615 	6.676995043056175e-13 	101324.9999999893
0.4542042042042035 	299.9999999999931 	5.614865072825076e-13 	101324.9999999891
0.4567067067067062 	299.9999999999921 	7.238991307890818e-13 	101324.9999999891
0.4592092092092087 	299.9999999999098 	1.003546475105452e-12 	101324.9999999892
0.4617117117117112 	300.0000000000249 	1.189819365917675e-12 	101324.9999999893
0.4642142142142137 	299.999999999952 	1.236789918471603e-12 	101324.9999999894
0.4667167167167162 	299.9999999999857 	9.193070296342753e-13 	101324.9999999893
0.4692192192192187 	299.9999999999467 	7.181154104711618e-13 	101324.999999989
0.4717217217217212 	300.0000000000152 	1.38360616304507e-12 	101324.9999999891
0.4742242242242236 	299.9999999999496 	1.743134684057714e-12 	101324.9999999892
0.4767267267267262 	299.9999999999733 	2.287719664709074e-12 	101324.999999989
0.4792292292292287 	300.000000000023 	2.357474200232099e-12 	101324.9999999892
0.4817317317317312 	300.0000000000393 	2.262878085621138e-12 	101324.9999999894
0.4842342342342336 	299.9999999999869 	2.280680151163931e-12 	101324.9999999896
0.4867367367367362 	299.9999999999465 	1.468473991731799e-12 	101324.9999999898
0.4892392392392387 	300.0000000000326 	1.945554219630788e-12 	101324.99999999
0.4917417417417412 	300.000000000008 	7.846564622850988e-13 	101324.9999999901
0.4942442442442437 	299.9999999998919 	2.067539492431153e-12 	101324.9999999901
0.4967467467467462 	299.9999999999095 	1.480436849480555e-12 	101324.9999999902
0.4992492492492487 	299.9999999999069 	2.997826218645426e-12 	101324.9999999902
0.5017517517517511 	299.9999999999426 	2.17561285611471e-12 	101324.9999999904
0.5042542542542537 	299.9999999999602 	2.27292418817324e-12 	101324.9999999906
0.5067567567567562 	299.9999999999363 	2.102081280829598e-12 	101324.9999999908
0.5092592592592589 	299.999999999962 	1.656117212535109e-12 	101324.9999999909
0.5117617617617611 	299.9999999999496 	2.868728205793153e-12 	101324.9999999908
0.5142642642642637 	299.999999999986 	1.542216090010691e-12 	101324.9999999907
0.5167667667667663 	299.9999999999674 	3.968032089092415e-12 	101324.9999999907
0.5192692692692688 	299.9999999998992 	1.948569732472212e-12 	101324.9999999905
0.5217717717717714 	299.9999999999288 	6.80838160712151e-12 	101324.9999999904
0.5242742742742736 	299.9999999999329 	2.199338225774713e-12 	101324.9999999906
0.5267767767767763 	299.9999999999523 	5.784634288783798e-12 	101324.9999999905
0.5292792792792789 	299.9999999999308 	2.338818084976035e-12 	101324.9999999905
0.5317817817817813 	299.9999999998921 	5.844294555796308e-12 	101324.9999999901
0.5342842842842837 	300.0000000000152 	3.891434498891952e-12 	101324.9999999898
0.5367867867867864 	299.9999999999999 	5.398036774419966e-12 	101324.9999999898
0.5392892892892888 	299.9999999999517 	2.774263619764666e-12 	101324.99999999
0.5417917917917912 	299.9999999999989 	4.053870835432963e-12 	101324.9999999903
0.5442942942942938 	299.9999999999779 	3.011586145468463e-12 	101324.9999999902
0.5467967967967964 	299.9999999999383 	4.667842179862048e-12 	101324.9999999902
0.5492992992992988 	299.9999999999383 	4.032217515632308e-12 	101324.9999999899
0.5518018018018012 	299.9999999999358 	5.492012023272576e-12 	101324.9999999897
0.5543043043043039 	300.000000000021 	4.394268721294138e-12 	101324.99999999
0.5568068068068063 	299.9999999999882 	5.194781240951959e-12 	101324.9999999901
0.5593093093093087 	299.9999999998933 	4.332518996666263e-12 	101324.9999999902
0.5618118118118114 	299.9999999999525 	6.465814851527675e-12 	101324.9999999905
0.5643143143143137 	299.9999999999339 	5.213547716612076e-12 	101324.9999999906
0.5668168168168163 	299.9999999999945 	5.647174681228515e-12 	101324.9999999907
0.5693193193193188 	300.0000000000378 	4.67981374345366e-12 	101324.9999999907
0.5718218218218213 	300.0000000000316 	3.854216065369214e-12 	101324.9999999906
0.5743243243243239 	300.0000000000132 	5.014332964206246e-12 	101324.9999999907
0.5768268268268262 	300.0000000000035 	3.571327851785255e-12 	101324.999999991
0.5793293293293288 	299.9999999999318 	6.520730166261064e-12 	101324.9999999914
0.5818318318318314 	299.9999999999064 	3.550299267273922e-12 	101324.9999999912
0.5843343343343338 	299.9999999999857 	7.778748918803485e-12 	101324.9999999908
0.5868368368368363 	299.9999999999766 	3.803327105675733e-12 	101324.9999999906
0.5893393393393387 	299.9999999999379 	7.822593819527215e-12 	101324.9999999906
0.5918418418418413 	299.9999999999336 	5.751221124828942e-12 	101324.9999999905
0.5943443443443439 	300.0000000000129 	8.866418430031394e-12 	101324.9999999906
0.5968468468468463 	300.0000000000177 	6.921811655691247e-12 	101324.9999999905
0.5993493493493487 	300.0000000000433 	8.468656428526268e-12 	101324.9999999903
0.6018518518518514 	299.9999999999811 	6.149538703745973e-12 	101324.9999999902
0.6043543543543537 	300.0000000000022 	7.344864162891391e-12 	101324.9999999904
0.6068568568568564 	299.9999999999868 	5.102506494829724e-12 	101324.9999999906
0.6093593593593587 	299.999999999921 	6.900610623473335e-12 	101324.9999999908
0.6118618618618614 	299.9999999999127 	6.096443430738834e-12 	101324.9999999911
0.6143643643643638 	300.0000000000207 	7.928633368030755e-12 	101324.9999999914
0.6168668668668662 	299.9999999999886 	6.311810540980596e-12 	101324.9999999915
0.6193693693693688 	299.9999999999542 	8.140014883085828e-12 	101324.9999999912
0.6218718718718714 	299.9999999999631 	5.882701524407586e-12 	101324.9999999908
0.6243743743743737 	299.9999999999186 	7.814120617808264e-12 	101324.9999999907
0.6268768768768762 	299.9999999999153 	6.114091264846284e-12 	101324.9999999907
0.629379379379379 	299.9999999999551 	6.76052460738135e-12 	101324.9999999909
0.6318818818818812 	299.9999999999791 	5.533694170016452e-12 	101324.9999999907
0.6343843843843838 	300.0000000000189 	4.922872936410734e-12 	101324.9999999905
0.6368868868868864 	299.9999999999841 	5.086743860203615e-12 	101324.9999999906
0.6393893893893888 	299.9999999999156 	3.272042681730307e-12 	101324.9999999907
0.6418918918918912 	300.0000000000011 	5.367555531687412e-12 	101324.9999999907
0.6443943943943939 	299.9999999999696 	2.614256333261693e-12 	101324.9999999908
0.6468968968968963 	299.9999999999803 	6.82342370341988e-12 	101324.9999999907
0.6493993993993988 	299.9999999999657 	3.573266737236716e-12 	101324.9999999905
0.6519019019019012 	299.9999999999761 	7.438365685590789e-12 	101324.9999999907
0.6544044044044038 	299.9999999998902 	4.43595843688829e-12 	101324.9999999905
0.6569069069069065 	299.9999999999397 	7.909314429422285e-12 	101324.9999999904
0.6594094094094087 	299.9999999999538 	5.689950544029194e-12 	101324.9999999903
0.6619119119119113 	299.9999999999555 	8.872405535339204e-12 	101324.9999999904
0.664414414414414 	300.0000000000086 	6.836607443175099e-12 	101324.9999999905
0.6669169169169162 	300.0000000000177 	8.393732351817887e-12 	101324.9999999905
0.6694194194194188 	299.9999999999806 	6.805647664580819e-12 	101324.9999999907
0.6719219219219214 	299.999999999913 	8.443261887230714e-12 	101324.9999999906
0.674424424424424 	299.9999999999706 	7.232217006790129e-12 	101324.9999999908
0.6769269269269262 	299.9999999999125 	7.838495285804352e-12 	101324.9999999909
0.679429429429429 	300.0000000000032 	6.670898363889239e-12 	101324.9999999907
0.6819319319319311 	299.9999999999873 	6.906043823245252e-12 	101324.9999999906
0.6844344344344341 	300.0000000000006 	5.874406555611137e-12 	101324.9999999905
0.686936936936936 	299.999999999994 	7.310212409064728e-12 	101324.9999999904
0.6894394394394392 	299.9999999999865 	6.83799204619626e-12 	101324.9999999905
0.6919419419419413 	299.9999999999863 	6.739619916730559e-12 	101324.9999999907
0.694444444444444 	299.9999999999161 	6.88979100483722e-12 	101324.9999999909
0.6969469469469463 	299.9999999999081 	6.742061724490243e-12 	101324.9999999912
0.6994494494494489 	299.9999999999098 	7.385533260032503e-12 	101324.9999999914
0.7019519519519515 	299.9999999999737 	5.843416064947e-12 	101324.9999999913
0.7044544544544538 	299.9999999999378 	7.410149311365708e-12 	101324.9999999913
0.7069569569569564 	299.9999999999995 	5.193509420643546e-12 	101324.9999999914
0.7094594594594589 	299.9999999999617 	8.020146082108756e-12 	101324.9999999914
0.7119619619619615 	299.9999999999051 	5.902669839895306e-12 	101324.9999999913
0.7144644644644638 	299.9999999999458 	8.418546272884266e-12 	101324.9999999912
0.7169669669669665 	299.9999999999053 	7.00807316159686e-12 	101324.9999999914
0.7194694694694688 	299.9999999999943 	8.216601092286745e-12 	101324.9999999917
0.7219719719719715 	299.9999999999901 	7.722201254376018e-12 	101324.9999999918
0.7244744744744737 	300.000000000006 	8.233731913225898e-12 	101324.9999999918
0.7269769769769764 	299.9999999999986 	8.346463683934477e-12 	101324.9999999916
0.7294794794794791 	299.9999999999874 	6.669635103683478e-12 	101324.9999999915
0.7319819819819813 	299.9999999999731 	8.446903386374513e-12 	101324.9999999916
0.7344844844844839 	299.9999999999001 	6.51853805692742e-12 	101324.9999999915
0.7369869869869864 	299.9999999999342 	7.287402637787546e-12 	101324.9999999913
0.739489489489489 	299.9999999999278 	5.992416124046841e-12 	101324.9999999912
0.7419919919919914 	299.9999999999209 	5.374425322139875e-12 	101324.9999999912
0.7444944944944939 	299.9999999999767 	6.00544816773639e-12 	101324.9999999912
0.7469969969969963 	299.99999999997 	4.528431731551827e-12 	101324.9999999913
0.7494994994994989 	299.9999999999317 	7.289289195568805e-12 	101324.9999999912
0.7520020020020015 	299.9999999999632 	4.268316304411866e-12 	101324.9999999911
0.7545045045045039 	299.9999999999606 	7.361552816806004e-12 	101324.9999999912
0.7570070070070062 	299.999999999931 	4.437801920721708e-12 	101324.9999999911
0.7595095095095092 	299.9999999999184 	6.938955686643549e-12 	101324.9999999912
0.7620120120120112 	300.0000000000063 	5.952742460648692e-12 	101324.9999999913
0.7645145145145138 	299.9999999999837 	6.110863591183422e-12 	101324.9999999914
0.7670170170170165 	299.9999999999205 	6.665554936967604e-12 	101324.9999999913
0.7695195195195191 	299.9999999999073 	6.098068283880197e-12 	101324.9999999913
0.7720220220220213 	299.9999999999225 	9.31939596275388e-12 	101324.9999999914
0.7745245245245239 	299.9999999999136 	7.483566899039062e-12 	101324.9999999914
0.7770270270270263 	299.9999999999547 	9.639349140909144e-12 	101324.9999999913
0.779529529529529 	299.9999999999748 	8.801808656059056e-12 	101324.9999999911
0.7820320320320313 	299.9999999999662 	9.584366682001466e-12 	101324.9999999911
0.784534534534534 	300.0000000000006 	9.170703318164198e-12 	101324.9999999911
0.7870370370370364 	299.9999999999933 	8.533626084462014e-12 	101324.9999999908
0.7895395395395389 	299.9999999999756 	9.385646912158709e-12 	101324.9999999909
0.7920420420420413 	299.9999999999699 	7.871596898288703e-12 	101324.9999999909
0.794544544544544 	299.99999999997 	9.452636464657583e-12 	101324.999999991
0.7970470470470463 	299.9999999999994 	6.394707977737029e-12 	101324.9999999914
0.799549549549549 	299.9999999999815 	9.741906215456691e-12 	101324.9999999915
0.8020520520520515 	299.9999999999814 	7.071205714489468e-12 	101324.9999999915
0.8045545545545539 	299.9999999999336 	9.968207420197413e-12 	101324.9999999915
0.8070570570570563 	299.9999999999724 	8.511679724294755e-12 	101324.9999999915
0.8095595595595589 	299.9999999999472 	9.220627511102166e-12 	101324.9999999915
0.8120620620620614 	299.9999999999289 	8.98388781976824e-12 	101324.9999999911
0.8145645645645638 	299.9999999999943 	8.756119398716539e-12 	101324.9999999909
0.8170670670670666 	299.9999999999905 	9.258447500810614e-12 	101324.9999999909
0.8195695695695689 	299.9999999999705 	7.60051628485497e-12 	101324.9999999911
0.8220720720720714 	299.9999999999316 	1.016717656701172e-11 	101324.9999999914
0.8245745745745739 	299.9999999999962 	7.878809229356437e-12 	101324.9999999915
0.8270770770770765 	299.9999999999665 	9.770124997121214e-12 	101324.9999999915
0.8295795795795788 	299.9999999999437 	8.561975143478954e-12 	101324.9999999914
0.8320820820820815 	300.0000000000185 	9.454654878678584e-12 	101324.9999999914
0.834584584584584 	300.0000000000022 	8.650965090592108e-12 	101324.9999999915
0.8370870870870865 	299.9999999999539 	7.730203045046125e-12 	101324.9999999913
0.8395895895895891 	299.999999999921 	7.819730020947546e-12 	101324.9999999912
0.8420920920920915 	299.9999999999396 	7.139412750359836e-12 	101324.9999999913
0.844594594594594 	299.9999999999367 	7.692618125444045e-12 	101324.9999999913
0.8470970970970964 	299.9999999999529 	7.775825143769322e-12 	101324.9999999914
0.8495995995995991 	299.9999999999955 	7.381273055838497e-12 	101324.9999999912
0.8521021021021015 	299.999999999977 	7.987347383405175e-12 	101324.9999999909
0.8546046046046039 	299.999999999962 	7.351960401220187e-12 	101324.9999999911
0.8571071071071066 	300.0000000000002 	8.173037092515836e-12 	101324.9999999912
0.8596096096096089 	299.9999999999645 	6.158643420768987e-12 	101324.9999999913
0.8621121121121116 	299.9999999999342 	9.378206826379617e-12 	101324.9999999916
0.8646146146146139 	300.0000000000012 	7.416629859197489e-12 	101324.9999999917
0.8671171171171166 	299.9999999999719 	9.837758171787755e-12 	101324.9999999918
0.8696196196196189 	299.99999999993 	9.416900481887261e-12 	101324.9999999918
0.8721221221221216 	299.999999999974 	1.039023484322683e-11 	101324.9999999916
0.874624624624624 	300.0000000000088 	1.005376584673421e-11 	101324.9999999911
0.8771271271271264 	299.9999999999992 	9.886980489568055e-12 	101324.9999999908
0.879629629629629 	299.9999999999953 	1.033252710727328e-11 	101324.9999999907
0.8821321321321317 	299.9999999999824 	8.605794306046742e-12 	101324.9999999906
0.8846346346346339 	299.9999999999187 	1.107867653889018e-11 	101324.9999999906
0.8871371371371364 	299.9999999999461 	8.490361087313396e-12 	101324.9999999908
0.8896396396396391 	299.9999999999417 	9.226565220474116e-12 	101324.999999991
0.8921421421421414 	299.999999999952 	7.221597982192298e-12 	101324.9999999911
0.8946446446446441 	299.9999999999898 	7.709560275504676e-12 	101324.999999991
0.8971471471471464 	300.0000000000074 	6.908761285384648e-12 	101324.9999999908
0.8996496496496489 	299.9999999999821 	6.259658466801951e-12 	101324.9999999913
0.9021521521521517 	299.9999999999545 	7.105530851991375e-12 	101324.9999999916
0.9046546546546541 	299.999999999982 	6.369942621730155e-12 	101324.9999999915
0.9071571571571564 	299.9999999999378 	6.986516011018183e-12 	101324.9999999915
0.9096596596596589 	299.9999999999316 	6.731626819822988e-12 	101324.9999999915
0.9121621621621616 	300.0000000000095 	6.780375135543983e-12 	101324.9999999914
0.9146646646646639 	299.9999999999667 	6.755073540675623e-12 	101324.9999999913
0.9171671671671666 	299.9999999999241 	6.665893933995304e-12 	101324.9999999914
0.9196696696696689 	299.9999999999898 	7.782084531846782e-12 	101324.9999999916
0.9221721721721714 	299.9999999999941 	6.273949989918215e-12 	101324.9999999917
0.9246746746746741 	299.9999999999307 	8.979718531845961e-12 	101324.9999999918
0.9271771771771765 	299.9999999999361 	7.005821960324536e-12 	101324.9999999919
0.9296796796796791 	299.9999999999852 	8.837074511514167e-12 	101324.999999992
0.9321821821821816 	299.9999999999747 	6.915197345627338e-12 	101324.9999999919
0.9346846846846838 	299.9999999999514 	7.453252455386947e-12 	101324.9999999917
0.9371871871871866 	300.0000000000159 	6.575352021668832e-12 	101324.9999999919
0.9396896896896891 	300.0000000000153 	6.582097883386222e-12 	101324.999999992
0.9421921921921914 	300.0000000000088 	7.075691205537311e-12 	101324.9999999921
0.9446946946946939 	299.9999999999621 	6.280075793913688e-12 	101324.9999999921
0.9471971971971965 	299.9999999999135 	7.992118672932813e-12 	101324.9999999922
0.9496996996996991 	299.999999999946 	6.073719297155503e-12 	101324.9999999922
0.9522022022022016 	299.9999999999702 	7.483877158583556e-12 	101324.9999999921
0.9547047047047038 	299.9999999999776 	6.324986567713787e-12 	101324.9999999923
0.9572072072072064 	299.9999999999713 	6.817515680898097e-12 	101324.9999999924
0.9597097097097093 	299.9999999999559 	6.246511061497453e-12 	101324.9999999924
0.9622122122122114 	299.999999999944 	6.279966410086935e-12 	101324.9999999922
0.964714714714714 	299.9999999999436 	7.040007857822205e-12 	101324.9999999921
0.9672172172172167 	299.9999999999487 	6.126549578672e-12 	101324.9999999919
0.969719719719719 	299.9999999999797 	7.078932021643792e-12 	101324.999999992
0.9722222222222214 	299.9999999999598 	6.747197249982956e-12 	101324.9999999921
0.9747247247247239 	299.999999999957 	6.669641842858925e-12 	101324.9999999923
0.9772272272272267 	299.999999999999 	6.806529501928111e-12 	101324.9999999925
0.9797297297297292 	299.9999999999815 	5.982276421989526e-12 	101324.9999999924
0.9822322322322313 	299.9999999999932 	6.412976448891925e-12 	101324.9999999923
0.9847347347347344 	299.9999999999897 	5.013327416907185e-12 	101324.9999999924
0.9872372372372363 	299.9999999999346 	7.497084028431149e-12 	101324.9999999924
0.9897397397397389 	299.9999999999648 	5.363128131433814e-12 	101324.9999999924
0.9922422422422417 	299.9999999999482 	6.661991136178156e-12 	101324.9999999924
0.9947447447447441 	299.999999999945 	5.022278976159423e-12 	101324.9999999925
0.9972472472472468 	299.9999999999509 	5.915310905897536e-12 	101324.9999999924
0.999749749749749 	299.9999999999489 	5.46794411288315e-12 	101324.9999999922
1.002252252252252 	299.9999999999754 	5.673781792889532e-12 	101324.9999999924
1.004754754754754 	299.9999999999897 	5.969619020333708e-12 	101324.9999999923
1.007257257257256 	299.9999999999631 	5.229598229836957e-12 	101324.9999999923
1.009759759759759 	299.9999999999516 	7.043376750490894e-12 	101324.9999999924
1.012262262262261 	299.999999999942 	5.399982956547395e-12 	101324.9999999925
1.014764764764764 	299.9999999999139 	7.302327589746038e-12 	101324.9999999925
1.017267267267267 	299.9999999999027 	6.369915532651057e-12 	101324.9999999922
1.019769769769769 	299.9999999999478 	7.28357688574475e-12 	101324.9999999921
1.022272272272272 	299.9999999999616 	6.051858802688729e-12 	101324.9999999921
1.024774774774774 	299.9999999999707 	6.011491768830782e-12 	101324.9999999922
1.027277277277277 	299.9999999999695 	6.746100369976297e-12 	101324.9999999921
1.029779779779779 	300.0000000000002 	6.034509957877516e-12 	101324.9999999918
1.032282282282282 	300.0000000000018 	6.182134957317424e-12 	101324.9999999916
1.034784784784784 	299.9999999999892 	5.756831771265945e-12 	101324.9999999915
1.037287287287286 	299.9999999999526 	6.226430869894191e-12 	101324.9999999916
1.039789789789789 	299.9999999999647 	6.556703739361405e-12 	101324.9999999916
1.042292292292291 	300.0000000000098 	6.418371983571847e-12 	101324.9999999918
1.044794794794794 	300.0000000000248 	6.780896178056634e-12 	101324.9999999919
1.047297297297296 	300.0000000000418 	5.352188655566155e-12 	101324.999999992
1.049799799799799 	299.9999999999926 	6.475164295806026e-12 	101324.9999999918
1.052302302302302 	299.9999999999531 	4.279389390616743e-12 	101324.9999999916
1.054804804804804 	299.9999999999255 	5.672640465745592e-12 	101324.9999999915
1.057307307307306 	299.9999999999053 	4.690084265587155e-12 	101324.9999999915
1.059809809809809 	299.999999999942 	5.677435612447538e-12 	101324.9999999918
1.062312312312312 	299.9999999999343 	4.980087273361707e-12 	101324.9999999921
1.064814814814814 	299.9999999999287 	5.558137874565519e-12 	101324.9999999921
1.067317317317317 	299.9999999999089 	5.664719737954768e-12 	101324.9999999921
1.069819819819819 	299.9999999999105 	5.360728004188406e-12 	101324.9999999921
1.072322322322321 	299.9999999999845 	6.463932983515897e-12 	101324.9999999921
1.074824824824824 	300.0000000000222 	4.629629354938078e-12 	101324.9999999923
1.077327327327327 	300.000000000041 	5.393095490755457e-12 	101324.9999999927
1.079829829829829 	300.0000000000383 	4.349046690873554e-12 	101324.999999993
1.082332332332332 	299.999999999996 	4.867319024101645e-12 	101324.9999999931
1.084834834834834 	299.9999999999651 	4.75767284853604e-12 	101324.9999999928
1.087337337337337 	299.9999999999235 	4.90568178750551e-12 	101324.9999999925
1.089839839839839 	299.9999999999216 	6.253610579503275e-12 	101324.9999999922
1.092342342342342 	299.9999999999731 	5.272497202092807e-12 	101324.999999992
1.094844844844844 	299.9999999999744 	6.611764788597094e-12 	101324.9999999918
1.097347347347347 	299.9999999999355 	5.262731800347182e-12 	101324.9999999918
1.099849849849849 	299.9999999999163 	8.017477593058172e-12 	101324.9999999919
1.102352352352352 	299.9999999999472 	6.303552570264385e-12 	101324.9999999919
1.104854854854854 	299.999999999971 	8.561252579846252e-12 	101324.9999999917
1.107357357357357 	299.9999999999516 	7.192216273283801e-12 	101324.9999999915
1.109859859859859 	299.9999999999363 	8.2639531984968e-12 	101324.9999999916
1.112362362362362 	300.0000000000205 	6.8401715443178e-12 	101324.9999999916
1.114864864864865 	300.0000000000264 	6.611143803717319e-12 	101324.9999999918
1.117367367367367 	299.9999999999608 	6.635983132429867e-12 	101324.999999992
1.119869869869869 	299.9999999999137 	5.449262231384355e-12 	101324.9999999922
1.122372372372372 	299.9999999999527 	6.400854742198421e-12 	101324.9999999922
1.124874874874874 	299.9999999999469 	5.475900327228846e-12 	101324.9999999921
1.127377377377377 	299.9999999999633 	6.094534406944634e-12 	101324.9999999923
1.129879879879879 	300.0000000000234 	5.372248551328058e-12 	101324.9999999924
1.132382382382382 	300.0000000000281 	5.962938769712826e-12 	101324.9999999925
1.134884884884884 	300.000000000003 	5.950411416991391e-12 	101324.9999999923
1.137387387387387 	300.0000000000203 	6.205486049814383e-12 	101324.999999992
1.139889889889889 	299.9999999999518 	7.324047745672899e-12 	101324.9999999919
1.142392392392392 	299.9999999999364 	6.385152218981743e-12 	101324.9999999918
1.144894894894894 	300.0000000000167 	7.315362713675653e-12 	101324.9999999917
1.147397397397397 	300.0000000000025 	6.138440060190885e-12 	101324.9999999917
1.149899899899899 	299.9999999999295 	6.912477613270114e-12 	101324.9999999918
1.152402402402402 	299.9999999999144 	5.847071751133324e-12 	101324.9999999918
1.154904904904904 	299.9999999999701 	6.346811040622031e-12 	101324.9999999917
1.157407407407407 	299.9999999999717 	5.771879045963353e-12 	101324.9999999916
1.159909909909909 	299.9999999999279 	5.95980338742225e-12 	101324.9999999918
1.162412412412412 	299.9999999999109 	7.424516644357953e-12 	101324.999999992
1.164914914914914 	299.9999999999546 	6.86436374195419e-12 	101324.9999999921
1.167417417417417 	299.9999999999625 	8.482627057168682e-12 	101324.9999999921
1.169919919919919 	300.0000000000132 	7.574036239088449e-12 	101324.999999992
1.172422422422422 	300.0000000000391 	8.258369997793961e-12 	101324.9999999919
1.174924924924925 	299.999999999982 	7.364392850305374e-12 	101324.9999999919
1.177427427427427 	299.9999999999581 	8.117085572731123e-12 	101324.9999999918
1.179929929929929 	300.0000000000045 	8.750732510975845e-12 	101324.9999999919
1.182432432432432 	300.0000000000289 	7.01380493616842e-12 	101324.9999999919
1.184934934934934 	299.99999999999 	7.832819398212717e-12 	101324.9999999918
1.187437437437437 	299.9999999999658 	7.333245763670848e-12 	101324.9999999919
1.189939939939939 	299.9999999999624 	8.187775968540851e-12 	101324.999999992
1.192442442442442 	299.9999999999094 	6.948322587862055e-12 	101324.9999999922
1.194944944944944 	299.9999999999227 	7.382226261169839e-12 	101324.9999999923
1.197447447447447 	300.0000000000002 	6.365884813411979e-12 	101324.9999999922
1.199949949949949 	300.0000000000085 	5.867174375991059e-12 	101324.9999999921
1.202452452452452 	299.9999999999395 	6.705065211196709e-12 	101324.9999999919
1.204954954954955 	299.9999999999393 	6.460846054869624e-12 	101324.9999999918
1.207457457457457 	299.9999999999895 	7.98872689932626e-12 	101324.9999999915
1.20995995995996 	299.9999999999781 	6.962144675541568e-12 	101324.9999999915
1.212462462462462 	299.9999999999709 	7.630814583399673e-12 	101324.9999999916
1.214964964964964 	299.9999999999735 	6.82107493180893e-12 	101324.9999999916
1.217467467467467 	299.9999999999746 	7.833478997903523e-12 	101324.9999999916
1.219969969969969 	299.9999999999653 	7.257349519697844e-12 	101324.9999999916
1.222472472472472 	300.0000000000142 	7.830002749036622e-12 	101324.9999999916
1.224974974974975 	300.0000000000288 	8.365402598760124e-12 	101324.9999999915
1.227477477477477 	299.9999999999858 	7.364276588902321e-12 	101324.9999999915
1.229979979979979 	299.999999999989 	8.734033449266526e-12 	101324.9999999915
1.232482482482482 	299.9999999999486 	8.116140910526392e-12 	101324.9999999916
1.234984984984984 	299.9999999999385 	9.29932864589442e-12 	101324.9999999916
1.237487487487487 	299.9999999999783 	7.80749653911722e-12 	101324.9999999914
1.239989989989989 	299.9999999999909 	7.980565558460535e-12 	101324.9999999914
1.242492492492492 	300.0000000000312 	8.040420166158034e-12 	101324.9999999915
1.244994994994994 	299.9999999999962 	6.881451934469415e-12 	101324.9999999916
1.247497497497497 	300.0000000000014 	7.738145305322251e-12 	101324.9999999918
1.249999999999999 	300.000000000057 	7.001242929163413e-12 	101324.9999999918
