-1.25 	349.9013364214141 	0.003259907054958626 	101325.013194689
-1.247497497497497 	300.0862858096631 	0.003177783661079898 	101325.0125795675
-1.244994994994995 	300.0011571539717 	0.002955055891620838 	101325.0128625179
-1.242492492492492 	300.0000216085178 	0.002739224607353088 	101325.0136460992
-1.23998998998999 	300.0000108166173 	0.002526422600947906 	101325.0126907519
-1.237487487487487 	300.0000120027827 	0.002319709241734977 	101325.0142351226
-1.234984984984985 	300.0000105969553 	0.002118062138611033 	101325.0124917616
-1.232482482482482 	300.0000121303847 	0.001926064625312897 	101325.0143714057
-1.22997997997998 	300.0000103811599 	0.00174022889311245 	101325.0122469573
-1.227477477477477 	300.0000121104774 	0.001566347535463762 	101325.0143404953
-1.224974974974975 	300.0000103672903 	0.001398984848368091 	101325.01223775
-1.222472472472472 	300.0000122030711 	0.001245436889782999 	101325.0144473119
-1.21996996996997 	300.000010596231 	0.001097617226212693 	101325.0125165392
-1.217467467467467 	300.0000124997266 	0.0009649444442637431 	101325.0147903998
-1.214964964964965 	300.0000111581105 	0.0008375608981506591 	101325.0131823181
-1.212462462462462 	300.0000130706834 	0.0007249399883454865 	101325.0154569471
-1.20995995995996 	300.0000117834047 	0.000617418488405057 	101325.0139240297
-1.207457457457457 	300.000013286793 	0.0005240600910361146 	101325.0157130053
-1.204954954954955 	300.0000120069733 	0.0004347422342189194 	101325.0141959338
-1.202452452452452 	300.0000133061044 	0.0003587877410414969 	101325.0157314564
-1.19994994994995 	300.0000120668766 	0.0002841225929413046 	101325.0142662568
-1.197447447447447 	300.0000135207625 	0.0002201713600179281 	101325.0159791555
-1.194944944944945 	300.0000118216798 	0.0001550396973623999 	101325.0139757092
-1.192442442442442 	300.0000137191274 	0.0001011796955318783 	101325.0162132989
-1.18993993993994 	300.0000116299747 	5.954491433208538e-05 	101325.0137592181
-1.187437437437437 	300.0000139213926 	1.513389421567367e-05 	101325.0164548179
-1.184934934934935 	300.0000117315285 	6.007378274102181e-05 	101325.0138816179
-1.182432432432432 	300.0000143378562 	7.513601586271748e-05 	101325.0169400131
-1.17992992992993 	300.0000121654693 	0.0001066089419902519 	101325.0143912335
-1.177427427427427 	300.0000145696305 	0.0001143855180746721 	101325.0172094257
-1.174924924924925 	300.0000138053948 	0.0001164075867727805 	101325.0163323435
-1.172422422422422 	300.000014542874 	9.846856917621971e-05 	101325.0171777942
-1.16991991991992 	300.0000137540383 	8.719998536151613e-05 	101325.0162737868
-1.167417417417417 	300.0000141319726 	6.473073797063749e-05 	101325.0166961601
-1.164914914914915 	300.0000133375697 	5.034861279205839e-05 	101325.015782092
-1.162412412412412 	300.0000137144647 	4.704122473251737e-05 	101325.0161984086
-1.15990990990991 	300.0000133621749 	2.957632477051848e-05 	101325.015810324
-1.157407407407407 	300.0000138961138 	5.090529798562477e-05 	101325.0164134969
-1.154904904904904 	300.0000139553643 	2.943064960920837e-05 	101325.0165116843
-1.152402402402403 	300.0000144807008 	5.661013433971429e-05 	101325.0171059091
-1.1498998998999 	300.0000145968251 	6.848961063289291e-05 	101325.0172710374
-1.147397397397397 	300.0000149067075 	9.436903036020352e-05 	101325.0176113736
-1.144894894894895 	300.0000148841061 	0.0001044676501010957 	101325.0176094191
-1.142392392392392 	300.0000149362212 	0.0001281281931914487 	101325.017644292
-1.13988988988989 	300.0000148572863 	0.0001358411364876122 	101325.0175750121
-1.137387387387387 	300.0000147885987 	0.0001570374762422098 	101325.0174708259
-1.134884884884885 	300.0000148602069 	0.0001612308844601228 	101325.0175758866
-1.132382382382382 	300.0000148207497 	0.0001795944025762352 	101325.0175103624
-1.12987987987988 	300.0000150535367 	0.0001789764362555469 	101325.0178091888
-1.127377377377377 	300.00001503116 	0.0001927552442043539 	101325.0177609469
-1.124874874874875 	300.0000152076166 	0.0001838113286740455 	101325.0179866227
-1.122372372372372 	300.000015167679 	0.0001889059489226598 	101325.017924439
-1.11986986986987 	300.0000152186138 	0.0001747042423887238 	101325.01799905
-1.117367367367367 	300.0000151188702 	0.0001779243214978058 	101325.0178660429
-1.114864864864865 	300.000015171907 	0.0001621252719745085 	101325.0179428912
-1.112362362362362 	300.0000151622556 	0.0001650819653177797 	101325.0179194836
-1.10985985985986 	300.0000153565712 	0.0001478421002402277 	101325.0181612873
-1.107357357357357 	300.0000155052516 	0.0001513543515482214 	101325.0183253484
-1.104854854854855 	300.0000157875032 	0.0001329993232856001 	101325.0186684429
-1.102352352352353 	300.0000159306076 	0.0001370260946512372 	101325.0188273138
-1.09984984984985 	300.000016086422 	0.0001184170022017619 	101325.019019949
-1.097347347347347 	300.0000160250402 	0.0001224611441507425 	101325.0189388613
-1.094844844844845 	300.0000159622004 	0.0001042759625410897 	101325.0188727195
-1.092342342342342 	300.0000157470479 	0.000108329584418745 	101325.0186127941
-1.08983983983984 	300.0000156486801 	9.034760791539861e-05 	101325.0185041048
-1.087337337337337 	300.000015546842 	9.517992384542937e-05 	101325.0183782502
-1.084834834834835 	300.0000156523155 	7.665251260945946e-05 	101325.0185073204
-1.082332332332332 	300.0000158077142 	8.30259036572378e-05 	101325.0186859359
-1.07982982982983 	300.0000161077136 	6.36923567934257e-05 	101325.0190433495
-1.077327327327327 	300.0000163630569 	7.154053620410123e-05 	101325.0193413214
-1.074824824824825 	300.0000166092586 	5.201666847343591e-05 	101325.0196352891
-1.072322322322323 	300.0000166924622 	6.058291905749601e-05 	101325.0197315011
-1.06981981981982 	300.0000166893842 	4.372341935355746e-05 	101325.0197303525
-1.067317317317317 	300.0000165361176 	5.197468325003018e-05 	101325.0195473656
-1.064814814814815 	300.0000163697667 	4.375973375477247e-05 	101325.0193522839
-1.062312312312312 	300.0000161841427 	5.00834724453604e-05 	101325.0191315904
-1.05980980980981 	300.0000160996045 	4.387255349722816e-05 	101325.01903303
-1.057307307307307 	300.0000160908585 	4.903610009650972e-05 	101325.0190222916
-1.054804804804805 	300.0000161984747 	4.492532797661975e-05 	101325.019150211
-1.052302302302302 	300.0000163564048 	4.91001596449319e-05 	101325.0193359403
-1.0497997997998 	300.0000165445608 	4.653997734744418e-05 	101325.0195586685
-1.047297297297297 	300.0000166969841 	4.948229185896238e-05 	101325.019738868
-1.044794794794795 	300.0000168000126 	4.777698879134673e-05 	101325.0198609578
-1.042292292292292 	300.0000168324083 	4.94074923389795e-05 	101325.0198991827
-1.03978978978979 	300.0000168129056 	4.82141963171033e-05 	101325.0198761553
-1.037287287287287 	300.0000167559668 	4.885416384275209e-05 	101325.0198084224
-1.034784784784785 	300.0000166853649 	4.813597362573819e-05 	101325.0197246628
-1.032282282282283 	300.0000166126156 	4.821876740403897e-05 	101325.0196389249
-1.02977977977978 	300.0000165438007 	4.790540862539458e-05 	101325.0195577063
-1.027277277277277 	300.0000164800983 	4.77108847149462e-05 	101325.0194823988
-1.024774774774775 	300.0000164231716 	4.764495300012927e-05 	101325.0194148479
-1.022272272272272 	300.0000163825001 	4.739357037175537e-05 	101325.0193667226
-1.01976976976977 	300.0000163709858 	4.75166154227691e-05 	101325.0193535552
-1.017267267267267 	300.0000164040286 	4.748723715326002e-05 	101325.0193934294
-1.014764764764765 	300.0000164877429 	4.780584254570926e-05 	101325.0194927548
-1.012262262262262 	300.000016612422 	4.812500039951467e-05 	101325.0196396981
-1.00975975975976 	300.0000167483641 	4.850654922834271e-05 	101325.0197994312
-1.007257257257257 	300.0000168540578 	4.879563538706952e-05 	101325.019923604
-1.004754754754755 	300.000016891481 	4.889765921313832e-05 	101325.0199679156
-1.002252252252252 	300.0000168415991 	4.875909022852798e-05 	101325.019909921
-0.9997497497497498 	300.0000167135883 	4.84017821374056e-05 	101325.0197594264
-0.9972472472472473 	300.000016542661 	4.792481183610402e-05 	101325.0195571811
-0.9947447447447449 	300.0000163778601 	4.746229607347426e-05 	101325.0193612702
-0.9922422422422421 	300.0000162653179 	4.714357642672907e-05 	101325.0192270451
-0.9897397397397399 	300.000016232473 	4.704942968971661e-05 	101325.0191882053
-0.9872372372372376 	300.0000162796902 	4.717849909718105e-05 	101325.01924529
-0.9847347347347346 	300.0000163808513 	4.745955475111792e-05 	101325.0193664716
-0.9822322322322323 	300.0000164940126 	4.777361614565716e-05 	101325.0195007395
-0.9797297297297296 	300.0000165762036 	4.799725537863878e-05 	101325.0195969575
-0.9772272272272275 	300.0000165971062 	4.805139176282801e-05 	101325.0196200825
-0.9747247247247248 	300.0000165466311 	4.790724518117328e-05 	101325.019559387
-0.9722222222222224 	300.0000164349027 	4.759273158302638e-05 	101325.0194277346
-0.9697197197197196 	300.0000162865746 	4.717798037379714e-05 	101325.0192537022
-0.9672172172172175 	300.0000161304771 	4.673846671891213e-05 	101325.0190706094
-0.9647147147147147 	300.0000159918204 	4.63444690584114e-05 	101325.0189073937
-0.9622122122122124 	300.0000158877291 	4.604591128566199e-05 	101325.0187840775
-0.9597097097097099 	300.0000158268243 	4.586621629324021e-05 	101325.0187111043
-0.9572072072072073 	300.0000158102116 	4.581361879733026e-05 	101325.0186902865
-0.9547047047047047 	300.0000158325527 	4.587173349425951e-05 	101325.0187155078
-0.9522022022022023 	300.0000158814296 	4.600389151821827e-05 	101325.0187727305
-0.9496996996996998 	300.000015939019 	4.616309762010076e-05 	101325.0188406052
-0.9471971971971973 	300.0000159838202 	4.62853117644163e-05 	101325.0188934173
-0.9446946946946947 	300.0000159948862 	4.631155309416424e-05 	101325.0189065493
-0.9421921921921923 	300.0000159581724 	4.620460552268791e-05 	101325.018863022
-0.93968968968969 	300.0000158704477 	4.595294593029732e-05 	101325.0187591634
-0.9371871871871872 	300.0000157420253 	4.558920211515678e-05 	101325.0186074147
-0.9346846846846848 	300.0000155955177 	4.517696440173754e-05 	101325.0184345662
-0.9321821821821823 	300.0000154602476 	4.479484296265574e-05 	101325.0182750491
-0.9296796796796799 	300.0000153635273 	4.452300915440479e-05 	101325.0181610571
-0.9271771771771771 	300.0000153222483 	4.440555825149729e-05 	101325.0181126819
-0.9246746746746748 	300.00001533784 	4.444443375756189e-05 	101325.0181313662
-0.9221721721721724 	300.0000153950412 	4.46007143353057e-05 	101325.01819906
-0.9196696696696698 	300.0000154663701 	4.479605396160299e-05 	101325.0182834959
-0.9171671671671672 	300.0000155206043 	4.494316711531498e-05 	101325.0183476392
-0.9146646646646649 	300.0000155311442 	4.496786673803341e-05 	101325.0183598172
-0.9121621621621623 	300.0000154820701 	4.482394965603314e-05 	101325.0183016029
-0.9096596596596597 	300.000015372134 	4.451074980528916e-05 	101325.0181717104
-0.9071571571571573 	300.0000152143333 	4.406251175963941e-05 	101325.0179851186
-0.9046546546546547 	300.0000150306646 	4.353859909456504e-05 	101325.0177680007
-0.9021521521521524 	300.0000148462247 	4.301387841650689e-05 	101325.0175502339
-0.8996496496496498 	300.0000146834275 	4.254805324606194e-05 	101325.0173579247
-0.8971471471471473 	300.0000145567043 	4.218187745186712e-05 	101325.0172081378
-0.894644644644645 	300.0000144708418 	4.193275794565812e-05 	101325.0171067542
-0.892142142142142 	300.0000144219828 	4.178741018481829e-05 	101325.0170491577
-0.8896396396396397 	300.0000143996357 	4.171826441306043e-05 	101325.0170228981
-0.8871371371371374 	300.0000143895358 	4.168486490534907e-05 	101325.0170112316
-0.8846346346346349 	300.0000143771562 	4.164294500504432e-05 	101325.0169966111
-0.8821321321321324 	300.000014349268 	4.155914455964934e-05 	101325.0169634898
-0.8796296296296297 	300.0000142957775 	4.140254001009586e-05 	101325.0169001984
-0.8771271271271271 	300.0000142110785 	4.115612798201187e-05 	101325.0168001221
-0.8746246246246248 	300.0000140945904 	4.082087007069951e-05 	101325.0166623891
-0.8721221221221224 	300.0000139503545 	4.040582201404404e-05 	101325.0164918663
-0.8696196196196196 	300.0000137867099 	3.993579646205659e-05 	101325.0162983628
-0.8671171171171175 	300.0000136148606 	3.94427500651051e-05 	101325.0160951268
-0.8646146146146148 	300.0000134469112 	3.896006125001556e-05 	101325.0158968144
-0.8621121121121121 	300.0000132949568 	3.852432422568247e-05 	101325.0157173523
-0.8596096096096097 	300.0000131687883 	3.816141740056375e-05 	101325.0155681935
-0.857107107107107 	300.000013074965 	3.788973039905866e-05 	101325.0154572459
-0.8546046046046049 	300.0000130169984 	3.772175572337871e-05 	101325.0153884679
-0.8521021021021022 	300.0000129946075 	3.765546657074366e-05 	101325.0153618316
-0.8495995995995997 	300.0000130043359 	3.76818507146505e-05 	101325.0153735037
-0.8470970970970974 	300.0000130401582 	3.778404826096929e-05 	101325.0154162433
-0.8445945945945946 	300.0000130939702 	3.793556945467715e-05 	101325.0154798889
-0.8420920920920922 	300.0000131554063 	3.810877788736797e-05 	101325.0155520573
-0.8395895895895897 	300.0000132126088 	3.826977251896769e-05 	101325.015619265
-0.8370870870870872 	300.0000132543203 	3.838518342990373e-05 	101325.0156683313
-0.8345845845845846 	300.000013270786 	3.843079292053427e-05 	101325.0156878569
-0.8320820820820823 	300.0000132549488 	3.838472340313184e-05 	101325.0156696105
-0.8295795795795798 	300.0000132036766 	3.823749547939479e-05 	101325.0156095241
-0.8270770770770772 	300.0000131177341 	3.7991185118003e-05 	101325.0155081232
-0.8245745745745746 	300.0000130011133 	3.765547135258753e-05 	101325.0153703212
-0.8220720720720721 	300.0000128611027 	3.725351701365621e-05 	101325.0152046014
-0.8195695695695699 	300.0000127066871 	3.68095309157697e-05 	101325.0150217759
-0.817067067067067 	300.0000125473965 	3.635035744833911e-05 	101325.0148334442
-0.8145645645645651 	300.0000123924225 	3.590455817428481e-05 	101325.0146502979
-0.8120620620620621 	300.0000122489994 	3.54900866926478e-05 	101325.0144806415
-0.8095595595595597 	300.0000121210344 	3.511962896953981e-05 	101325.0143294013
-0.8070570570570572 	300.0000120094617 	3.479659307334656e-05 	101325.0141977684
-0.8045545545545546 	300.0000119128492 	3.451473771776338e-05 	101325.014083599
-0.8020520520520523 	300.0000118276459 	3.426568668804583e-05 	101325.0139823944
-0.7995495495495494 	300.0000117488266 	3.403435963302606e-05 	101325.0138885486
-0.7970470470470474 	300.0000116713559 	3.380691774572931e-05 	101325.0137966107
-0.7945445445445446 	300.0000115914286 	3.357535295707903e-05 	101325.0137022244
-0.7920420420420423 	300.0000115065353 	3.333106049887973e-05 	101325.0136026053
-0.7895395395395397 	300.0000114158815 	3.307150087407699e-05 	101325.0134965701
-0.7870370370370371 	300.0000113200567 	3.279661777538622e-05 	101325.0133841793
-0.7845345345345348 	300.0000112202577 	3.250733720710728e-05 	101325.01326624
-0.7820320320320323 	300.0000111176117 	3.220827082479385e-05 	101325.0131439061
-0.7795295295295296 	300.0000110126201 	3.190128603133672e-05 	101325.0130184538
-0.7770270270270272 	300.000010906048 	3.15891822310321e-05 	101325.0128912508
-0.7745245245245247 	300.000010798594 	3.127741696952185e-05 	101325.0127637823
-0.7720220220220222 	300.0000106915234 	3.096869943882729e-05 	101325.0126376299
-0.7695195195195199 	300.0000105863148 	3.066744770832846e-05 	101325.0125143644
-0.767017017017017 	300.0000104847277 	3.037652584111321e-05 	101325.0123952995
-0.7645145145145147 	300.0000103876818 	3.009665748453971e-05 	101325.0122811129
-0.7620120120120122 	300.0000102947689 	2.982817282220853e-05 	101325.0121715526
-0.7595095095095097 	300.0000102045819 	2.956763924989141e-05 	101325.0120654487
-0.7570070070070072 	300.0000101156273 	2.931076414076653e-05 	101325.0119610489
-0.7545045045045048 	300.0000100264303 	2.905438522087918e-05 	101325.0118565829
-0.7520020020020022 	300.0000099360308 	2.879480122238566e-05 	101325.0117508355
-0.7494994994994997 	300.0000098449997 	2.853229945276664e-05 	101325.0116435605
-0.7469969969969972 	300.0000097543012 	2.826843968731021e-05 	101325.0115355841
-0.7444944944944945 	300.0000096649511 	2.800669275775616e-05 	101325.0114285841
-0.7419919919919924 	300.0000095783383 	2.775275673647141e-05 	101325.0113245992
-0.7394894894894897 	300.0000094953071 	2.751013384520204e-05 	101325.0112254211
-0.7369869869869872 	300.0000094168188 	2.728135397018039e-05 	101325.0111320978
-0.7344844844844846 	300.0000093426963 	2.706689701547655e-05 	101325.0110446482
-0.7319819819819822 	300.00000927224 	2.686278002297297e-05 	101325.0109618089
-0.7294794794794797 	300.0000092030014 	2.666308993055759e-05 	101325.0108807553
-0.7269769769769773 	300.0000091315712 	2.645662346106817e-05 	101325.0107971149
-0.7244744744744747 	300.0000090535542 	2.62300519337751e-05 	101325.0107055712
-0.721971971971972 	300.0000089649116 	2.597302378901926e-05 	101325.0106010251
-0.7194694694694695 	300.0000088633025 	2.567642548691425e-05 	101325.0104800632
-0.7169669669669674 	300.0000087481909 	2.533992102901049e-05 	101325.0103424332
-0.7144644644644647 	300.0000086227711 	2.497369502295382e-05 	101325.0101919648
-0.711961961961962 	300.0000084928108 	2.45956919913599e-05 	101325.0100364089
-0.7094594594594597 	300.0000083663496 	2.423108824300659e-05 	101325.0098860216
-0.7069569569569573 	300.0000082521909 	2.390360314029558e-05 	101325.0097512087
-0.7044544544544545 	300.0000081572015 	2.363116693493821e-05 	101325.0096397798
-0.7019519519519523 	300.0000080841648 	2.342174392108235e-05 	101325.0095546102
-0.6994494494494495 	300.0000080307276 	2.326696974323896e-05 	101325.0094925914
-0.6969469469469471 	300.0000079901066 	2.314704700043709e-05 	101325.0094452139
-0.6944444444444446 	300.0000079518372 	2.303304135809843e-05 	101325.0094004364
-0.6919419419419421 	300.0000079048986 	2.289387269800651e-05 	101325.0093452691
-0.6894394394394396 	300.0000078395402 	2.270456761064884e-05 	101325.0092686967
-0.6869369369369374 	300.000007750845 	2.244908650184927e-05 	101325.0091643897
-0.6844344344344344 	300.0000076386817 	2.212760072631814e-05 	101325.0090322617
-0.6819319319319321 	300.0000075081639 	2.175398543277233e-05 	101325.0088783512
-0.6794294294294296 	300.000007368743 	2.135351868079694e-05 	101325.0087133884
-0.6769269269269272 	300.0000072313944 	2.095862561543559e-05 	101325.0085505286
-0.6744244244244245 	300.0000071068848 	2.059786358781391e-05 	101325.0084023574
-0.6719219219219222 	300.0000070019985 	2.029275072903089e-05 	101325.0082776108
-0.6694194194194195 	300.0000069189254 	2.004897192698232e-05 	101325.0081787739
-0.6669169169169172 	300.0000068538105 	1.985711018091732e-05 	101325.0081017502
-0.6644144144144146 	300.000006799014 	1.969704331468179e-05 	101325.0080375838
-0.661911911911912 	300.0000067454913 	1.954032150178196e-05 	101325.0079749857
-0.6594094094094097 	300.0000066841383 	1.936146835626013e-05 	101325.0079029285
-0.656906906906907 	300.000006608292 	1.914110356210838e-05 	101325.0078134136
-0.6544044044044046 	300.0000065159874 	1.88738879694899e-05 	101325.0077040241
-0.6519019019019021 	300.0000064104547 	1.857001868301099e-05 	101325.0075787668
-0.6493993993993996 	300.0000062986182 	1.824769840444276e-05 	101325.0074461018
-0.6468968968968971 	300.0000061880825 	1.792914869636379e-05 	101325.0073152159
-0.6443943943943946 	300.0000060848612 	1.763046510406435e-05 	101325.0071930044
-0.6418918918918921 	300.0000059922615 	1.736085952666902e-05 	101325.0070830052
-0.6393893893893897 	300.0000059103924 	1.71213520235539e-05 	101325.0069854621
-0.6368868868868871 	300.0000058365924 	1.690429198947958e-05 	101325.0068975677
-0.6343843843843846 	300.0000057661033 	1.669760989585556e-05 	101325.0068140545
-0.6318818818818821 	300.000005693422 	1.648693693644006e-05 	101325.0067288079
-0.6293793793793795 	300.0000056150789 	1.626181881523334e-05 	101325.0066371692
-0.6268768768768773 	300.0000055294697 	1.601671595967696e-05 	101325.0065370665
-0.6243743743743745 	300.0000054370167 	1.575059919885599e-05 	101325.006428352
-0.6218718718718721 	300.0000053388048 	1.546653099689416e-05 	101325.0063120474
-0.6193693693693696 	300.0000052359796 	1.516934295585266e-05 	101325.006190357
-0.6168668668668671 	300.0000051318984 	1.48682514638303e-05 	101325.0060668389
-0.6143643643643645 	300.000005029739 	1.457343946155803e-05 	101325.005945976
-0.6118618618618621 	300.0000049323437 	1.42922836571695e-05 	101325.0058313143
-0.6093593593593596 	300.0000048408068 	1.402742062255359e-05 	101325.0057235626
-0.6068568568568571 	300.0000047537702 	1.377433390983784e-05 	101325.0056208546
-0.6043543543543546 	300.0000046692618 	1.352787677566646e-05 	101325.0055205527
-0.6018518518518521 	300.0000045857307 	1.328399623785522e-05 	101325.0054208974
-0.5993493493493496 	300.0000045023604 	1.304066998844431e-05 	101325.0053214812
-0.5968468468468471 	300.000004418707 	1.279750434959158e-05 	101325.00522217
-0.5943443443443446 	300.0000043343059 	1.255328625565125e-05 	101325.0051225289
-0.591841841841842 	300.0000042491435 	1.230875306565661e-05 	101325.005022618
-0.5893393393393397 	300.0000041646796 	1.2066744247398e-05 	101325.0049235954
-0.5868368368368371 	300.0000040824404 	1.182933853873031e-05 	101325.0048268331
-0.5843343343343346 	300.00000400149 	1.159296780360544e-05 	101325.0047313407
-0.5818318318318321 	300.0000039171706 	1.134537668838536e-05 	101325.0046316679
-0.5793293293293297 	300.0000038219908 	1.106753808371836e-05 	101325.0045192859
-0.5768268268268271 	300.000003710664 	1.074529248657744e-05 	101325.004387614
-0.5743243243243245 	300.0000035832622 	1.037935067760374e-05 	101325.0042367618
-0.5718218218218221 	300.0000034474882 	9.989791608619672e-06 	101325.0040758111
-0.5693193193193196 	300.0000033165159 	9.612837350797982e-06 	101325.0039200866
-0.5668168168168171 	300.0000032028024 	9.284378748765027e-06 	101325.0037847889
-0.5643143143143147 	300.0000031143844 	9.02669541893826e-06 	101325.0036793362
-0.5618118118118121 	300.0000030518977 	8.84052300604073e-06 	101325.003604498
-0.5593093093093094 	300.0000030080965 	8.707844582964726e-06 	101325.0035523588
-0.5568068068068072 	300.000002972627 	8.601859059063202e-06 	101325.0035107741
-0.5543043043043046 	300.0000029355883 	8.493805676584968e-06 	101325.0034678636
-0.551801801801802 	300.000002888668 	8.35977909401526e-06 	101325.0034138002
-0.5492992992992995 	300.0000028266794 	8.182230825910161e-06 	101325.0033416292
-0.5467967967967969 	300.0000027457257 	7.948235223288946e-06 	101325.0032468521
-0.5442942942942947 	300.0000026437599 	7.654995368940935e-06 	101325.0031269403
-0.5417917917917919 	300.0000025223603 	7.307940268281222e-06 	101325.0029838925
-0.5392892892892895 	300.0000023881322 	6.922883936334268e-06 	101325.0028253539
-0.536786786786787 	300.0000022512176 	6.530301691517658e-06 	101325.0026634215
-0.5342842842842846 	300.0000021238831 	6.164112281073312e-06 	101325.0025128333
-0.531781781781782 	300.0000020177122 	5.857823848438749e-06 	101325.002387167
-0.5292792792792794 	300.0000019392767 	5.631019927427518e-06 	101325.0022939482
-0.526776776776777 	300.0000018881974 	5.478705890665475e-06 	101325.0022328405
-0.5242742742742745 	300.000001856178 	5.377537976955992e-06 	101325.002193884
-0.521771771771772 	300.0000018281855 	5.286978825054662e-06 	101325.0021596083
-0.5192692692692695 	300.0000017881654 	5.164575272593748e-06 	101325.0021114033
-0.516766766766767 	300.0000017242306 	4.975398772536619e-06 	101325.0020348464
-0.5142642642642645 	300.0000016293152 	4.699507102666819e-06 	101325.0019221098
-0.511761761761762 	300.0000015058952 	4.343957224969984e-06 	101325.0017759062
-0.5092592592592596 	300.0000013631914 	3.933763744047566e-06 	101325.001607221
-0.506756756756757 	300.0000012147052 	3.510742582053298e-06 	101325.0014323215
-0.5042542542542544 	300.0000010758375 	3.117007580201801e-06 	101325.0012689268
-0.5017517517517521 	300.0000009586009 	2.781188998183392e-06 	101325.0011313843
-0.4992492492492494 	300.000000868423 	2.523297021849932e-06 	101325.001025954
-0.496746746746747 	300.0000008051596 	2.339857366764617e-06 	101325.0009523374
-0.4942442442442445 	300.0000007617033 	2.211897881146523e-06 	101325.0009019215
-0.4917417417417421 	300.0000007265133 	2.109369670755474e-06 	101325.0008610354
-0.4892392392392395 	300.000000687541 	1.992675596775831e-06 	101325.0008153894
-0.486736736736737 	300.0000006345549 	1.835463136404446e-06 	101325.0007530512
-0.4842342342342345 	300.0000005602523 	1.619559728989264e-06 	101325.0006653888
-0.481731731731732 	300.0000004645732 	1.342224285794482e-06 	101325.0005519338
-0.4792292292292296 	300.0000003506563 	1.015344490994958e-06 	101325.0004170725
-0.4767267267267268 	300.0000002259045 	6.558065416837984e-07 	101325.0002694722
-0.4742242242242246 	300.0000000996491 	2.918884182965912e-07 	101325.0001197527
-0.471721721721722 	299.9999999798191 	1.35341183918286e-07 	101324.9999778547
-0.4692192192192195 	299.9999998760357 	3.500152846930475e-07 	101324.9998547933
-0.4667167167167169 	299.9999997932234 	5.890742141390947e-07 	101324.9997567341
-0.4642142142142145 	299.9999997306081 	7.739536756010157e-07 	101324.9996822094
-0.461711711711712 	299.9999996813462 	9.194097961061047e-07 	101324.9996237443
-0.4592092092092094 	299.9999996374004 	1.049597700768992e-06 	101324.9995716516
-0.456706706706707 	299.9999995919163 	1.184078429496292e-06 	101324.9995177078
-0.4542042042042045 	299.9999995397725 	1.335622282516102e-06 	101324.9994562948
-0.451701701701702 	299.9999994781566 	1.516084917830356e-06 	101324.9993834095
-0.4491991991991995 	299.9999994037203 	1.732846970293896e-06 	101324.9992953722
-0.4466966966966969 	299.9999993135736 	1.994910360989523e-06 	101324.9991887411
-0.4441941941941945 	299.9999992065744 	2.304303119534842e-06 	101324.9990619956
-0.441691691691692 	299.9999990849801 	2.653414686892685e-06 	101324.9989182478
-0.4391891891891895 	299.9999989571231 	3.020070459935665e-06 	101324.9987669491
-0.436686686686687 	299.9999988351148 	3.367869603409542e-06 	101324.9986228142
-0.4341841841841846 	299.9999987330413 	3.659515126094304e-06 	101324.9985021681
-0.431681681681682 	299.9999986614674 	3.86401309369884e-06 	101324.9984178123
-0.4291791791791794 	299.9999986239204 	3.974761086695117e-06 	101324.9983735699
-0.426676676676677 	299.9999986132545 	4.011951513892192e-06 	101324.9983610581
-0.4241741741741744 	299.999998613789 	4.017698274972351e-06 	101324.998361514
-0.421671671671672 	299.9999986064255 	4.045390517783852e-06 	101324.9983525985
-0.4191691691691694 	299.9999985755915 	4.13825251419415e-06 	101324.9983158881
-0.4166666666666669 	299.9999985132412 	4.319155091989464e-06 	101324.9982419876
-0.4141641641641645 	299.9999984205544 	4.584111720886816e-06 	101324.9981325878
-0.411661661661662 	299.9999983076762 	4.906656040155609e-06 	101324.9979989166
-0.4091591591591594 	299.9999981876951 	5.249233657099772e-06 	101324.9978570962
-0.406656656656657 	299.9999980739941 	5.574364741728377e-06 	101324.9977228537
-0.4041541541541545 	299.9999979771129 	5.853227852564989e-06 	101324.997608178
-0.401651651651652 	299.9999979024953 	6.06741189710239e-06 	101324.9975203751
-0.3991491491491494 	299.9999978533794 	6.20993178467758e-06 	101324.9974623423
-0.396646646646647 	299.9999978278399 	6.285043691977216e-06 	101324.9974325298
-0.3941441441441444 	299.9999978206296 	6.309015909952998e-06 	101324.997424257
-0.3916416416416419 	299.9999978213428 	6.310826284194002e-06 	101324.997425567
-0.3891391391391395 	299.9999978171257 	6.327347181518296e-06 	101324.9974207988
-0.3866366366366368 	299.9999977942571 	6.396985809851612e-06 	101324.9973939084
-0.3841341341341344 	299.999997742871 	6.547422424182103e-06 	101324.9973330698
-0.381631631631632 	299.9999976601225 	6.784785276835477e-06 	101324.997235193
-0.3791291291291294 	299.9999975531866 	7.090128535443336e-06 	101324.9971083284
-0.3766266266266269 	299.9999974369264 	7.420597244719653e-06 	101324.9969704442
-0.3741241241241244 	299.9999973305552 	7.723571655498043e-06 	101324.9968441869
-0.371621621621622 	299.9999972510235 	7.951454777423994e-06 	101324.9967497717
-0.3691191191191194 	299.9999972082479 	8.076334757858945e-06 	101324.9966988107
-0.366616616616617 	299.9999972015531 	8.100338993002264e-06 	101324.9966906361
-0.3641141141141143 	299.9999972200568 	8.052778707683554e-06 	101324.9967125118
-0.3616116116116119 	299.9999972469375 	7.98135919983016e-06 	101324.9967442751
-0.3591091091091095 	299.9999972644198 	7.935820341887315e-06 	101324.9967650034
-0.356606606606607 	299.9999972586496 	7.954499492085695e-06 	101324.9967584683
-0.3541041041041044 	299.9999972229563 	8.057005278705557e-06 	101324.9967165569
-0.3516016016016019 	299.9999971583587 	8.240355902594533e-06 	101324.9966404794
-0.3490990990990994 	299.9999970728893 	8.482363221822651e-06 	101324.9965397903
-0.346596596596597 	299.9999969796418 	8.746896849138041e-06 	101324.9964297128
-0.3440940940940944 	299.9999968928265 	8.993244666469888e-06 	101324.9963272571
-0.3415915915915919 	299.9999968252023 	9.185456811358364e-06 	101324.9962474993
-0.3390890890890895 	299.9999967855799 	9.298580613472168e-06 	101324.9962007587
-0.3365865865865869 	299.999996777176 	9.324547169443856e-06 	101324.9961906406
-0.3340840840840844 	299.9999967962926 	9.272656480398712e-06 	101324.9962131825
-0.3315815815815819 	299.9999968338327 	9.169138924508041e-06 	101324.9962574043
-0.3290790790790794 	299.9999968761539 	9.052249902066238e-06 	101324.996307395
-0.3265765765765769 	299.9999969083482 	8.963193292602685e-06 	101324.9963456363
-0.3240740740740744 	299.9999969181369 	8.938285808111983e-06 	101324.9963570033
-0.3215715715715718 	299.9999968975245 	8.998005712848825e-06 	101324.9963325981
-0.3190690690690695 	299.9999968465222 	9.142395973923887e-06 	101324.9962724783
-0.3165665665665668 	299.9999967737894 	9.34838855925059e-06 	101324.9961863371
-0.3140640640640644 	299.9999966935708 	9.574451234028238e-06 	101324.9960914319
-0.311561561561562 	299.9999966228599 	9.77338476782136e-06 	101324.9960079827
-0.3090590590590593 	299.9999965773573 	9.901360670478483e-06 	101324.9959539447
-0.3065565565565568 	299.9999965661532 	9.933417043791668e-06 	101324.9959405642
-0.3040540540540545 	299.9999965906486 	9.866025980651275e-06 	101324.9959694183
-0.3015515515515518 	299.9999966437674 	9.717455407037146e-06 	101324.9960320531
-0.2990490490490494 	299.9999967113536 	9.527680820317986e-06 	101324.9961121486
-0.2965465465465469 	299.9999967770224 	9.343403551921714e-06 	101324.9961896926
-0.2940440440440444 	299.999996824568 	9.21002913093532e-06 	101324.9962458939
-0.2915415415415418 	299.9999968428683 	9.158545160194224e-06 	101324.9962675918
-0.2890390390390395 	299.999996828442 	9.198037790799355e-06 	101324.9962506088
-0.2865365365365368 	299.9999967863533 	9.315071660526884e-06 	101324.9962009839
-0.2840340340340343 	299.9999967289276 	9.475591239979474e-06 	101324.996133124
-0.2815315315315318 	299.9999966713717 	9.636548169402981e-06 	101324.9960653118
-0.2790290290290295 	299.9999966284807 	9.756871823524329e-06 	101324.9960146174
-0.2765265265265269 	299.9999966105666 	9.80706567640449e-06 	101324.9959933159
-0.2740240240240244 	299.9999966225341 	9.772988023841496e-06 	101324.9960073742
-0.2715215215215219 	299.999996664026 	9.654901617375758e-06 	101324.9960564222
-0.2690190190190194 	299.9999967302868 	9.465570366274937e-06 	101324.9961348908
-0.2665165165165169 	299.9999968139218 	9.226674323983658e-06 	101324.9962335816
-0.2640140140140144 	299.9999969047752 	8.96694682678943e-06 	101324.9963410355
-0.2615115115115119 	299.9999969926168 	8.716660012748581e-06 	101324.9964447743
-0.2590090090090094 	299.999997067168 	8.503247286406231e-06 	101324.9965330815
-0.2565065065065068 	299.9999971213106 	8.348505725626295e-06 	101324.996596905
-0.2540040040040044 	299.9999971505423 	8.26351424259192e-06 	101324.9966314387
-0.2515015015015019 	299.999997155812 	8.246482049074514e-06 	101324.9966375446
-0.2489989989989994 	299.999997142497 	8.282226915549987e-06 	101324.9966217934
-0.2464964964964968 	299.999997119518 	8.344756184490762e-06 	101324.9965947783
-0.2439939939939944 	299.9999970977526 	8.404117840245252e-06 	101324.9965690307
-0.2414914914914919 	299.9999970865788 	8.434163953383885e-06 	101324.9965558908
-0.2389889889889893 	299.9999970919219 	8.418278893600725e-06 	101324.996562151
-0.2364864864864869 	299.9999971149359 	8.353026256363103e-06 	101324.996589234
-0.2339839839839843 	299.9999971524788 	8.245689919577829e-06 	101324.9966338395
-0.2314814814814819 	299.9999972002588 	8.109070279644971e-06 	101324.9966901785
-0.2289789789789792 	299.9999972532651 	7.955950478813761e-06 	101324.9967530165
-0.2264764764764769 	299.9999973091894 	7.794871905931115e-06 	101324.9968190407
-0.2239739739739743 	299.9999973662946 	7.630273516414871e-06 	101324.9968865202
-0.2214714714714718 	299.9999974244199 	7.461547368494843e-06 	101324.996955302
-0.2189689689689693 	299.9999974843388 	7.287182368931944e-06 	101324.9970260822
-0.2164664664664669 	299.9999975468858 	7.105734439473876e-06 	101324.9970999667
-0.2139639639639643 	299.9999976127973 	6.914280867131178e-06 	101324.9971780307
-0.2114614614614618 	299.9999976826092 	6.713759122140228e-06 	101324.9972604353
-0.2089589589589593 	299.9999977545965 	6.506231207985821e-06 	101324.9973454609
-0.2064564564564568 	299.9999978263234 	6.298557950526122e-06 	101324.9974302542
-0.2039539539539543 	299.9999978952468 	6.098840914690394e-06 	101324.9975119536
-0.2014514514514518 	299.9999979608394 	5.90890193375587e-06 	101324.9975893792
-0.1989489489489494 	299.9999980232739 	5.727908713634044e-06 	101324.9976631745
-0.1964464464464468 	299.9999980842372 	5.550980111567395e-06 	101324.9977351914
-0.1939439439439443 	299.9999981450109 	5.373728617329189e-06 	101324.9978070927
-0.1914414414414418 	299.9999982070586 	5.193066220327296e-06 	101324.997880638
-0.1889389389389393 	299.9999982721545 	5.004548449504585e-06 	101324.9979573653
-0.1864364364364368 	299.9999983411615 	4.804904426628698e-06 	101324.9980388205
-0.1839339339339343 	299.9999984145961 	4.591904757323319e-06 	101324.9981257798
-0.1814314314314318 	299.9999984924088 	4.367314666191946e-06 	101324.9982176667
-0.1789289289289293 	299.9999985721651 	4.136665206863339e-06 	101324.9983121497
-0.1764264264264268 	299.999998652124 	3.906151439940943e-06 	101324.9984064621
-0.1739239239239243 	299.9999987299385 	3.680384485623173e-06 	101324.9984986599
-0.1714214214214218 	299.9999988061717 	3.459609682869424e-06 	101324.9985886055
-0.1689189189189193 	299.9999988810045 	3.241952440594436e-06 	101324.998677228
-0.1664164164164168 	299.9999989558746 	3.024949825858874e-06 	101324.9987656868
-0.1639139139139143 	299.9999990314371 	2.805338473332377e-06 	101324.9988550843
-0.1614114114114118 	299.9999991092297 	2.579686061882855e-06 	101324.9989469896
-0.1589089089089093 	299.9999991904583 	2.343805335078442e-06 	101324.9990430815
-0.1564064064064068 	299.9999992762776 	2.095290989744264e-06 	101324.9991445227
-0.1539039039039043 	299.9999993663514 	1.835183216058266e-06 	101324.9992509414
-0.1514014014014018 	299.9999994588604 	1.568561765235817e-06 	101324.9993601392
-0.1488988988988993 	299.9999995509919 	1.302208571024859e-06 	101324.9994690644
-0.1463963963963968 	299.9999996413129 	1.0407273579798e-06 	101324.9995757521
-0.1438938938938943 	299.999999729664 	7.840267179376256e-07 	101324.9996802838
-0.1413913913913918 	299.9999998176177 	5.285590795711109e-07 	101324.9997843162
-0.1388888888888893 	299.9999999067419 	2.703150722794116e-07 	101324.9998895926
-0.1363863863863868 	299.9999999973236 	2.067947140003408e-08 	101324.999996931
-0.1338838838838843 	300.0000000900011 	2.612794238455655e-07 	101325.0001065295
-0.1313813813813818 	300.0000001846818 	5.348797030439453e-07 	101325.0002182678
-0.1288788788788793 	300.0000002803141 	8.117762267525988e-07 	101325.0003314732
-0.1263763763763768 	300.0000003759673 	1.088179676698296e-06 	101325.0004445213
-0.1238738738738743 	300.0000004697482 	1.360149074264833e-06 	101325.0005555299
-0.1213713713713717 	300.0000005618868 	1.62776905313096e-06 	101325.0006643554
-0.1188688688688693 	300.0000006546488 	1.897755096412668e-06 	101325.0007739244
-0.1163663663663668 	300.0000007515403 	2.17981251352922e-06 	101325.0008887159
-0.1138638638638643 	300.0000008551085 	2.478399128198667e-06 	101325.0010109285
-0.1113613613613618 	300.000000962315 	2.78672123644254e-06 	101325.0011376298
-0.1088588588588592 	300.0000010676503 	3.090164314695059e-06 	101325.0012621659
-0.1063563563563568 	300.0000011665945 	3.376956310316227e-06 	101325.0013791847
-0.1038538538538543 	300.0000012594704 	3.647637437349271e-06 	101325.0014889384
-0.1013513513513517 	300.0000013507963 	3.91369022314532e-06 	101325.0015967984
-0.09884884884884926 	300.0000014448917 	4.187160872650438e-06 	101325.0017082707
-0.09634634634634676 	300.0000015430885 	4.470912650036076e-06 	101325.0018244774
-0.09384384384384425 	300.0000016430009 	4.75935788662092e-06 	101325.0019425212
-0.09134134134134177 	300.000001742604 	5.047801959205944e-06 	101325.0020600057
-0.08883883883883925 	300.0000018429118 	5.339856652678631e-06 	101325.0021786108
-0.08633633633633674 	300.0000019476082 	5.644044533487319e-06 	101325.0023025429
-0.08383383383383426 	300.0000020582266 	5.962512703264501e-06 	101325.0024331585
-0.08133133133133173 	300.0000021699864 	6.283730204691406e-06 	101325.0025654057
-0.07882882882882926 	300.0000022756009 	6.588463456101961e-06 	101325.0026904778
-0.07632632632632676 	300.0000023709264 	6.865316350386579e-06 	101325.0028030095
-0.07382382382382424 	300.0000024582563 	7.121964559318359e-06 	101325.0029063959
-0.07132132132132173 	300.0000025467874 	7.380512685160769e-06 	101325.0030107473
-0.06881881881881925 	300.0000026431003 	7.659866046417161e-06 	101325.003124711
-0.06631631631631671 	300.0000027476905 	7.960665028971169e-06 	101325.003248481
-0.06381381381381425 	300.0000028543067 	8.266565288678523e-06 	101325.0033743632
-0.06131131131131173 	300.0000029558627 	8.560666105565143e-06 	101325.0034944557
-0.05880880880880923 	300.000003051991 	8.841751373296551e-06 	101325.0036082166
-0.05630630630630672 	300.000003149 	9.124918433216084e-06 	101325.0037227859
-0.05380380380380424 	300.0000032530272 	9.425787310079077e-06 	101325.0038456198
-0.05130130130130173 	300.0000033636097 	9.743062094454017e-06 	101325.0039763335
-0.04879879879879922 	300.000003472822 	1.005638835818421e-05 	101325.0041056247
-0.04629629629629672 	300.0000035718987 	1.034271946826482e-05 	101325.0042228005
-0.04379379379379422 	300.0000036588158 	1.05972992602348e-05 	101325.0043254973
-0.04129129129129173 	300.0000037411668 	1.084015746945679e-05 	101325.0044228144
-0.03878878878878922 	300.0000038304446 	1.110084601651821e-05 	101325.0045283306
-0.03628628628628671 	300.000003932164 	1.139344075066483e-05 	101325.004648608
-0.03378378378378422 	300.000004040684 	1.170338291164401e-05 	101325.004777048
-0.03128128128128172 	300.0000041438331 	1.199847853077475e-05 	101325.0048988668
-0.02877877877877922 	300.0000042324264 	1.225613842201865e-05 	101325.0050035526
-0.0262762762762767 	300.0000043093468 	1.248458654379505e-05 	101325.0050946465
-0.02377377377377422 	300.0000043888098 	1.271935612993305e-05 	101325.0051882878
-0.0212712712712717 	300.0000044837602 	1.299595893185988e-05 	101325.0053007924
-0.01876876876876921 	300.0000045972621 	1.331949161131721e-05 	101325.0054348115
-0.01626626626626671 	300.0000047160053 	1.365567831788974e-05 	101325.0055750905
-0.0137637637637642 	300.0000048199149 	1.395229280063535e-05 	101325.0056981148
-0.0112612612612617 	300.0000048967912 	1.417660875962156e-05 	101325.005788943
-0.008758758758759198 	300.0000049510259 	1.434165544673856e-05 	101325.0058531723
-0.006256256256256697 	300.0000050028644 	1.45008561731565e-05 	101325.0059146824
-0.003753753753754195 	300.0000050751052 	1.471310694673173e-05 	101325.0059998537
-0.001251251251251693 	300.0000051763743 	1.500261424955175e-05 	101325.006119607
0.00125125125125081 	300.0000052966207 	1.534175336189326e-05 	101325.0062615916
0.003753753753753312 	300.0000054123866 	1.566926704985249e-05 	101325.0063983716
0.006256256256255817 	300.0000055032887 	1.59316242081587e-05 	101325.0065060511
0.008758758758758317 	300.0000055660137 	1.611846144382342e-05 	101325.0065800373
0.01126126126126082 	300.0000056147187 	1.62681421776381e-05 	101325.006637633
0.01376376376376332 	300.0000056719652 	1.643995065106906e-05 	101325.006705474
0.01626626626626582 	300.000005752781 	1.667257299101411e-05 	101325.0068008932
0.01876876876876833 	300.0000058535139 	1.695760868810575e-05 	101325.0069201082
0.02127127127127083 	300.0000059557747 	1.724572243941181e-05 	101325.0070409785
0.02377377377377332 	300.0000060382224 	1.748077668797141e-05 	101325.0071383443
0.02627627627627583 	300.0000060912939 	1.763871911846663e-05 	101325.0072013182
0.02877877877877833 	300.000006125426 	1.774556938158077e-05 	101325.0072413847
0.03128128128128083 	300.0000061628098 	1.78623449245637e-05 	101325.007285695
0.03378378378378333 	300.0000062254945 	1.804652333702387e-05 	101325.0073598485
0.03628628628628584 	300.0000063200386 	1.831475603550822e-05 	101325.0074714045
0.03878878878878834 	300.0000064323952 	1.863016225514143e-05 	101325.007604147
0.04129129129129084 	300.0000065363218 	1.892247626656189e-05 	101325.0077270559
0.04379379379379333 	300.0000066083761 	1.912892042840626e-05 	101325.007812389
0.04629629629629585 	300.0000066417614 	1.923153585243818e-05 	101325.0078520709
0.04879879879879834 	300.0000066512371 	1.926934075185771e-05 	101325.0078632038
0.05130130130130085 	300.0000066646484 	1.93176984753072e-05 	101325.0078789438
0.05380380380380335 	300.0000067079334 	1.944659999388084e-05 	101325.0079300464
0.05630630630630584 	300.0000067906536 	1.968175279069995e-05 	101325.0080278905
0.05880880880880836 	300.0000069004582 	1.99895467774788e-05 	101325.0081577948
0.06131131131131085 	300.0000070094958 	2.029414769105412e-05 	101325.0082865401
0.06381381381381336 	300.0000070884284 	2.051716774321878e-05 	101325.0083798654
0.06631631631631586 	300.0000071223731 	2.061851873566638e-05 	101325.0084201707
0.06881881881881835 	300.0000071188869 	2.061775181173412e-05 	101325.0084159148
0.07132132132132088 	300.0000071035756 	2.058492839553511e-05 	101325.0083977081
0.07382382382382337 	300.000007107713 	2.060547548434292e-05 	101325.0084027988
0.07632632632632587 	300.0000071533782 	2.073752817124042e-05 	101325.0084565504
0.07882882882882837 	300.0000072406791 	2.098263524286326e-05 	101325.0085597654
0.08133133133133086 	300.0000073489398 	2.128347180608966e-05 	101325.0086875782
0.08383383383383337 	300.0000074447694 	2.154976358668071e-05 	101325.0088008478
0.08633633633633589 	300.0000074980414 	2.169961349397187e-05 	101325.0088640774
0.08883883883883838 	300.0000074961341 	2.169740944845096e-05 	101325.0088616475
0.09134134134134086 	300.0000074488963 	2.15723571801707e-05 	101325.0088059581
0.09384384384384339 	300.0000073872991 	2.140898887778585e-05 	101325.0087334271
0.09634634634634588 	300.0000073504323 	2.131336404059406e-05 	101325.0086896815
0.09884884884884838 	300.0000073686687 	2.137023448019174e-05 	101325.0087111962
0.1013513513513509 	300.0000074528385 	2.1608210563446e-05 	101325.0088105059
0.1038538538538534 	300.0000075875965 	2.198560195774089e-05 	101325.0089699341
0.1063563563563559 	300.0000077375449 	2.240312373684382e-05 	101325.0091470009
0.1088588588588584 	300.00000785818 	2.273860358258355e-05 	101325.0092895896
0.1113613613613609 	300.0000079122656 	2.288921538022198e-05 	101325.0093538419
0.1138638638638634 	300.0000078828751 	2.280702892598567e-05 	101325.0093191045
0.1163663663663659 	300.0000077786133 	2.2517437977626e-05 	101325.009195948
0.1188688688688684 	300.0000076330962 	2.211356851238742e-05 	101325.0090239738
0.1213713713713709 	300.000007493883 	2.172755717512244e-05 	101325.0088593699
0.1238738738738734 	300.0000074074766 	2.148998654080312e-05 	101325.0087573869
0.1263763763763759 	300.0000074069707 	2.149181005965084e-05 	101325.008756574
0.1288788788788784 	300.0000075010282 	2.175790671940431e-05 	101325.0088676829
0.1313813813813809 	300.0000076720321 	2.223837990558553e-05 	101325.0090697354
0.1338838838838834 	300.0000078798186 	2.282128298313598e-05 	101325.0093153137
0.1363863863863859 	300.0000080733123 	2.336322500338444e-05 	101325.0095438971
0.1388888888888884 	300.0000082033372 	2.372624159513186e-05 	101325.0096975677
0.1413913913913909 	300.0000082342424 	2.381030898944767e-05 	101325.0097342618
0.1438938938938934 	300.0000081521779 	2.357633279847779e-05 	101325.0096373859
0.1463963963963959 	300.0000079681981 	2.305600747138298e-05 	101325.0094200924
0.1488988988988985 	300.0000077165013 	2.234538254545595e-05 	101325.0091227514
0.1514014014014009 	300.0000074466519 	2.158300900189548e-05 	101325.0088036557
0.1539039039039035 	300.0000072114813 	2.091920909954908e-05 	101325.0085256708
0.1564064064064059 	300.0000070578007 	2.048693604512647e-05 	101325.0083440876
0.1589089089089084 	300.0000070188169 	2.037958146057378e-05 	101325.0082978237
0.1614114114114109 	300.0000071081202 	2.063626714994284e-05 	101325.0084033165
0.1639139139139134 	300.0000073181725 	2.123527665131884e-05 	101325.0086516583
0.166416416416416 	300.0000076215445 	2.209784836596792e-05 	101325.0090099735
0.1689189189189185 	300.0000079748424 	2.310259529186016e-05 	101325.009427471
0.1714214214214209 	300.0000083279432 	2.410741259428897e-05 	101325.0098449009
0.1739239239239235 	300.0000086317316 	2.497160315934676e-05 	101325.0102040652
0.1764264264264259 	300.0000088435108 	2.557273470976623e-05 	101325.010454488
0.1789289289289284 	300.0000089310007 	2.581779095833338e-05 	101325.0105578555
0.181431431431431 	300.0000088740946 	2.56498339961942e-05 	101325.0104907654
0.1839339339339334 	300.0000086667269 	2.505039101889446e-05 	101325.0102456997
0.186436436436436 	300.0000083151742 	2.403762379160906e-05 	101325.0098302852
0.1889389389389385 	300.0000078370849 	2.266096997182672e-05 	101325.0092650679
0.191441441441441 	300.0000072576622 	2.09930738231302e-05 	101325.0085801729
0.1939439439439434 	300.0000066071112 	1.912018884940005e-05 	101325.0078113264
0.196446446446446 	300.0000059172625 	1.713236624350482e-05 	101325.0069957699
0.1989489489489485 	300.0000052175831 	1.511454625555197e-05 	101325.0061685718
0.2014514514514509 	300.0000045334339 	1.313977631187227e-05 	101325.0053597665
0.2039539539539535 	300.0000038846094 	1.126528516219887e-05 	101325.0045927246
0.2064564564564559 	300.0000032850055 	9.531736402265104e-06 	101325.0038839445
0.2089589589589585 	300.000002743486 	7.964504999359086e-06 	101325.0032436602
0.211461461461461 	300.0000022638728 	6.575905836282846e-06 	101325.0026767668
0.2139639639639635 	300.0000018470818 	5.367733818977092e-06 	101325.0021838715
0.2164664664664659 	300.0000014905795 	4.333822804376933e-06 	101325.0017623472
0.2189689689689684 	300.0000011902865 	3.462461274214543e-06 	101325.0014073157
0.221471471471471 	300.0000009409181 	2.738433050181869e-06 	101325.001112496
0.2239739739739735 	300.0000007364978 	2.144775351996359e-06 	101325.0008709017
0.226476476476476 	300.0000005711947 	1.664048158206706e-06 	101325.000675379
0.2289789789789785 	300.0000004389504 	1.279349529910587e-06 	101325.0005189988
0.231481481481481 	300.0000003342859 	9.749298716045954e-07 	101325.0003953194
0.2339839839839835 	300.0000002524912 	7.366016006683602e-07 	101325.0002985425
0.236486486486486 	300.0000001891644 	5.519163016574347e-07 	101325.0002235869
0.2389889889889885 	300.0000001404862 	4.101959989551678e-07 	101325.0001660988
0.241491491491491 	300.0000001033774 	3.02471444264424e-07 	101325.0001224217
0.2439939939939935 	300.0000000757097 	2.213242010546647e-07 	101325.0000895378
0.246496496496496 	300.000000054973 	1.607410567933623e-07 	101325.0000649965
0.2489989989989985 	300.0000000397052 	1.158850723939913e-07 	101325.0000468368
0.251501501501501 	300.0000000284231 	8.295291235978035e-08 	101325.0000335094
0.2540040040040035 	300.0000000201268 	5.896356974602939e-08 	101325.000023806
0.256506506506506 	300.0000000142639 	4.162380792519846e-08 	101325.0000167962
0.2590090090090086 	300.0000000097766 	2.918914178592746e-08 	101325.0000117704
0.261511511511511 	300.0000000069513 	2.032921441493767e-08 	101325.0000081935
0.2640140140140135 	300.0000000047804 	1.407168752404157e-08 	101325.0000056657
0.2665165165165161 	300.000000003165 	9.674147758085708e-09 	101325.0000038918
0.2690190190190185 	300.0000000022977 	6.610942945358062e-09 	101325.0000026553
0.271521521521521 	300.0000000015804 	4.487544020403371e-09 	101325.0000017993
0.2740240240240235 	300.0000000010805 	3.026464223658347e-09 	101325.0000012106
0.276526526526526 	300.0000000007166 	2.028274923731288e-09 	101325.000000808
0.2790290290290286 	300.0000000003453 	1.347928805467814e-09 	101325.0000005346
0.281531531531531 	300.0000000001581 	8.908167133037151e-10 	101325.0000003501
0.2840340340340335 	300.0000000001605 	5.804088439166182e-10 	101325.0000002262
0.2865365365365361 	300.0000000000561 	3.767131772926367e-10 	101325.0000001436
0.2890390390390385 	300.0000000000937 	2.396428930451977e-10 	101325.000000089
0.291541541541541 	300.0000000000637 	1.49602544742252e-10 	101325.000000053
0.2940440440440436 	300.00000000003 	9.292132046849211e-11 	101325.0000000295
0.296546546546546 	300.0000000000047 	5.245590389482714e-11 	101325.0000000142
0.2990490490490486 	299.9999999998941 	3.3203247241694e-11 	101325.0000000045
0.3015515515515511 	300.0000000000859 	1.133430148542712e-11 	101324.9999999984
0.3040540540540535 	300.0000000000413 	1.128645549266592e-11 	101324.9999999947
0.3065565565565562 	299.9999999999849 	6.330838779502281e-12 	101324.9999999919
0.3090590590590585 	299.9999999999764 	2.279621192379371e-12 	101324.99999999
0.3115615615615611 	299.9999999998649 	1.33154183762119e-11 	101324.9999999888
0.3140640640640635 	300.0000000000255 	9.415572726191349e-12 	101324.9999999882
0.316566566566566 	300.0000000000038 	1.618590204226563e-11 	101324.9999999878
0.3190690690690687 	299.9999999998781 	1.25734555298085e-11 	101324.9999999874
0.3215715715715711 	300.0000000000265 	1.702663550136895e-11 	101324.9999999873
0.3240740740740735 	299.9999999999939 	1.290770543584736e-11 	101324.9999999874
0.326576576576576 	299.9999999998113 	1.610408932196259e-11 	101324.9999999874
0.3290790790790786 	300.0000000000412 	1.308824687373405e-11 	101324.9999999874
0.3315815815815811 	300.0000000000701 	1.507057072822816e-11 	101324.9999999872
0.3340840840840836 	299.9999999999924 	1.301144532895093e-11 	101324.9999999876
0.3365865865865861 	300.0000000001195 	1.499250879498253e-11 	101324.999999988
0.3390890890890886 	300.0000000001087 	1.248975678527295e-11 	101324.9999999884
0.3415915915915911 	300.0000000000105 	1.484222966235746e-11 	101324.9999999883
0.3440940940940935 	299.9999999998935 	1.129530202128397e-11 	101324.9999999884
0.3465965965965962 	300.0000000000584 	1.429245430753533e-11 	101324.9999999885
0.3490990990990985 	300.000000000047 	1.138129238284609e-11 	101324.9999999883
0.3516016016016011 	299.9999999999852 	1.276626214363688e-11 	101324.9999999884
0.3541041041041035 	300.0000000000016 	1.280192608440018e-11 	101324.9999999885
0.3566066066066061 	299.9999999998978 	1.231161247941578e-11 	101324.9999999883
0.3591091091091085 	299.9999999998469 	1.60931796692576e-11 	101324.9999999881
0.3616116116116112 	299.9999999998918 	1.31104202701785e-11 	101324.9999999878
0.3641141141141137 	299.999999999872 	1.839889246442331e-11 	101324.9999999877
0.3666166166166161 	299.9999999998539 	1.183631928075522e-11 	101324.9999999876
0.3691191191191185 	300.0000000000817 	2.022829112566863e-11 	101324.9999999874
0.371621621621621 	300.00000000002 	1.244715973544082e-11 	101324.9999999871
0.3741241241241237 	300.0000000000967 	1.991550429468693e-11 	101324.9999999871
0.3766266266266261 	300.0000000000613 	1.430667151600706e-11 	101324.9999999867
0.3791291291291286 	299.999999999975 	1.828094161038025e-11 	101324.9999999868
0.3816316316316311 	299.9999999998449 	1.381829360652226e-11 	101324.9999999868
0.3841341341341336 	300.0000000000185 	1.733584068111931e-11 	101324.9999999872
0.3866366366366362 	299.9999999999921 	1.428665092664674e-11 	101324.9999999874
0.3891391391391387 	299.9999999999137 	1.66774710520954e-11 	101324.9999999875
0.391641641641641 	300.0000000000113 	1.4942775829181e-11 	101324.9999999878
0.3941441441441436 	300.0000000000286 	1.653069677431219e-11 	101324.9999999882
0.3966466466466462 	300.0000000000126 	1.444828270164287e-11 	101324.9999999885
0.3991491491491486 	299.9999999999091 	1.665017106054111e-11 	101324.9999999885
0.4016516516516512 	299.9999999998369 	1.588481228209414e-11 	101324.9999999884
0.4041541541541536 	299.999999999908 	1.854269333127557e-11 	101324.9999999882
0.4066566566566561 	299.9999999999042 	1.643018934919208e-11 	101324.999999988
0.4091591591591587 	300.000000000007 	1.921415815814873e-11 	101324.9999999878
0.4116616616616612 	300.0000000000229 	1.663796445279231e-11 	101324.9999999878
0.4141641641641635 	300.0000000000939 	1.747667909785429e-11 	101324.9999999876
0.4166666666666662 	299.999999999998 	1.738963983812148e-11 	101324.9999999876
0.4191691691691687 	299.9999999998727 	1.597448078787576e-11 	101324.9999999879
0.421671671671671 	300.0000000000278 	1.827314165839659e-11 	101324.9999999881
0.4241741741741737 	299.9999999999607 	1.420201303964145e-11 	101324.9999999881
0.4266766766766761 	299.9999999999038 	2.024035887093217e-11 	101324.9999999884
0.4291791791791785 	300.0000000000441 	1.362109594100212e-11 	101324.9999999884
0.4316816816816812 	300.0000000000312 	2.154670903139817e-11 	101324.9999999884
0.4341841841841836 	299.9999999999893 	1.322565228606352e-11 	101324.9999999883
0.4366866866866862 	299.9999999998382 	1.991424082196611e-11 	101324.9999999882
0.4391891891891885 	299.9999999999771 	1.508615319438016e-11 	101324.9999999881
0.4416916916916913 	299.9999999999745 	1.911892606637311e-11 	101324.9999999884
0.4441941941941936 	299.9999999999763 	1.59251299653879e-11 	101324.9999999882
0.4466966966966961 	299.9999999998284 	1.88827700570837e-11 	101324.9999999884
0.4491991991991987 	299.9999999999607 	1.718796698180999e-11 	101324.9999999887
0.4517017017017012 	299.9999999999438 	1.829525271862043e-11 	101324.9999999892
0.4542042042042035 	299.9999999999991 	1.741110930417369e-11 	101324.9999999893
0.4567067067067062 	299.9999999999986 	1.749142116035997e-11 	101324.9999999894
0.4592092092092087 	299.9999999998508 	1.732779172182133e-11 	101324.9999999889
0.4617117117117112 	300.0000000000405 	1.793052372437805e-11 	101324.9999999887
0.4642142142142137 	299.9999999999159 	1.824369453947299e-11 	101324.9999999888
0.4667167167167162 	299.9999999999978 	1.85988020075045e-11 	101324.9999999886
0.4692192192192187 	299.9999999999171 	1.836778178381909e-11 	101324.9999999885
0.4717217217217212 	300.0000000000268 	1.894418611436319e-11 	101324.9999999888
0.4742242242242236 	299.9999999998956 	1.937253669609495e-11 	101324.999999989
0.4767267267267262 	299.9999999999456 	2.019063017869528e-11 	101324.9999999888
0.4792292292292287 	300.0000000000508 	2.099264627845567e-11 	101324.999999989
0.4817317317317312 	300.0000000000757 	2.003851284315406e-11 	101324.9999999892
0.4842342342342336 	299.999999999986 	2.100230900776212e-11 	101324.9999999892
0.4867367367367362 	299.9999999999166 	2.042955986388046e-11 	101324.9999999893
0.4892392392392387 	300.0000000000653 	2.150989648257849e-11 	101324.9999999894
0.4917417417417412 	300.0000000000337 	1.882752855659195e-11 	101324.9999999892
0.4942442442442437 	299.9999999998254 	2.007319720662219e-11 	101324.9999999891
0.4967467467467462 	299.999999999845 	1.721071445296047e-11 	101324.9999999891
0.4992492492492487 	299.9999999998239 	2.062600111961013e-11 	101324.9999999893
0.5017517517517511 	299.9999999999121 	1.849082612523945e-11 	101324.9999999895
0.5042542542542537 	299.9999999999491 	2.016018367860585e-11 	101324.9999999895
0.5067567567567562 	299.9999999998997 	2.035817687832701e-11 	101324.9999999897
0.5092592592592589 	299.9999999999234 	1.964484732308763e-11 	101324.99999999
0.5117617617617611 	299.9999999999363 	2.168807648236318e-11 	101324.9999999902
0.5142642642642637 	299.9999999999985 	1.809322211271614e-11 	101324.9999999902
0.5167667667667663 	299.9999999999603 	2.231850889093055e-11 	101324.9999999901
0.5192692692692688 	299.9999999998301 	1.649176785794081e-11 	101324.9999999901
0.5217717717717714 	299.9999999998985 	2.478273776258192e-11 	101324.9999999901
0.5242742742742736 	299.9999999998975 	1.660045201832525e-11 	101324.9999999898
0.5267767767767763 	299.9999999999209 	2.324011181622213e-11 	101324.9999999895
0.5292792792792789 	299.9999999998925 	1.822380465986558e-11 	101324.9999999891
0.5317817817817813 	299.9999999998317 	2.374490430920289e-11 	101324.999999989
0.5342842842842837 	300.0000000000227 	2.08851069227694e-11 	101324.9999999892
0.5367867867867864 	299.9999999999916 	2.463713396352311e-11 	101324.9999999892
0.5392892892892888 	299.9999999999049 	2.259710556599451e-11 	101324.9999999892
0.5417917917917912 	300.0000000000014 	2.500341153748246e-11 	101324.9999999895
0.5442942942942938 	299.9999999999607 	2.289721949833948e-11 	101324.99999999
0.5467967967967964 	299.9999999998959 	2.477313194509033e-11 	101324.9999999903
0.5492992992992988 	299.9999999998876 	2.298443751247511e-11 	101324.9999999906
0.5518018018018012 	299.999999999894 	2.468983961286119e-11 	101324.9999999906
0.5543043043043039 	300.0000000000324 	2.265821263989694e-11 	101324.9999999909
0.5568068068068063 	299.9999999999802 	2.481211206869984e-11 	101324.9999999912
0.5593093093093087 	299.9999999998231 	2.213504265828941e-11 	101324.9999999913
0.5618118118118114 	299.9999999999023 	2.556155426371641e-11 	101324.9999999915
0.5643143143143137 	299.999999999877 	2.311357551214666e-11 	101324.9999999917
0.5668168168168163 	299.9999999999847 	2.473544414037824e-11 	101324.9999999913
0.5693193193193188 	300.000000000052 	2.457306670061025e-11 	101324.999999991
0.5718218218218213 	300.0000000000504 	2.354222983520442e-11 	101324.9999999907
0.5743243243243239 	300.0000000000418 	2.604966918342641e-11 	101324.9999999903
0.5768268268268262 	300.000000000003 	2.281889434673578e-11 	101324.9999999903
0.5793293293293288 	299.9999999998907 	2.787726431987808e-11 	101324.9999999902
0.5818318318318314 	299.9999999998628 	2.155079971430821e-11 	101324.9999999903
0.5843343343343338 	299.9999999999906 	2.993361275063953e-11 	101324.9999999905
0.5868368368368363 	299.9999999999672 	2.24644516491302e-11 	101324.9999999903
0.5893393393393387 	299.999999999884 	2.929898609405135e-11 	101324.9999999901
0.5918418418418413 	299.9999999998921 	2.405836145779774e-11 	101324.9999999897
0.5943443443443439 	300.0000000000173 	2.791241981060736e-11 	101324.9999999899
0.5968468468468463 	300.0000000000404 	2.405387948058424e-11 	101324.9999999897
0.5993493493493487 	300.000000000084 	2.672196610289845e-11 	101324.9999999896
0.6018518518518514 	299.9999999999841 	2.392534280770827e-11 	101324.9999999899
0.6043543543543537 	300.0000000000235 	2.559377058282605e-11 	101324.9999999904
0.6068568568568564 	299.9999999999924 	2.197617141319582e-11 	101324.9999999907
0.6093593593593587 	299.9999999998718 	2.354821650140197e-11 	101324.9999999907
0.6118618618618614 	299.9999999998607 	2.184799334208679e-11 	101324.9999999908
0.6143643643643638 	300.00000000004 	2.391816030160461e-11 	101324.9999999908
0.6168668668668662 	299.9999999999917 	2.108167163021033e-11 	101324.999999991
0.6193693693693688 	299.9999999999312 	2.349567072777203e-11 	101324.9999999914
0.6218718718718714 	299.9999999999436 	1.918577657648282e-11 	101324.9999999914
0.6243743743743737 	299.999999999867 	2.334558673252639e-11 	101324.9999999913
0.6268768768768762 	299.9999999998556 	2.099179302457193e-11 	101324.9999999912
0.629379379379379 	299.9999999999355 	2.376684065868072e-11 	101324.9999999913
0.6318818818818812 	299.9999999999785 	2.322325426859227e-11 	101324.9999999916
0.6343843843843838 	300.0000000000448 	2.286514268462892e-11 	101324.9999999917
0.6368868868868864 	299.9999999999802 	2.408713715920243e-11 	101324.9999999917
0.6393893893893888 	299.9999999998557 	2.117121122004107e-11 	101324.9999999919
0.6418918918918912 	299.999999999997 	2.586777298681764e-11 	101324.9999999918
0.6443943943943939 	299.9999999999512 	1.992672158501701e-11 	101324.9999999917
0.6468968968968963 	299.999999999969 	2.864435778947432e-11 	101324.9999999916
0.6493993993993988 	299.9999999999528 	2.128700373278175e-11 	101324.9999999915
0.6519019019019012 	299.9999999999736 	2.751611687451313e-11 	101324.9999999915
0.6544044044044038 	299.9999999998221 	2.202573065672808e-11 	101324.9999999916
0.6569069069069065 	299.9999999998997 	2.762954334429753e-11 	101324.9999999915
0.6594094094094087 	299.9999999999278 	2.434524305371372e-11 	101324.9999999915
0.6619119119119113 	299.9999999999316 	2.827480732855346e-11 	101324.9999999914
0.664414414414414 	300.00000000003 	2.597080503025487e-11 	101324.9999999916
0.6669169169169162 	300.0000000000317 	2.87100665009011e-11 	101324.9999999917
0.6694194194194188 	299.9999999999708 	2.727281200565574e-11 	101324.9999999916
0.6719219219219214 	299.999999999857 	2.938610934202668e-11 	101324.9999999918
0.674424424424424 	299.9999999999392 	2.734177108494331e-11 	101324.9999999921
0.6769269269269262 	299.9999999998468 	2.902464403619294e-11 	101324.9999999921
0.679429429429429 	300.0000000000084 	2.775050402500256e-11 	101324.9999999924
0.6819319319319311 	299.999999999966 	2.925028539823776e-11 	101324.9999999923
0.6844344344344341 	299.9999999999923 	2.684565831760809e-11 	101324.9999999922
0.686936936936936 	299.9999999999976 	2.970148244972163e-11 	101324.9999999921
0.6894394394394392 	300.0000000000163 	2.778011786647131e-11 	101324.999999992
0.6919419419419413 	299.9999999999715 	2.90806967533659e-11 	101324.9999999921
0.694444444444444 	299.99999999984 	2.90754502721684e-11 	101324.9999999921
0.6969469469469463 	299.9999999998386 	2.870702494557365e-11 	101324.9999999923
0.6994494494494489 	299.9999999998548 	3.0061565438743e-11 	101324.9999999926
0.7019519519519515 	299.999999999962 	2.793404620541182e-11 	101324.9999999926
0.7044544544544538 	299.9999999999023 	3.106699913149129e-11 	101324.9999999925
0.7069569569569564 	300.000000000011 	2.664855615881465e-11 	101324.9999999924
0.7094594594594589 	299.999999999948 	3.206607220465439e-11 	101324.9999999921
0.7119619619619615 	299.9999999998442 	2.681413689604019e-11 	101324.9999999921
0.7144644644644638 	299.9999999999255 	3.124608218304975e-11 	101324.9999999922
0.7169669669669665 	299.9999999998666 	2.910374530615286e-11 	101324.9999999921
0.7194694694694688 	300.0000000000132 	3.091376127748848e-11 	101324.9999999921
0.7219719719719715 	299.9999999999923 	2.942222783083981e-11 	101324.9999999922
0.7244744744744737 	300.0000000000263 	2.911150793353927e-11 	101324.9999999923
0.7269769769769764 	300.0000000000113 	3.028518005884642e-11 	101324.9999999925
0.7294794794794791 	299.9999999999848 	2.688628660219142e-11 	101324.9999999925
0.7319819819819813 	299.9999999999547 	3.129440613269944e-11 	101324.9999999926
0.7344844844844839 	299.999999999837 	2.754424798809237e-11 	101324.9999999927
0.7369869869869864 	299.9999999999008 	3.007198670807927e-11 	101324.9999999928
0.739489489489489 	299.9999999998979 	2.863755009713963e-11 	101324.9999999926
0.7419919919919914 	299.9999999998698 	2.861138920047533e-11 	101324.9999999928
0.7444944944944939 	299.9999999999711 	2.973370333829367e-11 	101324.999999993
0.7469969969969963 	299.9999999999535 	2.710334590579697e-11 	101324.9999999933
0.7494994994994989 	299.9999999998764 	3.147592191640217e-11 	101324.9999999933
0.7520020020020015 	299.9999999999406 	2.573008530891016e-11 	101324.9999999933
0.7545045045045039 	299.9999999999354 	3.253068859647078e-11 	101324.9999999931
0.7570070070070062 	299.9999999998922 	2.747013590260431e-11 	101324.999999993
0.7595095095095092 	299.9999999998827 	3.203510382390928e-11 	101324.9999999929
0.7620120120120112 	300.0000000000229 	3.048145844720159e-11 	101324.9999999928
0.7645145145145138 	299.9999999999806 	3.17037556536282e-11 	101324.9999999926
0.7670170170170165 	299.9999999998674 	3.243256430375342e-11 	101324.9999999925
0.7695195195195191 	299.9999999998474 	2.980049765106112e-11 	101324.9999999926
0.7720220220220213 	299.9999999998698 	3.395956970931025e-11 	101324.9999999926
0.7745245245245239 	299.9999999998519 	2.964428246568576e-11 	101324.9999999926
0.7770270270270263 	299.999999999926 	3.313734689691686e-11 	101324.9999999924
0.779529529529529 	299.9999999999684 	3.049486551056147e-11 	101324.9999999927
0.7820320320320313 	299.9999999999399 	3.183893132827921e-11 	101324.9999999929
0.784534534534534 	300.0000000000139 	3.107064692617597e-11 	101324.999999993
0.7870370370370364 	300.0000000000002 	3.064529165382377e-11 	101324.999999993
0.7895395395395389 	299.9999999999737 	3.188781553312379e-11 	101324.9999999932
0.7920420420420413 	299.9999999999546 	2.928375691004941e-11 	101324.9999999933
0.794544544544544 	299.9999999999387 	3.185803773637282e-11 	101324.9999999933
0.7970470470470463 	300.0000000000066 	2.709588469219536e-11 	101324.9999999934
0.799549549549549 	299.9999999999848 	3.313170595409383e-11 	101324.9999999936
0.8020520520520515 	299.9999999999733 	2.785949002873975e-11 	101324.9999999937
0.8045545545545539 	299.9999999998907 	3.20644138474252e-11 	101324.9999999938
0.8070570570570563 	299.9999999999553 	2.961345477422139e-11 	101324.9999999939
0.8095595595595589 	299.9999999999129 	3.100380056212424e-11 	101324.999999994
0.8120620620620614 	299.9999999998896 	3.018155234879238e-11 	101324.999999994
0.8145645645645638 	300.000000000014 	2.925232403383235e-11 	101324.9999999941
0.8170670670670666 	300.0000000000188 	3.040325379870048e-11 	101324.9999999942
0.8195695695695689 	299.9999999999699 	2.732162578540113e-11 	101324.9999999944
0.8220720720720714 	299.9999999998895 	3.245188639980361e-11 	101324.999999994
0.8245745745745739 	299.9999999999815 	2.811558543789446e-11 	101324.9999999939
0.8270770770770765 	299.9999999999441 	3.198032791106803e-11 	101324.9999999939
0.8295795795795788 	299.9999999999164 	2.950486243377866e-11 	101324.999999994
0.8320820820820815 	300.0000000000388 	3.152608691695451e-11 	101324.9999999939
0.834584584584584 	300.0000000000164 	3.063883225702168e-11 	101324.9999999939
0.8370870870870865 	299.9999999999323 	3.040137974497061e-11 	101324.999999994
0.8395895895895891 	299.9999999998719 	3.267126782736068e-11 	101324.999999994
0.8420920920920915 	299.9999999999067 	3.108062228801999e-11 	101324.9999999937
0.844594594594594 	299.9999999998973 	3.287063045559943e-11 	101324.9999999933
0.8470970970970964 	299.9999999999194 	3.289359617897053e-11 	101324.9999999932
0.8495995995995991 	299.9999999999977 	3.344571832748651e-11 	101324.9999999931
0.8521021021021015 	299.9999999999693 	3.416893183592214e-11 	101324.9999999931
0.8546046046046039 	299.9999999999473 	3.316179949161751e-11 	101324.999999993
0.8571071071071066 	300.0000000000108 	3.510170431750529e-11 	101324.9999999929
0.8596096096096089 	299.9999999999465 	3.147980586549447e-11 	101324.9999999929
0.8621121121121116 	299.9999999998864 	3.679193265231358e-11 	101324.9999999929
0.8646146146146139 	300.0000000000039 	3.288873038732526e-11 	101324.9999999931
0.8671171171171166 	299.9999999999489 	3.637211379832725e-11 	101324.9999999931
0.8696196196196189 	299.9999999998799 	3.50215264042134e-11 	101324.9999999933
0.8721221221221216 	299.9999999999623 	3.633310073355517e-11 	101324.9999999933
0.874624624624624 	299.999999999993 	3.63427351744037e-11 	101324.9999999934
0.8771271271271264 	300.0000000000026 	3.594295686084198e-11 	101324.9999999933
0.879629629629629 	300.0000000000358 	3.757869492290165e-11 	101324.9999999932
0.8821321321321317 	299.9999999999698 	3.422954598331953e-11 	101324.9999999934
0.8846346346346339 	299.9999999998586 	3.856839680757696e-11 	101324.9999999935
0.8871371371371364 	299.9999999999201 	3.349400546618015e-11 	101324.9999999935
0.8896396396396391 	299.999999999923 	3.67560153406289e-11 	101324.9999999936
0.8921421421421414 	299.9999999999295 	3.395096112223675e-11 	101324.9999999937
0.8946446446446441 	299.9999999999722 	3.542899259774712e-11 	101324.9999999936
0.8971471471471464 	300.0000000000118 	3.436675145392169e-11 	101324.9999999938
0.8996496496496489 	299.9999999999703 	3.40821051055544e-11 	101324.9999999939
0.9021521521521517 	299.9999999999435 	3.603505338781718e-11 	101324.9999999939
0.9046546546546541 	299.9999999999938 	3.472246577971323e-11 	101324.9999999942
0.9071571571571564 	299.9999999999142 	3.630238487303545e-11 	101324.9999999943
0.9096596596596589 	299.9999999999025 	3.560142152138765e-11 	101324.9999999942
0.9121621621621616 	300.0000000000192 	3.577723442320623e-11 	101324.9999999941
0.9146646646646639 	299.9999999999631 	3.637172538302634e-11 	101324.999999994
0.9171671671671666 	299.9999999998992 	3.571759653243726e-11 	101324.999999994
0.9196696696696689 	300.0000000000016 	3.698549432099343e-11 	101324.9999999942
0.9221721721721714 	299.9999999999905 	3.355461843035345e-11 	101324.9999999942
0.9246746746746741 	299.9999999998836 	3.806554773291837e-11 	101324.9999999944
0.9271771771771765 	299.9999999999193 	3.359575366743966e-11 	101324.9999999947
0.9296796796796791 	299.9999999999842 	3.71183020039121e-11 	101324.9999999948
0.9321821821821816 	299.9999999999336 	3.456845107709925e-11 	101324.9999999949
0.9346846846846838 	299.999999999907 	3.703753060277304e-11 	101324.9999999948
0.9371871871871866 	300.0000000000178 	3.647405656296073e-11 	101324.9999999948
0.9396896896896891 	300.0000000000133 	3.696914832400198e-11 	101324.999999995
0.9421921921921914 	300.0000000000101 	3.730598154272861e-11 	101324.9999999951
0.9446946946946939 	299.9999999999467 	3.567499159347418e-11 	101324.9999999955
0.9471971971971965 	299.9999999998639 	3.937919619769918e-11 	101324.9999999956
0.9496996996996991 	299.9999999999367 	3.53155924144333e-11 	101324.9999999956
0.9522022022022016 	299.9999999999704 	3.784026433749755e-11 	101324.9999999955
0.9547047047047038 	299.999999999961 	3.558653111751605e-11 	101324.9999999953
0.9572072072072064 	299.9999999999285 	3.726222012049567e-11 	101324.9999999952
0.9597097097097093 	299.99999999993 	3.681580560797594e-11 	101324.9999999952
0.9622122122122114 	299.9999999999253 	3.683089174276622e-11 	101324.9999999955
0.964714714714714 	299.999999999912 	3.864687254003879e-11 	101324.9999999956
0.9672172172172167 	299.9999999999179 	3.72927048508991e-11 	101324.9999999955
0.969719719719719 	299.9999999999705 	3.88307852548198e-11 	101324.9999999952
0.9722222222222214 	299.9999999999639 	3.801753245408303e-11 	101324.9999999952
0.9747247247247239 	299.9999999999615 	3.825955927712146e-11 	101324.9999999954
0.9772272272272267 	300.000000000024 	3.847278259133437e-11 	101324.9999999955
0.9797297297297292 	299.9999999999842 	3.759808651895511e-11 	101324.9999999955
0.9822322322322313 	299.9999999999758 	3.885360588196393e-11 	101324.9999999957
0.9847347347347344 	299.9999999999708 	3.586107804579323e-11 	101324.9999999958
0.9872372372372363 	299.999999999884 	4.043058058922511e-11 	101324.9999999959
0.9897397397397389 	299.9999999999277 	3.6344604942736e-11 	101324.9999999961
0.9922422422422417 	299.999999999906 	3.98129424666731e-11 	101324.9999999963
0.9947447447447441 	299.9999999999398 	3.691145838950634e-11 	101324.9999999962
0.9972472472472468 	299.9999999999542 	3.939440281830693e-11 	101324.9999999963
0.999749749749749 	299.9999999999386 	3.900790894921033e-11 	101324.9999999965
1.002252252252252 	299.9999999999538 	3.988668244124425e-11 	101324.9999999966
1.004754754754754 	299.9999999999942 	3.955222326197908e-11 	101324.9999999965
1.007257257257256 	299.9999999999476 	3.769205888890352e-11 	101324.9999999963
1.009759759759759 	299.9999999999197 	4.086163379141774e-11 	101324.999999996
1.012262262262261 	299.9999999999281 	3.775859095859038e-11 	101324.9999999958
1.014764764764764 	299.9999999998781 	4.147647764201951e-11 	101324.9999999959
1.017267267267267 	299.9999999998547 	4.027491966909946e-11 	101324.9999999959
1.019769769769769 	299.9999999999254 	4.23804627471454e-11 	101324.999999996
1.022272272272272 	299.9999999999599 	4.164505700694575e-11 	101324.999999996
1.024774774774774 	299.9999999999827 	4.167956719978286e-11 	101324.9999999958
1.027277277277277 	299.9999999999696 	4.283143796924029e-11 	101324.9999999958
1.029779779779779 	300.0000000000135 	4.067225696505413e-11 	101324.9999999956
1.032282282282282 	300.0000000000156 	4.205993354540925e-11 	101324.9999999954
1.034784784784784 	299.9999999999995 	4.087516688560651e-11 	101324.9999999955
1.037287287287286 	299.9999999999416 	4.153880816314851e-11 	101324.9999999957
1.039789789789789 	299.9999999999501 	4.108296446150054e-11 	101324.9999999959
1.042292292292291 	300.0000000000158 	4.088554526907182e-11 	101324.999999996
1.044794794794794 	300.0000000000538 	4.110610447460504e-11 	101324.999999996
1.047297297297296 	300.0000000000908 	3.902853408253825e-11 	101324.999999996
1.049799799799799 	299.9999999999933 	4.239228913213952e-11 	101324.999999996
1.052302302302302 	299.9999999999139 	3.868678233167683e-11 	101324.999999996
1.054804804804804 	299.9999999998771 	4.203017037425747e-11 	101324.9999999962
1.057307307307306 	299.9999999998606 	3.99645451791911e-11 	101324.9999999963
1.059809809809809 	299.9999999999309 	4.19092177238338e-11 	101324.9999999963
1.062312312312312 	299.9999999999158 	4.076262509051397e-11 	101324.9999999964
1.064814814814814 	299.999999999904 	4.218960882215672e-11 	101324.9999999965
1.067317317317317 	299.9999999998665 	4.198798098501907e-11 	101324.9999999966
1.069819819819819 	299.9999999998688 	4.12856117162776e-11 	101324.9999999965
1.072322322322321 	299.9999999999876 	4.416265196279014e-11 	101324.9999999963
1.074824824824824 	300.0000000000235 	4.118279339785387e-11 	101324.9999999961
1.077327327327327 	300.0000000000636 	4.356709538155976e-11 	101324.999999996
1.079829829829829 	300.0000000000925 	4.183637843704572e-11 	101324.9999999962
1.082332332332332 	300.0000000000161 	4.354708487737113e-11 	101324.9999999964
1.084834834834834 	299.9999999999588 	4.309828375679483e-11 	101324.9999999966
1.087337337337337 	299.9999999998895 	4.310186093956949e-11 	101324.9999999968
1.089839839839839 	299.9999999998585 	4.56601517503114e-11 	101324.9999999968
1.092342342342342 	299.9999999999237 	4.304065743342433e-11 	101324.9999999969
1.094844844844844 	299.9999999999195 	4.528040715857856e-11 	101324.999999997
1.097347347347347 	299.9999999998707 	4.251096082221055e-11 	101324.9999999969
1.099849849849849 	299.999999999847 	4.677201429662269e-11 	101324.9999999968
1.102352352352352 	299.9999999999054 	4.23571603369928e-11 	101324.9999999969
1.104854854854854 	299.9999999999557 	4.542258955470997e-11 	101324.9999999972
1.107357357357357 	299.9999999999291 	4.232197176410108e-11 	101324.9999999975
1.109859859859859 	299.9999999999117 	4.51257863088211e-11 	101324.9999999974
1.112362362362362 	300.0000000000344 	4.366441787350234e-11 	101324.9999999974
1.114864864864865 	300.0000000000351 	4.472141659799445e-11 	101324.9999999975
1.117367367367367 	299.9999999999322 	4.608879127145098e-11 	101324.9999999973
1.119869869869869 	299.9999999998638 	4.360317203441386e-11 	101324.9999999974
1.122372372372372 	299.9999999999371 	4.605968389230221e-11 	101324.9999999974
1.124874874874874 	299.9999999999256 	4.464333226224342e-11 	101324.9999999974
1.127377377377377 	299.9999999999406 	4.659693071385185e-11 	101324.9999999975
1.129879879879879 	300.0000000000413 	4.56675157634567e-11 	101324.9999999974
1.132382382382382 	300.0000000000724 	4.662193181696016e-11 	101324.9999999973
1.134884884884884 	300.0000000000261 	4.631393719201644e-11 	101324.9999999975
1.137387387387387 	300.0000000000402 	4.613730311621549e-11 	101324.9999999977
1.139889889889889 	299.9999999999328 	4.772233997242845e-11 	101324.9999999976
1.142392392392392 	299.9999999999095 	4.452341671023428e-11 	101324.9999999977
1.144894894894894 	300.0000000000331 	4.682543697006507e-11 	101324.9999999977
1.147397397397397 	299.9999999999969 	4.504919780004272e-11 	101324.9999999977
1.149899899899899 	299.9999999998848 	4.761848046894667e-11 	101324.9999999975
1.152402402402402 	299.999999999858 	4.682662499435952e-11 	101324.9999999974
1.154904904904904 	299.9999999999221 	4.83438428216481e-11 	101324.9999999976
1.157407407407407 	299.9999999999227 	4.740009952141202e-11 	101324.999999998
1.159909909909909 	299.9999999998656 	4.725603299549483e-11 	101324.9999999982
1.162412412412412 	299.9999999998609 	4.925751759207446e-11 	101324.9999999982
1.164914914914914 	299.9999999999293 	4.652010102547039e-11 	101324.9999999982
1.167417417417417 	299.9999999999375 	4.897915401722902e-11 	101324.9999999982
1.169919919919919 	300.0000000000263 	4.707474751651742e-11 	101324.9999999982
1.172422422422422 	300.0000000000908 	4.874774751332417e-11 	101324.9999999982
1.174924924924925 	299.9999999999943 	4.67859125991295e-11 	101324.9999999983
1.177427427427427 	299.9999999999366 	4.785683287834747e-11 	101324.9999999982
1.179929929929929 	300.0000000000368 	4.917439880101357e-11 	101324.9999999983
1.182432432432432 	300.0000000000896 	4.617608326909293e-11 	101324.9999999983
1.184934934934934 	300.0000000000115 	4.797344607744377e-11 	101324.9999999984
1.187437437437437 	299.9999999999378 	4.609960688978273e-11 	101324.9999999984
1.189939939939939 	299.9999999999189 	4.793417944730648e-11 	101324.9999999985
1.192442442442442 	299.9999999998709 	4.664294746003357e-11 	101324.9999999986
1.194944944944944 	299.9999999998822 	4.838545005415032e-11 	101324.9999999987
1.197447447447447 	299.9999999999932 	4.702904001699696e-11 	101324.9999999989
1.199949949949949 	300.0000000000317 	4.725284908927206e-11 	101324.9999999992
1.202452452452452 	299.9999999999249 	4.91001399727175e-11 	101324.999999999
1.204954954954955 	299.9999999999103 	4.689192263988448e-11 	101324.999999999
1.207457457457457 	299.9999999999677 	4.956514060822976e-11 	101324.9999999989
1.20995995995996 	299.9999999999603 	4.83076178942286e-11 	101324.9999999988
1.212462462462462 	299.9999999999764 	5.058665829951708e-11 	101324.9999999988
1.214964964964964 	299.9999999999744 	4.921435400516237e-11 	101324.9999999989
1.217467467467467 	299.999999999989 	5.11740063627119e-11 	101324.9999999988
1.219969969969969 	299.9999999999406 	4.998534034013057e-11 	101324.9999999986
1.222472472472472 	300.0000000000144 	5.066014125023676e-11 	101324.9999999985
1.224974974974975 	300.0000000000886 	5.195129453197064e-11 	101324.9999999985
1.227477477477477 	299.999999999987 	4.965855630870658e-11 	101324.9999999985
1.229979979979979 	299.9999999999654 	5.1715897571105e-11 	101324.9999999986
1.232482482482482 	299.9999999999159 	4.935237020411314e-11 	101324.9999999987
1.234984984984984 	299.9999999999157 	5.114993389529313e-11 	101324.9999999989
1.237487487487487 	299.9999999999698 	4.837116285128519e-11 	101324.9999999992
1.239989989989989 	299.9999999999792 	4.925568808814009e-11 	101324.9999999994
1.242492492492492 	300.0000000000438 	5.000038980717916e-11 	101324.9999999995
1.244994994994994 	299.9999999999773 	4.786810755786048e-11 	101324.9999999994
1.247497497497497 	299.9999999999803 	5.000543862105198e-11 	101324.9999999994
1.249999999999999 	300.0000000005834 	4.89254075292071e-11 	101324.9999999994
