-1.25 	300 	1 	101295.6107373854
-1.247497497497497 	299.3432444901702 	37.60587946961889 	101349.5196631094
-1.244994994994995 	299.3550430092102 	35.81561818002367 	101314.2288974854
-1.242492492492492 	299.4350268102066 	34.12552109025354 	101351.9095631748
-1.23998998998999 	299.4812446234693 	32.49011848290219 	101332.659776283
-1.237487487487487 	299.5433095483939 	30.94427489609297 	101355.9927647256
-1.234984984984985 	299.5878699239314 	29.43706636757357 	101348.0766457898
-1.232482482482482 	299.6350777893791 	28.01001493933117 	101361.1796899622
-1.22997997997998 	299.676934762318 	26.61284846976225 	101360.6737643129
-1.227477477477477 	299.7124735087117 	25.28948142490307 	101366.1910510958
-1.224974974974975 	299.7508606963366 	23.99210109780813 	101370.3323580027
-1.222472472472472 	299.7769673726173 	22.7646709150279 	101370.1126461283
-1.21996996996997 	299.8117409879573 	21.56188213317117 	101377.350801669
-1.217467467467467 	299.8298559485461 	20.42518210753168 	101372.4050841675
-1.214964964964965 	299.8608945932406 	19.31551345524911 	101381.5018944938
-1.212462462462462 	299.8717471003648 	18.26614886248596 	101372.1350697156
-1.20995995995996 	299.8994210123576 	17.24612020301349 	101382.5317926756
-1.207457457457457 	299.9041284176135 	16.28097729757523 	101369.5356308927
-1.204954954954955 	299.9287071448982 	15.34785073142473 	101380.6916993997
-1.202452452452452 	299.9278949293214 	14.4628127457314 	101364.3030053351
-1.19994994994995 	299.9497575931172 	13.61320138889565 	101375.9431218382
-1.197447447447447 	299.9446060445543 	12.80457285552259 	101357.0932342362
-1.194944944944945 	299.9643913824301 	12.03382873103133 	101369.3071734764
-1.192442442442442 	299.9559559433133 	11.29704947860717 	101348.8334278869
-1.18993993993994 	299.9737733178554 	10.6016990305937 	101361.2173896137
-1.187437437437437 	299.9627029719667 	9.93175054066014 	101339.5175629953
-1.184934934934935 	299.9789631669163 	9.307807292213996 	101352.0836212495
-1.182432432432432 	299.9662582685481 	8.700716945813909 	101330.0414440525
-1.17992992992993 	299.981539534835 	8.142642915137547 	101343.0612347801
-1.177427427427427 	299.9680554636243 	7.595566071838553 	101321.4168381868
-1.174924924924925 	299.9819430275077 	7.096297821458784 	101334.0579468529
-1.172422422422422 	299.9683203016445 	6.607132440526657 	101313.3626833907
-1.16991991991992 	299.9811965377633 	6.163245171598643 	101325.774388541
-1.167417417417417 	299.9682813311359 	5.727563214351791 	101306.866121527
-1.164914914914915 	299.9814958225718 	5.337309672041293 	101320.4361272344
-1.162412412412412 	299.9693850093682 	4.950645431268578 	101303.2415042924
-1.15990990990991 	299.9820211376307 	4.606822625847732 	101316.6885211482
-1.157407407407407 	299.9705209668543 	4.268721548260793 	101300.8624470321
-1.154904904904904 	299.9831719941698 	3.965443944378763 	101314.7371775394
-1.152402402402403 	299.9729599657614 	3.668172986573148 	101300.9207696351
-1.1498998998999 	299.9862219317712 	3.399824386356147 	101315.8233979309
-1.147397397397397 	299.9776133109182 	3.144743187478 	101304.3119039186
-1.144894894894895 	299.9909399543929 	2.906171639911186 	101319.5132519168
-1.142392392392392 	299.9834326761495 	2.683308192553925 	101309.6043854856
-1.13988988988989 	299.9974525566207 	2.468612831228311 	101325.7825698985
-1.137387387387387 	299.9913848969501 	2.284433868737899 	101317.8369108554
-1.134884884884885 	300.0050374526882 	2.089317580811239 	101333.6924272776
-1.132382382382382 	299.9998737451581 	1.925107754065227 	101326.9942802759
-1.12987987987988 	300.0124880510135 	1.750864388292533 	101341.6948733613
-1.127377377377377 	300.0074271093139 	1.627084227628137 	101335.3116736328
-1.124874874874875 	300.0231564311232 	1.458503706975254 	101353.7253795279
-1.122372372372372 	300.022609644041 	1.341294185704387 	101352.7795029073
-1.11986986986987 	300.0271509550305 	1.169146295332415 	101357.9652826242
-1.117367367367367 	300.031289901375 	1.055107926878768 	101362.6359328729
-1.114864864864865 	300.0325783584851 	0.8977616269517746 	101364.0262536138
-1.112362362362362 	300.0371022693008 	0.8118648811575513 	101369.2408803239
-1.10985985985986 	300.0383651661082 	0.6786197454581832 	101370.6527285847
-1.107357357357357 	300.0414668285486 	0.6218478792125884 	101374.2445985219
-1.104854854854855 	300.0426701481886 	0.5111515575097525 	101375.6199124542
-1.102352352352353 	300.0442843771054 	0.4765850306149639 	101377.4847682567
-1.09984984984985 	300.0450850790828 	0.3837287368799733 	101378.4044798549
-1.097347347347347 	300.0452558225734 	0.3634638348761377 	101378.5801385768
-1.094844844844845 	300.0450207328358 	0.2851822534586268 	101378.2856925114
-1.092342342342342 	300.0441470003294 	0.273649035368962 	101377.239145016
-1.08983983983984 	300.0430964335927 	0.2080554630621445 	101375.9846535072
-1.087337337337337 	300.0410888731646 	0.2015669438501085 	101373.6046732883
-1.084834834834835 	300.0390080849687 	0.1483618133170233 	101371.1356607574
-1.082332332332332 	300.0361567675616 	0.1429269398315129 	101367.7603986542
-1.07982982982983 	300.0329233077842 	0.1014472012350328 	101363.9323945983
-1.077327327327327 	300.0292580058767 	0.09668220076082452 	101359.5967948015
-1.074824824824825 	300.0264143743241 	0.07236748880968227 	101356.2319579266
-1.072322322322323 	300.0226208313081 	0.06506703023781575 	101351.7461612085
-1.06981981981982 	300.0179388465583 	0.05425131955018495 	101346.2086945874
-1.067317317317317 	300.0143937117762 	0.04347620771548751 	101342.0176524598
-1.064814814814815 	300.0119845961868 	0.0301984515247214 	101339.1684570491
-1.062312312312312 	300.0051317789563 	0.0203441891005782 	101331.0670814617
-1.05980980980981 	300.0016964915944 	0.01904075826319827 	101327.0051378848
-1.057307307307307 	299.9997242333113 	0.005634272025951666 	101324.673733355
-1.054804804804805 	299.9963137800278 	0.00944906555357827 	101320.6417121211
-1.052302302302302 	299.9939974081871 	0.01744853645786359 	101317.9034847527
-1.0497997997998 	299.991943717909 	0.02323370179231829 	101315.4756830195
-1.047297297297297 	299.9903184231858 	0.02799020213500406 	101313.5543968994
-1.044794794794795 	299.9890426514263 	0.03177272007625433 	101312.0463831411
-1.042292292292292 	299.9879750064869 	0.03486779913240021 	101310.7842572896
-1.03978978978979 	299.9871739635101 	0.03705564049180626 	101309.8373066671
-1.037287287287287 	299.9869494964734 	0.03756503521139989 	101309.5719707304
-1.034784784784785 	299.9876358158858 	0.0355605302661333 	101310.3831120704
-1.032282282282283 	299.9893113941137 	0.0308031604982851 	101312.3637008666
-1.02977977977978 	299.9917392405625 	0.02388291631534969 	101315.2336319182
-1.027277277277277 	299.994599796001 	0.01560771983001867 	101318.6150765496
-1.024774774774775 	299.9977017301684 	0.006610944475212963 	101322.2820539404
-1.022272272272272 	300.0009888950133 	0.00522504850957472 	101326.1681149119
-1.01976976976977 	300.00446974081 	0.01302149549543816 	101330.2831488024
-1.017267267267267 	300.0081455551453 	0.0236667894696256 	101334.6289063821
-1.014764764764765 	300.0119764251346 	0.0347213339876916 	101339.1581339687
-1.012262262262262 	300.0158867598023 	0.04596832954282844 	101343.7813671304
-1.00975975975976 	300.0198012904905 	0.05720273027375165 	101348.4098270296
-1.007257257257257 	300.0236385998729 	0.06831796467925766 	101352.9471086648
-1.004754754754755 	300.027331251098 	0.07903016792018164 	101357.3134152892
-1.002252252252252 	300.0308560152069 	0.08925883790693537 	101361.4814800864
-0.9997497497497498 	300.0341868278674 	0.09885416763861131 	101365.4201998889
-0.9972472472472473 	300.0372224832494 	0.1076001806943538 	101369.009957314
-0.9947447447447449 	300.0398825469793 	0.1153840328058462 	101372.15583921
-0.9922422422422421 	300.042170024585 	0.1220075793327555 	101374.8609829398
-0.9897397397397399 	300.0440763037155 	0.1274690536884715 	101377.1153695901
-0.9872372372372376 	300.0455124809495 	0.1315781519412839 	101378.8140048523
-0.9847347347347346 	300.0463924607627 	0.1340866092110401 	101379.8547276795
-0.9822322322322323 	300.0467213653725 	0.1350658481945241 	101380.2436851563
-0.9797297297297296 	300.0465750594468 	0.1346432943534323 	101380.0707391601
-0.9772272272272275 	300.0459808374486 	0.1329009132240424 	101379.3680307591
-0.9747247247247248 	300.0448702688526 	0.1296899327671799 	101378.0546857227
-0.9722222222222224 	300.0431890079282 	0.1248566645557572 	101376.066496175
-0.9697197197197196 	300.0409759155182 	0.1185070051534923 	101373.4492940901
-0.9672172172172175 	300.0383220020531 	0.1108273013094375 	101370.3108698802
-0.9647147147147147 	300.0353194152565 	0.102141708161746 	101366.7602088081
-0.9622122122122124 	300.032062929005 	0.09271648282677733 	101362.9093129054
-0.9597097097097099 	300.0286038772696 	0.0826713036938834 	101358.8190725912
-0.9572072072072073 	300.0249552878967 	0.07211897175691001 	101354.5048147783
-0.9547047047047047 	300.0211251285913 	0.06099342136447622 	101349.9759150594
-0.9522022022022023 	300.0171304059073 	0.04943014998633694 	101345.2527373973
-0.9496996996996998 	300.0130630402579 	0.03778378948495299 	101340.4437163942
-0.9471971971971973 	300.0091207332505 	0.02643898699732306 	101335.7826281747
-0.9446946946946947 	300.0054805527366 	0.01594262341299857 	101331.4790438875
-0.9421921921921923 	300.0022342153882 	0.006513063074378725 	101327.6410539222
-0.93968968968969 	299.9993549445673 	0.004241164317499206 	101324.2371288947
-0.9371871871871872 	299.996739002277 	0.009475940742825604 	101321.1446974124
-0.9346846846846848 	299.9943312039264 	0.01643618724132781 	101318.2982585462
-0.9321821821821823 	299.9922013107152 	0.02259161550904119 	101315.7804156704
-0.9296796796796799 	299.9904667403177 	0.02757186221494958 	101313.7299800666
-0.9271771771771771 	299.9892818792769 	0.03093402750275225 	101312.3292473665
-0.9246746746746748 	299.9887790746394 	0.03231702317203631 	101311.7348445189
-0.9221721721721724 	299.9890097483099 	0.03165006828780027 	101312.007500459
-0.9196696696696698 	299.9899547442368 	0.02892714211086538 	101313.1244385382
-0.9171671671671672 	299.9915443570935 	0.02437409849822769 	101315.0035074959
-0.9146646646646649 	299.9936555884138 	0.01829460972057573 	101317.4992020647
-0.9121621621621623 	299.9961803673528 	0.0109844992176979 	101320.4837539711
-0.9096596596596597 	299.9990149189965 	0.003121824709072123 	101323.8347259831
-0.9071571571571573 	300.0021006095953 	0.006098833357795763 	101327.4825599407
-0.9046546546546547 	300.0054356929002 	0.01580355737883294 	101331.425313213
-0.9021521521521524 	300.0090370328107 	0.02624375535958126 	101335.6830956902
-0.8996496496496498 	300.0128782461969 	0.03736001155880441 	101340.2244995659
-0.8971471471471473 	300.0168593913602 	0.04881630078992132 	101344.9315520034
-0.894644644644645 	300.0208311385909 	0.06025052407865335 	101349.627715549
-0.892142142142142 	300.0246767228635 	0.07141116060064184 	101354.1747401204
-0.8896396396396397 	300.0283764939435 	0.08214295092511713 	101358.5495934936
-0.8871371371371374 	300.0319624593691 	0.09251865277071984 	101362.7899924722
-0.8846346346346349 	300.0354081514231 	0.1024354272677808 	101366.8645582021
-0.8821321321321324 	300.0386086529474 	0.1116347156631122 	101370.6494432063
-0.8796296296296297 	300.0414226265764 	0.1197926312304798 	101373.9772337035
-0.8771271271271271 	300.0437596239889 	0.1265758151806536 	101376.7409696012
-0.8746246246246248 	300.0456376808245 	0.1320488088604188 	101378.9621515448
-0.8721221221221224 	300.0471310969564 	0.1363453100306801 	101380.7283482357
-0.8696196196196196 	300.0482621971931 	0.1395653174600189 	101382.0660479404
-0.8671171171171175 	300.0489727438367 	0.1416131479141095 	101382.9065069419
-0.8646146146146148 	300.0491370922944 	0.142036528812601 	101383.1008512629
-0.8621121121121121 	300.0486494624529 	0.1406230943759447 	101382.524179987
-0.8596096096096097 	300.0475101555688 	0.137342454482988 	101381.1768955692
-0.857107107107107 	300.045820065988 	0.1324723156600908 	101379.1781387589
-0.8546046046046049 	300.0437178385905 	0.1264890605478951 	101376.6920642899
-0.8521021021021022 	300.0413179198579 	0.1195271244846589 	101373.8539043695
-0.8495995995995997 	300.0386296861872 	0.1116834071660416 	101370.6748265334
-0.8470970970970974 	300.035602067445 	0.1028829763012049 	101367.0946381175
-0.8445945945945946 	300.0322130768797 	0.09303646499604652 	101363.0870327037
-0.8420920920920922 	300.0285027572211 	0.08237263645420186 	101358.6995990128
-0.8395895895895897 	300.0245856793751 	0.07109389716178793 	101354.067960559
-0.8370870870870872 	300.020616333336 	0.0596143475816551 	101349.3744795235
-0.8345845845845846 	300.0166981719447 	0.0483021658374527 	101344.7417286061
-0.8320820820820823 	300.0128966875151 	0.0373111092301032 	101340.2471523593
-0.8295795795795798 	300.0092672905326 	0.02683781391878292 	101335.9560401999
-0.8270770770770772 	300.0058333814977 	0.01687362189721605 	101331.8962673546
-0.8245745745745746 	300.0026278056945 	0.007566947913393752 	101328.1065235274
-0.8220720720720721 	299.9997051635619 	0.003912237360915894 	101324.6512886355
-0.8195695695695699 	299.9971181437853 	0.008373178683900768 	101321.5930121692
-0.817067067067067 	299.9949660538259 	0.01449496459546005 	101319.0488385724
-0.8145645645645651 	299.9933808307712 	0.01908671727921929 	101317.1748045631
-0.8120620620620621 	299.9924145953032 	0.02188342651461986 	101316.0325855706
-0.8095595595595597 	299.9920935169769 	0.02276112133706102 	101315.6529416395
-0.8070570570570572 	299.9923950112556 	0.02190226622093663 	101316.0093035677
-0.8045545545545546 	299.9932754083097 	0.01932768922087406 	101317.0500083685
-0.8020520520520523 	299.9946927781579 	0.01527449726027156 	101318.7254229851
-0.7995495495495494 	299.9965960709773 	0.009898189880103384 	101320.9754365375
-0.7970470470470474 	299.998854411463 	0.003317207878631003 	101323.6451143274
-0.7945445445445446 	300.0014386552594 	0.004923743856355107 	101326.7000816526
-0.7920420420420423 	300.0043747456725 	0.01274344148697011 	101330.1712767036
-0.7895395395395397 	300.0076390098148 	0.02220322604792825 	101334.0303526418
-0.7870370370370371 	300.0111872628678 	0.03247120460312789 	101338.2253229201
-0.7845345345345348 	300.0149695250233 	0.04338740295437846 	101342.69726487
-0.7820320320320323 	300.0188988780586 	0.05469601427464762 	101347.3430795973
-0.7795295295295296 	300.022860465905 	0.06613397431577611 	101352.0272578377
-0.7770270270270272 	300.0267659867971 	0.07743742373947325 	101356.645339683
-0.7745245245245247 	300.0305573408876 	0.0884034700484068 	101361.1284655127
-0.7720220220220222 	300.0342073108503 	0.09896576319321418 	101365.4446650066
-0.7695195195195199 	300.0376983091688 	0.109057987543641 	101369.5729299446
-0.767017017017017 	300.0409751954817 	0.118525025983558 	101373.4481033286
-0.7645145145145147 	300.0439522019685 	0.1271458704423276 	101376.9688366209
-0.7620120120120122 	300.0465493605139 	0.1346294479608143 	101380.0403321896
-0.7595095095095097 	300.0486954469777 	0.140786995097518 	101382.5784698994
-0.7570070070070072 	300.050356911624 	0.1455982467691408 	101384.5435249801
-0.7545045045045048 	300.0515419778333 	0.1490424546895751 	101385.9451032625
-0.7520020020020022 	300.0522648999938 	0.1511596259097354 	101386.8002033668
-0.7494994994994997 	300.0525289786123 	0.1519164187047451 	101387.1125259139
-0.7469969969969972 	300.0523073182197 	0.1512073202029032 	101386.8503150452
-0.7444944944944945 	300.0515487642132 	0.1490009092852219 	101385.9533730252
-0.7419919919919924 	300.0502203701944 	0.1451653103185909 	101384.3823049354
-0.7394894894894897 	300.048337303482 	0.1397379188380522 	101382.1552653709
-0.7369869869869872 	300.0459599452632 	0.1328745429581218 	101379.343820088
-0.7344844844844846 	300.0431751185614 	0.1247835953768806 	101376.0503542631
-0.7319819819819822 	300.0400631898008 	0.1158197218037234 	101372.3702152638
-0.7294794794794797 	300.0367093050058 	0.1061394696594831 	101368.4040782596
-0.7269769769769773 	300.0331732990957 	0.09592737913492876 	101364.2225788354
-0.7244744744744747 	300.0295033237456 	0.08531695332340561 	101359.8829109993
-0.721971971971972 	300.0257335090977 	0.07434377044914577 	101355.4252504015
-0.7194694694694695 	300.0218962709769 	0.06323820391985374 	101350.887959801
-0.7169669669669674 	300.0180431507019 	0.0521207657899453 	101346.3321323929
-0.7144644644644647 	300.0142871209598 	0.04126028361510498 	101341.8911547848
-0.711961961961962 	300.0107222159044 	0.03098441400439012 	101337.6762821459
-0.7094594594594597 	300.00743886352 	0.02148910070737347 	101333.7944414786
-0.7069569569569573 	300.0045341327727 	0.01311242418098812 	101330.3602736864
-0.7044544544544545 	300.0020665015342 	0.006012211562679759 	101327.4429735592
-0.7019519519519523 	300.0000921238612 	0.001982071103935885 	101325.1087739321
-0.6994494494494495 	299.9986766042032 	0.003745456149728557 	101323.4352935772
-0.6969469469469471 	299.9978633683002 	0.006153209669704868 	101322.4739259201
-0.6944444444444446 	299.997628470108 	0.006816318710611322 	101322.1961164835
-0.6919419419419421 	299.9979458542427 	0.005894408104852972 	101322.5712984882
-0.6894394394394396 	299.9987255096398 	0.003680890279117279 	101323.4930132329
-0.6869369369369374 	299.9998718069223 	0.001309445216551349 	101324.8480303864
-0.6844344344344344 	300.0014044827029 	0.004159986943603616 	101326.6599520448
-0.6819319319319321 	300.0033743967204 	0.009880371661097672 	101328.9887424211
-0.6794294294294296 	300.0057788136172 	0.01684177629218316 	101331.8312115733
-0.6769269269269272 	300.0085872393567 	0.02497262782495636 	101335.1515846544
-0.6744244244244245 	300.011774571148 	0.03420165548689077 	101338.9198639114
-0.6719219219219222 	300.0153205784759 	0.04445966536229409 	101343.1123631204
-0.6694194194194195 	300.0191800654796 	0.05560372232436254 	101347.6757642664
-0.6669169169169172 	300.0232522862498 	0.06734608500613322 	101352.4906890723
-0.6644144144144146 	300.0273929116677 	0.07929187704331854 	101357.3867282903
-0.661911911911912 	300.0314732690989 	0.09108946708548846 	101362.211668049
-0.6594094094094097 	300.0354345300576 	0.1025661521770425 	101366.8958529484
-0.656906906906907 	300.0392805394665 	0.1137065539421302 	101371.4440424706
-0.6544044044044046 	300.0430081992695 	0.1244754051945927 	101375.8523276522
-0.6519019019019021 	300.0465418589637 	0.1346578571871421 	101380.0313626589
-0.6493993993993996 	300.0497458415264 	0.1438938016834413 	101383.8207604131
-0.6468968968968971 	300.0525095435996 	0.1518918487381389 	101387.0894106628
-0.6443943943943946 	300.0548207832916 	0.1586108971835162 	101389.8230514821
-0.6418918918918921 	300.0567472746091 	0.1642069403561734 	101392.1016772719
-0.6393893893893897 	300.0583332750613 	0.1687738526003126 	101393.9775183168
-0.6368868868868871 	300.0595137059316 	0.1721314263501363 	101395.3737902813
-0.6343843843843846 	300.0601381740622 	0.1738891974989524 	101396.1123737824
-0.6318818818818821 	300.0600900746869 	0.1737521424368709 	101396.0553770919
-0.6293793793793795 	300.0593938028459 	0.1717896451541005 	101395.2319662996
-0.6268768768768773 	300.0582051301478 	0.1684032265239567 	101393.8260188997
-0.6243743743743745 	300.0566831247407 	0.1640031971697999 	101392.0254978115
-0.6218718718718721 	300.0548623577206 	0.1586867015663189 	101389.8720157231
-0.6193693693693696 	300.0526454573631 	0.1522156245596296 	101387.2503804403
-0.6168668668668671 	300.0499197959946 	0.1443170346957478 	101384.0269987916
-0.6143643643643645 	300.046696314451 	0.1350387406628637 	101380.2147132628
-0.6118618618618621 	300.0431467853052 	0.1248404869413133 	101376.0169474677
-0.6093593593593596 	300.0395019582633 	0.1143322323695911 	101371.7066804112
-0.6068568568568571 	300.0359009455711 	0.1038915892145048 	101367.4482007207
-0.6043543543543546 	300.0323290641354 	0.0935069228178517 	101363.2243995253
-0.6018518518518521 	300.0287003341779 	0.08298842122087051 	101358.9334874317
-0.5993493493493496 	300.0250119495491 	0.0723656943301066 	101354.5720728169
-0.5968468468468471 	300.0214381106557 	0.06212160315467957 	101350.3463578323
-0.5943443443443446 	300.0182700809939 	0.05303434799448628 	101346.600418847
-0.591841841841842 	300.0157444459962 	0.04573240683486537 	101343.6141168826
-0.5893393393393397 	300.0138946779123 	0.04030492211474913 	101341.4271212076
-0.5868368368368371 	300.0125378957263 	0.03627797483649708 	101339.8228446784
-0.5843343343343346 	300.0114242404546 	0.03300458218756494 	101338.506152718
-0.5818318318318321 	300.0104375553509 	0.03019191277580991 	101337.3396325023
-0.5793293293293297 	300.0097052315081 	0.02819222916792102 	101336.4736843726
-0.5768268268268271 	300.009546368577 	0.02788427249429593 	101336.2858718025
-0.5743243243243245 	300.0103234199813 	0.03025091957090024 	101337.2044711815
-0.5718218218218221 	300.0122486415146 	0.03580471579810086 	101339.4804810434
-0.5693193193193196 	300.0151643404495 	0.04405728430128993 	101342.9278086588
-0.5668168168168171 	300.0185149646915 	0.0535185527124552 	101346.8894053959
-0.5643143143143147 	300.0216483426 	0.06244207340357043 	101350.5943080105
-0.5618118118118121 	300.0241806524934 	0.06980892883404194 	101353.5886417666
-0.5593093093093094 	300.0262235970345 	0.07594116607423342 	101356.0042803229
-0.5568068068068072 	300.0283605586654 	0.08243527695245366 	101358.5311213299
-0.5543043043043046 	300.0313868016829 	0.09148560060349556 	101362.1094372413
-0.551801801801802 	300.0359868837038 	0.1049467950779338 	101367.5489612165
-0.5492992992992995 	300.0424021039885 	0.1233997882592302 	101375.1353402142
-0.5467967967967969 	300.0501838691848 	0.1455582539033061 	101384.3383060466
-0.5442942942942947 	300.0582659546666 	0.1684907620257363 	101393.8973238529
-0.5417917917917919 	300.0653638175393 	0.1886311387444047 	101402.2928567836
-0.5392892892892895 	300.0704015304959 	0.2029885681267856 	101408.2519783212
-0.536786786786787 	300.0728524380935 	0.2101345481006965 	101411.1514743861
-0.5342842842842846 	300.0729566332801 	0.2107749129620601 	101411.2745544488
-0.531781781781782 	300.0716997414448 	0.207650880418558 	101409.7879606253
-0.5292792792792794 	300.0704981580462 	0.2046975986510534 	101408.3667519447
-0.526776776776777 	300.0707589481898 	0.205882509554143 	101408.6753837074
-0.5242742742742745 	300.0735560984842 	0.2142277189997255 	101411.9838399982
-0.521771771771772 	300.0793934962731 	0.2311087330079271 	101418.8885045708
-0.5192692692692695 	300.0880375526906 	0.2558253574164245 	101429.1141933958
-0.516766766766767 	300.098516265587 	0.2856505067675078 	101441.5116762504
-0.5142642642642645 	300.1093659125132 	0.316499897825769 	101454.3491988791
-0.511761761761762 	300.1190200743972 	0.3439475961354621 	101465.7733803661
-0.5092592592592596 	300.126114744884 	0.364103465606616 	101474.1696480273
-0.506756756756757 	300.1296704931153 	0.3741692163375742 	101478.3778866902
-0.5042542542542544 	300.1291950108068 	0.3727343404561964 	101477.8142886521
-0.5017517517517521 	300.1247042496884 	0.3598486397382763 	101472.5006771234
-0.4992492492492494 	300.1166845704787 	0.3368794269381239 	101463.0112515857
-0.496746746746747 	300.1059651968645 	0.3061696095793893 	101450.3274012314
-0.4942442442442445 	300.0935523145666 	0.2705697461685571 	101435.6408744065
-0.4917417417417421 	300.080458151484 	0.2329527860895211 	101420.1498584764
-0.4892392392392395 	300.0675544714233 	0.1958073030265289 	101404.8857974344
-0.486736736736737 	300.0554856945481 	0.1609963371424082 	101390.610809348
-0.4842342342342345 	300.0446577063288 	0.1297098263768616 	101377.8046201743
-0.481731731731732 	300.0352718869439 	0.1025486289591739 	101366.7049828062
-0.4792292292292296 	300.0273723453312 	0.07965681529513283 	101357.363663875
-0.4767267267267268 	300.0208931634004 	0.06085715561930094 	101349.7023823402
-0.4742242242242246 	300.0157000386496 	0.04577127139512482 	101343.5620792342
-0.471721721721722 	300.0116237341099 	0.03391660593609978 	101338.7424706998
-0.4692192192192195 	300.0084847813539 	0.02477836791491048 	101335.0312422698
-0.4667167167167169 	300.0061101517473 	0.01785834766393816 	101332.2237436512
-0.4642142142142145 	300.0043432675246 	0.0127044503894515 	101330.1348082469
-0.461711711711712 	300.0030489239488 	0.008925436802787016 	101328.6045610844
-0.4592092092092094 	300.0021146254001 	0.006195182704110677 	101327.4999885554
-0.456706706706707 	300.0014496092945 	0.004250148828226203 	101326.7137788001
-0.4542042042042045 	300.0009825572201 	0.002882960949088454 	101326.1616125084
-0.451701701701702 	300.0006587188304 	0.001934212662493468 	101325.7787594515
-0.4491991991991995 	300.0004369304021 	0.001283912759519038 	101325.5165537576
-0.4466966966966969 	300.0002868265316 	0.0008434470457906926 	101325.3390960453
-0.4441941941941945 	300.0001863964808 	0.0005485139595603263 	101325.2203642879
-0.441691691691692 	300.00011994324 	0.0003532108387053539 	101325.1418011246
-0.4391891891891895 	300.0000764426936 	0.0002252676879691847 	101325.0903732713
-0.436686686686687 	300.0000482629109 	0.0001423240619734744 	101325.0570581916
-0.4341841841841846 	300.0000301925199 	8.909692126291577e-05 	101325.0356947197
-0.431681681681682 	300.0000187187591 	5.527611944188249e-05 	101325.0221300924
-0.4291791791791794 	300.0000115034613 	3.399254120484104e-05 	101325.013599925
-0.426676676676677 	300.0000070085595 	2.072420495850131e-05 	101325.0082859141
-0.4241741741741744 	300.0000042340762 	1.25283219241716e-05 	101325.0050057336
-0.421671671671672 	300.0000025367936 	7.511013788596478e-06 	101325.0029990773
-0.4191691691691694 	300.0000015075773 	4.466428379234829e-06 	101325.0017822398
-0.4166666666666669 	300.0000008887889 	2.63476877764667e-06 	101325.0010506691
-0.4141641641641645 	300.0000005197358 	1.542069849429373e-06 	101325.0006145358
-0.411661661661662 	300.0000003017 	8.95581715501133e-07 	101325.0003566701
-0.4091591591591594 	300.0000001737779 	5.161772518826963e-07 	101325.0002054371
-0.406656656656657 	300.0000000992808 	2.952869778990515e-07 	101325.0001174449
-0.4041541541541545 	300.0000000564025 	1.676802564904746e-07 	101325.0000666468
-0.401651651651652 	300.0000000316775 	9.453420109092677e-08 	101325.0000375455
-0.3991491491491494 	300.0000000177664 	5.29123289815554e-08 	101325.0000209992
-0.396646646646647 	300.0000000098186 	2.941429822650854e-08 	101325.000011661
-0.3941441441441444 	300.0000000054242 	1.623366208571045e-08 	101325.0000064291
-0.3916416416416419 	300.0000000029106 	8.904204251961534e-09 	101325.0000035189
-0.3891391391391395 	300.0000000015767 	4.847206618553631e-09 	101325.0000019114
-0.3866366366366368 	300.0000000008325 	2.624683482513289e-09 	101325.0000010293
-0.3841341341341344 	300.0000000004669 	1.409497475672701e-09 	101325.0000005486
-0.381631631631632 	300.0000000001903 	7.533626787132452e-10 	101325.0000002882
-0.3791291291291294 	300.0000000001384 	3.991170530277052e-10 	101325.0000001483
-0.3766266266266269 	300.0000000000979 	2.098158491595931e-10 	101325.0000000732
-0.3741241241241244 	300.0000000000663 	1.107847393293201e-10 	101325.0000000334
-0.371621621621622 	300.0000000000387 	5.667011825198816e-11 	101325.0000000123
-0.3691191191191194 	300.0000000000232 	3.197678164726608e-11 	101325.0000000016
-0.366616616616617 	300.0000000000168 	1.510127925622129e-11 	101324.999999996
-0.3641141141141143 	299.9999999999629 	1.097443751323145e-11 	101324.9999999929
-0.3616116116116119 	299.9999999999388 	5.062334049445811e-12 	101324.9999999915
-0.3591091091091095 	299.9999999999813 	4.471284101569618e-12 	101324.9999999909
-0.356606606606607 	299.9999999999669 	2.671167823943367e-12 	101324.9999999906
-0.3541041041041044 	299.9999999999878 	1.762467547428349e-12 	101324.9999999903
-0.3516016016016019 	300.0000000000076 	2.546123747215561e-12 	101324.9999999905
-0.3490990990990994 	299.999999999993 	1.442716587443993e-12 	101324.9999999903
-0.346596596596597 	300.0000000000502 	4.576646551910437e-12 	101324.9999999905
-0.3440940940940944 	300.0000000000596 	2.431618809881083e-12 	101324.9999999908
-0.3415915915915919 	300.0000000000188 	5.397449265103885e-12 	101324.9999999906
-0.3390890890890895 	299.9999999999737 	3.043283768215897e-12 	101324.9999999905
-0.3365865865865869 	300.0000000000255 	4.835743595216556e-12 	101324.9999999906
-0.3340840840840844 	300.0000000000055 	3.638561433182933e-12 	101324.9999999904
-0.3315815815815819 	300.0000000000238 	4.766815545290402e-12 	101324.9999999904
-0.3290790790790794 	300.0000000000219 	3.652526187524137e-12 	101324.9999999907
-0.3265765765765769 	299.9999999999131 	4.653665472648763e-12 	101324.9999999906
-0.3240740740740744 	299.9999999999932 	2.527743646698651e-12 	101324.9999999904
-0.3215715715715718 	300.0000000000041 	4.323516646354371e-12 	101324.9999999902
-0.3190690690690695 	299.9999999999171 	1.818076110060407e-12 	101324.9999999902
-0.3165665665665668 	299.9999999999927 	4.281378586842416e-12 	101324.99999999
-0.3140640640640644 	300.0000000000049 	8.856944413222088e-13 	101324.9999999898
-0.311561561561562 	299.9999999999135 	5.069537344061709e-12 	101324.9999999897
-0.3090590590590593 	299.9999999999967 	1.079762884877726e-12 	101324.9999999896
-0.3065565565565568 	300.0000000000105 	6.516690800269086e-12 	101324.9999999899
-0.3040540540540545 	300.0000000000031 	1.351322688596098e-12 	101324.99999999
-0.3015515515515518 	300.0000000000441 	6.631408563248324e-12 	101324.9999999898
-0.2990490490490494 	299.9999999999383 	2.920776636111578e-12 	101324.9999999899
-0.2965465465465469 	299.9999999999838 	5.370007460881042e-12 	101324.9999999898
-0.2940440440440444 	300.0000000000028 	3.361008843337424e-12 	101324.9999999899
-0.2915415415415418 	300.0000000000013 	3.685693947054451e-12 	101324.9999999899
-0.2890390390390395 	300.0000000000032 	3.514346924364959e-12 	101324.9999999901
-0.2865365365365368 	299.999999999979 	2.311528690233013e-12 	101324.9999999904
-0.2840340340340343 	300.0000000000011 	4.293105492568252e-12 	101324.9999999904
-0.2815315315315318 	299.9999999999155 	2.106049973113459e-12 	101324.9999999901
-0.2790290290290295 	299.9999999999552 	4.313821101012589e-12 	101324.99999999
-0.2765265265265269 	300.0000000000099 	3.107369927251514e-12 	101324.9999999898
-0.2740240240240244 	300.0000000000297 	4.016227955198544e-12 	101324.99999999
-0.2715215215215219 	300.0000000000124 	3.871599066190148e-12 	101324.99999999
-0.2690190190190194 	299.999999999935 	3.715515074974686e-12 	101324.99999999
-0.2665165165165169 	299.9999999999981 	4.27141636671178e-12 	101324.99999999
-0.2640140140140144 	299.9999999999574 	2.968854726539279e-12 	101324.9999999902
-0.2615115115115119 	300.0000000000013 	4.364044024709012e-12 	101324.9999999903
-0.2590090090090094 	299.9999999999189 	2.620741000976312e-12 	101324.99999999
-0.2565065065065068 	299.9999999999943 	3.279009691242787e-12 	101324.9999999899
-0.2540040040040044 	299.9999999999977 	3.83836332326069e-12 	101324.9999999899
-0.2515015015015019 	300.0000000000447 	2.627839211644462e-12 	101324.9999999898
-0.2489989989989994 	300.0000000000504 	5.101042029174967e-12 	101324.9999999899
-0.2464964964964968 	299.9999999999894 	2.403487225092214e-12 	101324.9999999899
-0.2439939939939944 	299.999999999996 	6.790579246883128e-12 	101324.99999999
-0.2414914914914919 	299.9999999999659 	1.957065460238697e-12 	101324.9999999901
-0.2389889889889893 	300.0000000000105 	7.005466647348349e-12 	101324.9999999901
-0.2364864864864869 	300.000000000025 	2.783827168621695e-12 	101324.9999999901
-0.2339839839839843 	299.9999999999172 	7.631922869245976e-12 	101324.9999999902
-0.2314814814814819 	299.9999999999782 	3.354255089213942e-12 	101324.99999999
-0.2289789789789792 	299.9999999999047 	7.100568793292657e-12 	101324.9999999898
-0.2264764764764769 	299.9999999999405 	4.069853657523789e-12 	101324.9999999897
-0.2239739739739743 	299.9999999999508 	5.830863292497377e-12 	101324.9999999895
-0.2214714714714718 	299.9999999999313 	4.002178071024263e-12 	101324.9999999895
-0.2189689689689693 	299.9999999999626 	3.196852841327652e-12 	101324.9999999894
-0.2164664664664669 	299.9999999999797 	4.049168473439922e-12 	101324.9999999892
-0.2139639639639643 	299.9999999999233 	2.909505315829593e-12 	101324.9999999891
-0.2114614614614618 	299.9999999999685 	4.033962705283788e-12 	101324.999999989
-0.2089589589589593 	299.9999999999873 	3.835779586144714e-12 	101324.9999999888
-0.2064564564564568 	299.9999999999863 	3.351783401657129e-12 	101324.9999999888
-0.2039539539539543 	299.9999999998892 	4.822201027637542e-12 	101324.9999999891
-0.2014514514514518 	299.9999999999417 	2.703085979944505e-12 	101324.9999999892
-0.1989489489489494 	299.999999999963 	6.413396231792785e-12 	101324.9999999894
-0.1964464464464468 	299.999999999992 	2.733749204170089e-12 	101324.9999999895
-0.1939439439439443 	299.9999999999811 	5.933183370783944e-12 	101324.9999999894
-0.1914414414414418 	299.999999999903 	2.250531147470668e-12 	101324.9999999897
-0.1889389389389393 	300.0000000000043 	3.717906025159467e-12 	101324.9999999898
-0.1864364364364368 	300.0000000000467 	2.013558555467292e-12 	101324.9999999901
-0.1839339339339343 	299.9999999999704 	3.626488617639941e-12 	101324.9999999903
-0.1814314314314318 	299.9999999999937 	2.553304450013867e-12 	101324.9999999903
-0.1789289289289293 	299.9999999998831 	4.864697546369786e-12 	101324.9999999904
-0.1764264264264268 	299.9999999999737 	2.06502496308152e-12 	101324.99999999
-0.1739239239239243 	299.9999999998809 	4.939379472657666e-12 	101324.9999999898
-0.1714214214214218 	299.9999999999862 	9.613449468380375e-13 	101324.9999999896
-0.1689189189189193 	299.9999999999453 	5.088922231813329e-12 	101324.9999999895
-0.1664164164164168 	300.0000000000051 	2.448739982973802e-12 	101324.9999999895
-0.1639139139139143 	299.9999999999779 	6.126244955243098e-12 	101324.9999999896
-0.1614114114114118 	300.0000000000301 	4.173792906630108e-12 	101324.9999999896
-0.1589089089089093 	299.9999999999911 	8.371195460412502e-12 	101324.9999999898
-0.1564064064064068 	299.9999999999804 	5.235130421612275e-12 	101324.9999999897
-0.1539039039039043 	299.9999999999896 	9.017217051538974e-12 	101324.99999999
-0.1514014014014018 	300.0000000000296 	4.037188200936098e-12 	101324.99999999
-0.1488988988988993 	299.9999999999781 	8.882254693689354e-12 	101324.9999999902
-0.1463963963963968 	300.0000000000019 	2.31422070205206e-12 	101324.9999999905
-0.1438938938938943 	299.9999999999438 	7.702053214392926e-12 	101324.9999999904
-0.1413913913913918 	299.9999999999092 	1.150027904602435e-12 	101324.9999999906
-0.1388888888888893 	299.9999999999771 	5.624952201043071e-12 	101324.9999999907
-0.1363863863863868 	299.9999999998731 	4.958228985988305e-13 	101324.9999999909
-0.1338838838838843 	299.9999999999021 	4.165807768292849e-12 	101324.9999999909
-0.1313813813813818 	299.9999999999986 	4.74164591473144e-13 	101324.9999999908
-0.1288788788788793 	299.9999999999563 	3.711722387213628e-12 	101324.9999999907
-0.1263763763763768 	299.9999999999687 	4.17686801842286e-13 	101324.9999999903
-0.1238738738738743 	299.9999999999221 	4.073697785766844e-12 	101324.9999999901
-0.1213713713713717 	299.999999999979 	7.555047830267558e-13 	101324.99999999
-0.1188688688688693 	300.0000000000072 	4.690639083801695e-12 	101324.9999999902
-0.1163663663663668 	299.9999999998905 	1.679757249873614e-12 	101324.99999999
-0.1138638638638643 	299.9999999999835 	4.465221724210835e-12 	101324.9999999899
-0.1113613613613618 	299.9999999999852 	2.346487673496297e-12 	101324.99999999
-0.1088588588588592 	299.999999999972 	5.100006166354936e-12 	101324.9999999901
-0.1063563563563568 	299.9999999999501 	2.049948690416393e-12 	101324.9999999903
-0.1038538538538543 	299.999999999971 	4.270091746151758e-12 	101324.9999999904
-0.1013513513513517 	300.0000000000151 	1.239101307063125e-12 	101324.9999999904
-0.09884884884884926 	299.9999999999382 	3.583390723391308e-12 	101324.9999999903
-0.09634634634634676 	299.9999999998758 	4.888260862890965e-13 	101324.9999999903
-0.09384384384384425 	299.9999999999191 	2.237569442859388e-12 	101324.9999999903
-0.09134134134134177 	300.0000000000242 	2.804751226357725e-13 	101324.9999999901
-0.08883883883883925 	300.0000000000103 	1.913448086873915e-12 	101324.9999999901
-0.08633633633633674 	299.9999999999472 	9.066377155296816e-13 	101324.9999999902
-0.08383383383383426 	300.0000000000138 	1.493268883511619e-12 	101324.9999999899
-0.08133133133133173 	299.9999999999626 	1.664642121555358e-12 	101324.9999999898
-0.07882882882882926 	299.9999999998671 	1.701202353779482e-12 	101324.9999999897
-0.07632632632632676 	299.9999999999538 	1.985994657059496e-12 	101324.9999999895
-0.07382382382382424 	299.9999999998829 	2.270501297563237e-12 	101324.9999999894
-0.07132132132132173 	300.0000000000149 	1.755319241699632e-12 	101324.9999999892
-0.06881881881881925 	299.9999999999496 	1.412412654791933e-12 	101324.9999999894
-0.06631631631631671 	299.999999999874 	9.601848329457772e-13 	101324.9999999894
-0.06381381381381425 	299.9999999999474 	6.80545294527802e-13 	101324.9999999895
-0.06131131131131173 	299.9999999999507 	7.97885693416954e-13 	101324.9999999894
-0.05880880880880923 	299.9999999999097 	1.299939971017854e-12 	101324.9999999894
-0.05630630630630672 	299.9999999999583 	2.13928553256969e-12 	101324.9999999894
-0.05380380380380424 	300.0000000000156 	2.844675139221095e-12 	101324.9999999893
-0.05130130130130173 	300.0000000000139 	3.614684878635787e-12 	101324.9999999897
-0.04879879879879922 	299.9999999999301 	4.412704115790504e-12 	101324.9999999897
-0.04629629629629672 	299.9999999999218 	4.194251428781345e-12 	101324.9999999896
-0.04379379379379422 	299.9999999999038 	4.223351961641165e-12 	101324.9999999898
-0.04129129129129173 	299.9999999999714 	3.707753099288566e-12 	101324.9999999897
-0.03878878878878922 	299.9999999999784 	3.502582702476098e-12 	101324.9999999899
-0.03628628628628671 	299.9999999999757 	2.836360281259989e-12 	101324.9999999902
-0.03378378378378422 	299.9999999999141 	3.540245598832077e-12 	101324.9999999907
-0.03128128128128172 	299.9999999999609 	2.491319723101649e-12 	101324.9999999906
-0.02877877877877922 	299.9999999999625 	2.980790153834021e-12 	101324.9999999902
-0.0262762762762767 	299.9999999998871 	2.453506384554285e-12 	101324.9999999901
-0.02377377377377422 	300.0000000000222 	2.237175000003351e-12 	101324.9999999901
-0.0212712712712717 	299.9999999998905 	2.267658794630211e-12 	101324.9999999898
-0.01876876876876921 	299.9999999999707 	1.975468833676919e-12 	101324.9999999894
-0.01626626626626671 	300.0000000000181 	2.582507458388324e-12 	101324.9999999892
-0.0137637637637642 	299.9999999999598 	2.029186557205166e-12 	101324.9999999893
-0.0112612612612617 	300.0000000000155 	1.93671626777954e-12 	101324.9999999893
-0.008758758758759198 	299.9999999999987 	1.628620578371706e-12 	101324.9999999892
-0.006256256256256697 	299.999999999873 	2.042535010632012e-12 	101324.9999999892
-0.003753753753754195 	299.9999999999467 	1.148836094213545e-12 	101324.9999999891
-0.001251251251251693 	299.9999999999185 	1.916487061158393e-12 	101324.9999999891
0.00125125125125081 	299.9999999999445 	1.332642802186169e-12 	101324.9999999892
0.003753753753753312 	299.9999999999576 	1.701071064025684e-12 	101324.9999999891
0.006256256256255817 	299.9999999998709 	1.000505075670083e-12 	101324.9999999893
0.008758758758758317 	299.9999999999857 	1.077742914106011e-12 	101324.9999999895
0.01126126126126082 	300.0000000000079 	9.530909262321294e-13 	101324.9999999895
0.01376376376376332 	299.9999999999644 	7.945182604078778e-13 	101324.9999999895
0.01626626626626582 	300.0000000000114 	4.358645661114764e-13 	101324.9999999896
0.01876876876876833 	299.9999999999492 	1.186401213576152e-12 	101324.9999999895
0.02127127127127083 	299.9999999999664 	5.978999672200592e-13 	101324.9999999893
0.02377377377377332 	299.9999999999935 	7.469156798286417e-13 	101324.9999999893
0.02627627627627583 	299.9999999998889 	7.918400784240867e-13 	101324.9999999894
0.02877877877877833 	300.0000000000077 	2.420506435623469e-13 	101324.9999999892
0.03128128128128083 	299.999999999937 	4.173692931149752e-13 	101324.999999989
0.03378378378378333 	299.9999999998869 	6.613422654909436e-15 	101324.9999999893
0.03628628628628584 	299.9999999999653 	1.167004265739703e-13 	101324.9999999894
0.03878878878878834 	299.9999999999769 	1.494733363113626e-13 	101324.9999999896
0.04129129129129084 	299.9999999999721 	5.397659279356656e-14 	101324.9999999896
0.04379379379379333 	299.999999999933 	1.872305257105025e-13 	101324.9999999897
0.04629629629629585 	299.9999999998685 	4.156368588365772e-13 	101324.9999999898
0.04879879879879834 	299.9999999999444 	2.952138020894637e-13 	101324.9999999899
0.05130130130130085 	300.0000000000121 	2.771811290995973e-13 	101324.9999999898
0.05380380380380335 	300.0000000000246 	2.359146140366059e-13 	101324.99999999
0.05630630630630584 	299.9999999999889 	2.391297451479642e-13 	101324.9999999899
0.05880880880880836 	299.9999999999103 	1.453125229070417e-13 	101324.9999999901
0.06131131131131085 	299.9999999999668 	2.369491712666969e-13 	101324.9999999901
0.06381381381381336 	299.9999999999555 	7.73228604493246e-14 	101324.9999999901
0.06631631631631586 	299.9999999998712 	2.702745909625711e-14 	101324.99999999
0.06881881881881835 	299.9999999999423 	4.042772031371465e-13 	101324.9999999896
0.07132132132132088 	299.9999999999885 	3.254972265377747e-13 	101324.9999999894
0.07382382382382337 	299.999999999888 	3.403586407901077e-13 	101324.9999999895
0.07632632632632587 	299.9999999999664 	1.202953240160051e-12 	101324.9999999893
0.07882882882882837 	299.9999999999273 	1.899379207513631e-12 	101324.9999999892
0.08133133133133086 	299.9999999999837 	2.274190368337413e-12 	101324.9999999893
0.08383383383383337 	299.9999999999815 	2.012631398334074e-12 	101324.9999999896
0.08633633633633589 	299.9999999998854 	2.796639075036064e-12 	101324.9999999898
0.08883883883883838 	300.0000000000089 	3.159044716758333e-12 	101324.9999999897
0.09134134134134086 	299.9999999999812 	2.513088158822568e-12 	101324.9999999898
0.09384384384384339 	299.9999999998792 	2.777936795976572e-12 	101324.9999999899
0.09634634634634588 	299.9999999999572 	2.431137694091701e-12 	101324.9999999901
0.09884884884884838 	299.9999999999644 	2.279571048886368e-12 	101324.9999999901
0.1013513513513509 	300.0000000000261 	2.463089223586949e-12 	101324.9999999901
0.1038538538538534 	299.9999999999471 	2.843900247385164e-12 	101324.9999999901
0.1063563563563559 	300.0000000000201 	2.346726696359773e-12 	101324.9999999902
0.1088588588588584 	300.0000000000276 	1.741800312682943e-12 	101324.99999999
0.1113613613613609 	299.9999999999031 	1.778277005742492e-12 	101324.9999999898
0.1138638638638634 	299.9999999999372 	1.852689471543736e-12 	101324.99999999
0.1163663663663659 	299.9999999999333 	1.40283905140857e-12 	101324.9999999898
0.1188688688688684 	299.9999999999602 	1.318913251480156e-12 	101324.9999999899
0.1213713713713709 	299.9999999999902 	3.517697138395042e-13 	101324.9999999895
0.1238738738738734 	299.9999999999166 	5.60717078993791e-13 	101324.9999999895
0.1263763763763759 	299.9999999999849 	1.46745492143734e-12 	101324.9999999896
0.1288788788788784 	299.9999999999874 	1.74183042893817e-12 	101324.9999999896
0.1313813813813809 	299.9999999999859 	2.423508917032416e-12 	101324.9999999896
0.1338838838838834 	299.9999999999741 	2.244999627152233e-12 	101324.9999999895
0.1363863863863859 	300.0000000000361 	2.45923565360641e-12 	101324.9999999894
0.1388888888888884 	300.000000000053 	2.729222248777758e-12 	101324.9999999894
0.1413913913913909 	300.0000000000006 	2.287568138119464e-12 	101324.9999999893
0.1438938938938934 	299.9999999999922 	2.625034596374094e-12 	101324.9999999889
0.1463963963963959 	299.9999999999515 	1.5905732513224e-12 	101324.999999989
0.1488988988988985 	299.9999999998929 	3.066239753174131e-12 	101324.9999999891
0.1514014014014009 	299.9999999999634 	1.631426938459655e-12 	101324.9999999893
0.1539039039039035 	299.9999999999569 	3.599240891424201e-12 	101324.9999999893
0.1564064064064059 	299.9999999999284 	6.656246927614847e-13 	101324.9999999897
0.1589089089089084 	299.999999999977 	3.63432123710684e-12 	101324.99999999
0.1614114114114109 	299.999999999972 	4.031712151939406e-13 	101324.99999999
0.1639139139139134 	299.9999999999034 	2.325844714213945e-12 	101324.99999999
0.166416416416416 	299.9999999999998 	1.968121983840582e-12 	101324.9999999898
0.1689189189189185 	300.0000000000352 	2.237250499316309e-12 	101324.9999999897
0.1714214214214209 	299.9999999999946 	2.178966315039857e-12 	101324.9999999897
0.1739239239239235 	299.9999999999883 	2.711436208769928e-13 	101324.9999999896
0.1764264264264259 	299.9999999999622 	1.697881973900872e-12 	101324.9999999897
0.1789289289289284 	300.000000000006 	1.248376053098454e-12 	101324.9999999899
0.181431431431431 	299.9999999999583 	1.717995907555139e-12 	101324.9999999896
0.1839339339339334 	299.9999999999599 	3.7077493960794e-13 	101324.9999999893
0.186436436436436 	299.9999999999139 	1.523173078511091e-12 	101324.9999999892
0.1889389389389385 	299.9999999999833 	1.222977879083594e-12 	101324.9999999889
0.191441441441441 	299.9999999999763 	5.243380684585269e-13 	101324.9999999886
0.1939439439439434 	299.9999999999018 	2.367338933789642e-12 	101324.9999999884
0.196446446446446 	299.9999999999341 	1.27121136180411e-12 	101324.9999999887
0.1989489489489485 	299.9999999999656 	4.537444498089029e-12 	101324.9999999887
0.2014514514514509 	299.999999999975 	2.495559534080699e-12 	101324.9999999889
0.2039539539539535 	299.9999999999885 	4.080909591666892e-12 	101324.9999999889
0.2064564564564559 	299.9999999999519 	3.279916050187668e-12 	101324.9999999888
0.2089589589589585 	299.9999999999766 	4.187018004183753e-12 	101324.9999999889
0.211461461461461 	299.9999999999278 	4.79867384249511e-12 	101324.9999999891
0.2139639639639635 	299.9999999999791 	4.474356991597344e-12 	101324.9999999894
0.2164664664664659 	299.9999999999895 	5.760198470356788e-12 	101324.9999999893
0.2189689689689684 	299.9999999999864 	3.936052785980256e-12 	101324.9999999894
0.221471471471471 	299.9999999999911 	5.669911245228519e-12 	101324.9999999893
0.2239739739739735 	299.9999999999441 	2.90742271731895e-12 	101324.9999999893
0.226476476476476 	299.9999999999789 	3.980451475831972e-12 	101324.9999999894
0.2289789789789785 	299.9999999999964 	2.774875680344491e-12 	101324.9999999894
0.231481481481481 	299.9999999999832 	3.089557326546947e-12 	101324.9999999894
0.2339839839839835 	299.9999999999796 	3.109449566654084e-12 	101324.9999999891
0.236486486486486 	300.0000000000231 	1.912852827976691e-12 	101324.9999999893
0.2389889889889885 	299.9999999999985 	2.945495621306925e-12 	101324.9999999894
0.241491491491491 	299.9999999999074 	1.480643681016902e-12 	101324.9999999895
0.2439939939939935 	299.9999999999805 	4.675305855602502e-12 	101324.9999999894
0.246496496496496 	299.999999999988 	3.046239158542394e-12 	101324.9999999896
0.2489989989989985 	300.0000000000466 	4.377949067436864e-12 	101324.9999999895
0.251501501501501 	300.0000000000346 	3.361111445878953e-12 	101324.9999999896
0.2540040040040035 	299.9999999999838 	2.846294812560196e-12 	101324.9999999898
0.256506506506506 	300.0000000000284 	3.168964734205302e-12 	101324.99999999
0.2590090090090086 	299.999999999892 	1.505459591731728e-12 	101324.99999999
0.261511511511511 	300.0000000000009 	4.182493063267773e-12 	101324.9999999898
0.2640140140140135 	299.9999999999876 	1.473810270663327e-12 	101324.9999999898
0.2665165165165161 	299.9999999999196 	3.149181522010113e-12 	101324.9999999896
0.2690190190190185 	300.0000000000085 	2.063439184137455e-12 	101324.9999999894
0.271521521521521 	300.0000000000128 	2.201816508042965e-12 	101324.9999999897
0.2740240240240235 	300.0000000000189 	1.727660977106456e-12 	101324.9999999897
0.276526526526526 	300.0000000000056 	1.258776077234632e-12 	101324.9999999894
0.2790290290290286 	299.999999999926 	2.038871978600879e-12 	101324.9999999891
0.281531531531531 	299.9999999999159 	5.707983749367377e-13 	101324.9999999891
0.2840340340340335 	299.9999999999768 	2.249371238104723e-12 	101324.9999999891
0.2865365365365361 	299.9999999999513 	1.222253916462939e-12 	101324.999999989
0.2890390390390385 	299.9999999999956 	1.423636258077737e-12 	101324.999999989
0.291541541541541 	299.9999999999964 	1.345705913140835e-12 	101324.999999989
0.2940440440440436 	299.9999999999869 	3.397810463283498e-13 	101324.9999999891
0.296546546546546 	299.9999999999902 	2.157844620151239e-12 	101324.9999999891
0.2990490490490486 	299.9999999999279 	1.58222065543508e-12 	101324.9999999893
0.3015515515515511 	300.0000000000373 	3.805398647196291e-12 	101324.9999999892
0.3040540540540535 	299.9999999999952 	2.490701082815687e-12 	101324.9999999893
0.3065565565565562 	299.9999999999976 	4.669763175701202e-12 	101324.9999999892
0.3090590590590585 	299.9999999999879 	2.33504080990441e-12 	101324.9999999892
0.3115615615615611 	299.9999999999285 	3.796997462186495e-12 	101324.9999999894
0.3140640640640635 	300.0000000000034 	1.409037145099773e-12 	101324.9999999895
0.316566566566566 	299.9999999999887 	3.073272972854608e-12 	101324.9999999896
0.3190690690690687 	299.9999999999475 	6.781254821896659e-13 	101324.9999999898
0.3215715715715711 	300.0000000000181 	3.202529690868601e-12 	101324.9999999897
0.3240740740740735 	299.9999999999969 	1.161304477862483e-12 	101324.9999999898
0.326576576576576 	299.9999999998893 	1.214179283653838e-12 	101324.9999999899
0.3290790790790786 	300.0000000000107 	1.378532150259159e-12 	101324.9999999896
0.3315815815815811 	300.0000000000367 	3.833893786011566e-13 	101324.9999999897
0.3340840840840836 	299.9999999999829 	1.455735727428748e-12 	101324.99999999
0.3365865865865861 	300.0000000000613 	5.102074045039936e-13 	101324.9999999902
0.3390890890890886 	300.0000000000541 	1.068039932037085e-12 	101324.9999999903
0.3415915915915911 	300.0000000000036 	1.011253969432011e-12 	101324.9999999903
0.3440940940940935 	299.9999999999476 	8.220152598459838e-13 	101324.99999999
0.3465965965965962 	300.0000000000373 	9.821939114478623e-13 	101324.9999999897
0.3490990990990985 	300.0000000000286 	6.200534802406552e-13 	101324.9999999896
0.3516016016016011 	299.999999999982 	4.256920822957779e-13 	101324.9999999898
0.3541041041041035 	300.0000000000086 	1.107500200097277e-12 	101324.9999999894
0.3566066066066061 	299.99999999995 	2.847776505785372e-12 	101324.999999989
0.3591091091091085 	299.9999999999134 	3.009241449830411e-12 	101324.9999999886
0.3616116116116112 	299.999999999928 	7.480696206343975e-12 	101324.9999999877
0.3641141141141137 	299.9999999999181 	9.780765579884916e-12 	101324.9999999858
0.3666166166166161 	299.9999999999075 	2.158446030405004e-11 	101324.9999999823
0.3691191191191185 	300.0000000000352 	3.480430174572289e-11 	101324.9999999754
0.371621621621621 	299.9999999999928 	7.230537270477243e-11 	101324.9999999618
0.3741241241241237 	300.0000000000089 	1.333600596808265e-10 	101324.9999999361
0.3766266266266261 	299.9999999999438 	2.596055886033783e-10 	101324.9999998873
0.3791291291291286 	299.9999999998165 	4.901023947773944e-10 	101324.999999795
0.3816316316316311 	299.9999999995995 	9.294463093468333e-10 	101324.9999996218
0.3841341341341336 	299.9999999994271 	1.742028351917294e-09 	101324.9999992995
0.3866366366366362 	299.9999999989091 	3.250682951721354e-09 	101324.9999987028
0.3891391391391387 	299.9999999979403 	6.015295653877419e-09 	101324.9999976066
0.391641641641641 	299.9999999962869 	1.106272373583509e-08 	101324.9999956058
0.3941441441441436 	299.9999999932359 	2.01997636776536e-08 	101324.9999919797
0.3966466466466462 	299.999999987707 	3.663522261239815e-08 	101324.9999854547
0.3991491491491486 	299.9999999777925 	6.597275827126189e-08 	101324.9999737983
0.4016516516516512 	299.9999999602718 	1.179705189346012e-07 	101324.9999531268
0.4041541541541536 	299.9999999295272 	2.094347140241958e-07 	101324.9999167406
0.4066566566566561 	299.999999875761 	3.691176613919998e-07 	101324.9998531769
0.4091591591591587 	299.9999997826126 	6.45745537435441e-07 	101324.9997429884
0.4116616616616612 	299.9999996223196 	1.121231475502156e-06 	101324.9995534668
0.4141641641641635 	299.9999993488255 	1.932010365710607e-06 	101324.9992300878
0.4166666666666662 	299.9999988858328 	3.303311899956297e-06 	101324.9986827798
0.4191691691691687 	299.9999981087319 	5.603466740414718e-06 	101324.9977641328
0.421671671671671 	299.99999681556 	9.4290870016802e-06 	101324.9962351965
0.4241741741741737 	299.9999946816325 	1.573708053293734e-05 	101324.993712429
0.4266766766766761 	299.9999911915996 	2.604669088124924e-05 	101324.9895864149
0.4291791791791785 	299.9999855350345 	4.274489103101489e-05 	101324.9828989188
0.4316816816816812 	299.999976450971 	6.954155402781872e-05 	101324.9721594176
0.4341841841841836 	299.9999620001738 	0.0001121384862769565 	101324.955075211
0.4366866866866862 	299.9999392340374 	0.0001791975784873726 	101324.9281603893
0.4391891891891885 	299.9999037233707 	0.0002837194971816222 	101324.8861784258
0.4416916916916913 	299.9998488973858 	0.0004449723583267112 	101324.8213614229
0.4441941941941936 	299.9997651368463 	0.0006911388614036516 	101324.7223372113
0.4466966966966961 	299.9996385524099 	0.00106287322554493 	101324.5726856828
0.4491991991991987 	299.9994493801551 	0.001617969085313952 	101324.349041404
0.4517017017017012 	299.9991699270699 	0.002437322090388788 	101324.018665886
0.4542042042042035 	299.9987620250633 	0.00363230983159804 	101323.5364370521
0.4567067067067062 	299.9981739893963 	0.005353583774186251 	101322.8412545724
0.4592092092092087 	299.997337156805 	0.007801048175047561 	101321.851948389
0.4617117117117112 	299.9961621925827 	0.01123446377953142 	101320.4629144767
0.4642142142142137 	299.9945355166963 	0.0159836408907828 	101318.5398947373
0.4667167167167162 	299.9923164165677 	0.02245657447124709 	101315.916568426
0.4692192192192187 	299.9893356574166 	0.03114315003796704 	101312.392920353
0.4717217217217212 	299.9853966777233 	0.04261128386804886 	101307.7366679335
0.4742242242242236 	299.9802806902299 	0.05749168313176753 	101301.6893126769
0.4767267267267262 	299.9737571604941 	0.07644701492044316 	101293.9785523928
0.4792292292292287 	299.96560109155 	0.1001214118746427 	101284.338743384
0.4817317317317312 	299.9556182269084 	0.1290672056504799 	101272.5407171274
0.4842342342342336 	299.9436785763485 	0.1636478454021611 	101258.4314179237
0.4867367367367362 	299.9297575137895 	0.2039193255857666 	101241.9824539963
0.4892392392392387 	299.913982066819 	0.2494971636222227 	101223.3447258292
0.4917417417417412 	299.8966779732416 	0.2994221275448433 	101202.903881865
0.4942442442442437 	299.8784101481753 	0.3520493993319582 	101181.3279017185
0.4967467467467462 	299.8600000715142 	0.4050143705348076 	101159.5873547973
0.4992492492492487 	299.8424868924798 	0.4553519534241025 	101138.9092022981
0.5017517517517511 	299.8270182192151 	0.4997986163957417 	101120.6477149634
0.5042542542542537 	299.8146953511892 	0.5352271224051633 	101106.1018636049
0.5067567567567562 	299.8064009192719 	0.5591343093225861 	101096.3122026391
0.5092592592592589 	299.802637432216 	0.5701016482799722 	101091.8703305313
0.5117617617617611 	299.8034019014611 	0.5681520996850218 	101092.7714549411
0.5142642642642637 	299.8081181417531 	0.5549269254852489 	101098.3390334793
0.5167667667667663 	299.815670171788 	0.533626762616446 	101107.2543192873
0.5192692692692688 	299.8244997076642 	0.5087017459903923 	101117.6769857468
0.5217717717717714 	299.8328109464771 	0.4852311249713318 	101127.4883626019
0.5242742742742736 	299.8389179267763 	0.4679336295255851 	101134.6978708521
0.5267767767767763 	299.8416787215175 	0.4599982741248189 	101137.9574108337
0.5292792792792789 	299.8408196337963 	0.4622087507803532 	101136.9438133425
0.5317817817817813 	299.8369993367538 	0.4727476504671668 	101132.4325421639
0.5342842842842837 	299.8316102324085 	0.4877075249697834 	101126.0697128783
0.5367867867867864 	299.8264198264039 	0.5021484454024006 	101119.9424614335
0.5392892892892888 	299.8230607995466 	0.5115491470782736 	101115.9772696225
0.5417917917917912 	299.8224785607711 	0.5132852609152512 	101115.2896657911
0.5442942942942938 	299.8246121643938 	0.5074958601805925 	101117.8080705847
0.5467967967967964 	299.8284572390321 	0.4969374537230209 	101122.3482723298
0.5492992992992988 	299.8324566305962 	0.4859185852324228 	101127.0697153766
0.5518018018018012 	299.8350733983013 	0.4786576578685286 	101130.1588740762
0.5543043043043039 	299.8354197389658 	0.4775897497733147 	101130.5680251398
0.5568068068068063 	299.8336270708253 	0.4823823758648202 	101128.4517305502
0.5593093093093087 	299.8307443366607 	0.4901874287066049 	101125.047734515
0.5618118118118114 	299.828237424157 	0.4970075653717948 	101122.0882867402
0.5643143143143137 	299.8273052446138 	0.4995918403624646 	101120.987670248
0.5668168168168163 	299.8282910759513 	0.4969893535612276 	101122.1510941722
0.5693193193193188 	299.8305496430959 	0.4909158026066938 	101124.8182060455
0.5718218218218213 	299.8328340107804 	0.4847377582341197 	101127.5150014854
0.5743243243243239 	299.833966507511 	0.4816224326807918 	101128.8521267157
0.5768268268268262 	299.8334894465935 	0.4828119061603647 	101128.2891784046
0.5793293293293288 	299.8318953775338 	0.4870135291003896 	101126.4067512694
0.5818318318318314 	299.8302868678854 	0.4912868727320818 	101124.5078307224
0.5843343343343338 	299.8296953148643 	0.4928858693894819 	101123.8092627926
0.5868368368368363 	299.8304425068964 	0.4909371209585287 	101124.6909903461
0.5893393393393387 	299.8319754229233 	0.4868798949796018 	101126.5014094668
0.5918418418418413 	299.8332808576204 	0.4833936335636372 	101128.0425239009
0.5943443443443439 	299.8335735473931 	0.482553189105444 	101128.388027174
0.5968468468468463 	299.8328232429425 	0.4844569852310677 	101127.5025328388
0.5993493493493487 	299.8317317150506 	0.4872834505918018 	101126.2134953027
0.6018518518518514 	299.8311850972058 	0.4887131789765687 	101125.5679552681
0.6043543543543537 	299.8315973889874 	0.4876524293890695 	101126.0547019565
0.6068568568568564 	299.8326286841955 	0.4849636768835502 	101127.272481987
0.6093593593593587 	299.8334978374456 	0.482669352357268 	101128.2985977206
0.6118618618618614 	299.8336161827741 	0.4822999445785952 	101128.438527967
0.6143643643643638 	299.8330454092332 	0.4837158100527428 	101127.7647037145
0.6168668668668662 	299.8324020447309 	0.4853427465106968 	101127.0048747863
0.6193693693693688 	299.8323072309817 	0.4855814495149877 	101126.8929293287
0.6218718718718714 	299.8328615337006 	0.4841575876419146 	101127.5474870126
0.6243743743743737 	299.8335964984269 	0.4822522184480206 	101128.4154261133
0.6268768768768762 	299.8339292704093 	0.4813520141598824 	101128.8082936727
0.629379379379379 	299.8336902892252 	0.4819008978142377 	101128.5261458547
0.6318818818818812 	299.83324764621 	0.4829823148195296 	101128.0033446011
0.6343843843843838 	299.8331228834495 	0.4832799196058378 	101127.8557104863
0.6368868868868864 	299.8334867308777 	0.4823496792534983 	101128.2852439287
0.6393893893893888 	299.8340240828869 	0.4809682605195546 	101128.9198750665
0.6418918918918912 	299.8342823494173 	0.4802702582864743 	101129.2247031837
0.6443943943943939 	299.834129939834 	0.4805954760227694 	101129.04476177
0.6468968968968963 	299.8338633104638 	0.4812190166250928 	101128.729933464
0.6493993993993988 	299.8338655361729 	0.4811890641144228 	101128.7325674075
0.6519019019019012 	299.8342001854195 	0.4803355436962332 	101129.1276865096
0.6544044044044038 	299.8345727471475 	0.4793748059922696 	101129.5675801241
0.6569069069069065 	299.8346789699431 	0.4790588200789992 	101129.6930868499
0.6594094094094087 	299.8345367868361 	0.4793559191785992 	101129.5253119387
0.6619119119119113 	299.8344373354604 	0.4795624107144231 	101129.4075783946
0.664414414414414 	299.8345917544015 	0.4791562663744737 	101129.5897558396
0.6669169169169162 	299.8348991113949 	0.4783704644737026 	101129.9528658796
0.6694194194194188 	299.8350937509985 	0.4778476310813458 	101130.1824647031
0.6719219219219214 	299.8350704134083 	0.4778488391211017 	101130.1549894603
0.674424424424424 	299.8349947251008 	0.4779849295228104 	101130.0657798011
0.6769269269269262 	299.8350764707819 	0.4777516925334522 	101130.1621611248
0.679429429429429 	299.8353090887076 	0.4771544181424265 	101130.4368114961
0.6819319319319311 	299.8355007957166 	0.4766456682466415 	101130.6632707789
0.6844344344344341 	299.8355333646526 	0.4765125071912094 	101130.7015840091
0.686936936936936 	299.8355037022911 	0.4765327920570713 	101130.6664891778
0.6894394394394392 	299.8355771301973 	0.4763160347795041 	101130.7532032307
0.6919419419419413 	299.8357651394325 	0.475827742576463 	101130.9751477329
0.694444444444444 	299.8359270546607 	0.4753937007019617 	101131.1663478424
0.6969469469469463 	299.8359739635227 	0.4752263368762714 	101131.221814533
0.6994494494494489 	299.8359827682371 	0.4751531109272573 	101131.2321614868
0.7019519519519515 	299.8360727113417 	0.4748964302151772 	101131.3382492472
0.7044544544544538 	299.8362361462059 	0.4744673143172277 	101131.5312191817
0.7069569569569564 	299.8363639297539 	0.4741150606295192 	101131.6821494846
0.7094594594594589 	299.8364109454242 	0.4739480636959269 	101131.7376255968
0.7119619619619615 	299.836452945972 	0.4737971020442635 	101131.7871417912
0.7144644644644638 	299.8365629681189 	0.4734929214422662 	101131.9171475112
0.7169669669669665 	299.8367054135932 	0.473112132447736 	101132.0853130369
0.7194694694694688 	299.8368013654326 	0.4728335635334249 	101132.1984883196
0.7219719719719715 	299.8368513969876 	0.4726597888778121 	101132.2576527581
0.7244744744744737 	299.8369253905968 	0.47243606739373 	101132.3449549942
0.7269769769769764 	299.8370471356069 	0.4721054422077082 	101132.4886256146
0.7294794794794791 	299.8371636476179 	0.4717830996924737 	101132.6262896309
0.7319819819819813 	299.8372373080753 	0.4715553129875724 	101132.7132825497
0.7344844844844839 	299.8373028502208 	0.4713484174781443 	101132.7905109477
0.7369869869869864 	299.8374028331654 	0.471066588614123 	101132.9086458134
0.739489489489489 	299.8375189292997 	0.470747736563663 	101133.0456897683
0.7419919919919914 	299.8376089931206 	0.4704841566073621 	101133.1520001824
0.7444944944944939 	299.8376792390862 	0.4702648742762585 	101133.2349780773
0.7469969969969963 	299.8377677285346 	0.470008018352153 	101133.3393406618
0.7494994994994989 	299.8378764618927 	0.4697064350689428 	101133.4677245219
0.7520020020020015 	299.8379730002749 	0.4694291647461018 	101133.5818795028
0.7545045045045039 	299.8380503844415 	0.4691940579651758 	101133.6730631771
0.7570070070070062 	299.8381351006469 	0.4689446244114409 	101133.7730185817
0.7595095095095092 	299.8382370680567 	0.4686578871653276 	101133.8936169043
0.7620120120120112 	299.8383347500323 	0.4683794844621974 	101134.008890027
0.7645145145145138 	299.838417119109 	0.4681337459196826 	101134.1059292291
0.7670170170170165 	299.8385017643755 	0.4678838130605825 	101134.2059904575
0.7695195195195191 	299.8385996928165 	0.4676063619058246 	101134.3216670827
0.7720220220220213 	299.8386960421647 	0.4673315010321313 	101134.4353450566
0.7745245245245239 	299.8387809373598 	0.4670802333933668 	101134.5355566825
0.7770270270270263 	299.8388669917098 	0.4668274340115921 	101134.6371810791
0.779529529529529 	299.8389626284189 	0.466555073730618 	101134.750120702
0.7820320320320313 	299.8390570696363 	0.4662846632460393 	101134.8615063831
0.784534534534534 	299.8391431619125 	0.4660309912996239 	101134.9632171806
0.7870370370370364 	299.8392306776628 	0.465775148137656 	101135.0666246379
0.7895395395395389 	299.8393251297653 	0.4655056751554035 	101135.1779778652
0.7920420420420413 	299.8394175233383 	0.4652395168374746 	101135.2870770993
0.794544544544544 	299.8395041432894 	0.464984824037636 	101135.3895343053
0.7970470470470463 	299.8395932780898 	0.4647263385589078 	101135.4945408243
0.799549549549549 	299.8396866219487 	0.4644590950968131 	101135.604692701
0.8020520520520515 	299.8397770907043 	0.4641966585758338 	101135.7117891825
0.8045545545545539 	299.8398645969028 	0.4639410911584212 	101135.8149033593
0.8070570570570563 	299.8399546616173 	0.4636806275789705 	101135.9211713561
0.8095595595595589 	299.8400467417479 	0.4634156902684015 	101136.0300414546
0.8120620620620614 	299.8401361684785 	0.4631560907099808 	101136.1355616663
0.8145645645645638 	299.84022425927 	0.4628993656678914 	101136.2395146045
0.8170670670670666 	299.8403148548787 	0.4626378618338537 	101136.3465403853
0.8195695695695689 	299.8404058859574 	0.46237554861868 	101136.4539527596
0.8220720720720714 	299.8404944654425 	0.462117775983482 	101136.5585301804
0.8245745745745739 	299.840583311542 	0.4618597162695852 	101136.6634613963
0.8270770770770765 	299.8406740521328 	0.4615983094091784 	101136.7705242451
0.8295795795795788 	299.8407637398945 	0.461338556763374 	101136.8764629571
0.8320820820820815 	299.8408521322293 	0.4610813792778806 	101136.9808445931
0.834584584584584 	299.8409417190086 	0.4608222421170569 	101137.0865769823
0.8370870870870865 	299.8410318583691 	0.4605620586015531 	101137.1929810751
0.8395895895895891 	299.8411206430713 	0.4603042949282878 	101137.2978495115
0.8420920920920915 	299.8412094170681 	0.4600467968630725 	101137.4026190479
0.844594594594594 	299.8412991783658 	0.4597875305023814 	101137.5085716783
0.8470970970970964 	299.8413884707134 	0.4595291462946405 	101137.6139519312
0.8495995995995991 	299.8414769182246 	0.4592721852296883 	101137.7184458103
0.8521021021021015 	299.8415659560929 	0.4590142003065207 	101137.8236808859
0.8546046046046039 	299.841655517735 	0.4587559261461571 	101137.9291655745
0.8571071071071066 	299.8417440796123 	0.4584990536648024 	101138.0337618942
0.8596096096096089 	299.8418325325244 	0.4582420644782097 	101138.138444682
0.8621121121121116 	299.8419218305154 	0.4579842918780775 	101138.243671313
0.8646146146146139 	299.8420106258299 	0.4577273745602576 	101138.3483778994
0.8671171171171166 	299.8420988172402 	0.4574710184734887 	101138.452758643
0.8696196196196189 	299.8421877162123 	0.4572140632659356 	101138.5576118743
0.8721221221221216 	299.8422764986659 	0.4569574026167358 	101138.6623239585
0.874624624624624 	299.8423646517751 	0.4567014380301858 	101138.766577324
0.8771271271271264 	299.8424532154545 	0.4564451783141918 	101138.8710710745
0.879629629629629 	299.8425418887397 	0.4561888846289748 	101138.9756361491
0.8821321321321317 	299.8426299759972 	0.4559332365125423 	101139.0797917783
0.8846346346346339 	299.8427182701828 	0.4556776079497741 	101139.183996669
0.8871371371371364 	299.8428066986272 	0.455421812515024 	101139.2883586923
0.8896396396396391 	299.8428947843229 	0.4551664844211163 	101139.3924192603
0.8921421421421414 	299.8429829722639 	0.4549113732513861 	101139.4963999485
0.8946446446446441 	299.843071104612 	0.4546561420134739 	101139.6005311972
0.8971471471471464 	299.8431590809627 	0.4544012300808583 	101139.7044625751
0.8996496496496489 	299.8432471053023 	0.4541465668341869 	101139.8082533623
0.9021521521521517 	299.8433350476947 	0.4538918324152988 	101139.912152763
0.9046546546546541 	299.8434228936638 	0.4536373650335241 	101140.0159243496
0.9071571571571564 	299.8435107665084 	0.4533831787454345 	101140.1195442326
0.9096596596596589 	299.8435985240224 	0.4531289589154625 	101140.2232322874
0.9121621621621616 	299.8436862525327 	0.4528748794028639 	101140.326830332
0.9146646646646639 	299.8437739870983 	0.4526210649800153 	101140.4302766874
0.9171671671671666 	299.8438615458072 	0.4523673985416798 	101140.5337540118
0.9196696696696689 	299.8439490560891 	0.4521138979803196 	101140.6371663511
0.9221721721721714 	299.8440367837236 	0.4518605269924546 	101140.740449134
0.9246746746746741 	299.84412414077 	0.451607246821319 	101140.8437398711
0.9271771771771765 	299.8442114296715 	0.4513542008539267 	101140.9469654791
0.9296796796796791 	299.8442989383962 	0.451101341754373 	101141.0500676541
0.9321821821821816 	299.8443862606598 	0.4508485056379758 	101141.1531569309
0.9346846846846838 	299.8444733944389 	0.4505958620781726 	101141.2561854933
0.9371871871871866 	299.8445606599431 	0.4503434930861173 	101141.3591169921
0.9396896896896891 	299.8446478769116 	0.4500911967557035 	101141.4620368613
0.9421921921921914 	299.8447349585448 	0.4498390336498346 	101141.564893163
0.9446946946946939 	299.8448220157402 	0.4495870955712403 	101141.6676500638
0.9471971971971965 	299.8449089707653 	0.4493352347700188 	101141.7703699903
0.9496996996996991 	299.8449959039776 	0.4490835289141043 	101141.8730179401
0.9522022022022016 	299.8450828901982 	0.4488320650147378 	101141.9755897027
0.9547047047047038 	299.8451696458245 	0.4485807048130368 	101142.0781355236
0.9572072072072064 	299.845256433139 	0.4483294727070632 	101142.1806139137
0.9597097097097093 	299.8453432748573 	0.4480784131006417 	101142.2830193298
0.9622122122122114 	299.8454299269891 	0.4478274889744061 	101142.3853793131
0.964714714714714 	299.8455164840987 	0.4475767525208265 	101142.4876609668
0.9672172172172167 	299.8456031957811 	0.4473261969421367 	101142.5898798398
0.969719719719719 	299.8456897018019 	0.4470757783808558 	101142.6920566242
0.9722222222222214 	299.8457760903026 	0.4468255029648489 	101142.7941628463
0.9747247247247239 	299.8458626760998 	0.4465753896762039 	101142.8962112003
0.9772272272272267 	299.8459490489145 	0.4463254171351079 	101142.9982027421
0.9797297297297292 	299.8460352242329 	0.4460755467395501 	101143.1001190082
0.9822322322322313 	299.84612159783 	0.4458258738885645 	101143.201982215
0.9847347347347344 	299.8462079126896 	0.4455764583529471 	101143.3037907773
0.9872372372372363 	299.8462939503028 	0.4453271338944737 	101143.4055356788
0.9897397397397389 	299.8463801452901 	0.4450778513411818 	101143.507228633
0.9922422422422417 	299.8464662833916 	0.4448288133531966 	101143.6088554358
0.9947447447447441 	299.8465522358063 	0.4445800128180037 	101143.7104157364
0.9972472472472468 	299.8466382642777 	0.4443312887013573 	101143.8119203287
0.999749749749749 	299.8467241612706 	0.4440826876083812 	101143.9133617416
1.002252252252252 	299.8468099249895 	0.4438342816049983 	101144.014748776
1.004754754754754 	299.8468959108066 	0.4435860397470626 	101144.1160811231
1.007257257257256 	299.8469817147132 	0.4433379467264366 	101144.2173477105
1.009759759759759 	299.8470672353337 	0.4430900475888857 	101144.3185533877
1.012262262262261 	299.8471530312889 	0.442842311596864 	101144.4196959512
1.014764764764764 	299.8472387722351 	0.4425946519729761 	101144.5207798858
1.017267267267267 	299.8473241824977 	0.4423471668121816 	101144.6218121672
1.019769769769769 	299.8474097233599 	0.4420998819412758 	101144.7227838521
1.022272272272272 	299.8474953101798 	0.4418527436483048 	101144.8236930946
1.024774774774774 	299.8475805763567 	0.4416058265124836 	101144.9245389085
1.027277277277277 	299.8476659393486 	0.4413590518865992 	101145.0253226569
1.029779779779779 	299.8477513886376 	0.4411123352776688 	101145.1260525756
1.032282282282282 	299.8478366100629 	0.4408657642929794 	101145.2267266441
1.034784784784784 	299.847921793431 	0.440619466463221 	101145.3273433265
1.037287287287286 	299.8480070236675 	0.4403733975973287 	101145.4278999656
1.039789789789789 	299.8480921277662 	0.4401273640982304 	101145.5283917481
1.042292292292291 	299.8481771311014 	0.4398814451813032 	101145.6288225879
1.044794794794794 	299.8482622258738 	0.4396358551967325 	101145.729195298
1.047297297297296 	299.848347230744 	0.4393904645420823 	101145.8295127233
1.049799799799799 	299.8484320320708 	0.4391450935543043 	101145.9297742902
1.052302302302302 	299.8485170099855 	0.4388998566230788 	101146.0299747927
1.054804804804804 	299.8486019092972 	0.438654833330423 	101146.1301150785
1.057307307307306 	299.8486864695886 	0.4384099995803061 	101146.2301954657
1.059809809809809 	299.8487712623838 	0.4381653177440233 	101146.3302160252
1.062312312312312 	299.848856056153 	0.4379208226923709 	101146.4301776583
1.064814814814814 	299.8489405748106 	0.4376765606172895 	101146.5300808277
1.067317317317317 	299.8490251267681 	0.4374324200354703 	101146.6299280421
1.069819819819819 	299.8491097197432 	0.4371884020498275 	101146.7297184907
1.072322322322321 	299.8491941699744 	0.43694461223902 	101146.829450867
1.074824824824824 	299.849278530377 	0.4367009684990021 	101146.9291239356
1.077327327327327 	299.8493629798078 	0.4364574658179122 	101147.0287363663
1.079829829829829 	299.849447358032 	0.4362142884010938 	101147.1282899568
1.082332332332332 	299.8495315113488 	0.4359713811339377 	101147.2277861268
1.084834834834834 	299.8496158376355 	0.4357285364675536 	101147.3272258818
1.087337337337337 	299.8497001273009 	0.4354856973937005 	101147.4266081495
1.089839839839839 	299.8497840920131 	0.4352430988253729 	101147.5259309953
1.092342342342342 	299.8498681823049 	0.4350009092591987 	101147.6251939875
1.094844844844844 	299.8499522843899 	0.4347588365885061 	101147.724397064
1.097347347347347 	299.8500362180671 	0.434516776358685 	101147.8235418657
1.099849849849849 	299.8501200194263 	0.4342749653145469 	101147.9226303502
1.102352352352352 	299.8502040296796 	0.4340334403217866 	101148.021664222
1.104854854854854 	299.8502879939164 	0.4337921207425184 	101148.1206429841
1.107357357357357 	299.8503716295804 	0.4335509333211656 	101148.2195638502
1.109859859859859 	299.8504553712826 	0.4333099104122008 	101148.3184244126
1.112362362362362 	299.8505391696649 	0.4330691513838042 	101148.4172241712
1.114864864864865 	299.8506227943283 	0.4328285222719054 	101148.5159659799
1.117367367367367 	299.8507063138385 	0.4325880147287989 	101148.6146528071
1.119869869869869 	299.8507899140859 	0.43234787318115 	101148.7132853632
1.122372372372372 	299.850873457605 	0.4321080226379764 	101148.8118618816
1.124874874874874 	299.8509567993964 	0.4318682478198295 	101148.9103804255
1.127377377377377 	299.8510402765651 	0.4316285299029003 	101149.0088411476
1.129879879879879 	299.8511237300687 	0.4313889678344102 	101149.1072456147
1.132382382382382 	299.8512069676897 	0.4311497810721991 	101149.2055956916
1.134884884884884 	299.8512901459985 	0.4309109432859238 	101149.3038908929
1.137387387387387 	299.8513733707067 	0.4306721595921581 	101149.4021282261
1.139889889889889 	299.8514566047469 	0.4304335091937164 	101149.50030498
1.142392392392392 	299.8515397601072 	0.4301951602384864 	101149.5984224875
1.144894894894894 	299.8516228440777 	0.4299570692589034 	101149.696485645
1.147397397397397 	299.851705876079 	0.4297191931687351 	101149.7944982218
1.149899899899899 	299.8517888595212 	0.4294814070508626 	101149.8924597416
1.152402402402402 	299.8518717528356 	0.4292438870818904 	101149.9903667662
1.154904904904904 	299.8519547053311 	0.4290068264756782 	101150.0882168364
1.157407407407407 	299.8520376143083 	0.4287699773849961 	101150.186009563
1.159909909909909 	299.852120363509 	0.4285331679854922 	101150.2837455856
1.162412412412412 	299.8522031057113 	0.4282964972368415 	101150.3814256722
1.164914914914914 	299.8522858041081 	0.4280600965876283 	101150.4790510161
1.167417417417417 	299.8523684714148 	0.4278240461089617 	101150.5766236069
1.169919919919919 	299.8524510452032 	0.4275883859279181 	101150.6741460553
1.172422422422422 	299.8525336375658 	0.4273529269688258 	101150.7716195175
1.174924924924925 	299.8526162876414 	0.4271175752348331 	101150.8690417296
1.177427427427427 	299.8526988506406 	0.4268825131882205 	101150.9664089937
1.179929929929929 	299.8527812579462 	0.4266476517403762 	101151.0637200487
1.182432432432432 	299.8528636182657 	0.4264130728057177 	101151.1609770337
1.184934934934934 	299.852946011285 	0.4261789467618277 	101151.2581828434
1.187437437437437 	299.8530284557837 	0.4259449519285451 	101151.3553390587
1.189939939939939 	299.8531107092067 	0.4257110628345946 	101151.452446342
1.192442442442442 	299.8531927461105 	0.4254775159402542 	101151.5495052824
1.194944944944944 	299.8532750103553 	0.4252442367033861 	101151.646515498
1.197447447447447 	299.8533573485764 	0.4250112523610806 	101151.743475251
1.199949949949949 	299.8534396291578 	0.4247786884146008 	101151.8403829033
1.202452452452452 	299.8535216822994 	0.4245462495424611 	101151.9372383345
1.204954954954955 	299.853603568185 	0.4243139704220407 	101152.0340434732
1.207457457457457 	299.8536855737539 	0.4240820870328496 	101152.1308025025
1.20995995995996 	299.8537676787595 	0.4238505889552846 	101152.2275202309
1.212462462462462 	299.8538497351397 	0.4236187491353636 	101152.324198118
1.214964964964964 	299.8539318407639 	0.4233883881997775 	101152.4208338545
1.217467467467467 	299.8540138253492 	0.4231556874916402 	101152.5174205317
1.219969969969969 	299.8540955378181 	0.4229292069322462 	101152.6139571102
1.222472472472472 	299.8541773660951 	0.4226861496839215 	101152.7104345795
1.224974974974975 	299.8542592792719 	0.4224888251706755 	101152.8068916015
1.227477477477477 	299.8543411744234 	0.4221402216821353 	101152.9032463838
1.229979979979979 	299.8544234007601 	0.4222359576414606 	101152.9999394461
1.232482482482482 	299.8545048731746 	0.4209626723646664 	101153.0955170961
1.234984984984984 	299.8545863501342 	0.4221514817893609 	101153.1921394659
1.237487487487487 	299.8546705693152 	0.4203505574060562 	101153.288326892
1.239989989989989 	299.8547466935735 	0.4211726821689551 	101153.3826491186
1.242492492492492 	299.8548335982621 	0.4218233412235564 	101153.4821672404
1.244994994994994 	299.8523316139825 	0.4188562832348114 	101153.575748207
1.247497497497497 	299.1671270706713 	0.4206914613532086 	101153.672304476
1.249999999999999 	301.4391527730852 	0.4201582083466975 	101153.7693912318
