-1.25 	300 	0 	101312.5655056418
-1.247497497497497 	299.9936275508625 	2.158282280435738 	101323.1783017894
-1.244994994994995 	299.9896371859097 	2.168072679878334 	101315.8839439165
-1.242492492492492 	299.9973771861098 	2.154616203997188 	101324.3680242892
-1.23998998998999 	299.9913360549315 	2.132358640556199 	101317.6664748905
-1.237487487487487 	299.9974062978057 	2.097421659360753 	101324.3046911669
-1.234984984984985 	299.9924462925696 	2.053882099506085 	101318.7491591039
-1.232482482482482 	299.9977518287807 	1.999305421588192 	101324.5182974505
-1.22997997997998 	299.9941676391192 	1.939369061534136 	101320.4849082711
-1.227477477477477 	299.9988744993577 	1.8706915013396 	101325.588695031
-1.224974974974975 	299.9960160730881 	1.799606400990372 	101322.3373135005
-1.222472472472472 	299.9998529891529 	1.721216357303487 	101326.4591849164
-1.21996996996997 	299.9973848355959 	1.643582041129504 	101323.6179029671
-1.217467467467467 	300.000818846756 	1.560177856288585 	101327.31387823
-1.214964964964965 	299.9989291884017 	1.478679645508412 	101325.1228178109
-1.212462462462462 	300.0021685683251 	1.393619154440798 	101328.638474386
-1.20995995995996 	300.0004714862084 	1.312018583380489 	101326.6573571909
-1.207457457457457 	300.0032145481554 	1.226932896350996 	101329.6323720926
-1.204954954954955 	300.0016091317793 	1.147646613496719 	101327.7510147398
-1.202452452452452 	300.0043127808037 	1.06508723885126 	101330.7237878484
-1.19994994994995 	300.0030278183162 	0.9886013733305961 	101329.2166457014
-1.197447447447447 	300.0056646070817 	0.90993115025478 	101332.1503683519
-1.194944944944945 	300.0044184138805 	0.839073655894806 	101330.6896824799
-1.192442442442442 	300.0065607276218 	0.7646431459781982 	101333.0735734043
-1.18993993993994 	300.0053654273291 	0.6997570113332736 	101331.6739257119
-1.187437437437437 	300.0077120506033 	0.6307942840141951 	101334.330539424
-1.184934934934935 	300.0067642430744 	0.5715290390291026 	101333.2239348972
-1.182432432432432 	300.0086784217571 	0.5086821698656848 	101335.3955788017
-1.17992992992993 	300.0078175850635 	0.4578232102041571 	101334.3935321425
-1.177427427427427 	300.0095465672285 	0.3990893367271434 	101336.36715944
-1.174924924924925 	300.0094939283665 	0.3506769007051428 	101336.3184416833
-1.172422422422422 	300.0101338670988 	0.2936485197333205 	101337.0213346836
-1.16991991991992 	300.0110896129613 	0.2487537268025835 	101338.1628397142
-1.167417417417417 	300.0108046103769 	0.1957712646466057 	101337.7886201998
-1.164914914914915 	300.0124481558933 	0.157635058820915 	101339.7415576128
-1.162412412412412 	300.0116369295793 	0.1117370194697884 	101338.7600019472
-1.15990990990991 	300.0135245405079 	0.08355976791377878 	101340.9990021798
-1.157407407407407 	300.0125897409858 	0.047835637940215 	101339.8830371295
-1.154904904904904 	300.0142943194322 	0.03204893510204552 	101341.9022711331
-1.152402402402403 	300.013744308906 	0.04699839786698613 	101341.2487923046
-1.1498998998999 	300.0148464077022 	0.0404250467862602 	101342.5527149295
-1.147397397397397 	300.0152210649792 	0.04425829354900804 	101342.995313498
-1.144894894894895 	300.0156850253491 	0.04542812780703273 	101343.5438793303
-1.142392392392392 	300.016147732189 	0.04677322834878057 	101344.090961123
-1.13988988988989 	300.0166226643756 	0.04815009220106985 	101344.6524990903
-1.137387387387387 	300.0171124433089 	0.04956615232816645 	101345.231593064
-1.134884884884885 	300.0176095900906 	0.05100184321541842 	101345.8194008288
-1.132382382382382 	300.0181019516515 	0.05242425066421239 	101346.4015535327
-1.12987987987988 	300.0185789078522 	0.05380427288641774 	101346.9654940604
-1.127377377377377 	300.0190358825054 	0.05512921291460482 	101347.5058113691
-1.124874874874875 	300.0194758296648 	0.05640691398252027 	101348.025997953
-1.122372372372372 	300.0199072907462 	0.05766047892680025 	101348.5361522826
-1.11986986986987 	300.0203400071307 	0.0589164285111624 	101349.0477923136
-1.117367367367367 	300.0207803972032 	0.0601925094768116 	101349.5685072981
-1.114864864864865 	300.0212292832254 	0.06149142338887665 	101350.0992697174
-1.112362362362362 	300.0216826960101 	0.06280268814070024 	101350.6353869518
-1.10985985985986 	300.0221345492172 	0.06410960497066524 	101351.1696624227
-1.107357357357357 	300.0225791468764 	0.06539608618584047 	101351.6953608824
-1.104854854854855 	300.0230123533469 	0.06665017792925169 	101352.207592252
-1.102352352352353 	300.0234317366394 	0.06786486351269948 	101352.7034804091
-1.09984984984985 	300.0238366756018 	0.06903854374568492 	101353.1822907428
-1.097347347347347 	300.0242288652417 	0.07017627957424795 	101353.6460275993
-1.094844844844845 	300.0246126598802 	0.07129044291620415 	101354.0998394153
-1.092342342342342 	300.0249943833531 	0.07239863656583992 	101354.5512037209
-1.08983983983984 	300.025380396958 	0.07351837382582545 	101355.0076422727
-1.087337337337337 	300.0257746484536 	0.07466040288535199 	101355.4738231119
-1.084834834834835 	300.0261768264401 	0.07582366307535912 	101355.9493783429
-1.082332332332332 	300.0265819406221 	0.07699414054044915 	101356.4284069747
-1.07982982982983 	300.0269815362797 	0.07814827031413317 	101356.9009117786
-1.077327327327327 	300.0273662254253 	0.07926001433194718 	101357.3557920034
-1.074824824824825 	300.0277288298694 	0.08030960402591347 	101357.784559221
-1.072322322322323 	300.0280671400714 	0.08129113579078454 	101358.1846005496
-1.06981981981982 	300.0283852205073 	0.08221607622295095 	101358.5607217909
-1.067317317317317 	300.0286925460009 	0.08311078776494005 	101358.92412641
-1.064814814814815 	300.0290010627037 	0.08400839041070693 	101359.2889404392
-1.062312312312312 	300.0293211842554 	0.08493774096046995 	101359.6674775215
-1.05980980980981 	300.0296582697654 	0.08591375474540991 	101360.0660750596
-1.057307307307307 	300.0300109838464 	0.08693287982398844 	101360.4831545351
-1.054804804804805 	300.0303721454426 	0.08797538287536674 	101360.9102245508
-1.052302302302302 	300.0307316058672 	0.0890131962869609 	101361.3352847412
-1.0497997997998 	300.0310798340939 	0.09001971390135674 	101361.7470646487
-1.047297297297297 	300.0314106230563 	0.09097723757123953 	101362.1382240005
-1.044794794794795 	300.0317218683103 	0.0918792543234289 	101362.50627413
-1.042292292292292 	300.0320144809426 	0.09272769734339062 	101362.8522916729
-1.03978978978979 	300.0322905246122 	0.09352806718866255 	101363.1787166983
-1.037287287287287 	300.0325519407303 	0.09428599934823129 	101363.4878449392
-1.034784784784785 	300.0328005546829 	0.09500713596776392 	101363.7818347419
-1.032282282282283 	300.0330389841059 	0.09569935943409276 	101364.0637817133
-1.02977977977978 	300.0332714040783 	0.09637467541952233 	101364.3386229339
-1.027277277277277 	300.0335032943144 	0.09704845018263024 	101364.6128381728
-1.024774774774775 	300.033740081251 	0.09773573040308861 	101364.892844516
-1.022272272272272 	300.0339853359055 	0.0984463513121509 	101365.1828646408
-1.01976976976977 	300.034239404035 	0.09918118114580712 	101365.4833076229
-1.017267267267267 	300.0344990442765 	0.09993110126526825 	101365.7903407299
-1.014764764764765 	300.0347581642338 	0.100679039853152 	101366.0967593047
-1.012262262262262 	300.0350093962484 	0.1014043838277116 	101366.3938509793
-1.00975975975976 	300.0352460862972 	0.1020885415816333 	101366.6737470269
-1.007257257257257 	300.0354641446509 	0.1027200755382946 	101366.9316108673
-1.004754754754755 	300.0356631399404 	0.1032976916598805 	101367.1669324483
-1.002252252252252 	300.0358461638536 	0.1038298334762527 	101367.3833674096
-0.9997497497497498 	300.0360184458183 	0.1043308860314286 	101367.5870995941
-0.9972472472472473 	300.0361853004931 	0.1048155759285303 	101367.7844139214
-0.9947447447447449 	300.0363503280946 	0.1052940316469295 	101367.9795676343
-0.9922422422422421 	300.0365145967847 	0.1057694742319775 	101368.1738240464
-0.9897397397397399 	300.0366769695674 	0.1062390159464214 	101368.3658386546
-0.9872372372372376 	300.0368351923973 	0.1066965961056443 	101368.5529459519
-0.9847347347347346 	300.0369871655274 	0.1071365041336139 	101368.7326630602
-0.9822322322322323 	300.0371319571501 	0.1075562285748551 	101368.9038878196
-0.9797297297297296 	300.0372703122778 	0.1079578777168315 	101369.0675013724
-0.9772272272272275 	300.0374045044678 	0.108347718611193 	101369.2261924309
-0.9747247247247248 	300.0375374566682 	0.1087336781279193 	101369.3834173229
-0.9722222222222224 	300.0376712780148 	0.1091212898554155 	101369.5416704169
-0.9697197197197196 	300.0378057212961 	0.1095095102198756 	101369.700659164
-0.9672172172172175 	300.0379373243632 	0.1098884705032411 	101369.8562892453
-0.9647147147147147 	300.0380598663369 	0.110240824582182 	101370.0012042938
-0.9622122122122124 	300.0381661985247 	0.1105468174899271 	101370.1269502282
-0.9597097097097099 	300.0382508147315 	0.1107913348700447 	101370.2270156404
-0.9572072072072073 	300.0383120930575 	0.110970023080153 	101370.299482517
-0.9547047047047047 	300.0383532117149 	0.1110917865142578 	101370.348108887
-0.9522022022022023 	300.0383813275381 	0.1111765410000866 	101370.3813584849
-0.9496996996996998 	300.0384053713869 	0.1112491534481327 	101370.4097923326
-0.9471971971971973 	300.0384333389667 	0.1113319692153678 	101370.4428660205
-0.9446946946946947 	300.0384700796125 	0.1114386629135104 	101370.4863146443
-0.9421921921921923 	300.0385162739939 	0.1115713213274249 	101370.5409428869
-0.93968968968969 	300.0385687329809 	0.1117211828186937 	101370.6029797244
-0.9371871871871872 	300.0386216825814 	0.1118721523381036 	101370.6655971694
-0.9346846846846848 	300.0386684781667 	0.112005563393571 	101370.7209373118
-0.9321821821821823 	300.0387031930829 	0.112104641860161 	101370.7619914747
-0.9296796796796799 	300.0387217025479 	0.1121576021811813 	101370.7838813218
-0.9271771771771771 	300.0387221393183 	0.1121589878775336 	101370.7843977048
-0.9246746746746748 	300.0387047711643 	0.1121093864780332 	101370.7638601328
-0.9221721721721724 	300.0386714745871 	0.1120139664419214 	101370.7244865179
-0.9196696696696698 	300.0386250171206 	0.1118805092675887 	101370.6695482573
-0.9171671671671672 	300.0385684217677 	0.1117176195711699 	101370.6026208351
-0.9146646646646649 	300.0385045404227 	0.1115334706964298 	101370.5270769879
-0.9121621621621623 	300.0384358059457 	0.111335064011425 	101370.4457939583
-0.9096596596596597 	300.0383640983645 	0.1111278081636521 	101370.3609950684
-0.9071571571571573 	300.0382906390839 	0.1109151994675543 	101370.2741246235
-0.9046546546546547 	300.038215885195 	0.1106985592276074 	101370.1857232741
-0.9021521521521524 	300.0381395300044 	0.1104770743990306 	101370.0954285134
-0.8996496496496498 	300.0380607034987 	0.1102483369811296 	101370.0022113749
-0.8971471471471473 	300.0379782688664 	0.1100091232327012 	101369.904727531
-0.894644644644645 	300.0378910079992 	0.1097558944810474 	101369.8015365542
-0.892142142142142 	300.037797599587 	0.109484766603244 	101369.6910757801
-0.8896396396396397 	300.0376964822078 	0.1091912132337155 	101369.5714987096
-0.8871371371371374 	300.0375858690562 	0.1088702264878 	101369.4406924334
-0.8846346346346349 	300.0374642124457 	0.10851765015847 	101369.2968267291
-0.8821321321321324 	300.0373310639674 	0.108132431836719 	101369.13937143
-0.8796296296296297 	300.0371876985285 	0.1077181394612062 	101368.9698342276
-0.8771271271271271 	300.0370367591818 	0.1072819076941307 	101368.7913405697
-0.8746246246246248 	300.03688087266 	0.1068307516510163 	101368.6069965406
-0.8721221221221224 	300.0367210874608 	0.1063674768069691 	101368.4180421111
-0.8696196196196196 	300.0365562779725 	0.1058891803001953 	101368.2231463257
-0.8671171171171175 	300.0363841089737 	0.1053898788126012 	101368.0195478379
-0.8646146146146148 	300.0362031032785 	0.1048659760916508 	101367.8055001132
-0.8621121121121121 	300.03601442435 	0.1043208680366058 	101367.5823789448
-0.8596096096096097 	300.03582191505 	0.1037649128506243 	101367.3547286204
-0.857107107107107 	300.0356300352948 	0.1032099097448222 	101367.1278231476
-0.8546046046046049 	300.0354408978255 	0.1026612526560528 	101366.9041606567
-0.8521021021021022 	300.0352523532787 	0.1021128771063067 	101366.6811995036
-0.8495995995995997 	300.0350584319785 	0.1015484718271416 	101366.4518805459
-0.8470970970970974 	300.0348519703132 	0.1009485499062446 	101366.20773272
-0.8445945945945946 	300.0346279926944 	0.1002995802984696 	101365.9428722459
-0.8420920920920922 	300.034386068884 	0.0996003806880391 	101365.6567903727
-0.8395895895895897 	300.0341304819395 	0.09886260728241608 	101365.3545520659
-0.8370870870870872 	300.0338682174391 	0.09810534691933248 	101365.0444178032
-0.8345845845845846 	300.0336058897943 	0.09734680665805127 	101364.7342092501
-0.8320820820820823 	300.0333471849316 	0.09659733945887802 	101364.4282852546
-0.8295795795795798 	300.0330919731486 	0.09585691566821423 	101364.1264924659
-0.8270770770770772 	300.0328372134311 	0.09511742908847097 	101363.8252349287
-0.8245745745745746 	300.0325788308134 	0.09436773643401414 	101363.5196941015
-0.8220720720720721 	300.0323135066056 	0.09359860987977206 	101363.2059455917
-0.8195695695695699 	300.0320397373837 	0.09280575441782338 	101362.8822116175
-0.817067067067067 	300.0317579996605 	0.09199029519969376 	101362.5490557399
-0.8145645645645651 	300.0314700518795 	0.09115683265297858 	101362.2085571607
-0.8120620620620621 	300.0311776153582 	0.09030988458701214 	101361.8627512598
-0.8095595595595597 	300.0308811452512 	0.08945067714264193 	101361.5121764685
-0.8070570570570572 	300.0305795914301 	0.08857652649275431 	101361.1555912453
-0.8045545545545546 	300.030271321908 	0.0876831448941158 	101360.7910657111
-0.8020520520520523 	300.0299552594811 	0.08676750185208748 	101360.4173260732
-0.7995495495495494 	300.0296311361627 	0.08582858833309988 	101360.0340554724
-0.7970470470470474 	300.0292989320542 	0.08486622464878159 	101359.6412305297
-0.7945445445445446 	300.0289585781941 	0.0838804144179847 	101359.2387698316
-0.7920420420420423 	300.0286104520193 	0.08287243730325064 	101358.8271197289
-0.7895395395395397 	300.0282558116275 	0.0818456918497189 	101358.4077678262
-0.7870370370370371 	300.0278961512058 	0.08080401971173319 	101357.9824809198
-0.7845345345345348 	300.0275319828489 	0.07974884110601325 	101357.5518647095
-0.7820320320320323 	300.0271627094397 	0.0786790231717418 	101357.1152134565
-0.7795295295295296 	300.0267881466309 	0.07759461082722363 	101356.672309441
-0.7770270270270272 	300.0264099534396 	0.07650009226220564 	101356.2251140863
-0.7745245245245247 	300.0260307672875 	0.0754019813212813 	101355.7767456249
-0.7720220220220222 	300.0256513141392 	0.0743016319567201 	101355.3280623729
-0.7695195195195199 	300.0252685405723 	0.0731908733251278 	101354.8754542463
-0.767017017017017 	300.0248774181227 	0.0720568700886379 	101354.4129758401
-0.7645145145145147 	300.024475433872 	0.07089353719436392 	101353.9376561368
-0.7620120120120122 	300.0240656481198 	0.06970913245151598 	101353.4531135549
-0.7595095095095097 	300.0236550788144 	0.06852197376470655 	101352.967645891
-0.7570070070070072 	300.0232494580124 	0.06734698601553983 	101352.4880304727
-0.7545045045045048 	300.0228488539278 	0.06618444112526718 	101352.0143481793
-0.7520020020020022 	300.0224478496888 	0.06502029871406635 	101351.5401945882
-0.7494994994994997 	300.0220398436679 	0.06383718436091765 	101351.0577639675
-0.7469969969969972 	300.0216216415778 	0.06262634028294173 	101350.5632793554
-0.7444944944944945 	300.0211948042515 	0.06139142584940986 	101350.0585861346
-0.7419919919919924 	300.0207634429167 	0.06014313621377088 	101349.5485452542
-0.7394894894894897 	300.0203310463177 	0.05889103556425894 	101349.0372819763
-0.7369869869869872 	300.0198990064637 	0.05763943613607157 	101348.5264423119
-0.7344844844844846 	300.0194672755686 	0.05638867433285826 	101348.0159699887
-0.7319819819819822 	300.0190355684007 	0.05513798707787843 	101347.5055275334
-0.7294794794794797 	300.0186035466785 	0.05388607772967588 	101346.9947149518
-0.7269769769769773 	300.0181700469357 	0.05262941410067052 	101346.4821564395
-0.7244744744744747 	300.0177327126411 	0.05136156302533578 	101345.9650659288
-0.721971971971972 	300.0172890461134 	0.05007603202814862 	101345.4404905502
-0.7194694694694695 	300.0168383386461 	0.04877120585798798 	101344.9075923753
-0.7169669669669674 	300.0163827813252 	0.04745306765054454 	101344.3689621677
-0.7144644644644647 	300.0159264766327 	0.04613248206086992 	101343.829450134
-0.711961961961962 	300.0154727519451 	0.04481814149778838 	101343.2929902655
-0.7094594594594597 	300.0150216831018 	0.0435101299916981 	101342.759672267
-0.7069569569569573 	300.0145697602495 	0.0421991245418916 	101342.2253464248
-0.7044544544544545 	300.0141121367606 	0.04087237701860399 	101341.6842827169
-0.7019519519519523 	300.0136460447861 	0.03952274175024387 	101341.1332089261
-0.6994494494494495 	300.0131730838171 	0.03815469361620391 	101340.5740162311
-0.6969469469469471 	300.0126987758592 	0.03678309372019745 	101340.0132331237
-0.6944444444444446 	300.0122295422029 	0.035425114056112 	101339.4584514548
-0.6919419419419421 	300.0117689083886 	0.03409010122970445 	101338.9138392427
-0.6894394394394396 	300.011315209589 	0.03277343262758169 	101338.37742829
-0.6869369369369374 	300.0108621401163 	0.03145799479896666 	101337.8417632512
-0.6844344344344344 	300.010401855804 	0.03012256927633514 	101337.2975702551
-0.6819319319319321 	300.0099290093625 	0.0287527726710386 	101336.7385275114
-0.6794294294294296 	300.0094436966667 	0.02734905831361032 	101336.1647483937
-0.6769269269269272 	300.0089518948253 	0.02592790874701838 	101335.583299646
-0.6744244244244245 	300.0084632095402 	0.02451570620652569 	101335.0055377451
-0.6719219219219222 	300.0079870009142 	0.0231381652831326 	101334.4425289522
-0.6694194194194195 	300.0075286245518 	0.02181001619717103 	101333.9006047671
-0.6669169169169172 	300.0070873126826 	0.02052910831019188 	101333.3788574361
-0.6644144144144146 	300.0066563668974 	0.01927684395949552 	101332.8693676521
-0.661911911911912 	300.0062253636206 	0.01802422111682099 	101332.3598118215
-0.6594094094094097 	300.00578344038 	0.01674096570957544 	101331.8373477579
-0.656906906906907 	300.0053225732697 	0.01540471270349503 	101331.2924892924
-0.6544044044044046 	300.0048399507641 	0.01400769313255819 	101330.7219124671
-0.6519019019019021 	300.0043389220195 	0.01255942778199043 	101330.1295768737
-0.6493993993993996 	300.0038284167212 	0.0110851262412784 	101329.5260395718
-0.6468968968968971 	300.0033211142932 	0.00962058610465562 	101328.926290591
-0.6443943943943946 	300.0028309395865 	0.008205272471468645 	101328.3467921877
-0.6418918918918921 	300.002370699944 	0.006875746462365257 	101327.8026851921
-0.6393893893893897 	300.0019505082216 	0.005661078544213854 	101327.3059249865
-0.6368868868868871 	300.0015770412074 	0.004580605439137793 	101326.8644046816
-0.6343843843843846 	300.0012534537962 	0.003643605915182091 	101326.4818536275
-0.6318818818818821 	300.0009797563903 	0.002850327993930449 	101326.1582839105
-0.6293793793793795 	300.0007534638071 	0.002193813790433639 	101325.8907570807
-0.6268768768768773 	300.000570345061 	0.001662035037891145 	101325.6742707989
-0.6243743743743745 	300.0004251530557 	0.001239970944232826 	101325.5026169861
-0.6218718718718721 	300.0003122322727 	0.0009113947809902042 	101325.3691150346
-0.6193693693693696 	300.0002259980503 	0.0006602555043636737 	101325.2671753314
-0.6168668668668671 	300.0001612964745 	0.0004716366288550291 	101325.1906875001
-0.6143643643643645 	300.0001135569203 	0.0003323269904088393 	101325.1342491696
-0.6118618618618621 	300.0000788917531 	0.0002310741253745506 	101325.0932674465
-0.6093593593593596 	300.0000541049636 	0.0001586069671992447 	101325.0639640419
-0.6068568568568571 	300.0000366419936 	0.000107504740531993 	101325.0433189893
-0.6043543543543546 	300.0000245130929 	7.197941325664815e-05 	101325.0289799937
-0.6018518518518521 	300.0000162042571 	4.762095003322224e-05 	101325.0191570966
-0.5993493493493496 	300.0000105876063 	3.114039774693825e-05 	101325.0125169901
-0.5968468468468471 	300.0000068395452 	2.013295708923066e-05 	101325.0080859305
-0.5943443443443446 	300.0000043695212 	1.287251248829376e-05 	101325.0051657684
-0.591841841841842 	300.0000027613215 	8.14142578101195e-06 	101325.003264554
-0.5893393393393397 	300.0000017265797 	5.094754199062002e-06 	101325.0020412708
-0.5868368368368371 	300.0000010684697 	3.15522132616904e-06 	101325.0012631761
-0.5843343343343346 	300.0000006545182 	1.934264871101331e-06 	101325.0007737623
-0.5818318318318321 	300.0000003969786 	1.174003048161029e-06 	101325.0004692683
-0.5793293293293297 	300.0000002383854 	7.056343933295119e-07 	101325.0002818317
-0.5768268268268271 	300.0000001418184 	4.200725779811909e-07 	101325.0001676468
-0.5743243243243245 	300.0000000835948 	2.477365763542003e-07 	101325.0000987899
-0.5718218218218221 	300.0000000488116 	1.447584849207098e-07 	101325.0000576783
-0.5693193193193196 	300.0000000282799 	8.382439630686117e-08 	101325.0000333704
-0.5668168168168171 	300.0000000161752 	4.811058744651363e-08 	101325.0000191344
-0.5643143143143147 	300.0000000091506 	2.73723982214734e-08 	101325.0000108747
-0.5618118118118121 	300.0000000052045 	1.544239910322334e-08 	101325.0000061263
-0.5593093093093094 	300.0000000029377 	8.638227784863049e-09 	101325.0000034209
-0.5568068068068072 	300.0000000016312 	4.7940149627905e-09 	101325.0000018928
-0.5543043043043046 	300.0000000008994 	2.638308521460704e-09 	101325.0000010373
-0.551801801801802 	300.0000000004281 	1.441733624200212e-09 	101325.0000005623
-0.5492992992992995 	300.0000000002555 	7.806023813440398e-10 	101325.0000003006
-0.5467967967967969 	300.0000000001554 	4.213075905757325e-10 	101325.0000001577
-0.5442942942942947 	300.0000000000849 	2.252443472468688e-10 	101325.0000000802
-0.5417917917917919 	299.9999999999978 	1.22063273085088e-10 	101325.0000000386
-0.5392892892892895 	299.9999999999474 	6.399932206898828e-11 	101325.0000000163
-0.536786786786787 	299.9999999999626 	3.642369410936299e-11 	101325.0000000046
-0.5342842842842846 	299.9999999999584 	1.80797846455104e-11 	101324.9999999983
-0.531781781781782 	299.9999999999296 	1.339470422778363e-11 	101324.9999999954
-0.5292792792792794 	299.9999999999242 	5.337438906665813e-12 	101324.9999999938
-0.526776776776777 	299.9999999999032 	7.922529844157336e-12 	101324.9999999929
-0.5242742742742745 	299.9999999999751 	3.244387816812276e-12 	101324.9999999923
-0.521771771771772 	300.0000000000181 	7.303460578247686e-12 	101324.999999992
-0.5192692692692695 	299.999999999962 	3.998127570763359e-12 	101324.9999999917
-0.516766766766767 	300.0000000000068 	7.70698342572812e-12 	101324.9999999917
-0.5142642642642645 	299.9999999999619 	3.61671071591383e-12 	101324.9999999916
-0.511761761761762 	299.9999999999541 	6.294609747805292e-12 	101324.9999999916
-0.5092592592592596 	299.9999999999711 	2.892889436934369e-12 	101324.9999999917
-0.506756756756757 	299.9999999999405 	5.015261761642032e-12 	101324.9999999915
-0.5042542542542544 	299.9999999999967 	1.507855441749635e-12 	101324.9999999913
-0.5017517517517521 	300.0000000000287 	5.374421608016949e-12 	101324.9999999912
-0.4992492492492494 	300.0000000000323 	2.709970514618028e-12 	101324.9999999914
-0.496746746746747 	299.9999999999862 	5.866983105655683e-12 	101324.9999999913
-0.4942442442442445 	299.9999999999417 	4.172315763977743e-12 	101324.9999999915
-0.4917417417417421 	299.9999999999376 	6.375904691409904e-12 	101324.9999999916
-0.4892392392392395 	299.9999999999574 	3.749578863416046e-12 	101324.9999999917
-0.486736736736737 	299.9999999999607 	5.70715187920305e-12 	101324.9999999918
-0.4842342342342345 	299.9999999999212 	2.80993467139174e-12 	101324.9999999915
-0.481731731731732 	300.0000000000308 	5.272585726884803e-12 	101324.9999999913
-0.4792292292292296 	300.0000000000177 	1.766284295949819e-12 	101324.9999999912
-0.4767267267267268 	299.9999999999523 	5.604211279996458e-12 	101324.9999999911
-0.4742242242242246 	299.9999999999977 	1.869807061831279e-12 	101324.9999999911
-0.471721721721722 	299.9999999999558 	5.210762800978887e-12 	101324.9999999914
-0.4692192192192195 	299.9999999999787 	1.997487070840465e-12 	101324.9999999915
-0.4667167167167169 	299.9999999999106 	5.584012670975834e-12 	101324.9999999915
-0.4642142142142145 	299.9999999999932 	3.153664457232448e-12 	101324.9999999915
-0.461711711711712 	300.000000000015 	6.011655735613624e-12 	101324.9999999912
-0.4592092092092094 	300.0000000000084 	4.232433417868077e-12 	101324.9999999913
-0.456706706706707 	300.000000000049 	6.427132674998312e-12 	101324.9999999912
-0.4542042042042045 	299.9999999999411 	4.615933961968886e-12 	101324.9999999914
-0.451701701701702 	299.9999999999512 	5.839163266895439e-12 	101324.9999999913
-0.4491991991991995 	299.9999999999548 	3.462638328425075e-12 	101324.9999999912
-0.4466966966966969 	299.9999999999479 	5.094504971581877e-12 	101324.999999991
-0.4441941941941945 	299.9999999999958 	2.009342231034371e-12 	101324.9999999907
-0.441691691691692 	299.9999999999571 	4.25011956950744e-12 	101324.9999999907
-0.4391891891891895 	299.9999999999902 	1.478309606531682e-12 	101324.9999999908
-0.436686686686687 	299.9999999999692 	5.328741132701077e-12 	101324.9999999908
-0.4341841841841846 	299.9999999999948 	2.064585340044096e-12 	101324.999999991
-0.431681681681682 	299.9999999999474 	5.324006817129455e-12 	101324.999999991
-0.4291791791791794 	299.9999999999328 	1.422745322748043e-12 	101324.999999991
-0.426676676676677 	299.9999999999117 	4.383385855087233e-12 	101324.999999991
-0.4241741741741744 	299.9999999999674 	1.205137899600405e-12 	101324.999999991
-0.421671671671672 	300.0000000000057 	3.314578041275518e-12 	101324.9999999908
-0.4191691691691694 	300.0000000000491 	1.385103166430141e-12 	101324.9999999907
-0.4166666666666669 	300.0000000000562 	3.295856562081523e-12 	101324.9999999909
-0.4141641641641645 	299.9999999999346 	1.940873145040459e-12 	101324.9999999912
-0.411661661661662 	300.0000000000007 	3.062010206426228e-12 	101324.9999999913
-0.4091591591591594 	300.000000000003 	1.672584735366785e-12 	101324.9999999911
-0.406656656656657 	299.9999999999431 	2.718324619258363e-12 	101324.999999991
-0.4041541541541545 	300.0000000000153 	6.87582923895329e-13 	101324.9999999909
-0.401651651651652 	299.9999999999262 	3.495778595763017e-12 	101324.9999999911
-0.3991491491491494 	299.9999999999984 	1.514319992027769e-12 	101324.999999991
-0.396646646646647 	299.9999999999537 	4.465842004801493e-12 	101324.9999999908
-0.3941441441441444 	299.9999999999783 	2.372100266996085e-12 	101324.9999999908
-0.3916416416416419 	299.999999999933 	4.398758775187016e-12 	101324.9999999907
-0.3891391391391395 	299.9999999999571 	8.865977580320094e-13 	101324.9999999907
-0.3866366366366368 	299.9999999999579 	3.672400969433503e-12 	101324.9999999909
-0.3841341341341344 	299.9999999999936 	1.878382247725464e-12 	101324.999999991
-0.381631631631632 	299.9999999999471 	3.134739653159969e-12 	101324.9999999913
-0.3791291291291294 	300.0000000000037 	2.598557668601843e-12 	101324.9999999916
-0.3766266266266269 	300.0000000000209 	2.500101026500077e-12 	101324.9999999915
-0.3741241241241244 	300.0000000000229 	3.407248282781532e-12 	101324.9999999916
-0.371621621621622 	300.0000000000175 	1.71070932090709e-12 	101324.9999999914
-0.3691191191191194 	300.000000000005 	4.452194982577223e-12 	101324.9999999915
-0.366616616616617 	300.000000000005 	1.116959715442762e-12 	101324.9999999916
-0.3641141141141143 	299.9999999999683 	3.999953145483863e-12 	101324.9999999916
-0.3616116116116119 	299.9999999999486 	2.017864506327975e-12 	101324.9999999916
-0.3591091091091095 	299.9999999999817 	3.297667617843127e-12 	101324.9999999915
-0.356606606606607 	299.9999999999766 	2.832384219066005e-12 	101324.9999999914
-0.3541041041041044 	299.9999999999892 	3.123342803134161e-12 	101324.9999999911
-0.3516016016016019 	300.0000000000078 	4.270681620885409e-12 	101324.9999999911
-0.3490990990990994 	299.9999999999926 	3.016556712695347e-12 	101324.9999999909
-0.346596596596597 	300.0000000000395 	5.34369373975235e-12 	101324.9999999908
-0.3440940940940944 	300.0000000000468 	2.57264365475804e-12 	101324.9999999908
-0.3415915915915919 	300.0000000000183 	4.886291842791113e-12 	101324.9999999908
-0.3390890890890895 	299.9999999999811 	2.544591590949875e-12 	101324.9999999909
-0.3365865865865869 	300.0000000000164 	3.248943879494895e-12 	101324.9999999912
-0.3340840840840844 	300.0000000000001 	1.793233733156911e-12 	101324.9999999912
-0.3315815815815819 	300.0000000000201 	2.840698644908433e-12 	101324.9999999909
-0.3290790790790794 	300.0000000000194 	2.004820508169191e-12 	101324.999999991
-0.3265765765765769 	299.9999999999261 	3.142771194000654e-12 	101324.9999999912
-0.3240740740740744 	299.9999999999902 	1.757028948769704e-12 	101324.9999999914
-0.3215715715715718 	300.0000000000014 	3.884248612742081e-12 	101324.9999999914
-0.3190690690690695 	299.9999999999346 	2.035918151860119e-12 	101324.9999999916
-0.3165665665665668 	299.999999999991 	4.095666489783546e-12 	101324.9999999916
-0.3140640640640644 	300.0000000000043 	1.128373824439976e-12 	101324.9999999917
-0.311561561561562 	299.999999999931 	3.995317149870096e-12 	101324.9999999915
-0.3090590590590593 	299.9999999999916 	1.671522842234885e-12 	101324.9999999914
-0.3065565565565568 	300.0000000000003 	5.556084170846981e-12 	101324.9999999914
-0.3040540540540545 	299.9999999999994 	1.703475074130373e-12 	101324.9999999915
-0.3015515515515518 	300.0000000000306 	5.119078451011902e-12 	101324.9999999915
-0.2990490490490494 	299.9999999999491 	1.329049903737519e-12 	101324.9999999914
-0.2965465465465469 	299.9999999999861 	3.750661545060765e-12 	101324.9999999911
-0.2940440440440444 	299.9999999999985 	2.746662526747409e-12 	101324.9999999912
-0.2915415415415418 	300.0000000000008 	3.223541540415671e-12 	101324.9999999915
-0.2890390390390395 	300.0000000000007 	3.468079743728995e-12 	101324.9999999919
-0.2865365365365368 	299.9999999999804 	2.401535617034629e-12 	101324.9999999919
-0.2840340340340343 	299.9999999999971 	4.688761613890109e-12 	101324.9999999918
-0.2815315315315318 	299.9999999999268 	2.2060274909151e-12 	101324.9999999916
-0.2790290290290295 	299.9999999999599 	4.02522240611106e-12 	101324.9999999919
-0.2765265265265269 	300.0000000000074 	2.497215170329038e-12 	101324.999999992
-0.2740240240240244 	300.0000000000227 	3.517798785580002e-12 	101324.999999992
-0.2715215215215219 	300.0000000000101 	3.448060912964377e-12 	101324.9999999919
-0.2690190190190194 	299.9999999999438 	3.045243136729319e-12 	101324.9999999918
-0.2665165165165169 	299.9999999999974 	3.076742842888894e-12 	101324.9999999917
-0.2640140140140144 	299.9999999999679 	1.537476931972675e-12 	101324.9999999916
-0.2615115115115119 	299.9999999999986 	3.112393465476416e-12 	101324.9999999914
-0.2590090090090094 	299.9999999999335 	1.20123642785414e-12 	101324.9999999916
-0.2565065065065068 	299.9999999999907 	2.219386946063739e-12 	101324.9999999915
-0.2540040040040044 	299.9999999999962 	2.636428811009515e-12 	101324.9999999916
-0.2515015015015019 	300.0000000000344 	2.018452790564901e-12 	101324.9999999916
-0.2489989989989994 	300.0000000000414 	4.244770926575845e-12 	101324.9999999914
-0.2464964964964968 	299.9999999999883 	1.945907359477349e-12 	101324.999999991
-0.2439939939939944 	299.9999999999934 	5.675287499536345e-12 	101324.9999999908
-0.2414914914914919 	299.9999999999669 	1.81314063632516e-12 	101324.9999999908
-0.2389889889889893 	300.0000000000006 	6.104404215980053e-12 	101324.9999999906
-0.2364864864864869 	300.0000000000232 	2.354761336958986e-12 	101324.9999999909
-0.2339839839839843 	299.9999999999337 	6.841847845732995e-12 	101324.9999999912
-0.2314814814814819 	299.9999999999814 	2.85803346245426e-12 	101324.9999999912
-0.2289789789789792 	299.9999999999239 	5.980346151087868e-12 	101324.9999999912
-0.2264764764764769 	299.99999999995 	2.829782391010747e-12 	101324.9999999912
-0.2239739739739743 	299.9999999999593 	3.759391018400568e-12 	101324.9999999913
-0.2214714714714718 	299.9999999999415 	3.010188565304073e-12 	101324.9999999914
-0.2189689689689693 	299.9999999999675 	2.896808704957172e-12 	101324.9999999912
-0.2164664664664669 	299.9999999999812 	4.336258578093658e-12 	101324.9999999914
-0.2139639639639643 	299.9999999999342 	2.551639011797884e-12 	101324.9999999915
-0.2114614614614618 	299.9999999999728 	3.140373087199906e-12 	101324.9999999915
-0.2089589589589593 	299.9999999999914 	2.069845179802793e-12 	101324.9999999915
-0.2064564564564568 	299.9999999999916 	1.242175254924448e-12 	101324.9999999914
-0.2039539539539543 	299.9999999999134 	2.287379183441602e-12 	101324.9999999917
-0.2014514514514518 	299.9999999999475 	2.447947639987474e-13 	101324.9999999917
-0.1989489489489494 	299.9999999999688 	2.985373240060272e-12 	101324.9999999919
-0.1964464464464468 	299.9999999999949 	6.32802007542975e-13 	101324.9999999916
-0.1939439439439443 	299.9999999999836 	3.366142000764572e-12 	101324.9999999916
-0.1914414414414418 	299.9999999999236 	7.234072982907746e-13 	101324.9999999918
-0.1889389389389393 	300.000000000003 	2.380880939369098e-12 	101324.9999999917
-0.1864364364364368 	300.000000000041 	1.46566969684244e-12 	101324.9999999916
-0.1839339339339343 	299.9999999999742 	2.877117185341555e-12 	101324.9999999914
-0.1814314314314318 	299.9999999999935 	2.423524677250294e-12 	101324.9999999917
-0.1789289289289293 	299.9999999999035 	3.970727404809924e-12 	101324.9999999917
-0.1764264264264268 	299.9999999999814 	2.184487270127639e-12 	101324.9999999915
-0.1739239239239243 	299.9999999999038 	4.514892764675706e-12 	101324.9999999917
-0.1714214214214218 	299.9999999999878 	1.062213005465333e-12 	101324.9999999918
-0.1689189189189193 	299.9999999999503 	5.354885434568377e-12 	101324.9999999919
-0.1664164164164168 	300.000000000004 	9.169294238265569e-13 	101324.9999999921
-0.1639139139139143 	299.9999999999848 	6.6407787190619e-12 	101324.999999992
-0.1614114114114118 	300.0000000000211 	2.26832834766026e-12 	101324.9999999918
-0.1589089089089093 	299.9999999999987 	8.426121220287718e-12 	101324.9999999918
-0.1564064064064068 	299.9999999999822 	3.653168040599499e-12 	101324.9999999915
-0.1539039039039043 	299.9999999999868 	8.258728115654199e-12 	101324.9999999915
-0.1514014014014018 	300.0000000000221 	3.322747959506917e-12 	101324.9999999912
-0.1488988988988993 	299.9999999999837 	7.590600949234801e-12 	101324.999999991
-0.1463963963963968 	299.9999999999999 	1.919249098262937e-12 	101324.9999999912
-0.1438938938938943 	299.999999999954 	6.602476444876009e-12 	101324.9999999912
-0.1413913913913918 	299.9999999999304 	1.292982777127744e-12 	101324.9999999912
-0.1388888888888893 	299.9999999999794 	4.174150579984571e-12 	101324.999999991
-0.1363863863863868 	299.999999999896 	5.550029928346405e-13 	101324.9999999911
-0.1338838838838843 	299.9999999999218 	3.264289833712795e-12 	101324.9999999912
-0.1313813813813818 	299.9999999999957 	5.260949011943845e-13 	101324.9999999916
-0.1288788788788793 	299.9999999999616 	2.744347479383062e-12 	101324.9999999916
-0.1263763763763768 	299.9999999999732 	3.646267039142592e-13 	101324.9999999915
-0.1238738738738743 	299.9999999999332 	2.900217537135617e-12 	101324.9999999915
-0.1213713713713717 	299.9999999999837 	4.971195440709266e-13 	101324.9999999915
-0.1188688688688693 	300.0000000000069 	3.656473151469395e-12 	101324.9999999916
-0.1163663663663668 	299.9999999999134 	1.406936156509404e-12 	101324.9999999916
-0.1138638638638643 	299.999999999989 	3.581629542224886e-12 	101324.9999999917
-0.1113613613613618 	299.9999999999845 	2.265315479844846e-12 	101324.9999999915
-0.1088588588588592 	299.9999999999742 	3.658049394260073e-12 	101324.9999999915
-0.1063563563563568 	299.9999999999587 	2.396946777196513e-12 	101324.9999999915
-0.1038538538538543 	299.9999999999767 	3.223031719335292e-12 	101324.9999999913
-0.1013513513513517 	300.0000000000121 	7.848486445439072e-13 	101324.9999999914
-0.09884884884884926 	299.9999999999509 	4.153250029299162e-12 	101324.9999999917
-0.09634634634634676 	299.9999999998954 	1.885120223814241e-12 	101324.9999999918
-0.09384384384384425 	299.9999999999315 	3.672164718752704e-12 	101324.9999999918
-0.09134134134134177 	300.0000000000221 	1.961735012513027e-12 	101324.9999999918
-0.08883883883883925 	300.0000000000051 	4.102128388505298e-12 	101324.9999999917
-0.08633633633633674 	299.9999999999537 	3.983090187694164e-12 	101324.9999999914
-0.08383383383383426 	300.0000000000079 	4.618834917781815e-12 	101324.9999999914
-0.08133133133133173 	299.9999999999717 	5.209647814220631e-12 	101324.9999999911
-0.07882882882882926 	299.9999999998868 	4.634109157710903e-12 	101324.999999991
-0.07632632632632676 	299.9999999999604 	4.151406934980659e-12 	101324.9999999907
-0.07382382382382424 	299.999999999902 	3.421858510670873e-12 	101324.9999999907
-0.07132132132132173 	300.0000000000085 	2.417438798376812e-12 	101324.9999999909
-0.06881881881881925 	299.9999999999609 	2.538436543970633e-12 	101324.9999999911
-0.06631631631631671 	299.9999999998984 	2.672502680710312e-12 	101324.999999991
-0.06381381381381425 	299.9999999999567 	2.447973051008602e-12 	101324.9999999912
-0.06131131131131173 	299.9999999999589 	2.21486620705098e-12 	101324.9999999914
-0.05880880880880923 	299.9999999999246 	2.205681961021505e-12 	101324.9999999916
-0.05630630630630672 	299.9999999999673 	1.759313967830443e-12 	101324.9999999914
-0.05380380380380424 	300.0000000000146 	2.383543287098562e-12 	101324.9999999916
-0.05130130130130173 	300.000000000011 	2.321588800079619e-12 	101324.9999999916
-0.04879879879879922 	299.999999999943 	2.194867991470658e-12 	101324.9999999916
-0.04629629629629672 	299.9999999999364 	1.210050041827064e-12 	101324.9999999916
-0.04379379379379422 	299.9999999999225 	1.627024367090628e-12 	101324.9999999918
-0.04129129129129173 	299.9999999999777 	7.385260604581883e-13 	101324.9999999917
-0.03878878878878922 	299.999999999984 	1.218233215924549e-12 	101324.9999999915
-0.03628628628628671 	299.9999999999833 	8.487847558621236e-13 	101324.9999999916
-0.03378378378378422 	299.9999999999307 	1.531085170260849e-12 	101324.9999999918
-0.03128128128128172 	299.9999999999692 	1.188131188621039e-12 	101324.9999999919
-0.02877877877877922 	299.9999999999706 	1.891861142389411e-12 	101324.999999992
-0.0262762762762767 	299.9999999999053 	1.405408744578306e-12 	101324.9999999922
-0.02377377377377422 	300.0000000000195 	1.358090666549262e-12 	101324.9999999922
-0.0212712712712717 	299.9999999999047 	1.42528859017901e-12 	101324.9999999918
-0.01876876876876921 	299.9999999999754 	9.854064822421708e-13 	101324.9999999918
-0.01626626626626671 	300.000000000011 	1.628978695098556e-12 	101324.9999999916
-0.0137637637637642 	299.9999999999658 	6.449773710592131e-13 	101324.9999999916
-0.0112612612612617 	300.0000000000155 	4.826856995163187e-13 	101324.9999999916
-0.008758758758759198 	299.9999999999964 	1.193634145351142e-13 	101324.9999999914
-0.006256256256256697 	299.9999999998906 	3.109766366444767e-13 	101324.9999999916
-0.003753753753754195 	299.9999999999523 	6.93170260850728e-13 	101324.9999999917
-0.001251251251251693 	299.9999999999315 	1.341962653151954e-13 	101324.9999999918
0.00125125125125081 	299.9999999999557 	3.048214057884598e-13 	101324.9999999918
0.003753753753753312 	299.9999999999665 	2.834028164325736e-13 	101324.9999999921
0.006256256256255817 	299.9999999998984 	1.224032829999482e-12 	101324.9999999921
0.008758758758758317 	299.9999999999907 	8.4559373854016e-13 	101324.9999999919
0.01126126126126082 	300.0000000000074 	8.555267716954225e-13 	101324.9999999917
0.01376376376376332 	299.9999999999706 	4.836766241937506e-13 	101324.9999999916
0.01626626626626582 	300.0000000000086 	5.60080905872064e-13 	101324.9999999917
0.01876876876876833 	299.9999999999549 	5.560844079270026e-13 	101324.999999992
0.02127127127127083 	299.9999999999682 	8.82030563713395e-13 	101324.999999992
0.02377377377377332 	299.9999999999975 	9.300211907170651e-13 	101324.9999999921
0.02627627627627583 	299.9999999999119 	1.230547692400006e-12 	101324.9999999918
0.02877877877877833 	300.0000000000061 	1.790532265817855e-12 	101324.9999999916
0.03128128128128083 	299.9999999999465 	1.825607422814388e-12 	101324.9999999917
0.03378378378378333 	299.9999999999088 	2.828483092701823e-12 	101324.999999992
0.03628628628628584 	299.999999999974 	2.512358656888969e-12 	101324.9999999923
0.03878878878878834 	299.9999999999791 	1.863791281337837e-12 	101324.9999999923
0.04129129129129084 	299.999999999978 	1.745638209989008e-12 	101324.9999999922
0.04379379379379333 	299.9999999999428 	2.269808553171652e-12 	101324.999999992
0.04629629629629585 	299.9999999998939 	1.912697793289839e-12 	101324.9999999917
0.04879879879879834 	299.9999999999566 	2.371486818892966e-12 	101324.9999999916
0.05130130130130085 	300.0000000000153 	2.223582688109754e-12 	101324.9999999914
0.05380380380380335 	300.000000000017 	1.719155943055524e-12 	101324.9999999914
0.05630630630630584 	299.9999999999887 	1.660246331104837e-12 	101324.9999999912
0.05880880880880836 	299.9999999999243 	2.171734337640225e-12 	101324.9999999913
0.06131131131131085 	299.9999999999751 	2.8134919928871e-12 	101324.9999999911
0.06381381381381336 	299.9999999999663 	2.712215712233388e-12 	101324.999999991
0.06631631631631586 	299.9999999998966 	3.229523428106419e-12 	101324.9999999911
0.06881881881881835 	299.9999999999495 	3.421240874787866e-12 	101324.9999999912
0.07132132132132088 	299.9999999999883 	3.448349926033288e-12 	101324.9999999914
0.07382382382382337 	299.9999999999097 	3.185243929214155e-12 	101324.9999999914
0.07632632632632587 	299.999999999971 	3.488276502932705e-12 	101324.9999999915
0.07882882882882837 	299.9999999999434 	2.953492415841896e-12 	101324.9999999912
0.08133133133133086 	299.9999999999857 	2.936530216595339e-12 	101324.9999999914
0.08383383383383337 	299.9999999999847 	2.003375706565426e-12 	101324.9999999915
0.08633633633633589 	299.9999999999104 	2.15631727338154e-12 	101324.9999999911
0.08883883883883838 	300.0000000000103 	2.924297787027049e-12 	101324.9999999911
0.09134134134134086 	299.9999999999889 	2.469141940284528e-12 	101324.9999999912
0.09384384384384339 	299.9999999999006 	2.888821540498498e-12 	101324.9999999913
0.09634634634634588 	299.9999999999682 	2.866048783159369e-12 	101324.9999999912
0.09884884884884838 	299.9999999999733 	2.738377512884036e-12 	101324.9999999913
0.1013513513513509 	300.0000000000155 	2.838411347603031e-12 	101324.9999999914
0.1038538538538534 	299.9999999999537 	2.963931175261017e-12 	101324.9999999914
0.1063563563563559 	300.0000000000132 	3.46939103739104e-12 	101324.9999999915
0.1088588588588584 	300.0000000000279 	3.3551235488222e-12 	101324.9999999914
0.1113613613613609 	299.9999999999229 	3.597304688136046e-12 	101324.9999999914
0.1138638638638634 	299.9999999999478 	3.362195588080263e-12 	101324.9999999915
0.1163663663663659 	299.9999999999461 	3.311755157801645e-12 	101324.9999999916
0.1188688688688684 	299.9999999999693 	3.087543507330212e-12 	101324.9999999913
0.1213713713713709 	299.9999999999948 	2.068248063891969e-12 	101324.9999999914
0.1238738738738734 	299.9999999999301 	2.234523682714468e-12 	101324.9999999913
0.1263763763763759 	299.9999999999867 	2.014763448573841e-12 	101324.9999999913
0.1288788788788784 	299.9999999999898 	1.431455889476741e-12 	101324.9999999912
0.1313813813813809 	299.9999999999885 	1.255114629912365e-12 	101324.9999999912
0.1338838838838834 	299.999999999975 	8.294693390184674e-13 	101324.999999991
0.1363863863863859 	300.000000000027 	7.283354085062557e-13 	101324.999999991
0.1388888888888884 	300.0000000000427 	1.044306461704597e-12 	101324.9999999908
0.1413913913913909 	300.0000000000002 	7.064343873946882e-13 	101324.9999999905
0.1438938938938934 	299.9999999999923 	1.680149400795486e-12 	101324.9999999907
0.1463963963963959 	299.9999999999607 	9.586766903847241e-13 	101324.9999999909
0.1488988988988985 	299.9999999999163 	2.158446082137541e-12 	101324.9999999912
0.1514014014014009 	299.9999999999689 	5.549351780141925e-13 	101324.9999999914
0.1539039039039035 	299.9999999999627 	2.112473195464751e-12 	101324.9999999913
0.1564064064064059 	299.999999999942 	5.893707728691803e-13 	101324.9999999914
0.1589089089089084 	299.9999999999808 	3.158592549816363e-12 	101324.9999999914
0.1614114114114109 	299.9999999999762 	1.094182941193987e-12 	101324.9999999913
0.1639139139139134 	299.9999999999146 	3.042937829229011e-12 	101324.9999999911
0.166416416416416 	300.0000000000064 	2.002257296242241e-12 	101324.9999999911
0.1689189189189185 	300.000000000025 	1.965541002318882e-12 	101324.9999999912
0.1714214214214209 	299.9999999999936 	2.6860833438389e-12 	101324.9999999911
0.1739239239239235 	299.9999999999851 	1.598247991601345e-12 	101324.9999999912
0.1764264264264259 	299.9999999999665 	3.926372545629022e-12 	101324.9999999913
0.1789289289289284 	300.0000000000018 	1.994056616412286e-12 	101324.9999999916
0.181431431431431 	299.9999999999649 	4.919682529389004e-12 	101324.9999999917
0.1839339339339334 	299.9999999999733 	2.871325757107846e-12 	101324.9999999919
0.186436436436436 	299.9999999999317 	3.944568542648232e-12 	101324.9999999921
0.1889389389389385 	299.9999999999831 	3.052027005914072e-12 	101324.9999999923
0.191441441441441 	299.9999999999782 	2.410230086125359e-12 	101324.9999999922
0.1939439439439434 	299.9999999999241 	3.53350809469593e-12 	101324.9999999923
0.196446446446446 	299.9999999999488 	1.639169172516561e-12 	101324.9999999922
0.1989489489489485 	299.9999999999706 	3.733789785587008e-12 	101324.9999999921
0.2014514514514509 	299.9999999999845 	1.281215354561158e-12 	101324.9999999922
0.2039539539539535 	299.9999999999907 	2.790103028723754e-12 	101324.9999999921
0.2064564564564559 	299.9999999999603 	2.083767756099835e-12 	101324.9999999919
0.2089589589589585 	299.9999999999845 	2.652215237225739e-12 	101324.999999992
0.211461461461461 	299.9999999999372 	3.045210684020545e-12 	101324.999999992
0.2139639639639635 	299.9999999999849 	2.503044019531519e-12 	101324.999999992
0.2164664664664659 	299.9999999999969 	4.372879797452215e-12 	101324.9999999921
0.2189689689689684 	299.9999999999961 	2.850847211477332e-12 	101324.9999999918
0.221471471471471 	299.9999999999924 	5.248132703821926e-12 	101324.999999992
0.2239739739739735 	299.9999999999577 	3.100794809629805e-12 	101324.999999992
0.226476476476476 	299.9999999999794 	4.700770512569461e-12 	101324.9999999917
0.2289789789789785 	299.9999999999937 	3.719282320636729e-12 	101324.9999999914
0.231481481481481 	299.999999999989 	3.635955293371542e-12 	101324.9999999914
0.2339839839839835 	299.9999999999873 	3.631871181792242e-12 	101324.9999999914
0.236486486486486 	300.0000000000208 	2.046590326081497e-12 	101324.9999999915
0.2389889889889885 	300.0000000000025 	3.083257347711019e-12 	101324.9999999914
0.241491491491491 	299.9999999999297 	8.750540871048314e-13 	101324.9999999915
0.2439939939939935 	299.9999999999807 	3.28598969178335e-12 	101324.9999999915
0.246496496496496 	299.9999999999919 	3.832047038818443e-13 	101324.9999999915
0.2489989989989985 	300.0000000000331 	2.388260504483003e-12 	101324.9999999917
0.251501501501501 	300.0000000000268 	1.294465593022375e-12 	101324.9999999916
0.2540040040040035 	299.9999999999915 	1.441762938046178e-12 	101324.9999999918
0.256506506506506 	300.0000000000259 	1.953550886753905e-12 	101324.9999999915
0.2590090090090086 	299.9999999999124 	5.838034246076304e-13 	101324.9999999918
0.261511511511511 	299.9999999999991 	2.980210314323377e-12 	101324.999999992
0.2640140140140135 	299.9999999999912 	9.516334146352555e-13 	101324.999999992
0.2665165165165161 	299.9999999999344 	3.016898478889981e-12 	101324.999999992
0.2690190190190185 	300.0000000000065 	2.137139618444749e-12 	101324.9999999917
0.271521521521521 	300.0000000000116 	2.959573224481626e-12 	101324.9999999917
0.2740240240240235 	300.0000000000157 	3.550665447402283e-12 	101324.9999999916
0.276526526526526 	300.0000000000074 	2.887254717292941e-12 	101324.9999999915
0.2790290290290286 	299.9999999999463 	4.184259455994513e-12 	101324.9999999912
0.281531531531531 	299.999999999931 	3.014269654538806e-12 	101324.9999999913
0.2840340340340335 	299.9999999999761 	4.782058381699365e-12 	101324.9999999914
0.2865365365365361 	299.9999999999646 	3.018332813762623e-12 	101324.9999999913
0.2890390390390385 	299.9999999999998 	3.168397132945088e-12 	101324.9999999912
0.291541541541541 	299.9999999999987 	2.264591471539847e-12 	101324.9999999912
0.2940440440440436 	299.9999999999894 	1.197837744074939e-12 	101324.9999999912
0.296546546546546 	299.9999999999934 	2.512496110100924e-12 	101324.9999999911
0.2990490490490486 	299.9999999999395 	1.278491381692873e-12 	101324.9999999912
0.3015515515515511 	300.0000000000294 	3.768163236920639e-12 	101324.999999991
0.3040540540540535 	299.999999999995 	3.039308699752496e-12 	101324.9999999912
0.3065565565565562 	299.9999999999985 	3.787692057067139e-12 	101324.9999999911
0.3090590590590585 	299.9999999999908 	3.26418346256652e-12 	101324.999999991
0.3115615615615611 	299.9999999999449 	2.567889035033194e-12 	101324.9999999912
0.3140640640640635 	300.0000000000063 	1.664489195711869e-12 	101324.9999999912
0.316566566566566 	299.9999999999924 	2.073652558405309e-12 	101324.9999999912
0.3190690690690687 	299.9999999999536 	8.125585164949225e-13 	101324.9999999912
0.3215715715715711 	300.0000000000151 	1.873310523167494e-12 	101324.9999999913
0.3240740740740735 	300.0000000000003 	1.034954051054012e-12 	101324.9999999911
0.326576576576576 	299.9999999999138 	7.352553730470163e-13 	101324.9999999909
0.3290790790790786 	300.0000000000067 	7.18964337040146e-13 	101324.9999999911
0.3315815815815811 	300.0000000000284 	4.304464795453784e-13 	101324.999999991
0.3340840840840836 	299.9999999999865 	4.07944905929723e-13 	101324.9999999911
0.3365865865865861 	300.0000000000491 	1.389463540452278e-12 	101324.9999999912
0.3390890890890886 	300.0000000000452 	3.968415535692214e-13 	101324.9999999911
0.3415915915915911 	300.0000000000018 	2.132568839011984e-12 	101324.999999991
0.3440940940940935 	299.9999999999508 	1.103314027001822e-12 	101324.999999991
0.3465965965965962 	300.0000000000293 	2.993110328931785e-12 	101324.9999999909
0.3490990990990985 	300.0000000000229 	1.475749051616841e-12 	101324.9999999907
0.3516016016016011 	299.9999999999876 	2.000237298075685e-12 	101324.9999999909
0.3541041041041035 	300.0000000000061 	1.387215330499667e-12 	101324.9999999911
0.3566066066066061 	299.9999999999618 	4.240323302358463e-13 	101324.9999999912
0.3591091091091085 	299.9999999999256 	1.440841761696231e-12 	101324.9999999911
0.3616116116116112 	299.9999999999433 	1.487203526277684e-12 	101324.9999999912
0.3641141141141137 	299.9999999999358 	1.784745068547731e-12 	101324.9999999912
0.3666166166166161 	299.9999999999319 	2.730422821149232e-12 	101324.9999999912
0.3691191191191185 	300.0000000000354 	3.119904123476516e-12 	101324.999999991
0.371621621621621 	300.0000000000076 	1.829204067649748e-12 	101324.999999991
0.3741241241241237 	300.0000000000405 	2.440756769037918e-12 	101324.9999999909
0.3766266266266261 	300.0000000000273 	1.422850941702056e-12 	101324.9999999907
0.3791291291291286 	299.9999999999862 	1.774643996242685e-12 	101324.9999999906
0.3816316316316311 	299.9999999999257 	9.108981188427743e-13 	101324.9999999905
0.3841341341341336 	300.0000000000072 	2.819623580224532e-12 	101324.9999999908
0.3866366366366362 	299.9999999999966 	1.982717504762853e-12 	101324.9999999906
0.3891391391391387 	299.9999999999579 	3.914438462542049e-12 	101324.9999999904
0.391641641641641 	299.9999999999924 	2.949477144960163e-12 	101324.9999999907
0.3941441441441436 	300.00000000001 	3.483757153005812e-12 	101324.9999999909
0.3966466466466462 	300.0000000000018 	2.056489359016418e-12 	101324.9999999909
0.3991491491491486 	299.9999999999556 	2.52962333113354e-12 	101324.9999999908
0.4016516516516512 	299.9999999999263 	1.466212490131512e-12 	101324.9999999911
0.4041541541541536 	299.9999999999516 	2.348370145194311e-12 	101324.9999999913
0.4066566566566561 	299.9999999999526 	6.987403002910457e-13 	101324.9999999914
0.4091591591591587 	299.9999999999945 	1.297218129762116e-12 	101324.9999999914
0.4116616616616612 	300.0000000000051 	3.450387972090753e-13 	101324.9999999914
0.4141641641641635 	300.0000000000337 	7.577250168324092e-15 	101324.9999999916
0.4166666666666662 	299.9999999999958 	3.078181665183255e-13 	101324.9999999915
0.4191691691691687 	299.9999999999485 	1.580088913992074e-12 	101324.9999999914
0.421671671671671 	300.0000000000111 	1.435414445329653e-12 	101324.9999999912
0.4241741741741737 	299.9999999999742 	2.919730854412155e-12 	101324.9999999911
0.4266766766766761 	299.9999999999529 	2.763023109491016e-12 	101324.9999999909
0.4291791791791785 	300.000000000016 	2.604211311431745e-12 	101324.9999999908
0.4316816816816812 	300.0000000000094 	3.161398136990243e-12 	101324.9999999906
0.4341841841841836 	299.999999999984 	2.959233950367213e-12 	101324.9999999904
0.4366866866866862 	299.9999999999287 	1.65171724537438e-12 	101324.9999999905
0.4391891891891885 	299.9999999999897 	2.061954509884988e-12 	101324.9999999908
0.4416916916916913 	299.9999999999823 	1.417064336845429e-12 	101324.9999999909
0.4441941941941936 	299.9999999999879 	1.131614809597276e-12 	101324.999999991
0.4466966966966961 	299.9999999999249 	8.733321532060616e-13 	101324.9999999911
0.4491991991991987 	299.9999999999843 	1.148063840695528e-13 	101324.9999999912
0.4517017017017012 	299.9999999999817 	2.53328996379399e-13 	101324.9999999912
0.4542042042042035 	299.9999999999842 	2.140100362724538e-13 	101324.9999999912
0.4567067067067062 	299.9999999999959 	6.971006050458466e-14 	101324.9999999912
0.4592092092092087 	299.9999999999329 	3.520437720709735e-13 	101324.9999999912
0.4617117117117112 	300.0000000000168 	4.4275834732285e-13 	101324.9999999912
0.4642142142142137 	299.9999999999646 	4.071111229274753e-13 	101324.999999991
0.4667167167167162 	299.9999999999916 	7.241388266525535e-13 	101324.9999999909
0.4692192192192187 	299.9999999999591 	8.549250786643451e-13 	101324.9999999908
0.4717217217217212 	300.0000000000111 	1.025197006433792e-12 	101324.9999999908
0.4742242242242236 	299.9999999999599 	9.294167525568603e-13 	101324.9999999909
0.4767267267267262 	299.9999999999798 	1.350539142462626e-12 	101324.999999991
0.4792292292292287 	300.0000000000138 	1.192908187990651e-12 	101324.999999991
0.4817317317317312 	300.0000000000303 	6.686842353552146e-13 	101324.9999999912
0.4842342342342336 	299.9999999999879 	7.319007496991253e-13 	101324.9999999913
0.4867367367367362 	299.99999999996 	5.361235261121224e-13 	101324.9999999915
0.4892392392392387 	300.0000000000265 	1.005166312361532e-12 	101324.9999999913
0.4917417417417412 	300.0000000000051 	1.078376284386782e-12 	101324.9999999911
0.4942442442442437 	299.9999999999154 	1.144737180717697e-12 	101324.9999999909
0.4967467467467462 	299.9999999999306 	1.603817010622403e-12 	101324.9999999908
0.4992492492492487 	299.9999999999265 	8.027826923986125e-13 	101324.9999999909
0.5017517517517511 	299.9999999999583 	5.240498638451701e-13 	101324.9999999908
0.5042542542542537 	299.9999999999674 	1.761176210245334e-13 	101324.9999999911
0.5067567567567562 	299.9999999999512 	2.357366073173243e-13 	101324.9999999913
0.5092592592592589 	299.9999999999745 	1.020270796511236e-12 	101324.9999999912
0.5117617617617611 	299.9999999999623 	1.283884285665831e-12 	101324.9999999911
0.5142642642642637 	299.9999999999858 	1.915139451937147e-12 	101324.999999991
0.5167667667667663 	299.9999999999735 	2.320951425359671e-12 	101324.9999999911
0.5192692692692688 	299.9999999999274 	2.957678751522661e-12 	101324.9999999912
0.5217717717717714 	299.9999999999409 	3.572537946731363e-12 	101324.999999991
0.5242742742742736 	299.9999999999425 	2.577316493048928e-12 	101324.9999999908
0.5267767767767763 	299.9999999999586 	2.97598192092886e-12 	101324.9999999907
0.5292792792792789 	299.9999999999425 	1.816456030036495e-12 	101324.9999999911
0.5317817817817813 	299.9999999999189 	2.604391891321249e-12 	101324.9999999913
0.5342842842842837 	300.0000000000136 	8.556315283224337e-13 	101324.9999999912
0.5367867867867864 	300.0000000000014 	1.680744847784376e-12 	101324.9999999912
0.5392892892892888 	299.9999999999604 	6.408464765045435e-13 	101324.9999999911
0.5417917917917912 	300.0000000000011 	1.580774667991458e-12 	101324.999999991
0.5442942942942938 	299.999999999985 	2.202229265982995e-13 	101324.999999991
0.5467967967967964 	299.9999999999587 	8.355930401804761e-13 	101324.9999999908
0.5492992992992988 	299.9999999999505 	3.790461515365702e-13 	101324.9999999907
0.5518018018018012 	299.999999999942 	7.804763685913149e-13 	101324.999999991
0.5543043043043039 	300.0000000000177 	6.916376189631578e-13 	101324.9999999909
0.5568068068068063 	299.9999999999905 	9.940676421501074e-13 	101324.9999999908
0.5593093093093087 	299.9999999999114 	7.723629691062974e-13 	101324.9999999908
0.5618118118118114 	299.9999999999616 	1.78792482526069e-12 	101324.9999999909
0.5643143143143137 	299.999999999947 	1.009775670886403e-12 	101324.9999999909
0.5668168168168163 	299.9999999999931 	1.828754894363802e-12 	101324.9999999911
0.5693193193193188 	300.00000000003 	1.774577813511165e-12 	101324.9999999911
0.5718218218218213 	300.0000000000247 	1.328094068937702e-12 	101324.9999999912
0.5743243243243239 	300.000000000007 	2.206947502302027e-12 	101324.9999999911
0.5768268268268262 	300.0000000000075 	1.472758501728231e-12 	101324.9999999912
0.5793293293293288 	299.9999999999569 	3.122950331219248e-12 	101324.9999999913
0.5818318318318314 	299.9999999999261 	2.037786602613405e-12 	101324.9999999913
0.5843343343343338 	299.9999999999774 	3.752960988783159e-12 	101324.9999999913
0.5868368368368363 	299.9999999999729 	1.876153368383402e-12 	101324.9999999915
0.5893393393393387 	299.9999999999492 	2.270175210433455e-12 	101324.9999999915
0.5918418418418413 	299.9999999999462 	1.778055425427871e-12 	101324.9999999914
0.5943443443443439 	300.0000000000143 	1.494766262749939e-12 	101324.9999999912
0.5968468468468463 	300.000000000016 	2.679735324880682e-12 	101324.9999999913
0.5993493493493487 	300.0000000000398 	1.912826874140223e-12 	101324.9999999912
0.6018518518518514 	299.9999999999809 	3.134063854215818e-12 	101324.9999999913
0.6043543543543537 	299.9999999999922 	2.286076853394657e-12 	101324.9999999915
0.6068568568568564 	299.9999999999825 	2.99369724410242e-12 	101324.9999999917
0.6093593593593587 	299.9999999999424 	1.696103226327236e-12 	101324.9999999918
0.6118618618618614 	299.9999999999312 	1.735608120040413e-12 	101324.9999999917
0.6143643643643638 	300.000000000011 	1.013178084392469e-12 	101324.9999999919
0.6168668668668662 	299.9999999999814 	1.937953354593929e-12 	101324.9999999919
0.6193693693693688 	299.9999999999596 	1.039995356397295e-12 	101324.9999999919
0.6218718718718714 	299.9999999999678 	2.259418523737914e-12 	101324.9999999917
0.6243743743743737 	299.9999999999431 	7.602329744839147e-13 	101324.9999999916
0.6268768768768762 	299.9999999999318 	1.773157559412347e-12 	101324.9999999916
0.629379379379379 	299.999999999955 	2.898841016604795e-13 	101324.9999999916
0.6318818818818812 	299.9999999999782 	3.44130032632499e-13 	101324.9999999916
0.6343843843843838 	300.0000000000175 	8.414305956957135e-13 	101324.9999999918
0.6368868868868864 	299.9999999999839 	1.5408467838298e-12 	101324.9999999918
0.6393893893893888 	299.99999999993 	1.796312475596729e-12 	101324.9999999919
0.6418918918918912 	300.0000000000098 	3.590040373592356e-12 	101324.9999999918
0.6443943943943939 	299.9999999999839 	3.148955336097899e-12 	101324.9999999919
0.6468968968968963 	299.9999999999857 	3.472500861187913e-12 	101324.9999999921
0.6493993993993988 	299.9999999999814 	3.031847018080631e-12 	101324.9999999922
0.6519019019019012 	299.9999999999741 	2.8098534074675e-12 	101324.9999999923
0.6544044044044038 	299.9999999999149 	2.467090714655217e-12 	101324.9999999923
0.6569069069069065 	299.9999999999619 	2.846444739402823e-12 	101324.9999999923
0.6594094094094087 	299.9999999999676 	1.771951349459453e-12 	101324.9999999922
0.6619119119119113 	299.9999999999565 	1.688914406869529e-12 	101324.9999999922
0.664414414414414 	300.0000000000024 	1.27263604581901e-12 	101324.9999999924
0.6669169169169162 	300.0000000000202 	1.644941851464297e-12 	101324.9999999924
0.6694194194194188 	299.9999999999896 	9.682920286192919e-13 	101324.9999999926
0.6719219219219214 	299.9999999999333 	2.093859131262763e-12 	101324.9999999928
0.674424424424424 	299.9999999999779 	1.284092955331723e-12 	101324.9999999929
0.6769269269269262 	299.9999999999272 	1.838420264728268e-12 	101324.9999999932
0.679429429429429 	300.0000000000073 	1.382664747619532e-12 	101324.9999999933
0.6819319319319311 	299.9999999999851 	2.016324812820463e-12 	101324.9999999932
0.6844344344344341 	299.9999999999957 	9.853778937217387e-13 	101324.9999999932
0.686936936936936 	299.9999999999903 	1.465607970633094e-12 	101324.9999999933
0.6894394394394392 	299.9999999999844 	5.983513326087578e-13 	101324.9999999934
0.6919419419419413 	299.999999999989 	7.023487915334957e-13 	101324.9999999934
0.694444444444444 	299.9999999999492 	1.083646686140094e-12 	101324.9999999934
0.6969469469469463 	299.9999999999397 	1.474825701426337e-12 	101324.9999999934
0.6994494494494489 	299.9999999999287 	2.427307368058904e-12 	101324.9999999934
0.7019519519519515 	299.9999999999883 	2.062370846158178e-12 	101324.9999999936
0.7044544544544538 	299.9999999999533 	3.788994789865761e-12 	101324.9999999935
0.7069569569569564 	299.9999999999964 	2.53862272723077e-12 	101324.9999999936
0.7094594594594589 	299.9999999999704 	4.671162618262864e-12 	101324.9999999935
0.7119619619619615 	299.999999999923 	2.872900786712291e-12 	101324.9999999935
0.7144644644644638 	299.999999999957 	4.271772929759291e-12 	101324.9999999934
0.7169669669669665 	299.9999999999337 	2.921889299456753e-12 	101324.9999999933
0.7194694694694688 	299.9999999999945 	3.322744915780304e-12 	101324.9999999932
0.7219719719719715 	299.9999999999899 	2.133447302749254e-12 	101324.9999999933
0.7244744744744737 	300.0000000000051 	1.938912998125346e-12 	101324.9999999936
0.7269769769769764 	299.9999999999969 	1.914973851057967e-12 	101324.9999999935
0.7294794794794791 	299.9999999999892 	1.39810891247771e-12 	101324.9999999936
0.7319819819819813 	299.9999999999857 	3.219787215228781e-12 	101324.9999999933
0.7344844844844839 	299.9999999999322 	2.152090701419272e-12 	101324.9999999931
0.7369869869869864 	299.9999999999549 	3.148583134380804e-12 	101324.999999993
0.739489489489489 	299.9999999999444 	2.584267167446031e-12 	101324.9999999931
0.7419919919919914 	299.9999999999341 	2.572093095710704e-12 	101324.9999999933
0.7444944944944939 	299.9999999999813 	3.291974159858701e-12 	101324.9999999935
0.7469969969969963 	299.9999999999767 	2.418543058883834e-12 	101324.9999999937
0.7494994994994989 	299.9999999999521 	4.58483089606513e-12 	101324.9999999938
0.7520020020020015 	299.9999999999737 	2.509785473078304e-12 	101324.9999999939
0.7545045045045039 	299.9999999999706 	4.94657171171114e-12 	101324.999999994
0.7570070070070062 	299.9999999999482 	2.776834722311152e-12 	101324.9999999939
0.7595095095095092 	299.999999999939 	4.55261252048069e-12 	101324.9999999939
0.7620120120120112 	300.000000000008 	3.764103790780063e-12 	101324.9999999938
0.7645145145145138 	299.9999999999883 	4.237798434307044e-12 	101324.9999999937
0.7670170170170165 	299.9999999999396 	4.850929213520121e-12 	101324.9999999937
0.7695195195195191 	299.9999999999353 	3.843750341725732e-12 	101324.9999999937
0.7720220220220213 	299.999999999945 	5.956056552203801e-12 	101324.9999999937
0.7745245245245239 	299.9999999999421 	4.471668098029766e-12 	101324.9999999938
0.7770270270270263 	299.9999999999699 	6.225036903140159e-12 	101324.9999999938
0.779529529529529 	299.9999999999836 	5.408385082108313e-12 	101324.999999994
0.7820320320320313 	299.9999999999752 	6.013858338187381e-12 	101324.999999994
0.784534534534534 	299.9999999999993 	5.689172664179199e-12 	101324.9999999939
0.7870370370370364 	299.999999999993 	5.207151353890016e-12 	101324.999999994
0.7895395395395389 	299.9999999999822 	5.627966989534967e-12 	101324.9999999943
0.7920420420420413 	299.9999999999771 	4.527495495143042e-12 	101324.9999999943
0.794544544544544 	299.9999999999771 	6.198339664805688e-12 	101324.9999999942
0.7970470470470463 	299.9999999999995 	3.919869601079123e-12 	101324.999999994
0.799549549549549 	299.9999999999879 	6.396243920441142e-12 	101324.9999999938
0.8020520520520515 	299.9999999999869 	3.589149812842058e-12 	101324.9999999937
0.8045545545545539 	299.9999999999505 	5.290747803042108e-12 	101324.9999999938
0.8070570570570563 	299.999999999983 	4.206538576325853e-12 	101324.999999994
0.8095595595595589 	299.9999999999632 	4.967238464142082e-12 	101324.9999999943
0.8120620620620614 	299.9999999999496 	4.832434552633182e-12 	101324.9999999942
0.8145645645645638 	300.0000000000023 	4.787676674885028e-12 	101324.9999999943
0.8170670670670666 	299.9999999999997 	5.231811054566614e-12 	101324.9999999942
0.8195695695695689 	299.9999999999847 	3.784483457627013e-12 	101324.9999999942
0.8220720720720714 	299.999999999953 	5.622066140355893e-12 	101324.9999999942
0.8245745745745739 	299.9999999999898 	3.489369293411568e-12 	101324.9999999943
0.8270770770770765 	299.9999999999808 	4.946120928243298e-12 	101324.9999999944
0.8295795795795788 	299.9999999999607 	3.965038231439185e-12 	101324.9999999944
0.8320820820820815 	300.0000000000132 	4.637121982838517e-12 	101324.9999999944
0.834584584584584 	300.0000000000023 	3.869637643723179e-12 	101324.9999999944
0.8370870870870865 	299.9999999999623 	3.743117928478178e-12 	101324.9999999944
0.8395895895895891 	299.9999999999359 	4.855519271595719e-12 	101324.9999999942
0.8420920920920915 	299.9999999999555 	4.549576988452585e-12 	101324.9999999941
0.844594594594594 	299.9999999999484 	5.110075105024627e-12 	101324.999999994
0.8470970970970964 	299.9999999999533 	5.15237901653962e-12 	101324.9999999942
0.8495995995995991 	299.9999999999915 	5.378364989229332e-12 	101324.9999999944
0.8521021021021015 	299.9999999999829 	5.961004366059751e-12 	101324.9999999945
0.8546046046046039 	299.9999999999767 	5.497625631318533e-12 	101324.9999999946
0.8571071071071066 	299.9999999999989 	6.436745930174307e-12 	101324.9999999947
0.8596096096096089 	299.9999999999695 	4.736673118374835e-12 	101324.9999999948
0.8621121121121116 	299.9999999999418 	7.406323752365944e-12 	101324.9999999948
0.8646146146146139 	299.9999999999976 	5.342428416709644e-12 	101324.9999999947
0.8671171171171166 	299.99999999998 	6.635346734177041e-12 	101324.9999999947
0.8696196196196189 	299.9999999999519 	5.633830069299649e-12 	101324.9999999948
0.8721221221221216 	299.9999999999771 	6.186753492275549e-12 	101324.9999999947
0.874624624624624 	300.0000000000051 	6.080140622514653e-12 	101324.9999999946
0.8771271271271264 	299.9999999999992 	6.256876772364723e-12 	101324.9999999946
0.879629629629629 	299.9999999999981 	7.450275051573048e-12 	101324.9999999947
0.8821321321321317 	299.9999999999845 	6.145397779640874e-12 	101324.9999999946
0.8846346346346339 	299.9999999999363 	8.350156238648661e-12 	101324.9999999944
0.8871371371371364 	299.9999999999617 	6.250122789265822e-12 	101324.9999999942
0.8896396396396391 	299.9999999999637 	8.027805948757947e-12 	101324.9999999943
0.8921421421421414 	299.9999999999682 	7.287434393953749e-12 	101324.9999999943
0.8946446446446441 	299.9999999999888 	8.11708624027007e-12 	101324.9999999943
0.8971471471471464 	300.0000000000036 	7.39193108796421e-12 	101324.9999999941
0.8996496496496489 	299.9999999999845 	6.903564490157541e-12 	101324.999999994
0.9021521521521517 	299.9999999999694 	7.776115901731846e-12 	101324.999999994
0.9046546546546541 	299.9999999999925 	6.419269491424928e-12 	101324.9999999943
0.9071571571571564 	299.9999999999547 	6.64313147380347e-12 	101324.9999999945
0.9096596596596589 	299.9999999999555 	6.469603294447909e-12 	101324.9999999946
0.9121621621621616 	300.0000000000111 	6.699508293722176e-12 	101324.9999999946
0.9146646646646639 	299.9999999999803 	6.584696425324923e-12 	101324.9999999945
0.9171671671671666 	299.9999999999475 	6.107367114109733e-12 	101324.9999999946
0.9196696696696689 	299.9999999999953 	6.479809802633375e-12 	101324.9999999948
0.9221721721721714 	299.9999999999986 	5.239243021577588e-12 	101324.9999999947
0.9246746746746741 	299.9999999999487 	8.001179264499913e-12 	101324.9999999946
0.9271771771771765 	299.9999999999534 	6.447868901419689e-12 	101324.9999999948
0.9296796796796791 	299.999999999994 	8.553104348305665e-12 	101324.9999999948
0.9321821821821816 	299.9999999999804 	7.390614156433929e-12 	101324.9999999948
0.9346846846846838 	299.9999999999601 	8.26632552303845e-12 	101324.9999999947
0.9371871871871866 	300.0000000000162 	7.411415224710589e-12 	101324.9999999944
0.9396896896896891 	300.0000000000172 	7.165830622120209e-12 	101324.9999999942
0.9421921921921914 	300.0000000000114 	7.403321158020989e-12 	101324.9999999942
0.9446946946946939 	299.9999999999705 	6.066635412987107e-12 	101324.9999999944
0.9471971971971965 	299.9999999999328 	7.808195855069479e-12 	101324.9999999946
0.9496996996996991 	299.9999999999602 	6.062346697758918e-12 	101324.9999999948
0.9522022022022016 	299.9999999999725 	7.696141459014288e-12 	101324.9999999946
0.9547047047047038 	299.9999999999731 	7.003835787349639e-12 	101324.9999999945
0.9572072072072064 	299.9999999999645 	8.04559300872734e-12 	101324.9999999944
0.9597097097097093 	299.9999999999651 	8.124691886113886e-12 	101324.9999999943
0.9622122122122114 	299.99999999996 	8.255763425744227e-12 	101324.9999999942
0.964714714714714 	299.9999999999573 	9.158119709853772e-12 	101324.9999999941
0.9672172172172167 	299.9999999999643 	7.947291404262018e-12 	101324.9999999941
0.969719719719719 	299.9999999999906 	8.444964400327001e-12 	101324.9999999941
0.9722222222222214 	299.9999999999775 	7.766715334694535e-12 	101324.9999999941
0.9747247247247239 	299.9999999999726 	7.825514723929384e-12 	101324.9999999941
0.9772272272272267 	299.9999999999985 	7.797733613903501e-12 	101324.9999999941
0.9797297297297292 	299.9999999999876 	7.436982497621349e-12 	101324.9999999941
0.9822322322322313 	299.999999999993 	8.47088752525868e-12 	101324.9999999942
0.9847347347347344 	299.9999999999923 	7.387407156259861e-12 	101324.9999999942
0.9872372372372363 	299.9999999999554 	1.00222520013587e-11 	101324.9999999943
0.9897397397397389 	299.9999999999782 	8.191729791211707e-12 	101324.9999999943
0.9922422422422417 	299.9999999999613 	9.813973054468592e-12 	101324.9999999944
0.9947447447447441 	299.9999999999555 	8.616798590158834e-12 	101324.9999999944
0.9972472472472468 	299.9999999999631 	9.380003106548367e-12 	101324.9999999944
0.999749749749749 	299.9999999999672 	8.866279395312637e-12 	101324.9999999943
1.002252252252252 	299.9999999999868 	9.298788255346462e-12 	101324.9999999943
1.004754754754754 	299.9999999999866 	9.580434677430693e-12 	101324.9999999942
1.007257257257256 	299.9999999999717 	9.004663670477108e-12 	101324.9999999942
1.009759759759759 	299.9999999999636 	1.077023769319436e-11 	101324.999999994
1.012262262262261 	299.9999999999618 	8.882191197423752e-12 	101324.9999999939
1.014764764764764 	299.9999999999359 	1.054747914056552e-11 	101324.999999994
1.017267267267267 	299.9999999999258 	9.576338150988689e-12 	101324.9999999941
1.019769769769769 	299.9999999999623 	9.888764746249744e-12 	101324.9999999942
1.022272272272272 	299.9999999999754 	8.954024280579953e-12 	101324.9999999942
1.024774774774774 	299.9999999999791 	8.589365711541284e-12 	101324.9999999942
1.027277277277277 	299.9999999999761 	8.906921148045585e-12 	101324.9999999942
1.029779779779779 	300.000000000001 	7.791557662684276e-12 	101324.9999999941
1.032282282282282 	300.0000000000006 	8.292445577314665e-12 	101324.9999999939
1.034784784784784 	299.9999999999919 	7.476280812219905e-12 	101324.9999999938
1.037287287287286 	299.9999999999672 	7.347832423934776e-12 	101324.9999999939
1.039789789789789 	299.9999999999758 	7.056307513728753e-12 	101324.9999999939
1.042292292292291 	300.0000000000085 	7.153718109170334e-12 	101324.9999999939
1.044794794794794 	300.0000000000174 	7.443522272652656e-12 	101324.999999994
1.047297297297296 	300.0000000000293 	6.439150922632229e-12 	101324.9999999945
1.049799799799799 	299.9999999999923 	7.708144573401691e-12 	101324.9999999947
1.052302302302302 	299.999999999966 	6.274212868447952e-12 	101324.9999999946
1.054804804804804 	299.9999999999471 	8.406686224787462e-12 	101324.9999999945
1.057307307307306 	299.9999999999295 	7.613740633923978e-12 	101324.9999999944
1.059809809809809 	299.9999999999544 	8.301728010097118e-12 	101324.9999999943
1.062312312312312 	299.9999999999505 	7.744008857484713e-12 	101324.9999999943
1.064814814814814 	299.9999999999488 	8.260575853190801e-12 	101324.9999999943
1.067317317317317 	299.9999999999323 	8.032930362489806e-12 	101324.9999999942
1.069819819819819 	299.9999999999341 	7.812006412140402e-12 	101324.9999999942
1.072322322322321 	299.999999999991 	9.451386566890729e-12 	101324.9999999942
1.074824824824824 	300.0000000000169 	7.809184466763865e-12 	101324.9999999944
1.077327327327327 	300.0000000000304 	8.932571706042583e-12 	101324.9999999943
1.079829829829829 	300.0000000000305 	7.73351913796979e-12 	101324.9999999943
1.082332332332332 	300.0000000000031 	7.963400836365289e-12 	101324.9999999943
1.084834834834834 	299.9999999999798 	6.929087112295811e-12 	101324.9999999942
1.087337337337337 	299.9999999999469 	6.648738273977364e-12 	101324.9999999941
1.089839839839839 	299.9999999999418 	8.058619892595886e-12 	101324.9999999941
1.092342342342342 	299.999999999972 	7.178009584696017e-12 	101324.9999999941
1.094844844844844 	299.9999999999726 	8.501285375809612e-12 	101324.9999999941
1.097347347347347 	299.9999999999502 	7.453955104606087e-12 	101324.9999999942
1.099849849849849 	299.9999999999361 	9.789137717616066e-12 	101324.9999999942
1.102352352352352 	299.9999999999598 	7.912798838262346e-12 	101324.9999999941
1.104854854854854 	299.9999999999822 	9.405422617296362e-12 	101324.9999999941
1.107357357357357 	299.999999999967 	7.587152640524409e-12 	101324.9999999943
1.109859859859859 	299.9999999999524 	8.785232445649042e-12 	101324.9999999944
1.112362362362362 	300.0000000000151 	8.010799266009166e-12 	101324.9999999946
1.114864864864865 	300.0000000000159 	8.100876980901421e-12 	101324.9999999946
1.117367367367367 	299.9999999999692 	8.464401426578856e-12 	101324.9999999945
1.119869869869869 	299.9999999999379 	7.276101785761554e-12 	101324.9999999944
1.122372372372372 	299.9999999999649 	8.739097492284232e-12 	101324.9999999943
1.124874874874874 	299.9999999999596 	7.781601437211802e-12 	101324.9999999942
1.127377377377377 	299.9999999999717 	8.484573094239245e-12 	101324.9999999942
1.129879879879879 	300.0000000000167 	7.815148567677987e-12 	101324.999999994
1.132382382382382 	300.000000000018 	8.657087148850131e-12 	101324.9999999938
1.134884884884884 	299.9999999999992 	8.70860174950544e-12 	101324.9999999937
1.137387387387387 	300.0000000000135 	8.728241450524429e-12 	101324.9999999938
1.139889889889889 	299.9999999999653 	9.82350522288682e-12 	101324.9999999939
1.142392392392392 	299.9999999999549 	8.912870849982645e-12 	101324.9999999942
1.144894894894894 	300.0000000000107 	9.667930100768245e-12 	101324.9999999941
1.147397397397397 	300.000000000003 	8.025095695517405e-12 	101324.999999994
1.149899899899899 	299.9999999999502 	8.37364864891484e-12 	101324.999999994
1.152402402402402 	299.9999999999375 	7.450593687368549e-12 	101324.9999999941
1.154904904904904 	299.9999999999775 	8.009135925098355e-12 	101324.9999999941
1.157407407407407 	299.9999999999783 	7.21139866702168e-12 	101324.9999999941
1.159909909909909 	299.9999999999472 	6.776187766580201e-12 	101324.9999999941
1.162412412412412 	299.9999999999359 	7.845122593656198e-12 	101324.9999999943
1.164914914914914 	299.9999999999669 	6.826351926589754e-12 	101324.9999999945
1.167417417417417 	299.9999999999768 	8.395489712828898e-12 	101324.9999999947
1.169919919919919 	300.0000000000142 	7.869298167818241e-12 	101324.9999999946
1.172422422422422 	300.000000000029 	8.842474832667871e-12 	101324.9999999944
1.174924924924925 	299.9999999999857 	7.820661075859579e-12 	101324.9999999941
1.177427427427427 	299.9999999999723 	7.910029827790273e-12 	101324.9999999941
1.179929929929929 	300.000000000009 	8.255539884687381e-12 	101324.9999999943
1.182432432432432 	300.0000000000226 	6.824800481324749e-12 	101324.9999999944
1.184934934934934 	299.9999999999985 	7.706310577868855e-12 	101324.9999999944
1.187437437437437 	299.9999999999864 	6.734079562678531e-12 	101324.9999999944
1.189939939939939 	299.9999999999794 	7.298138279693611e-12 	101324.9999999944
1.192442442442442 	299.9999999999385 	6.409910941997572e-12 	101324.9999999943
1.194944944944944 	299.9999999999437 	6.991151458017423e-12 	101324.9999999942
1.197447447447447 	300.0000000000045 	6.327588364435715e-12 	101324.9999999942
1.199949949949949 	300.0000000000136 	6.28945173202828e-12 	101324.9999999941
1.202452452452452 	299.9999999999598 	6.748486694559316e-12 	101324.9999999941
1.204954954954955 	299.9999999999568 	5.731048158022967e-12 	101324.9999999942
1.207457457457457 	299.9999999999903 	6.787405522638877e-12 	101324.9999999944
1.20995995995996 	299.9999999999824 	6.099633546221815e-12 	101324.9999999944
1.212462462462462 	299.9999999999783 	7.325589863272846e-12 	101324.9999999944
1.214964964964964 	299.9999999999789 	6.761527744017992e-12 	101324.9999999944
1.217467467467467 	299.9999999999778 	7.421724783517172e-12 	101324.9999999944
1.219969969969969 	299.9999999999698 	6.689267390930147e-12 	101324.9999999943
1.222472472472472 	300.0000000000092 	6.857215714539374e-12 	101324.9999999943
1.224974974974975 	300.0000000000243 	6.968266693637875e-12 	101324.9999999943
1.227477477477477 	299.9999999999882 	5.760598655002494e-12 	101324.9999999943
1.229979979979979 	299.9999999999882 	6.491207697546695e-12 	101324.9999999946
1.232482482482482 	299.9999999999627 	5.229978251579319e-12 	101324.9999999946
1.234984984984984 	299.9999999999564 	5.841200439742503e-12 	101324.9999999949
1.237487487487487 	299.9999999999877 	4.35858757843646e-12 	101324.9999999951
1.239989989989989 	299.9999999999953 	4.757225504330855e-12 	101324.9999999951
1.242492492492492 	300.00000000002 	5.096484586804553e-12 	101324.999999995
1.244994994994994 	299.9999999999969 	4.243570387276711e-12 	101324.9999999949
1.247497497497497 	300.0000000000007 	5.580190739679342e-12 	101324.999999995
1.249999999999999 	300.0000000000463 	5.375045852709491e-12 	101324.9999999948
