-1.25 	270.610737385374 	0.07030302167517732 	101295.6107373854
-1.247497497497497 	301.0896597741159 	0.07011417608864139 	101296.1441297923
-1.244994994994995 	299.9945834117736 	0.06963214088744245 	101296.7117309324
-1.242492492492492 	299.9767389094785 	0.06803039975475578 	101297.2721488235
-1.23998998998999 	299.9770231355541 	0.0664643574782695 	101297.8392565753
-1.237487487487487 	299.9775065567408 	0.06524233967416998 	101298.4112086816
-1.234984984984985 	299.9779951739661 	0.0637017052872477 	101298.9885701704
-1.232482482482482 	299.9784878979343 	0.06234877642170902 	101299.5709747039
-1.22997997997998 	299.9789840477141 	0.06088405298529426 	101300.1574211809
-1.227477477477477 	299.9794839983255 	0.0594434572719546 	101300.7483656764
-1.224974974974975 	299.9799874486501 	0.05797937140500573 	101301.3434478201
-1.222472472472472 	299.9804957985429 	0.05650539562410976 	101301.9443245942
-1.21996996996997 	299.9810068812608 	0.05502986301315661 	101302.548433636
-1.217467467467467 	299.9815197925287 	0.05354288040923061 	101303.1547078873
-1.214964964964965 	299.9820384538785 	0.05203986927281146 	101303.767781112
-1.212462462462462 	299.9825598361381 	0.05052838626099242 	101304.3840705685
-1.20995995995996 	299.9830833626602 	0.04901081551993755 	101305.0028992889
-1.207457457457457 	299.983612895039 	0.04748131381492691 	101305.628831023
-1.204954954954955 	299.9841445690515 	0.04594104229127746 	101306.2572936824
-1.202452452452452 	299.9846761475824 	0.04440105072237725 	101306.8856466656
-1.19994994994995 	299.9852113911202 	0.04285340003848069 	101307.5183375593
-1.197447447447447 	299.9857508940578 	0.04129097766335927 	101308.1560658041
-1.194944944944945 	299.986293492299 	0.03971629638361632 	101308.7974549725
-1.192442442442442 	299.9868389548144 	0.03813274340944312 	101309.4422314912
-1.18993993993994 	299.9873836522368 	0.03655363317411255 	101310.0861037409
-1.187437437437437 	299.9879275948199 	0.03497828191635507 	101310.7290893759
-1.184934934934935 	299.9884779573254 	0.03338505052214472 	101311.3796729846
-1.182432432432432 	299.9890375325758 	0.03176296121184272 	101312.0411464396
-1.17992992992993 	299.9895979534762 	0.03013987653900985 	101312.7036143407
-1.177427427427427 	299.9901522200332 	0.02853865447564757 	101313.3588118203
-1.174924924924925 	299.990705055308 	0.02693754662261427 	101314.0123266005
-1.172422422422422 	299.9912643520227 	0.02531906813447524 	101314.67348459
-1.16991991991992 	299.9918273381268 	0.02368156058426881 	101315.3390048702
-1.167417417417417 	299.9923912652024 	0.0220379405719623 	101316.0056365935
-1.164914914914915 	299.9929588142255 	0.02040025243821752 	101316.6765521416
-1.162412412412412 	299.9935293241655 	0.01875523087375099 	101317.3509744406
-1.15990990990991 	299.9940984212856 	0.01710462498599767 	101318.0237312715
-1.157407407407407 	299.994665704896 	0.015456628971041 	101318.6943462893
-1.154904904904904 	299.9952313710252 	0.01381443467569897 	101319.3630493323
-1.152402402402403 	299.9957982044624 	0.01217687991154704 	101320.033132857
-1.1498998998999 	299.9963694943076 	0.01052759636960406 	101320.708488605
-1.147397397397397 	299.9969440377603 	0.008862898428629598 	101321.3876990209
-1.144894894894895 	299.9975194050357 	0.007190482237632252 	101322.0678903385
-1.142392392392392 	299.9980944217527 	0.005523531333304481 	101322.7476719273
-1.13988988988989 	299.9986680446989 	0.003864870927335589 	101323.4258082515
-1.137387387387387 	299.999242373846 	0.00220023806105939 	101324.10477751
-1.134884884884885 	299.9998210697888 	0.0007825565609968122 	101324.7889042004
-1.132382382382382 	300.0004010028376 	0.001151276187333164 	101325.4744886394
-1.12987987987988 	300.0009779048785 	0.002822150695513959 	101326.1564905093
-1.127377377377377 	300.0015516888291 	0.004484678481395162 	101326.8348112946
-1.124874874874875 	300.0021236068148 	0.006141738499914002 	101327.5109324437
-1.122372372372372 	300.0026945474904 	0.007795842430586375 	101328.1859047071
-1.11986986986987 	300.0032649479471 	0.009448292202183024 	101328.8602443324
-1.117367367367367 	300.0038349316369 	0.01109948904138502 	101329.5340965489
-1.114864864864865 	300.004404449478 	0.0127493186133882 	101330.2074024978
-1.112362362362362 	300.004973375843 	0.01439743272179177 	101330.8800132934
-1.10985985985986 	300.0055415629429 	0.01604341123299315 	101331.551754066
-1.107357357357357 	300.0061088655311 	0.01768683262193729 	101332.2224525112
-1.104854854854855 	300.0066751466348 	0.01932729778062117 	101332.891946351
-1.102352352352353 	300.0072402773021 	0.02096443354296772 	101333.5600832088
-1.09984984984985 	300.0078041361112 	0.02259788829122054 	101334.2267199076
-1.097347347347347 	300.0083666083439 	0.02422732661555161 	101334.8917204682
-1.094844844844845 	300.0089275826368 	0.02585242338599286 	101335.5549523528
-1.092342342342342 	300.0094869476585 	0.02747285837894405 	101336.2162845809
-1.08983983983984 	300.0100445939851 	0.02908831654895531 	101336.8755888925
-1.087337337337337 	300.0106004166056 	0.03069849141313591 	101337.532740398
-1.084834834834835 	300.0111543127424 	0.03230308053777924 	101338.1876155732
-1.082332332332332 	300.0117061769517 	0.03390177863117654 	101338.8400900627
-1.07982982982983 	300.0122559014681 	0.0354942817556046 	101339.4900396016
-1.077327327327327 	300.0128033828205 	0.03708029329591352 	101340.1373426724
-1.074824824824825 	300.0133485239655 	0.03865952128555582 	101340.781880686
-1.072322322322323 	300.0138912277849 	0.04023167449984743 	101341.4235351497
-1.06981981981982 	300.0144313901984 	0.04179645947874897 	101342.0621857592
-1.067317317317317 	300.0149689035337 	0.04335358172168927 	101342.6977120896
-1.064814814814815 	300.0155036671241 	0.0449027523893842 	101343.329996241
-1.062312312312312 	300.0160355896998 	0.04644368982611823 	101343.9589231663
-1.05980980980981 	300.0165645813362 	0.04797611387371058 	101344.5843789188
-1.057307307307307 	300.0170905437417 	0.0494997425818459 	101345.2062486535
-1.054804804804805 	300.0176133702234 	0.05101429300983239 	101345.8244163007
-1.052302302302302 	300.0181329561568 	0.05251948269396366 	101346.4387661781
-1.0497997997998 	300.0186492079133 	0.05401503348522117 	101347.0491849618
-1.047297297297297 	300.0191620417126 	0.05550067398426065 	101347.655561996
-1.044794794794795 	300.0196713730737 	0.05697613509139531 	101348.2577874231
-1.042292292292292 	300.0201771080453 	0.05844114607907069 	101348.8557507473
-1.03978978978979 	300.0206791435239 	0.05989543639199799 	101349.4493412982
-1.037287287287287 	300.0211773756813 	0.06133873727300516 	101350.0384491905
-1.034784784784785 	300.0216717094756 	0.06277078257538823 	101350.6229658939
-1.032282282282283 	300.0221620607921 	0.06419131071475909 	101351.2027844041
-1.02977977977978 	300.0226483512639 	0.06560006435143484 	101351.7777995194
-1.027277277277277 	300.0231305014405 	0.06699678840818518 	101352.3479075296
-1.024774774774775 	300.0236084258356 	0.06838122803611206 	101352.9130043958
-1.022272272272272 	300.0240820312057 	0.0697531256297801 	101353.4729846478
-1.01976976976977 	300.0245512180874 	0.0711122213342622 	101354.02774222
-1.017267267267267 	300.0250158869716 	0.07245825766183452 	101354.5771717687
-1.014764764764765 	300.0254759449893 	0.07379098005790136 	101355.1211692432
-1.012262262262262 	300.0259313060685 	0.07511013450811002 	101355.659631123
-1.00975975975976 	300.0263818866176 	0.07641546941366616 	101356.1924543615
-1.007257257257257 	300.0268276042735 	0.07770673846873764 	101356.7195381063
-1.004754754754755 	300.0272683808508 	0.07898370122988731 	101357.2407844141
-1.002252252252252 	300.027704142105 	0.08024612285442556 	101357.7560974597
-0.9997497497497498 	300.0281348114694 	0.08149377095261719 	101358.2653822813
-0.9972472472472473 	300.0285603061814 	0.08272641317332217 	101358.7685439276
-0.9947447447447449 	300.028980543287 	0.08394382098189802 	101359.2654888253
-0.9922422422422421 	300.0293954479307 	0.08514577222556151 	101359.7561262408
-0.9897397397397399 	300.0298049504358 	0.08633204926670189 	101360.2403674999
-0.9872372372372376 	300.0302089763555 	0.08750243729154812 	101360.7181248695
-0.9847347347347346 	300.0306074436726 	0.08865672117052441 	101361.1893104536
-0.9822322322322323 	300.0310002712947 	0.08979468555384079 	101361.6538361483
-0.9797297297297296 	300.0313873902465 	0.09091612047011989 	101362.1116159117
-0.9772272272272275 	300.0317687404032 	0.09202082233770841 	101362.5625665963
-0.9747247247247248 	300.0321442562336 	0.09310859145805592 	101363.0066068719
-0.9722222222222224 	300.0325138607438 	0.0941792315748539 	101363.4436566871
-0.9697197197197196 	300.0328774738632 	0.09523254686510427 	101363.8736359315
-0.9672172172172175 	300.0332350269002 	0.0962683407471031 	101364.2964641243
-0.9647147147147147 	300.0335864664551 	0.09728642054939578 	101364.7120625092
-0.9622122122122124 	300.0339317414122 	0.09828659881024614 	101365.1203544337
-0.9597097097097099 	300.034270788 	0.09926869301353528 	101365.5212651865
-0.9572072072072073 	300.0346035296114 	0.1002325268035449 	101365.9147229038
-0.9547047047047047 	300.0349298907004 	0.1011779265433003 	101366.3006568953
-0.9522022022022023 	300.0352498103998 	0.1021047191248831 	101366.6789962363
-0.9496996996996998 	300.0355632459148 	0.103012734074196 	101367.0496712018
-0.9471971971971973 	300.0358701583631 	0.1039018023834247 	101367.4126128539
-0.9446946946946947 	300.0361704958045 	0.1047717574660488 	101367.7677528302
-0.9421921921921923 	300.0364641906983 	0.1056224394165056 	101368.1150256979
-0.93968968968969 	300.0367511682021 	0.1064536925447665 	101368.4543681746
-0.9371871871871872 	300.0370313610309 	0.1072653639539512 	101368.7857175971
-0.9346846846846848 	300.0373047213771 	0.1080573071417036 	101369.1090139788
-0.9321821821821823 	300.0375712180135 	0.1088293793851847 	101369.424199388
-0.9296796796796799 	300.037830822958 	0.1095814389503326 	101369.7312156588
-0.9271771771771771 	300.0380834997656 	0.1103133485776368 	101370.0300065133
-0.9246746746746748 	300.0383291978432 	0.1110249748502007 	101370.3205179089
-0.9221721721721724 	300.0385678539487 	0.1117161852928218 	101370.6026953673
-0.9196696696696698 	300.0387994034306 	0.1123868517981015 	101370.8764861347
-0.9171671671671672 	300.0390237919128 	0.1130368521680684 	101371.1418409681
-0.9146646646646649 	300.0392409767705 	0.1136660663138357 	101371.3987107074
-0.9121621621621623 	300.0394509267369 	0.1142743769242022 	101371.6470467561
-0.9096596596596597 	300.0396536205261 	0.1148616729906116 	101371.8868043074
-0.9071571571571573 	300.0398490382275 	0.1154278469374719 	101372.1179396362
-0.9046546546546547 	300.0400371545912 	0.115972792355175 	101372.3404085086
-0.9021521521521524 	300.0402179389779 	0.116496409210164 	101372.5541702607
-0.8996496496496498 	300.040391355741 	0.1169986037721229 	101372.7591871487
-0.8971471471471473 	300.0405573637014 	0.1174792821462191 	101372.9554202871
-0.894644644644645 	300.0407159217244 	0.1179383536585576 	101373.1428322765
-0.892142142142142 	300.0408669938135 	0.1183757363875639 	101373.3213901725
-0.8896396396396397 	300.0410105461507 	0.1187913501872693 	101373.4910614061
-0.8871371371371374 	300.0411465464125 	0.1191851142417429 	101373.6518123338
-0.8846346346346349 	300.0412749678505 	0.1195569562743066 	101373.8036132863
-0.8821321321321324 	300.0413957886492 	0.1199068118016666 	101373.9464387248
-0.8796296296296297 	300.0415089869164 	0.1202346149869007 	101374.0802616478
-0.8771271271271271 	300.0416145409833 	0.1205403017241669 	101374.2050548583
-0.8746246246246248 	300.0417124345398 	0.1208238185827672 	101374.320796983
-0.8721221221221224 	300.0418026531983 	0.1210851167038982 	101374.4274692353
-0.8696196196196196 	300.0418851786122 	0.1213241414193864 	101374.5250483484
-0.8671171171171175 	300.0419599935166 	0.1215408421162599 	101374.6135123702
-0.8646146146146148 	300.0420270882845 	0.1217351857828443 	101374.6928490988
-0.8621121121121121 	300.0420864541568 	0.1219071413888871 	101374.7630471739
-0.8596096096096097 	300.0421380750935 	0.1220566659390111 	101374.824087096
-0.857107107107107 	300.0421819395997 	0.1221837291204344 	101374.8759550905
-0.8546046046046049 	300.0422180485136 	0.1222883246099393 	101374.9186516022
-0.8521021021021022 	300.0422463964314 	0.1223704334571409 	101374.9521702027
-0.8495995995995997 	300.0422669660282 	0.1224300162775485 	101374.9764903031
-0.8470970970970974 	300.0422797532881 	0.1224670633446211 	101374.9916070715
-0.8445945945945946 	300.0422847714891 	0.1224815969513369 	101374.9975358507
-0.8420920920920922 	300.042282016198 	0.1224736037403175 	101374.9942712084
-0.8395895895895897 	300.0422714646903 	0.1224430429783301 	101374.9817878483
-0.8370870870870872 	300.0422531272975 	0.1223899374400367 	101374.9600968572
-0.8345845845845846 	300.0422270347982 	0.1223143503829 	101374.9292342316
-0.8320820820820823 	300.0421931801626 	0.1222162687983426 	101374.8891920605
-0.8295795795795798 	300.0421515357871 	0.1220956433501306 	101374.8399376468
-0.8270770770770772 	300.0421021252413 	0.1219525330915842 	101374.7814989242
-0.8245745745745746 	300.0420449989302 	0.121787045449028 	101374.7139355491
-0.8220720720720721 	300.0419801439301 	0.1215991561158116 	101374.6372321673
-0.8195695695695699 	300.0419075179504 	0.1213887911821231 	101374.551338799
-0.817067067067067 	300.0418271629475 	0.1211560557045508 	101374.4563052296
-0.8145645645645651 	300.0417391629493 	0.1209011319596927 	101374.3522307415
-0.8120620620620621 	300.0416435002514 	0.120623986698505 	101374.23909428
-0.8095595595595597 	300.0415401020898 	0.1203244860008768 	101374.1168099519
-0.8070570570570572 	300.041429022661 	0.1200027709393593 	101373.9854420433
-0.8045545545545546 	300.0413103998975 	0.1196591440634777 	101373.8451534988
-0.8020520520520523 	300.0411842250667 	0.1192935881399485 	101373.6959339116
-0.7995495495495494 	300.0410503684772 	0.1189058479347944 	101373.5376300377
-0.7970470470470474 	300.0409088671549 	0.1184960400176429 	101373.3702858544
-0.7945445445445446 	300.0407599402758 	0.1180646539323565 	101373.1941605637
-0.7920420420420423 	300.0406036390258 	0.1176117971674364 	101373.0093145181
-0.7895395395395397 	300.0404397558906 	0.11713703591452 	101372.8155023541
-0.7870370370370371 	300.0402682317521 	0.1166402894808457 	101372.6126544305
-0.7845345345345348 	300.0400893665645 	0.1161222484149463 	101372.4011255359
-0.7820320320320323 	300.0399033809198 	0.1155833909853801 	101372.1811763781
-0.7795295295295296 	300.0397100347857 	0.1150231877422679 	101371.9525230286
-0.7770270270270272 	300.0395090401786 	0.1144410517696012 	101371.7148250779
-0.7745245245245247 	300.0393006569469 	0.1138376230452693 	101371.4683901384
-0.7720220220220222 	300.0390854047674 	0.1132140691431069 	101371.2138326922
-0.7695195195195199 	300.0388632397005 	0.1125702651950544 	101370.951100489
-0.767017017017017 	300.0386335762876 	0.1119049185910202 	101370.6795011239
-0.7645145145145147 	300.0383962819991 	0.111217818808296 	101370.3988785057
-0.7620120120120122 	300.038152085142 	0.1105106749215221 	101370.1100941876
-0.7595095095095097 	300.0379015757006 	0.1097847993748503 	101369.8138454315
-0.7570070070070072 	300.0376442418879 	0.1090389850327965 	101369.5095264662
-0.7545045045045048 	300.0373791723147 	0.1082712027507959 	101369.1960599282
-0.7520020020020022 	300.0371065627939 	0.1074820274789076 	101368.8736783685
-0.7494994994994997 	300.0368277076843 	0.1066744959566771 	101368.5439122725
-0.7469969969969972 	300.036543221019 	0.1058499614542633 	101368.2074869822
-0.7444944944944945 	300.0362520042601 	0.1050058146592317 	101367.8631030399
-0.7419919919919924 	300.0359526990551 	0.1041389743904643 	101367.509154898
-0.7394894894894897 	300.0356458050875 	0.1032507781021928 	101367.1462347068
-0.7369869869869872 	300.035333368357 	0.1023460926365998 	101366.7767616914
-0.7344844844844846 	300.0350163167044 	0.1014270013075053 	101366.4018317116
-0.7319819819819822 	300.0346929777709 	0.1004894450223015 	101366.0194662239
-0.7294794794794797 	300.0343610884249 	0.09952813470368574 	101365.626990449
-0.7269769769769773 	300.0340209687878 	0.09854405351458909 	101365.224784855
-0.7244744744744747 	300.0336756150671 	0.09754448731589233 	101364.8163927691
-0.721971971971972 	300.0333271586878 	0.09653444544148738 	101364.4043324901
-0.7194694694694695 	300.0329739541787 	0.09550978409885851 	101363.9866560849
-0.7169669669669674 	300.0326122106719 	0.09446134628628844 	101363.558881874
-0.7144644644644647 	300.0322406257945 	0.09338621283202335 	101363.1194728882
-0.711961961961962 	300.0318625016549 	0.09229266018174015 	101362.6723359455
-0.7094594594594597 	300.03148241496 	0.09119185840149027 	101362.222881288
-0.7069569569569573 	300.0311009086359 	0.09008491142262401 	101361.7717469333
-0.7044544544544545 	300.0307133602267 	0.08896028584056133 	101361.3134651434
-0.7019519519519523 	300.0303147775394 	0.08780578423975655 	101360.842135577
-0.6994494494494495 	300.0299055682361 	0.08662273900111334 	101360.3582451148
-0.6969469469469471 	300.0294918505006 	0.08542656542015614 	101359.869030137
-0.6944444444444446 	300.0290794802272 	0.0842317729346561 	101359.3814119037
-0.6919419419419421 	300.0286677706458 	0.08303636607855264 	101358.8945728145
-0.6894394394394396 	300.0282495583916 	0.08182220857696115 	101358.4000404729
-0.6869369369369374 	300.0278180018258 	0.08057222646523766 	101357.8897282132
-0.6844344344344344 	300.0273736419098 	0.0792881317075617 	101357.3642820552
-0.6819319319319321 	300.0269246908815 	0.07799096453993107 	101356.8334159064
-0.6794294294294296 	300.026479856885 	0.07670279337335685 	101356.3074236566
-0.6769269269269272 	300.0260401789786 	0.07542599763493851 	101355.7875274335
-0.6744244244244245 	300.0255974674702 	0.07413941987990309 	101355.2640389105
-0.6719219219219222 	300.025141048578 	0.07281573540203802 	101354.7243389419
-0.6694194194194195 	300.0246671260052 	0.07144547245807908 	101354.1639451554
-0.6669169169169172 	300.0241826850561 	0.0700469501516896 	101353.591123223
-0.6644144144144146 	300.0237004126044 	0.06865307775414774 	101353.0208748014
-0.661911911911912 	300.023228632208 	0.06728530411708737 	101352.4630359767
-0.6594094094094097 	300.0227643708358 	0.06593565353882476 	101351.9140843339
-0.656906906906907 	300.0222950977452 	0.06457128811441493 	101351.3592006693
-0.6544044044044046 	300.0218078680667 	0.06315842168123217 	101350.78308268
-0.6519019019019021 	300.0212990661432 	0.06168782715874783 	101350.1814632207
-0.6493993993993996 	300.0207776030241 	0.06018318388741868 	101349.5648849293
-0.6468968968968971 	300.0202592262003 	0.05868610209520916 	101348.9519674608
-0.6443943943943946 	300.0197559489378 	0.05722827292642498 	101348.3569084508
-0.6418918918918921 	300.0192678831398 	0.0558098378981914 	101347.7798310723
-0.6393893893893897 	300.0187828232188 	0.05439820105137309 	101347.2062982697
-0.6368868868868871 	300.0182836353758 	0.05294765557844483 	101346.6160530815
-0.6343843843843846 	300.0177586966728 	0.0514272654877807 	101345.9953607049
-0.6318818818818821 	300.0172090761121 	0.04984009633547109 	101345.3454950097
-0.6293793793793795 	300.0166483278031 	0.04822268881920163 	101344.6824878497
-0.6268768768768773 	300.0160951848399 	0.04662551693658121 	101344.028486573
-0.6243743743743745 	300.0155633917311 	0.04508589253412572 	101343.3998335944
-0.6218718718718721 	300.0150547380234 	0.04360823496549509 	101342.7984703952
-0.6193693693693696 	300.0145578543974 	0.04216150267962434 	101342.2108921348
-0.6168668668668671 	300.0140535875269 	0.04069394407282131 	101341.6146387703
-0.6143643643643645 	300.0135242287313 	0.0391571669058159 	101340.9887423662
-0.6118618618618621 	300.0129613497791 	0.03752814831102547 	101340.3232166149
-0.6093593593593596 	300.01236959235 	0.03581971750614903 	101339.6235589523
-0.6068568568568571 	300.0117648957696 	0.034075701718754 	101338.9086204014
-0.6043543543543546 	300.0111681392041 	0.03235359383359823 	101338.2030865635
-0.6018518518518521 	300.010597129157 	0.03070259599913571 	101337.528004633
-0.5993493493493496 	300.0100602181535 	0.0291459038006881 	101336.8932414286
-0.5968468468468471 	300.0095536435828 	0.02767315341155258 	101336.2943398335
-0.5943443443443446 	300.0090630258121 	0.02624435372404819 	101335.7142931405
-0.591841841841842 	300.0085679609476 	0.02480249496841982 	101335.1289765215
-0.5893393393393397 	300.0080478465821 	0.02328983293065796 	101334.5140345517
-0.5868368368368371 	300.0074872338208 	0.02166298997079788 	101333.851208186
-0.5843343343343346 	300.0068795095141 	0.01990339902032376 	101333.1326866702
-0.5818318318318321 	300.0062282976594 	0.0180213115606405 	101332.3627621957
-0.5793293293293297 	300.0055465361909 	0.0160532417052211 	101331.5567368812
-0.5768268268268271 	300.0048536795879 	0.01405413039790996 	101330.7376139544
-0.5743243243243245 	300.0041718405562 	0.01208658209355415 	101329.9315361961
-0.5718218218218221 	300.0035219395526 	0.010210219437563 	101329.1632340672
-0.5693193193193196 	300.0029209944173 	0.008473936674609505 	101328.4528223404
-0.5668168168168171 	300.0023808579222 	0.006912040034840626 	101327.8143091217
-0.5643143143143147 	300.0019080306971 	0.005543552126048545 	101327.255374844
-0.5618118118118121 	300.0015041804019 	0.004373614783643506 	101326.7779869851
-0.5593093093093094 	300.001167071536 	0.003396103220758541 	101326.3794998621
-0.5568068068068072 	300.0008916569201 	0.002596730367637228 	101326.0539445168
-0.5543043043043046 	300.0006711437976 	0.001956102492460234 	101325.7932891989
-0.551801801801802 	300.0004979179226 	0.001452382234389653 	101325.5885318573
-0.5492992992992995 	300.0003642689156 	0.001063387624659237 	101325.4305570079
-0.5467967967967969 	300.0002629033104 	0.0007680872517201378 	101325.3107428203
-0.5442942942942947 	300.0001872650903 	0.000547538482994202 	101325.221339309
-0.5417917917917919 	300.0001316957108 	0.0003853638133688816 	101325.1556575969
-0.5392892892892895 	300.0000914741912 	0.0002678780755863045 	101325.108117101
-0.536786786786787 	300.000062775084 	0.0001839765634949364 	101325.0741959219
-0.5342842842842846 	300.0000425773305 	0.0001248785706359729 	101325.0503232164
-0.531781781781782 	300.0000285499481 	8.380054482048918e-05 	101325.033743717
-0.5292792792792794 	300.0000189319051 	5.561159098425954e-05 	101325.0223758624
-0.526776776776777 	300.0000124183446 	3.650587047318648e-05 	101325.0146773687
-0.5242742742742745 	300.0000080599235 	2.371108992956708e-05 	101325.0095260065
-0.521771771771772 	300.0000051772635 	1.524189023154628e-05 	101325.0061189145
-0.5192692692692695 	300.0000032920129 	9.698955778842451e-06 	101325.0038908071
-0.516766766766767 	300.00000207269 	6.110925314550232e-06 	101325.0024496411
-0.5142642642642645 	300.0000012923393 	3.813064122694866e-06 	101325.0015274029
-0.511761761761762 	300.0000007981596 	2.35676163083055e-06 	101325.0009433646
-0.5092592592592596 	300.0000004884041 	1.443146817470325e-06 	101325.0005772479
-0.506756756756757 	300.0000002960924 	8.756765289586191e-07 	101325.0003500098
-0.5042542542542544 	300.0000001779714 	5.266013185453618e-07 	101325.000210333
-0.5017517517517521 	300.0000001060499 	3.13914712564167e-07 	101325.0001252892
-0.4992492492492494 	300.0000000626444 	1.855166527088709e-07 	101325.0000739888
-0.496746746746747 	300.0000000366517 	1.087159118137946e-07 	101325.0000433236
-0.4942442442442445 	300.0000000212337 	6.317718234818618e-08 	101325.0000251558
-0.4917417417417421 	300.0000000122004 	3.641902997950188e-08 	101325.0000144861
-0.4892392392392395 	300.0000000069655 	2.082260051344534e-08 	101325.0000082735
-0.486736736736737 	300.0000000039333 	1.181658411465634e-08 	101325.0000046867
-0.4842342342342345 	300.0000000021516 	6.650109576469231e-09 	101325.0000026324
-0.481731731731732 	300.0000000012849 	3.719078708674149e-09 	101325.0000014653
-0.4792292292292296 	300.0000000007146 	2.060746505392741e-09 	101325.0000008077
-0.4767267267267268 	300.0000000003262 	1.13936226163931e-09 	101325.0000004401
-0.4742242242242246 	300.0000000001977 	6.198154633077703e-10 	101325.000000236
-0.471721721721722 	300.0000000000601 	3.408377756720801e-10 	101325.0000001236
-0.4692192192192195 	300.0000000000226 	1.818881853087749e-10 	101325.0000000623
-0.4667167167167169 	299.9999999999274 	1.007131321950236e-10 	101325.000000029
-0.4642142142142145 	300.0000000000064 	5.195309826231708e-11 	101325.000000011
-0.461711711711712 	300.0000000000231 	3.003823539244888e-11 	101325.0000000015
-0.4592092092092094 	300.0000000000167 	1.468792203123379e-11 	101324.9999999966
-0.456706706706707 	300.0000000000516 	1.084380798017785e-11 	101324.9999999939
-0.4542042042042045 	299.9999999999355 	5.714562099254292e-12 	101324.9999999926
-0.451701701701702 	299.999999999947 	4.840510726114034e-12 	101324.999999992
-0.4491991991991995 	299.99999999995 	1.386235059723916e-12 	101324.9999999913
-0.4466966966966969 	299.9999999999416 	2.49937266099071e-12 	101324.999999991
-0.4441941941941945 	299.9999999999891 	1.31795844679174e-12 	101324.9999999909
-0.441691691691692 	299.9999999999498 	3.625363010305928e-12 	101324.9999999909
-0.4391891891891895 	299.9999999999873 	1.917874657163842e-12 	101324.9999999907
-0.436686686686687 	299.9999999999682 	5.518750864608177e-12 	101324.9999999906
-0.4341841841841846 	299.9999999999929 	1.846911337874765e-12 	101324.9999999907
-0.431681681681682 	299.9999999999399 	6.284208340721826e-12 	101324.9999999908
-0.4291791791791794 	299.9999999999085 	2.494018806741757e-12 	101324.9999999909
-0.426676676676677 	299.9999999999088 	6.04757050588064e-12 	101324.9999999912
-0.4241741741741744 	299.9999999999683 	2.922645866629046e-12 	101324.9999999912
-0.421671671671672 	300.0000000000094 	5.911855243273614e-12 	101324.9999999909
-0.4191691691691694 	300.0000000000553 	2.98194935523984e-12 	101324.9999999907
-0.4166666666666669 	300.0000000000641 	5.309738138057766e-12 	101324.9999999907
-0.4141641641641645 	299.9999999999308 	4.242396455212347e-12 	101324.9999999907
-0.411661661661662 	300.0000000000059 	6.838701376577609e-12 	101324.9999999909
-0.4091591591591594 	300.0000000000025 	6.2583809325168e-12 	101324.999999991
-0.406656656656657 	299.9999999999353 	7.629084406088988e-12 	101324.9999999908
-0.4041541541541545 	300.0000000000214 	5.107769021828443e-12 	101324.9999999905
-0.401651651651652 	299.9999999999133 	7.257282641404499e-12 	101324.9999999905
-0.3991491491491494 	299.9999999999947 	2.739150021459839e-12 	101324.99999999
-0.396646646646647 	299.9999999999515 	6.513107133106142e-12 	101324.9999999899
-0.3941441441441444 	299.9999999999686 	1.63534196183957e-12 	101324.9999999899
-0.3916416416416419 	299.9999999999271 	5.123866749465788e-12 	101324.9999999901
-0.3891391391391395 	299.999999999964 	1.253475570919062e-12 	101324.9999999904
-0.3866366366366368 	299.9999999999561 	3.601411010309344e-12 	101324.9999999906
-0.3841341341341344 	299.9999999999979 	1.44190480068181e-12 	101324.9999999907
-0.381631631631632 	299.9999999999479 	2.037404262361061e-12 	101324.999999991
-0.3791291291291294 	300.0000000000063 	1.465762742882445e-12 	101324.9999999913
-0.3766266266266269 	300.0000000000227 	1.473497936572128e-12 	101324.9999999912
-0.3741241241241244 	300.000000000027 	3.093245824428768e-12 	101324.9999999913
-0.371621621621622 	300.0000000000139 	1.457451973889657e-12 	101324.9999999912
-0.3691191191191194 	300.0000000000057 	4.620764637834907e-12 	101324.9999999911
-0.366616616616617 	300.0000000000068 	1.071321382509011e-12 	101324.9999999909
-0.3641141141141143 	299.999999999955 	3.748885865080069e-12 	101324.9999999907
-0.3616116116116119 	299.9999999999453 	1.382145351944374e-12 	101324.9999999906
-0.3591091091091095 	299.9999999999874 	2.774254828221489e-12 	101324.9999999906
-0.356606606606607 	299.9999999999663 	2.392439181448092e-12 	101324.9999999909
-0.3541041041041044 	299.9999999999907 	2.77018467565772e-12 	101324.9999999907
-0.3516016016016019 	300.0000000000057 	3.179324867781144e-12 	101324.9999999907
-0.3490990990990994 	299.9999999999923 	1.927947237859259e-12 	101324.9999999905
-0.346596596596597 	300.0000000000468 	3.954290846647845e-12 	101324.9999999906
-0.3440940940940944 	300.0000000000566 	1.418945341267733e-12 	101324.999999991
-0.3415915915915919 	300.0000000000155 	3.707873668761265e-12 	101324.9999999913
-0.3390890890890895 	299.9999999999764 	1.839167167592824e-12 	101324.9999999914
-0.3365865865865869 	300.0000000000172 	3.71041484948182e-12 	101324.9999999913
-0.3340840840840844 	300.0000000000064 	2.48644987903002e-12 	101324.9999999911
-0.3315815815815819 	300.0000000000238 	3.443279904958377e-12 	101324.9999999907
-0.3290790790790794 	300.0000000000232 	2.446390787617937e-12 	101324.9999999904
-0.3265765765765769 	299.9999999999251 	3.554061270333965e-12 	101324.9999999905
-0.3240740740740744 	299.9999999999937 	1.678006525676913e-12 	101324.9999999903
-0.3215715715715718 	300.0000000000046 	3.302235910304785e-12 	101324.9999999903
-0.3190690690690695 	299.9999999999342 	8.873758394826641e-13 	101324.9999999904
-0.3165665665665668 	299.9999999999893 	3.414337313499719e-12 	101324.9999999907
-0.3140640640640644 	300.0000000000061 	6.08579166487931e-13 	101324.9999999908
-0.311561561561562 	299.9999999999243 	4.100232828076018e-12 	101324.9999999908
-0.3090590590590593 	299.9999999999901 	1.685916230509796e-12 	101324.9999999906
-0.3065565565565568 	300.0000000000014 	5.752778103390397e-12 	101324.9999999909
-0.3040540540540545 	300 	1.628712595688318e-12 	101324.9999999911
-0.3015515515515518 	300.0000000000364 	6.291677554950689e-12 	101324.9999999912
-0.2990490490490494 	299.9999999999499 	2.153331181105473e-12 	101324.9999999913
-0.2965465465465469 	299.9999999999913 	4.847069005418048e-12 	101324.9999999911
-0.2940440440440444 	300.0000000000048 	2.926376639367084e-12 	101324.999999991
-0.2915415415415418 	300.000000000006 	3.580710604843635e-12 	101324.9999999909
-0.2890390390390395 	300.0000000000034 	3.55373531741337e-12 	101324.9999999911
-0.2865365365365368 	299.999999999986 	2.305362099417123e-12 	101324.9999999914
-0.2840340340340343 	299.9999999999907 	3.656441394807835e-12 	101324.9999999917
-0.2815315315315318 	299.9999999999281 	1.361312310574083e-12 	101324.9999999915
-0.2790290290290295 	299.9999999999474 	2.743020844473812e-12 	101324.9999999916
-0.2765265265265269 	300.0000000000057 	1.452705996210049e-12 	101324.9999999912
-0.2740240240240244 	300.0000000000305 	2.51985280778232e-12 	101324.999999991
-0.2715215215215219 	300.0000000000127 	3.283581921526457e-12 	101324.999999991
-0.2690190190190194 	299.9999999999379 	3.438370888593995e-12 	101324.9999999911
-0.2665165165165169 	299.9999999999978 	4.558354961116611e-12 	101324.999999991
-0.2640140140140144 	299.9999999999612 	3.44224688150575e-12 	101324.9999999908
-0.2615115115115119 	300.0000000000012 	4.927143732460121e-12 	101324.9999999906
-0.2590090090090094 	299.999999999926 	3.325931832881708e-12 	101324.999999991
-0.2565065065065068 	299.9999999999915 	4.39002019847594e-12 	101324.9999999911
-0.2540040040040044 	299.9999999999968 	4.802623071473678e-12 	101324.9999999914
-0.2515015015015019 	300.0000000000425 	4.2921815205256e-12 	101324.9999999914
-0.2489989989989994 	300.0000000000518 	5.94869279815288e-12 	101324.9999999915
-0.2464964964964968 	299.9999999999926 	2.857501351932921e-12 	101324.9999999916
-0.2439939939939944 	299.9999999999982 	6.127999791574068e-12 	101324.9999999915
-0.2414914914914919 	299.9999999999721 	1.735705103751725e-12 	101324.9999999913
-0.2389889889889893 	300.0000000000041 	6.246645963788416e-12 	101324.9999999912
-0.2364864864864869 	300.0000000000259 	2.732744525132275e-12 	101324.9999999915
-0.2339839839839843 	299.9999999999249 	7.006937989982495e-12 	101324.9999999913
-0.2314814814814819 	299.9999999999861 	2.540071094209089e-12 	101324.9999999915
-0.2289789789789792 	299.9999999999148 	5.444340312611526e-12 	101324.9999999918
-0.2264764764764769 	299.9999999999459 	2.533748986536022e-12 	101324.9999999917
-0.2239739739739743 	299.9999999999582 	3.265827498275794e-12 	101324.9999999915
-0.2214714714714718 	299.999999999933 	1.83060019746989e-12 	101324.9999999916
-0.2189689689689693 	299.9999999999665 	1.015672927128051e-12 	101324.9999999914
-0.2164664664664669 	299.9999999999782 	2.397508286094001e-12 	101324.9999999914
-0.2139639639639643 	299.9999999999242 	1.40363802969219e-12 	101324.9999999912
-0.2114614614614618 	299.9999999999749 	2.716450610766285e-12 	101324.9999999908
-0.2089589589589593 	299.9999999999908 	2.529670505267007e-12 	101324.9999999907
-0.2064564564564568 	299.9999999999892 	2.400324571161187e-12 	101324.9999999907
-0.2039539539539543 	299.9999999999074 	3.745446483496179e-12 	101324.9999999906
-0.2014514514514518 	299.9999999999434 	1.971264084120163e-12 	101324.9999999908
-0.1989489489489494 	299.9999999999705 	4.917478063714892e-12 	101324.9999999905
-0.1964464464464468 	299.9999999999872 	1.796790427548414e-12 	101324.9999999903
-0.1939439439439443 	299.9999999999861 	5.153659609071739e-12 	101324.9999999901
-0.1914414414414418 	299.9999999999087 	2.661863840455138e-12 	101324.9999999904
-0.1889389389389393 	300.0000000000069 	4.087868720650284e-12 	101324.9999999906
-0.1864364364364368 	300.0000000000474 	3.062559056145745e-12 	101324.9999999906
-0.1839339339339343 	299.9999999999676 	3.733841971843583e-12 	101324.9999999908
-0.1814314314314318 	299.9999999999952 	1.560440301677348e-12 	101324.9999999906
-0.1789289289289293 	299.9999999998977 	2.619169384282442e-12 	101324.9999999908
-0.1764264264264268 	299.9999999999758 	4.320196246375469e-13 	101324.9999999912
-0.1739239239239243 	299.9999999998971 	2.973915529805165e-12 	101324.9999999911
-0.1714214214214218 	299.999999999985 	2.241709001617189e-12 	101324.9999999907
-0.1689189189189193 	299.9999999999506 	3.523945715802107e-12 	101324.9999999907
-0.1664164164164168 	300.0000000000022 	3.236039749145033e-12 	101324.9999999905
-0.1639139139139143 	299.9999999999867 	5.583604760775193e-12 	101324.9999999908
-0.1614114114114118 	300.0000000000312 	3.559175798304967e-12 	101324.9999999909
-0.1589089089089093 	299.9999999999999 	8.337994274467603e-12 	101324.999999991
-0.1564064064064068 	299.9999999999819 	4.114654136224421e-12 	101324.9999999907
-0.1539039039039043 	299.9999999999876 	8.96784106967769e-12 	101324.9999999907
-0.1514014014014018 	300.000000000028 	2.798357257078894e-12 	101324.9999999907
-0.1488988988988993 	299.999999999981 	9.623125454299917e-12 	101324.9999999906
-0.1463963963963968 	300.0000000000016 	1.1361964022778e-12 	101324.9999999906
-0.1438938938938943 	299.99999999995 	8.152587354104717e-12 	101324.9999999905
-0.1413913913913918 	299.9999999999159 	5.854815319110466e-13 	101324.9999999908
-0.1388888888888893 	299.9999999999778 	5.447140429558646e-12 	101324.9999999909
-0.1363863863863868 	299.9999999998908 	9.472054846832493e-13 	101324.9999999911
-0.1338838838838843 	299.9999999999079 	4.456965593066808e-12 	101324.9999999912
-0.1313813813813818 	299.9999999999926 	1.203422898434302e-12 	101324.9999999912
-0.1288788788788793 	299.9999999999559 	4.215377106820546e-12 	101324.9999999911
-0.1263763763763768 	299.9999999999636 	7.014062893132318e-13 	101324.9999999915
-0.1238738738738743 	299.9999999999166 	4.071669379422198e-12 	101324.9999999913
-0.1213713713713717 	299.9999999999687 	5.430522699207134e-13 	101324.9999999913
-0.1188688688688693 	300.0000000000067 	5.441088155163e-12 	101324.9999999915
-0.1163663663663668 	299.9999999998997 	4.524923045653225e-13 	101324.9999999914
-0.1138638638638643 	299.9999999999889 	4.844937626943975e-12 	101324.9999999913
-0.1113613613613618 	299.9999999999831 	1.473094874994404e-12 	101324.9999999912
-0.1088588588588592 	299.99999999997 	5.386403540520514e-12 	101324.9999999908
-0.1063563563563568 	299.9999999999464 	8.06233440097889e-13 	101324.9999999908
-0.1038538538538543 	299.9999999999721 	5.073659499911589e-12 	101324.9999999908
-0.1013513513513517 	300.0000000000134 	7.383374619659145e-13 	101324.9999999909
-0.09884884884884926 	299.9999999999403 	4.340333956473594e-12 	101324.9999999911
-0.09634634634634676 	299.9999999998897 	1.580945335512321e-12 	101324.999999991
-0.09384384384384425 	299.999999999926 	4.025577087701036e-12 	101324.999999991
-0.09134134134134177 	300.000000000026 	1.806624705029388e-12 	101324.9999999909
-0.08883883883883925 	300.0000000000057 	3.525294633395405e-12 	101324.999999991
-0.08633633633633674 	299.9999999999499 	2.130915906279392e-12 	101324.9999999915
-0.08383383383383426 	300.0000000000102 	2.914440901801089e-12 	101324.9999999911
-0.08133133133133173 	299.9999999999589 	2.836968162547974e-12 	101324.9999999911
-0.07882882882882926 	299.9999999998723 	2.535482780477236e-12 	101324.9999999912
-0.07632632632632676 	299.999999999959 	2.709009943649588e-12 	101324.9999999911
-0.07382382382382424 	299.9999999998917 	2.685038827729902e-12 	101324.9999999907
-0.07132132132132173 	300.0000000000112 	1.811647240394242e-12 	101324.9999999906
-0.06881881881881925 	299.9999999999472 	1.517001494388632e-12 	101324.9999999906
-0.06631631631631671 	299.999999999886 	1.385208536601566e-12 	101324.9999999906
-0.06381381381381425 	299.9999999999531 	1.563239869407197e-12 	101324.9999999906
-0.06131131131131173 	299.9999999999546 	1.523974538100629e-12 	101324.9999999907
-0.05880880880880923 	299.9999999999119 	7.957345662039886e-13 	101324.9999999906
-0.05630630630630672 	299.9999999999654 	1.024824282928841e-12 	101324.9999999903
-0.05380380380380424 	300.0000000000117 	6.544787315442423e-13 	101324.9999999902
-0.05130130130130173 	300.0000000000082 	9.366959044349114e-13 	101324.9999999904
-0.04879879879879922 	299.9999999999409 	7.040248733053813e-13 	101324.9999999908
-0.04629629629629672 	299.9999999999319 	4.069382031037967e-13 	101324.999999991
-0.04379379379379422 	299.9999999999173 	4.424290068667904e-13 	101324.9999999911
-0.04129129129129173 	299.9999999999777 	1.881661270590444e-13 	101324.9999999908
-0.03878878878878922 	299.999999999979 	4.015118515855389e-13 	101324.9999999907
-0.03628628628628671 	299.9999999999761 	2.034086469073914e-13 	101324.9999999906
-0.03378378378378422 	299.9999999999235 	2.562447063765863e-13 	101324.9999999909
-0.03128128128128172 	299.9999999999662 	2.037822609296553e-13 	101324.9999999912
-0.02877877877877922 	299.9999999999646 	6.058117046738292e-14 	101324.9999999915
-0.0262762762762767 	299.9999999998944 	4.811794989208569e-14 	101324.9999999915
-0.02377377377377422 	300.0000000000161 	1.549923871793535e-13 	101324.9999999915
-0.0212712712712717 	299.9999999999006 	2.927417626811546e-13 	101324.9999999916
-0.01876876876876921 	299.9999999999769 	5.026725936681051e-14 	101324.9999999913
-0.01626626626626671 	300.0000000000149 	2.026662404006184e-13 	101324.9999999909
-0.0137637637637642 	299.999999999964 	2.911470406050275e-14 	101324.9999999909
-0.0112612612612617 	300.0000000000146 	1.190824854878777e-14 	101324.9999999907
-0.008758758758759198 	299.9999999999981 	1.962153492795605e-14 	101324.9999999907
-0.006256256256256697 	299.9999999998772 	6.364977897376548e-13 	101324.9999999907
-0.003753753753754195 	299.9999999999499 	4.123288059954889e-13 	101324.9999999904
-0.001251251251251693 	299.9999999999253 	6.601325528781972e-13 	101324.9999999905
0.00125125125125081 	299.9999999999442 	8.466441871403798e-14 	101324.9999999908
0.003753753753753312 	299.9999999999586 	1.287608990436152e-13 	101324.9999999907
0.006256256256255817 	299.999999999888 	2.225892656320827e-13 	101324.9999999909
0.008758758758758317 	299.9999999999933 	9.421713240390529e-14 	101324.9999999911
0.01126126126126082 	300.000000000009 	4.592932155913838e-13 	101324.9999999913
0.01376376376376332 	299.999999999964 	7.410457648103199e-13 	101324.9999999911
0.01626626626626582 	300.0000000000168 	1.262031392936304e-13 	101324.9999999911
0.01876876876876833 	299.9999999999422 	2.825631951647768e-13 	101324.9999999913
0.02127127127127083 	299.9999999999647 	1.890556323194799e-13 	101324.9999999911
0.02377377377377332 	299.9999999999951 	6.447974237681065e-14 	101324.9999999909
0.02627627627627583 	299.9999999998975 	1.701954055676816e-13 	101324.9999999908
0.02877877877877833 	300.0000000000152 	9.565243722805845e-13 	101324.9999999907
0.03128128128128083 	299.9999999999412 	8.95583151887228e-13 	101324.9999999909
0.03378378378378333 	299.9999999999005 	1.385069517202302e-12 	101324.999999991
0.03628628628628584 	299.9999999999617 	1.156149568120182e-12 	101324.999999991
0.03878878878878834 	299.9999999999818 	1.499457646677512e-12 	101324.999999991
0.04129129129129084 	299.9999999999794 	1.431525971711484e-12 	101324.999999991
0.04379379379379333 	299.9999999999456 	9.575617639597725e-13 	101324.999999991
0.04629629629629585 	299.9999999998874 	1.544422825633482e-13 	101324.9999999909
0.04879879879879834 	299.9999999999563 	5.183744646533787e-14 	101324.9999999907
0.05130130130130085 	300.0000000000085 	1.664674021134396e-13 	101324.9999999908
0.05380380380380335 	300.0000000000119 	4.858560800688923e-13 	101324.9999999908
0.05630630630630584 	299.9999999999967 	1.251671587378618e-12 	101324.999999991
0.05880880880880836 	299.9999999999184 	1.159723906032447e-12 	101324.9999999911
0.06131131131131085 	299.9999999999673 	6.794082440365318e-13 	101324.999999991
0.06381381381381336 	299.9999999999645 	1.496926984573693e-13 	101324.9999999908
0.06631631631631586 	299.9999999998843 	5.513983485067527e-13 	101324.9999999909
0.06881881881881835 	299.9999999999554 	1.539285895344391e-12 	101324.9999999908
0.07132132132132088 	299.9999999999877 	1.19694072056853e-12 	101324.999999991
0.07382382382382337 	299.9999999998956 	1.171966438984859e-12 	101324.9999999905
0.07632632632632587 	299.9999999999655 	1.140681102774536e-12 	101324.9999999905
0.07882882882882837 	299.999999999929 	1.154638068149147e-12 	101324.9999999901
0.08133133133133086 	299.9999999999764 	1.631908472027074e-12 	101324.99999999
0.08383383383383337 	299.9999999999787 	1.799484307167297e-12 	101324.9999999902
0.08633633633633589 	299.9999999999008 	2.573592285525546e-12 	101324.9999999903
0.08883883883883838 	300.0000000000015 	3.010208094213742e-12 	101324.9999999905
0.09134134134134086 	299.9999999999686 	2.046448135925951e-12 	101324.9999999907
0.09384384384384339 	299.9999999998852 	2.5376601387048e-12 	101324.9999999907
0.09634634634634588 	299.9999999999587 	3.261805614124806e-12 	101324.9999999911
0.09884884884884838 	299.9999999999731 	3.267557515030619e-12 	101324.9999999916
0.1013513513513509 	300.0000000000169 	3.347921575172868e-12 	101324.9999999912
0.1038538538538534 	299.9999999999534 	3.292179104291029e-12 	101324.9999999908
0.1063563563563559 	300.0000000000094 	2.918602140913263e-12 	101324.9999999909
0.1088588588588584 	300.0000000000309 	2.256235677018846e-12 	101324.9999999907
0.1113613613613609 	299.9999999999144 	2.088751257894658e-12 	101324.9999999908
0.1138638638638634 	299.9999999999457 	2.438116417373254e-12 	101324.9999999907
0.1163663663663659 	299.9999999999478 	2.877489704901675e-12 	101324.999999991
0.1188688688688684 	299.9999999999732 	3.044988738312149e-12 	101324.9999999907
0.1213713713713709 	299.9999999999991 	2.102947401227721e-12 	101324.9999999908
0.1238738738738734 	299.9999999999196 	2.215637278373222e-12 	101324.9999999909
0.1263763763763759 	299.9999999999775 	2.548653780516633e-12 	101324.9999999908
0.1288788788788784 	299.9999999999773 	3.154217646274941e-12 	101324.9999999906
0.1313813813813809 	299.9999999999782 	3.247323132821187e-12 	101324.9999999903
0.1338838838838834 	299.9999999999739 	3.641859684290047e-12 	101324.9999999899
0.1363863863863859 	300.0000000000185 	2.670010896617039e-12 	101324.9999999901
0.1388888888888884 	300.0000000000542 	2.653761767607665e-12 	101324.9999999903
0.1413913913913909 	300.0000000000029 	1.028836751245937e-12 	101324.9999999904
0.1438938938938934 	299.9999999999897 	1.832690565088832e-12 	101324.9999999906
0.1463963963963959 	299.9999999999545 	4.279107994267288e-13 	101324.9999999907
0.1488988988988985 	299.9999999999057 	2.496339990397844e-12 	101324.9999999909
0.1514014014014009 	299.9999999999639 	1.480021800234108e-12 	101324.999999991
0.1539039039039035 	299.9999999999597 	4.671978401156735e-12 	101324.9999999908
0.1564064064064059 	299.9999999999247 	2.368337406281612e-12 	101324.9999999907
0.1589089089089084 	299.9999999999808 	6.068818334573547e-12 	101324.9999999907
0.1614114114114109 	299.9999999999757 	3.234481454870336e-12 	101324.9999999907
0.1639139139139134 	299.9999999999028 	5.239341126276808e-12 	101324.9999999909
0.166416416416416 	300.000000000006 	3.929291598870545e-12 	101324.999999991
0.1689189189189185 	300.0000000000284 	3.621718919659012e-12 	101324.9999999908
0.1714214214214209 	300.0000000000023 	3.504298213089924e-12 	101324.9999999908
0.1739239239239235 	299.9999999999796 	2.161116726747878e-12 	101324.9999999908
0.1764264264264259 	299.9999999999686 	3.972698382691332e-12 	101324.9999999905
0.1789289289289284 	300.0000000000053 	1.105956835780429e-12 	101324.9999999904
0.181431431431431 	299.9999999999555 	3.771881769541973e-12 	101324.9999999904
0.1839339339339334 	299.9999999999634 	1.538865388152497e-12 	101324.9999999904
0.186436436436436 	299.9999999999201 	2.35484417276606e-12 	101324.9999999905
0.1889389389389385 	299.9999999999794 	1.880862684499916e-12 	101324.9999999905
0.191441441441441 	299.9999999999756 	2.040237277166691e-12 	101324.9999999907
0.1939439439439434 	299.9999999999157 	2.86686826814921e-12 	101324.9999999906
0.196446446446446 	299.9999999999376 	6.858467426070427e-13 	101324.9999999906
0.1989489489489485 	299.9999999999601 	2.405184423964372e-12 	101324.9999999905
0.2014514514514509 	299.9999999999768 	6.643178068614523e-13 	101324.9999999906
0.2039539539539535 	299.9999999999975 	2.187688722145644e-12 	101324.9999999907
0.2064564564564559 	299.9999999999575 	1.834315455443069e-12 	101324.9999999908
0.2089589589589585 	299.9999999999864 	2.800355141773852e-12 	101324.9999999909
0.211461461461461 	299.9999999999261 	3.411467127234047e-12 	101324.9999999909
0.2139639639639635 	299.9999999999765 	3.755363071091217e-12 	101324.9999999911
0.2164664664664659 	299.9999999999989 	5.20089079507132e-12 	101324.9999999909
0.2189689689689684 	299.9999999999972 	3.377821354237789e-12 	101324.9999999907
0.221471471471471 	299.9999999999839 	5.425988605317115e-12 	101324.9999999907
0.2239739739739735 	299.9999999999545 	3.501575419199227e-12 	101324.9999999904
0.226476476476476 	299.9999999999777 	5.259730736214346e-12 	101324.9999999902
0.2289789789789785 	299.9999999999941 	3.916282042555139e-12 	101324.9999999901
0.231481481481481 	299.9999999999891 	2.979450689333071e-12 	101324.9999999901
0.2339839839839835 	299.9999999999811 	3.099181915900999e-12 	101324.9999999899
0.236486486486486 	300.0000000000267 	2.129299556405321e-12 	101324.9999999898
0.2389889889889885 	300.0000000000034 	4.064768768158155e-12 	101324.99999999
0.241491491491491 	299.9999999999168 	2.20031042177765e-12 	101324.99999999
0.2439939939939935 	299.9999999999773 	5.085062710808881e-12 	101324.99999999
0.246496496496496 	299.9999999999901 	2.777580986552028e-12 	101324.9999999899
0.2489989989989985 	300.0000000000403 	4.541258609517517e-12 	101324.9999999899
0.251501501501501 	300.0000000000322 	3.165984933652412e-12 	101324.9999999899
0.2540040040040035 	299.9999999999844 	2.974824445357718e-12 	101324.9999999903
0.256506506506506 	300.0000000000329 	3.249449988205109e-12 	101324.9999999906
0.2590090090090086 	299.9999999999011 	1.83442486493175e-12 	101324.9999999905
0.261511511511511 	299.9999999999995 	4.04392760521747e-12 	101324.9999999904
0.2640140140140135 	299.9999999999903 	1.412140591651404e-12 	101324.9999999906
0.2665165165165161 	299.9999999999297 	3.167794743310971e-12 	101324.9999999905
0.2690190190190185 	300.0000000000131 	2.004284628583985e-12 	101324.9999999905
0.271521521521521 	300.0000000000173 	2.114737557126769e-12 	101324.9999999904
0.2740240240240235 	300.000000000021 	2.007260959396457e-12 	101324.9999999905
0.276526526526526 	300.0000000000119 	1.472487647350269e-12 	101324.9999999904
0.2790290290290286 	299.9999999999382 	2.648550084546724e-12 	101324.9999999905
0.281531531531531 	299.9999999999216 	8.821704518705131e-13 	101324.9999999907
0.2840340340340335 	299.9999999999793 	1.899505587067984e-12 	101324.9999999905
0.2865365365365361 	299.9999999999555 	1.884942350375458e-13 	101324.9999999905
0.2890390390390385 	300.0000000000016 	8.101745152863265e-13 	101324.9999999903
0.291541541541541 	300.0000000000005 	4.812921520589258e-13 	101324.9999999903
0.2940440440440436 	299.9999999999917 	1.004694303904345e-12 	101324.9999999902
0.296546546546546 	299.9999999999962 	1.371297747201351e-12 	101324.9999999903
0.2990490490490486 	299.9999999999362 	1.844041346932318e-12 	101324.9999999906
0.3015515515515511 	300.0000000000488 	3.973743501924216e-12 	101324.9999999907
0.3040540540540535 	300.0000000000081 	2.485116947926797e-12 	101324.9999999909
0.3065565565565562 	299.9999999999911 	4.551532157825134e-12 	101324.9999999907
0.3090590590590585 	299.9999999999881 	1.811016081607411e-12 	101324.9999999906
0.3115615615615611 	299.9999999999329 	3.736188097371542e-12 	101324.9999999905
0.3140640640640635 	300.0000000000082 	8.500214024571029e-13 	101324.9999999906
0.316566566566566 	299.9999999999923 	2.675975546665424e-12 	101324.9999999906
0.3190690690690687 	299.9999999999549 	1.313217291826377e-12 	101324.9999999906
0.3215715715715711 	300.0000000000188 	1.627014402172023e-12 	101324.9999999906
0.3240740740740735 	300.0000000000006 	1.11981039722952e-12 	101324.9999999903
0.326576576576576 	299.9999999998973 	1.181061702346854e-12 	101324.9999999905
0.3290790790790786 	300.0000000000121 	8.08438657220679e-13 	101324.9999999905
0.3315815815815811 	300.0000000000387 	3.083045139887016e-13 	101324.9999999902
0.3340840840840836 	299.9999999999817 	1.622084755879657e-12 	101324.9999999901
0.3365865865865861 	300.0000000000613 	5.836154603948436e-13 	101324.9999999903
0.3390890890890886 	300.0000000000555 	1.871669380274453e-12 	101324.9999999906
0.3415915915915911 	300.0000000000052 	3.384019309882293e-13 	101324.9999999906
0.3440940940940935 	299.9999999999552 	1.110103545665858e-12 	101324.9999999905
0.3465965965965962 	300.0000000000388 	1.504715377217341e-12 	101324.9999999904
0.3490990990990985 	300.0000000000312 	2.916257797218194e-13 	101324.9999999902
0.3516016016016011 	299.9999999999897 	7.172042527665632e-13 	101324.9999999902
0.3541041041041035 	300.0000000000081 	6.310549921400374e-13 	101324.9999999902
0.3566066066066061 	299.9999999999469 	7.970166257500643e-13 	101324.9999999903
0.3591091091091085 	299.9999999999138 	7.658090006010236e-13 	101324.99999999
0.3616116116116112 	299.9999999999378 	1.987675802231412e-12 	101324.9999999897
0.3641141141141137 	299.9999999999289 	1.431284670250859e-12 	101324.9999999897
0.3666166166166161 	299.9999999999185 	2.719950476217024e-12 	101324.9999999896
0.3691191191191185 	300.0000000000377 	2.6441592678081e-12 	101324.9999999897
0.371621621621621 	300.0000000000201 	1.70080798998447e-12 	101324.9999999899
0.3741241241241237 	300.0000000000489 	2.694516453342951e-12 	101324.9999999898
0.3766266266266261 	300.0000000000247 	1.041337622612548e-12 	101324.9999999897
0.3791291291291286 	299.9999999999852 	1.928487068763876e-12 	101324.9999999896
0.3816316316316311 	299.9999999999164 	1.087081503030826e-12 	101324.9999999896
0.3841341341341336 	300.0000000000128 	1.897388577134846e-12 	101324.9999999899
0.3866366366366362 	299.9999999999964 	6.649213396710285e-13 	101324.9999999901
0.3891391391391387 	299.999999999956 	1.89334829880004e-12 	101324.9999999904
0.391641641641641 	299.9999999999952 	6.622280431610971e-13 	101324.9999999904
0.3941441441441436 	300.0000000000019 	1.772246427200555e-12 	101324.9999999904
0.3966466466466462 	299.9999999999943 	3.453671772559666e-13 	101324.9999999905
0.3991491491491486 	299.9999999999465 	1.005877791169195e-12 	101324.9999999904
0.4016516516516512 	299.9999999999169 	7.23410160238852e-13 	101324.9999999901
0.4041541541541536 	299.9999999999446 	1.78752179409064e-12 	101324.9999999904
0.4066566566566561 	299.9999999999478 	5.156696852106851e-13 	101324.9999999905
0.4091591591591587 	299.9999999999955 	1.427110601654936e-12 	101324.9999999904
0.4116616616616612 	300.0000000000063 	5.918393184942956e-13 	101324.9999999904
0.4141641641641635 	300.0000000000412 	3.816786869198379e-13 	101324.9999999902
0.4166666666666662 	299.999999999995 	8.695893084837879e-13 	101324.9999999901
0.4191691691691687 	299.9999999999399 	1.78550442645679e-12 	101324.9999999902
0.421671671671671 	300.000000000008 	1.344382623498389e-12 	101324.99999999
0.4241741741741737 	299.999999999973 	3.121365920612291e-12 	101324.99999999
0.4266766766766761 	299.9999999999521 	1.917016103421227e-12 	101324.9999999902
0.4291791791791785 	300.0000000000226 	3.498934199076513e-12 	101324.99999999
0.4316816816816812 	300.0000000000124 	2.686530514433472e-12 	101324.9999999898
0.4341841841841836 	299.9999999999866 	3.323418913947172e-12 	101324.9999999898
0.4366866866866862 	299.9999999999188 	2.083675382369054e-12 	101324.99999999
0.4391891891891885 	299.9999999999825 	1.837001129383424e-12 	101324.99999999
0.4416916916916913 	299.999999999984 	1.300758687532121e-12 	101324.99999999
0.4441941941941936 	299.9999999999906 	1.898965450567639e-12 	101324.9999999898
0.4466966966966961 	299.9999999999166 	4.356583534063452e-13 	101324.9999999898
0.4491991991991987 	299.9999999999821 	1.02378008381619e-12 	101324.9999999896
0.4517017017017012 	299.9999999999798 	4.947017669416256e-13 	101324.9999999897
0.4542042042042035 	299.9999999999849 	5.894819782123147e-13 	101324.9999999896
0.4567067067067062 	299.9999999999974 	6.699982616693072e-13 	101324.9999999894
0.4592092092092087 	299.9999999999274 	4.229641435290731e-13 	101324.9999999891
0.4617117117117112 	300.0000000000188 	5.514403462392791e-13 	101324.9999999893
0.4642142142142137 	299.9999999999622 	5.062414107684605e-13 	101324.9999999896
0.4667167167167162 	299.9999999999909 	5.751004127356019e-13 	101324.9999999898
0.4692192192192187 	299.9999999999546 	8.008667916792998e-13 	101324.9999999897
0.4717217217217212 	300.0000000000064 	5.126472133650485e-13 	101324.9999999897
0.4742242242242236 	299.9999999999518 	7.116206267396775e-13 	101324.9999999899
0.4767267267267262 	299.9999999999737 	4.155746386310875e-13 	101324.9999999898
0.4792292292292287 	300.0000000000184 	5.278704317331433e-13 	101324.9999999896
0.4817317317317312 	300.0000000000324 	9.588947140365585e-13 	101324.9999999895
0.4842342342342336 	299.9999999999806 	1.048596532078563e-12 	101324.9999999896
0.4867367367367362 	299.9999999999515 	1.562393052517988e-12 	101324.9999999894
0.4892392392392387 	300.0000000000255 	8.829503075274423e-13 	101324.9999999892
0.4917417417417412 	300.0000000000049 	2.11268317027164e-12 	101324.9999999895
0.4942442442442437 	299.9999999999038 	9.807286191228785e-13 	101324.9999999896
0.4967467467467462 	299.9999999999282 	1.928285449135531e-12 	101324.9999999896
0.4992492492492487 	299.9999999999161 	7.391693823920797e-13 	101324.9999999895
0.5017517517517511 	299.9999999999529 	1.50880936380974e-12 	101324.9999999897
0.5042542542542537 	299.9999999999635 	1.500602749412389e-12 	101324.9999999899
0.5067567567567562 	299.9999999999439 	1.71551073548674e-12 	101324.9999999901
0.5092592592592589 	299.9999999999634 	1.928675287138381e-12 	101324.9999999904
0.5117617617617611 	299.9999999999605 	8.375071224275726e-13 	101324.9999999905
0.5142642642642637 	299.9999999999891 	2.664967168740212e-12 	101324.9999999907
0.5167667667667663 	299.999999999974 	1.682350519697441e-12 	101324.9999999907
0.5192692692692688 	299.9999999999193 	3.836415772231287e-12 	101324.9999999908
0.5217717717717714 	299.9999999999428 	2.765370464896932e-12 	101324.9999999908
0.5242742742742736 	299.9999999999426 	3.645611460053459e-12 	101324.9999999907
0.5267767767767763 	299.9999999999625 	2.0974383941203e-12 	101324.9999999908
0.5292792792792789 	299.9999999999412 	2.79955715137358e-12 	101324.9999999908
0.5317817817817813 	299.9999999999054 	2.067608201213245e-12 	101324.999999991
0.5342842842842837 	300.000000000014 	1.191581646931297e-12 	101324.9999999908
0.5367867867867864 	300.0000000000018 	1.906527618357754e-12 	101324.9999999908
0.5392892892892888 	299.9999999999598 	7.767811365947173e-13 	101324.9999999909
0.5417917917917912 	300.0000000000088 	2.02122581683521e-12 	101324.9999999908
0.5442942942942938 	299.9999999999806 	8.085807521037537e-13 	101324.9999999912
0.5467967967967964 	299.9999999999455 	2.566148561528956e-12 	101324.9999999911
0.5492992992992988 	299.9999999999401 	2.2256125682248e-12 	101324.999999991
0.5518018018018012 	299.9999999999382 	3.472133956778396e-12 	101324.9999999913
0.5543043043043039 	300.0000000000225 	2.252672094578543e-12 	101324.9999999916
0.5568068068068063 	299.9999999999908 	2.357760520325966e-12 	101324.9999999915
0.5593093093093087 	299.9999999999053 	1.053219228287664e-12 	101324.9999999912
0.5618118118118114 	299.9999999999663 	2.656475857155638e-12 	101324.9999999906
0.5643143143143137 	299.999999999946 	1.765920153663582e-12 	101324.9999999905
0.5668168168168163 	299.9999999999898 	3.122085140662311e-12 	101324.9999999906
0.5693193193193188 	300.0000000000286 	2.9918158272178e-12 	101324.9999999906
0.5718218218218213 	300.0000000000203 	2.570856207504845e-12 	101324.9999999905
0.5743243243243239 	300.0000000000046 	3.342580329706473e-12 	101324.9999999904
0.5768268268268262 	300.0000000000012 	1.447881910946543e-12 	101324.9999999903
0.5793293293293288 	299.9999999999445 	3.517814130159321e-12 	101324.9999999906
0.5818318318318314 	299.9999999999173 	2.347841981543479e-12 	101324.9999999909
0.5843343343343338 	299.9999999999837 	4.444863327038483e-12 	101324.999999991
0.5868368368368363 	299.9999999999798 	1.863590435434515e-12 	101324.999999991
0.5893393393393387 	299.9999999999526 	3.441758536706407e-12 	101324.9999999911
0.5918418418418413 	299.9999999999466 	1.729103285739193e-12 	101324.9999999912
0.5943443443443439 	300.0000000000217 	4.369294371488458e-12 	101324.9999999911
0.5968468468468463 	300.0000000000218 	2.341375460052968e-12 	101324.9999999911
0.5993493493493487 	300.0000000000388 	3.199295215608857e-12 	101324.9999999908
0.6018518518518514 	299.9999999999828 	1.717795127358232e-12 	101324.9999999905
0.6043543543543537 	299.9999999999916 	3.720806593169268e-12 	101324.9999999907
0.6068568568568564 	299.999999999982 	2.596180881654937e-12 	101324.9999999909
0.6093593593593587 	299.999999999935 	3.299379914213504e-12 	101324.999999991
0.6118618618618614 	299.9999999999271 	1.85471221788455e-12 	101324.9999999912
0.6143643643643638 	300.0000000000184 	2.718169622835052e-12 	101324.9999999913
0.6168668668668662 	299.9999999999845 	9.282421907498524e-13 	101324.9999999911
0.6193693693693688 	299.9999999999558 	1.863267023924556e-12 	101324.9999999911
0.6218718718718714 	299.999999999964 	1.069816510751103e-12 	101324.999999991
0.6243743743743737 	299.9999999999409 	1.159238551091162e-12 	101324.999999991
0.6268768768768762 	299.9999999999259 	4.546088070680492e-13 	101324.9999999909
0.629379379379379 	299.9999999999527 	1.010318396399675e-12 	101324.999999991
0.6318818818818812 	299.9999999999741 	1.269678317712389e-12 	101324.9999999908
0.6343843843843838 	300.0000000000175 	1.632110551602437e-12 	101324.9999999908
0.6368868868868864 	299.9999999999837 	2.380489263057277e-12 	101324.9999999906
0.6393893893893888 	299.9999999999218 	1.605715364998761e-12 	101324.9999999904
0.6418918918918912 	300.0000000000069 	3.466691956274352e-12 	101324.9999999904
0.6443943943943939 	299.9999999999816 	2.820088121306677e-12 	101324.9999999905
0.6468968968968963 	299.9999999999822 	3.804106496139566e-12 	101324.9999999905
0.6493993993993988 	299.9999999999741 	3.178252228915385e-12 	101324.9999999908
0.6519019019019012 	299.9999999999732 	3.266682493450889e-12 	101324.9999999911
0.6544044044044038 	299.9999999999052 	2.213351491646907e-12 	101324.9999999912
0.6569069069069065 	299.9999999999553 	3.231291596278468e-12 	101324.9999999914
0.6594094094094087 	299.9999999999657 	1.20413972947616e-12 	101324.9999999913
0.6619119119119113 	299.9999999999554 	2.623986718979493e-12 	101324.9999999914
0.664414414414414 	299.9999999999996 	1.102383045164925e-12 	101324.9999999916
0.6669169169169162 	300.0000000000184 	1.984850838708714e-12 	101324.9999999917
0.6694194194194188 	299.9999999999852 	1.339905185419169e-12 	101324.9999999915
0.6719219219219214 	299.9999999999235 	9.145367570966192e-13 	101324.9999999916
0.674424424424424 	299.9999999999748 	9.427675667421374e-13 	101324.9999999917
0.6769269269269262 	299.9999999999166 	1.275833690651887e-12 	101324.9999999919
0.679429429429429 	300.0000000000032 	1.330880773990313e-12 	101324.9999999919
0.6819319319319311 	299.9999999999745 	2.137075744614374e-12 	101324.9999999919
0.6844344344344341 	299.9999999999959 	1.335512672956411e-12 	101324.9999999921
0.686936936936936 	299.999999999993 	1.798937105327968e-12 	101324.9999999921
0.6894394394394392 	299.9999999999889 	7.432642543282434e-13 	101324.9999999919
0.6919419419419413 	299.9999999999811 	7.009738519806262e-13 	101324.999999992
0.694444444444444 	299.9999999999318 	1.219810999188191e-12 	101324.9999999919
0.6969469469469463 	299.9999999999237 	1.442312186679479e-12 	101324.999999992
0.6994494494494489 	299.9999999999228 	2.274413265593219e-12 	101324.9999999921
0.7019519519519515 	299.9999999999852 	2.082108730135398e-12 	101324.9999999921
0.7044544544544538 	299.9999999999513 	3.574381062620345e-12 	101324.9999999919
0.7069569569569564 	299.999999999993 	2.3182412805119e-12 	101324.9999999916
0.7094594594594589 	299.9999999999634 	4.516991515069793e-12 	101324.9999999915
0.7119619619619615 	299.9999999999092 	3.334828576218176e-12 	101324.9999999915
0.7144644644644638 	299.9999999999475 	4.821743383180928e-12 	101324.9999999916
0.7169669669669665 	299.9999999999199 	4.021809633851541e-12 	101324.9999999916
0.7194694694694688 	299.9999999999908 	4.858773499276874e-12 	101324.9999999917
0.7219719719719715 	299.9999999999851 	3.978652067289281e-12 	101324.999999992
0.7244744744744737 	300.0000000000019 	4.449590289852185e-12 	101324.9999999924
0.7269769769769764 	299.9999999999952 	4.310056058013392e-12 	101324.9999999926
0.7294794794794791 	299.9999999999886 	3.380943894549621e-12 	101324.9999999925
0.7319819819819813 	299.9999999999815 	4.722393497464215e-12 	101324.9999999924
0.7344844844844839 	299.9999999999254 	3.716941608512688e-12 	101324.9999999924
0.7369869869869864 	299.9999999999537 	4.373546108130997e-12 	101324.9999999926
0.739489489489489 	299.9999999999428 	4.019942727412595e-12 	101324.9999999928
0.7419919919919914 	299.999999999931 	3.838792977808518e-12 	101324.9999999926
0.7444944944944939 	299.9999999999783 	4.424776731597392e-12 	101324.9999999925
0.7469969969969963 	299.9999999999668 	3.380739351272468e-12 	101324.9999999923
0.7494994994994989 	299.9999999999431 	5.59271558195242e-12 	101324.9999999924
0.7520020020020015 	299.9999999999691 	3.828543546754158e-12 	101324.9999999925
0.7545045045045039 	299.9999999999669 	7.54431029129093e-12 	101324.9999999925
0.7570070070070062 	299.9999999999425 	5.966964401349098e-12 	101324.9999999926
0.7595095095095092 	299.9999999999314 	7.639207994796333e-12 	101324.9999999928
0.7620120120120112 	300.0000000000029 	6.188074437133293e-12 	101324.9999999928
0.7645145145145138 	299.9999999999835 	5.327547169855415e-12 	101324.999999993
0.7670170170170165 	299.9999999999344 	4.309000717242517e-12 	101324.9999999931
0.7695195195195191 	299.9999999999268 	2.808521497884518e-12 	101324.9999999929
0.7720220220220213 	299.9999999999336 	4.341998441759424e-12 	101324.9999999925
0.7745245245245239 	299.9999999999323 	3.025358563973575e-12 	101324.9999999925
0.7770270270270263 	299.9999999999737 	4.745196690527964e-12 	101324.9999999924
0.779529529529529 	299.9999999999828 	3.929923767830159e-12 	101324.9999999925
0.7820320320320313 	299.999999999966 	4.888128929708586e-12 	101324.9999999926
0.784534534534534 	300.0000000000014 	5.034528032917098e-12 	101324.9999999929
0.7870370370370364 	299.9999999999966 	4.259476705217553e-12 	101324.999999993
0.7895395395395389 	299.9999999999865 	4.931130459415919e-12 	101324.9999999932
0.7920420420420413 	299.9999999999758 	4.032955529848385e-12 	101324.9999999934
0.794544544544544 	299.9999999999722 	5.713991066354108e-12 	101324.9999999935
0.7970470470470463 	299.9999999999985 	4.095487469035592e-12 	101324.9999999934
0.799549549549549 	299.9999999999825 	6.926423076991268e-12 	101324.9999999934
0.8020520520520515 	299.9999999999819 	4.388825472307622e-12 	101324.9999999933
0.8045545545545539 	299.9999999999421 	6.3058695296475e-12 	101324.9999999933
0.8070570570570563 	299.9999999999786 	5.085502560105508e-12 	101324.9999999933
0.8095595595595589 	299.9999999999527 	5.573845349596017e-12 	101324.9999999932
0.8120620620620614 	299.9999999999362 	5.596193928091313e-12 	101324.9999999934
0.8145645645645638 	299.9999999999995 	6.068442238610982e-12 	101324.9999999936
0.8170670670670666 	299.9999999999965 	7.241461161480421e-12 	101324.9999999938
0.8195695695695689 	299.9999999999771 	6.089673302746653e-12 	101324.9999999941
0.8220720720720714 	299.999999999943 	7.69289764687988e-12 	101324.9999999941
0.8245745745745739 	299.9999999999877 	5.912529092677842e-12 	101324.9999999939
0.8270770770770765 	299.9999999999728 	7.466477033471267e-12 	101324.9999999939
0.8295795795795788 	299.9999999999566 	5.601010126259421e-12 	101324.9999999938
0.8320820820820815 	300.0000000000141 	5.586102479016809e-12 	101324.9999999938
0.834584584584584 	300.0000000000042 	4.579205199020934e-12 	101324.9999999938
0.8370870870870865 	299.9999999999677 	4.470789305853661e-12 	101324.9999999935
0.8395895895895891 	299.9999999999355 	5.230037865846725e-12 	101324.9999999934
0.8420920920920915 	299.9999999999535 	5.210360318116753e-12 	101324.9999999936
0.844594594594594 	299.9999999999441 	5.786815593633258e-12 	101324.9999999939
0.8470970970970964 	299.9999999999481 	6.042571764390837e-12 	101324.9999999942
0.8495995995995991 	299.9999999999892 	6.413971899888278e-12 	101324.9999999944
0.8521021021021015 	299.9999999999793 	7.104108552227994e-12 	101324.9999999942
0.8546046046046039 	299.9999999999725 	6.926017904881104e-12 	101324.9999999939
0.8571071071071066 	299.9999999999985 	8.093463989367515e-12 	101324.9999999936
0.8596096096096089 	299.9999999999661 	6.706877301262601e-12 	101324.9999999937
0.8621121121121116 	299.9999999999355 	9.590637386654514e-12 	101324.9999999936
0.8646146146146139 	299.9999999999953 	7.354756469135184e-12 	101324.9999999938
0.8671171171171166 	299.9999999999754 	8.052641891782347e-12 	101324.9999999939
0.8696196196196189 	299.999999999945 	6.877783134222967e-12 	101324.9999999938
0.8721221221221216 	299.9999999999731 	7.242233298615728e-12 	101324.9999999939
0.874624624624624 	300.000000000002 	6.775603840656964e-12 	101324.9999999942
0.8771271271271264 	300.0000000000022 	6.142575681052123e-12 	101324.9999999945
0.879629629629629 	300.0000000000093 	6.92488045409607e-12 	101324.9999999946
0.8821321321321317 	299.9999999999863 	5.753605384571651e-12 	101324.9999999948
0.8846346346346339 	299.9999999999336 	8.175966832087516e-12 	101324.9999999951
0.8871371371371364 	299.9999999999646 	6.056378764290585e-12 	101324.9999999953
0.8896396396396391 	299.999999999962 	7.700329917879809e-12 	101324.9999999954
0.8921421421421414 	299.9999999999641 	6.081301833445266e-12 	101324.9999999954
0.8946446446446441 	299.9999999999857 	6.254713282777518e-12 	101324.9999999954
0.8971471471471464 	300.0000000000044 	5.53031811846492e-12 	101324.9999999953
0.8996496496496489 	299.9999999999837 	5.890690081207345e-12 	101324.9999999952
0.9021521521521517 	299.9999999999665 	7.372773325841414e-12 	101324.9999999951
0.9046546546546541 	299.9999999999905 	6.643800708821233e-12 	101324.999999995
0.9071571571571564 	299.9999999999517 	7.392463466885779e-12 	101324.9999999948
0.9096596596596589 	299.9999999999501 	7.446511468091873e-12 	101324.9999999946
0.9121621621621616 	300.0000000000075 	8.486395414906584e-12 	101324.9999999945
0.9146646646646639 	299.9999999999797 	9.018103520762778e-12 	101324.9999999945
0.9171671671671666 	299.9999999999488 	9.136507146932369e-12 	101324.9999999947
0.9196696696696689 	299.999999999998 	1.00775321090091e-11 	101324.9999999946
0.9221721721721714 	299.9999999999995 	9.424780618812231e-12 	101324.9999999948
0.9246746746746741 	299.9999999999428 	1.228654200590423e-11 	101324.9999999948
0.9271771771771765 	299.9999999999472 	1.018201812785694e-11 	101324.9999999948
0.9296796796796791 	299.9999999999859 	1.171431529509652e-11 	101324.9999999949
0.9321821821821816 	299.9999999999673 	1.027076145316082e-11 	101324.9999999948
0.9346846846846838 	299.9999999999534 	1.127262347853526e-11 	101324.9999999948
0.9371871871871866 	300.0000000000173 	1.054685565902306e-11 	101324.9999999948
0.9396896896896891 	300.000000000016 	1.009930690936905e-11 	101324.999999995
0.9421921921921914 	300.0000000000091 	9.449883373257717e-12 	101324.9999999951
0.9446946946946939 	299.9999999999681 	7.983376391507429e-12 	101324.9999999954
0.9471971971971965 	299.9999999999293 	1.052676726224006e-11 	101324.9999999955
0.9496996996996991 	299.9999999999631 	9.2689769447641e-12 	101324.9999999954
0.9522022022022016 	299.9999999999775 	1.114486032318445e-11 	101324.9999999953
0.9547047047047038 	299.9999999999775 	1.066176073312364e-11 	101324.9999999954
0.9572072072072064 	299.9999999999691 	1.180284065373914e-11 	101324.9999999953
0.9597097097097093 	299.9999999999696 	1.166090520866213e-11 	101324.9999999951
0.9622122122122114 	299.9999999999637 	1.130235687516005e-11 	101324.9999999949
0.964714714714714 	299.9999999999623 	1.216787901588984e-11 	101324.9999999948
0.9672172172172167 	299.9999999999616 	1.166161523049083e-11 	101324.9999999948
0.969719719719719 	299.999999999987 	1.322269934839528e-11 	101324.9999999949
0.9722222222222214 	299.999999999979 	1.318580220107711e-11 	101324.999999995
0.9747247247247239 	299.9999999999742 	1.333460218138492e-11 	101324.9999999948
0.9772272272272267 	300.0000000000044 	1.32705959427203e-11 	101324.999999995
0.9797297297297292 	299.9999999999908 	1.265953671977029e-11 	101324.9999999955
0.9822322322322313 	299.9999999999903 	1.254351160230886e-11 	101324.9999999958
0.9847347347347344 	299.9999999999877 	1.094759881141043e-11 	101324.999999996
0.9872372372372363 	299.9999999999542 	1.372909760865868e-11 	101324.9999999962
0.9897397397397389 	299.9999999999707 	1.157675754043935e-11 	101324.9999999961
0.9922422422422417 	299.9999999999528 	1.326095997212688e-11 	101324.9999999961
0.9947447447447441 	299.9999999999666 	1.225164366864359e-11 	101324.999999996
0.9972472472472468 	299.9999999999666 	1.363584513476622e-11 	101324.9999999963
0.999749749749749 	299.9999999999696 	1.354691375582924e-11 	101324.9999999964
1.002252252252252 	299.9999999999868 	1.389304589596861e-11 	101324.9999999965
1.004754754754754 	299.9999999999906 	1.373174393837701e-11 	101324.9999999967
1.007257257257256 	299.9999999999682 	1.283942792739853e-11 	101324.9999999966
1.009759759759759 	299.9999999999571 	1.518930562708907e-11 	101324.9999999962
1.012262262262261 	299.9999999999689 	1.324141226584928e-11 	101324.9999999959
1.014764764764764 	299.9999999999403 	1.448995083590006e-11 	101324.9999999957
1.017267267267267 	299.9999999999304 	1.341541063793666e-11 	101324.9999999956
1.019769769769769 	299.9999999999792 	1.462239885256999e-11 	101324.9999999957
1.022272272272272 	299.9999999999916 	1.426052832039966e-11 	101324.9999999957
1.024774774774774 	299.9999999999874 	1.431119130927839e-11 	101324.9999999958
1.027277277277277 	299.999999999985 	1.505173453824029e-11 	101324.9999999962
1.029779779779779 	300.0000000000174 	1.390979479998373e-11 	101324.9999999968
1.032282282282282 	300.0000000000176 	1.444581245074833e-11 	101324.9999999971
1.034784784784784 	300.0000000000073 	1.409957679033634e-11 	101324.9999999971
1.037287287287286 	299.9999999999768 	1.442550374605061e-11 	101324.999999997
1.039789789789789 	299.999999999976 	1.406055187383937e-11 	101324.9999999971
1.042292292292291 	300.0000000000056 	1.409723450223704e-11 	101324.999999997
1.044794794794794 	300.0000000000224 	1.402993661669147e-11 	101324.9999999969
1.047297297297296 	300.0000000000375 	1.293942487165755e-11 	101324.9999999967
1.049799799799799 	299.9999999999931 	1.477271881647863e-11 	101324.9999999966
1.052302302302302 	299.9999999999553 	1.286091389126089e-11 	101324.9999999965
1.054804804804804 	299.9999999999343 	1.5124348528505e-11 	101324.9999999966
1.057307307307306 	299.9999999999275 	1.481101580517616e-11 	101324.9999999967
1.059809809809809 	299.9999999999644 	1.629050209549247e-11 	101324.9999999968
1.062312312312312 	299.9999999999626 	1.567568094085039e-11 	101324.9999999969
1.064814814814814 	299.9999999999603 	1.616826553292908e-11 	101324.999999997
1.067317317317317 	299.9999999999296 	1.552556198321802e-11 	101324.999999997
1.069819819819819 	299.9999999999295 	1.533141538196625e-11 	101324.9999999967
1.072322322322321 	299.9999999999928 	1.735556970444609e-11 	101324.9999999964
1.074824824824824 	300.0000000000047 	1.547177807917049e-11 	101324.9999999964
1.077327327327327 	300.0000000000258 	1.671130239840309e-11 	101324.9999999965
1.079829829829829 	300.0000000000372 	1.529104380583077e-11 	101324.9999999964
1.082332332332332 	300.0000000000058 	1.614720407676035e-11 	101324.9999999965
1.084834834834834 	299.9999999999862 	1.56404325307185e-11 	101324.9999999967
1.087337337337337 	299.9999999999472 	1.587689982071704e-11 	101324.9999999967
1.089839839839839 	299.9999999999354 	1.783131336433425e-11 	101324.9999999966
1.092342342342342 	299.9999999999695 	1.66601391125979e-11 	101324.9999999966
1.094844844844844 	299.9999999999704 	1.745867861337702e-11 	101324.9999999965
1.097347347347347 	299.9999999999464 	1.575938938472311e-11 	101324.9999999964
1.099849849849849 	299.9999999999349 	1.853283144657816e-11 	101324.9999999963
1.102352352352352 	299.9999999999591 	1.688005273215119e-11 	101324.9999999964
1.104854854854854 	299.9999999999801 	1.913217498336607e-11 	101324.9999999966
1.107357357357357 	299.9999999999605 	1.737834468628765e-11 	101324.9999999969
1.109859859859859 	299.9999999999528 	1.820313260146448e-11 	101324.999999997
1.112362362362362 	300.0000000000186 	1.674862777299927e-11 	101324.9999999969
1.114864864864865 	300.0000000000175 	1.70200601297911e-11 	101324.9999999969
1.117367367367367 	299.9999999999675 	1.795079079382031e-11 	101324.9999999969
1.119869869869869 	299.9999999999293 	1.611449801083858e-11 	101324.9999999972
1.122372372372372 	299.9999999999553 	1.737355894951012e-11 	101324.9999999974
1.124874874874874 	299.9999999999588 	1.635684005973348e-11 	101324.9999999972
1.127377377377377 	299.9999999999762 	1.754100609998647e-11 	101324.9999999971
1.129879879879879 	300.000000000021 	1.729196129162954e-11 	101324.9999999971
1.132382382382382 	300.0000000000347 	1.831080081683468e-11 	101324.9999999969
1.134884884884884 	300.0000000000122 	1.784445174870943e-11 	101324.9999999971
1.137387387387387 	300.0000000000185 	1.806035885990409e-11 	101324.9999999975
1.139889889889889 	299.999999999967 	1.940292732667754e-11 	101324.9999999978
1.142392392392392 	299.9999999999542 	1.792420651934524e-11 	101324.9999999978
1.144894894894894 	300.0000000000119 	1.942171975949371e-11 	101324.9999999976
1.147397397397397 	299.9999999999984 	1.88648687190993e-11 	101324.9999999976
1.149899899899899 	299.9999999999453 	2.025893494673805e-11 	101324.9999999976
1.152402402402402 	299.9999999999321 	1.969925168692616e-11 	101324.9999999976
1.154904904904904 	299.9999999999652 	2.038086662547002e-11 	101324.9999999976
1.157407407407407 	299.9999999999648 	1.971446352731641e-11 	101324.9999999975
1.159909909909909 	299.9999999999397 	1.981478768411013e-11 	101324.9999999974
1.162412412412412 	299.9999999999332 	2.101944262048501e-11 	101324.9999999974
1.164914914914914 	299.9999999999571 	1.938108502029221e-11 	101324.9999999974
1.167417417417417 	299.9999999999644 	2.085730345856025e-11 	101324.9999999975
1.169919919919919 	300.0000000000139 	1.974814612378168e-11 	101324.9999999976
1.172422422422422 	300.0000000000435 	2.081348040918286e-11 	101324.9999999977
1.174924924924925 	299.9999999999949 	2.017693056941472e-11 	101324.9999999978
1.177427427427427 	299.9999999999653 	2.177302311236201e-11 	101324.9999999979
1.179929929929929 	300.0000000000095 	2.290719853082252e-11 	101324.9999999978
1.182432432432432 	300.0000000000312 	2.016141160151345e-11 	101324.9999999977
1.184934934934934 	299.9999999999998 	2.006333277234995e-11 	101324.9999999979
1.187437437437437 	299.9999999999804 	1.812496642451675e-11 	101324.9999999982
1.189939939939939 	299.9999999999728 	1.853589333122204e-11 	101324.9999999985
1.192442442442442 	299.9999999999383 	1.753471973410064e-11 	101324.9999999987
1.194944944944944 	299.9999999999433 	1.891114503238535e-11 	101324.9999999985
1.197447447447447 	299.9999999999941 	1.871885770243443e-11 	101324.9999999983
1.199949949949949 	300.000000000006 	1.96717144964599e-11 	101324.9999999981
1.202452452452452 	299.9999999999579 	2.132198018908367e-11 	101324.999999998
1.204954954954955 	299.9999999999491 	2.027661204023818e-11 	101324.9999999979
1.207457457457457 	299.9999999999772 	2.148485872131484e-11 	101324.999999998
1.20995995995996 	299.9999999999798 	2.051601057577416e-11 	101324.9999999981
1.212462462462462 	299.999999999993 	2.172856330941062e-11 	101324.9999999983
1.214964964964964 	299.9999999999934 	2.068073996072563e-11 	101324.9999999985
1.217467467467467 	299.999999999984 	2.169013913548272e-11 	101324.9999999986
1.219969969969969 	299.9999999999684 	2.091006295702219e-11 	101324.9999999987
1.222472472472472 	300.0000000000164 	2.12531080694536e-11 	101324.999999999
1.224974974974975 	300.0000000000446 	2.135038330940589e-11 	101324.9999999992
1.227477477477477 	299.9999999999956 	1.915983689518738e-11 	101324.9999999994
1.229979979979979 	299.9999999999802 	2.004393814075565e-11 	101324.9999999995
1.232482482482482 	299.9999999999584 	1.877331374590514e-11 	101324.9999999994
1.234984984984984 	299.9999999999621 	2.060557030378775e-11 	101324.9999999993
1.237487487487487 	299.999999999982 	1.970274635876811e-11 	101324.9999999992
1.239989989989989 	299.999999999981 	2.106161147189408e-11 	101324.9999999993
1.242492492492492 	300.0000000000109 	2.222793497859292e-11 	101324.9999999992
1.244994994994994 	299.9999999999811 	2.113238059418233e-11 	101324.9999999992
1.247497497497497 	299.9999999999881 	2.241249212570638e-11 	101324.9999999992
1.249999999999999 	300.0000000002394 	2.156297201293994e-11 	101324.9999999993
