-1.25 	334.2273552964344 	0.002101147550864702 	101325.0012566371
-1.247497497497497 	300.0257498526853 	0.001991426933332458 	101325.0152161292
-1.244994994994995 	300.0000150310959 	0.001743917913008272 	101325.0026102388
-1.242492492492492 	300.0000119505802 	0.001521572141404355 	101325.0141540313
-1.23998998998999 	300.0000030259008 	0.001320832400926958 	101325.0035524725
-1.237487487487487 	300.0000110839435 	0.001142660319349128 	101325.0131258373
-1.234984984984985 	300.0000038838899 	0.0009829395781186022 	101325.0045738422
-1.232482482482482 	300.0000104423831 	0.0008425204324053138 	101325.0123608085
-1.22997997997998 	300.0000047612339 	0.0007179937828520714 	101325.005616055
-1.227477477477477 	300.0000099749413 	0.0006103937216252527 	101325.0118033233
-1.224974974974975 	300.0000054305645 	0.0005149719861442614 	101325.0064109019
-1.222472472472472 	300.000009416592 	0.0004345715001132216 	101325.0111398426
-1.21996996996997 	300.0000059095946 	0.0003633884157097139 	101325.0069804696
-1.217467467467467 	300.0000090093703 	0.0003046541528809556 	101325.0106561327
-1.214964964964965 	300.0000063951804 	0.0002513815903017532 	101325.0075557561
-1.212462462462462 	300.0000086483747 	0.0002073645428286364 	101325.0102275341
-1.20995995995996 	300.0000065328443 	0.0001656505555997212 	101325.0077202937
-1.207457457457457 	300.0000087925406 	0.0001302975709124426 	101325.0103968874
-1.204954954954955 	300.0000068140869 	9.59587863101949e-05 	101325.0080537854
-1.202452452452452 	300.0000086843065 	6.99459780706652e-05 	101325.0102677004
-1.19994994994995 	300.0000069930533 	4.474949984956781e-05 	101325.0082660931
-1.197447447447447 	300.0000083213666 	2.781636273650587e-05 	101325.0098378774
-1.194944944944945 	300.0000072155842 	2.788735708549331e-05 	101325.0085300254
-1.192442442442442 	300.0000080207292 	1.969462720058262e-05 	101325.0094824182
-1.18993993993994 	300.0000077848887 	2.312126636367746e-05 	101325.0092034543
-1.187437437437437 	300.0000077849872 	2.253728361495979e-05 	101325.0092033228
-1.184934934934935 	300.00000774641 	2.245789154954549e-05 	101325.0091573515
-1.182432432432432 	300.0000077391559 	2.243525896588634e-05 	101325.009148562
-1.17992992992993 	300.0000077642113 	2.249131855809439e-05 	101325.0091782783
-1.177427427427427 	300.0000077812308 	2.25333168415118e-05 	101325.0091986937
-1.174924924924925 	300.0000077681295 	2.249344592004259e-05 	101325.0091834616
-1.172422422422422 	300.0000077210337 	2.236819695337652e-05 	101325.0091278669
-1.16991991991992 	300.0000076712887 	2.224704370070487e-05 	101325.0090689815
-1.167417417417417 	300.0000076780194 	2.227512802863232e-05 	101325.00907678
-1.164914914914915 	300.0000077630311 	2.250143990274636e-05 	101325.0091771513
-1.162412412412412 	300.0000078744952 	2.278904109145063e-05 	101325.009308904
-1.15990990990991 	300.0000079205676 	2.289655526927106e-05 	101325.0093634371
-1.157407407407407 	300.0000078365071 	2.266225516690145e-05 	101325.0092641441
-1.154904904904904 	300.0000076513769 	2.217622755261159e-05 	101325.0090453401
-1.152402402402403 	300.0000074975497 	2.178459570547446e-05 	101325.0088634983
-1.1498998998999 	300.00000750993 	2.181947018421966e-05 	101325.0088781013
-1.147397397397397 	300.0000076787635 	2.223962727731323e-05 	101325.0090776848
-1.144894894894895 	300.0000078241294 	2.258483321862405e-05 	101325.0092496032
-1.142392392392392 	300.0000077563452 	2.238393006639898e-05 	101325.0091695738
-1.13988988988989 	300.0000074735516 	2.164641214101631e-05 	101325.0088352872
-1.137387387387387 	300.0000071919909 	2.093614625178358e-05 	101325.0085023511
-1.134884884884885 	300.0000071768275 	2.093883666641418e-05 	101325.0084842955
-1.132382382382382 	300.0000075269654 	2.189717061546911e-05 	101325.0088981148
-1.12987987987988 	300.0000080771584 	2.336763815520891e-05 	101325.0095485536
-1.127377377377377 	300.0000084997711 	2.447404451802132e-05 	101325.0100482954
-1.124874874874875 	300.000008499482 	2.440786120368599e-05 	101325.0100481674
-1.122372372372372 	300.0000079424389 	2.279858487217552e-05 	101325.0093898549
-1.11986986986987 	300.0000068897857 	1.981380474068331e-05 	101325.0081455723
-1.117367367367367 	300.0000055505311 	1.602228469111705e-05 	101325.0065623644
-1.114864864864865 	300.0000041763358 	1.211115254963706e-05 	101325.004937759
-1.112362362362362 	300.0000029578471 	8.616412355455203e-06 	101325.0034971817
-1.10985985985986 	300.0000019855182 	5.808213008864787e-06 	101325.0023476114
-1.107357357357357 	300.0000012699809 	3.729670538456858e-06 	101325.0015016097
-1.104854854854855 	300.0000007772493 	2.291127284723754e-06 	101325.0009190193
-1.102352352352353 	300.0000004566951 	1.351043977952744e-06 	101325.0005400126
-1.09984984984985 	300.0000002583675 	7.669560097553368e-07 	101325.0003055085
-1.097347347347347 	300.0000001410729 	4.201484079406695e-07 	101325.0001668112
-1.094844844844845 	300.0000000744906 	2.225721619888926e-07 	101325.0000880862
-1.092342342342342 	300.0000000381058 	1.142255474969476e-07 	101325.0000450665
-1.08983983983984 	300.0000000189095 	5.6881831428471e-08 	101325.0000223745
-1.087337337337337 	300.0000000091171 	2.752498201168094e-08 	101325.0000107949
-1.084834834834835 	300.0000000042762 	1.295916793368164e-08 	101325.0000050674
-1.082332332332332 	300.0000000019572 	5.944115933366629e-09 	101325.0000023169
-1.07982982982983 	300.0000000008814 	2.658430058587461e-09 	101325.0000010325
-1.077327327327327 	300.00000000039 	1.161667083015987e-09 	101325.0000004488
-1.074824824824825 	300.0000000001618 	4.95284112732815e-10 	101325.0000001901
-1.072322322322323 	300.000000000067 	2.073682196535059e-10 	101325.0000000783
-1.06981981981982 	300.0000000000383 	8.488059947882527e-11 	101325.0000000312
-1.067317317317317 	300.0000000000103 	3.45556990411048e-11 	101325.0000000116
-1.064814814814815 	299.9999999999951 	1.397130604898024e-11 	101325.0000000036
-1.062312312312312 	299.9999999999952 	5.725876950741574e-12 	101325.0000000005
-1.05980980980981 	299.9999999999937 	3.053350741720713e-12 	101324.9999999992
-1.057307307307307 	299.9999999999821 	2.176046036534778e-12 	101324.9999999988
-1.054804804804805 	299.9999999999849 	1.913344676582441e-12 	101324.9999999988
-1.052302302302302 	299.9999999999925 	1.680230853283948e-12 	101324.9999999987
-1.0497997997998 	299.9999999999981 	1.576846384173294e-12 	101324.9999999987
-1.047297297297297 	300.0000000000086 	1.55002185558118e-12 	101324.9999999987
-1.044794794794795 	300.0000000000041 	1.463577272951179e-12 	101324.9999999985
-1.042292292292292 	300.000000000002 	1.346182256867162e-12 	101324.9999999985
-1.03978978978979 	299.9999999999961 	1.457377031894371e-12 	101324.9999999985
-1.037287287287287 	299.9999999999935 	1.364070960185646e-12 	101324.9999999985
-1.034784784784785 	299.9999999999992 	1.0968620897919e-12 	101324.9999999986
-1.032282282282283 	300.0000000000003 	9.252802430236498e-13 	101324.9999999987
-1.02977977977978 	299.999999999999 	9.899164464562402e-13 	101324.9999999987
-1.027277277277277 	299.999999999985 	7.459778065736453e-13 	101324.9999999987
-1.024774774774775 	299.9999999999839 	4.664407778020094e-13 	101324.9999999985
-1.022272272272272 	299.9999999999899 	4.396216298882132e-13 	101324.9999999984
-1.01976976976977 	299.9999999999897 	8.241591830485501e-13 	101324.9999999985
-1.017267267267267 	299.9999999999811 	6.032799664507399e-13 	101324.9999999986
-1.014764764764765 	299.999999999982 	8.625373524990375e-13 	101324.9999999986
-1.012262262262262 	299.9999999999891 	5.504330895048278e-13 	101324.9999999984
-1.00975975975976 	299.9999999999913 	1.304374153502777e-12 	101324.9999999985
-1.007257257257257 	299.9999999999902 	1.39266249861676e-12 	101324.9999999987
-1.004754754754755 	299.9999999999996 	1.112561709760926e-12 	101324.9999999986
-1.002252252252252 	299.999999999999 	6.216634109560936e-13 	101324.9999999986
-0.9997497497497498 	299.999999999996 	3.571277021309206e-13 	101324.9999999987
-0.9972472472472473 	299.9999999999974 	7.704888056356731e-13 	101324.9999999987
-0.9947447447447449 	299.9999999999891 	5.516908090023908e-13 	101324.9999999986
-0.9922422422422421 	299.999999999992 	7.11098014596538e-13 	101324.9999999985
-0.9897397397397399 	299.9999999999934 	8.272085715569512e-13 	101324.9999999984
-0.9872372372372376 	299.9999999999944 	1.070704608763662e-12 	101324.9999999984
-0.9847347347347346 	299.9999999999875 	1.053347518644759e-12 	101324.9999999984
-0.9822322322322323 	299.9999999999876 	1.139998446819357e-12 	101324.9999999983
-0.9797297297297296 	299.9999999999935 	8.279276485809455e-13 	101324.9999999983
-0.9772272272272275 	299.9999999999989 	6.944608561200107e-13 	101324.9999999984
-0.9747247247247248 	300.0000000000029 	1.080234878194591e-12 	101324.9999999986
-0.9722222222222224 	299.9999999999873 	1.153516069629631e-12 	101324.9999999987
-0.9697197197197196 	299.9999999999826 	1.203846361122068e-12 	101324.9999999988
-0.9672172172172175 	299.9999999999865 	8.421846364756503e-13 	101324.9999999987
-0.9647147147147147 	299.9999999999917 	5.078531643296391e-13 	101324.9999999987
-0.9622122122122124 	299.9999999999928 	6.453594251320341e-13 	101324.9999999986
-0.9597097097097099 	299.9999999999939 	6.385474104853068e-13 	101324.9999999986
-0.9572072072072073 	299.9999999999931 	4.443041635283913e-13 	101324.9999999986
-0.9547047047047047 	299.9999999999995 	2.573793060075539e-13 	101324.9999999985
-0.9522022022022023 	299.9999999999962 	8.087946167903186e-13 	101324.9999999985
-0.9496996996996998 	299.9999999999955 	7.561729775186971e-13 	101324.9999999985
-0.9471971971971973 	299.9999999999984 	1.552791061138998e-12 	101324.9999999984
-0.9446946946946947 	299.9999999999869 	1.194187578180451e-12 	101324.9999999984
-0.9421921921921923 	299.9999999999943 	1.04031942820339e-12 	101324.9999999982
-0.93968968968969 	299.9999999999984 	7.140212295856151e-13 	101324.9999999981
-0.9371871871871872 	299.999999999995 	4.066291556945672e-13 	101324.999999998
-0.9346846846846848 	299.9999999999885 	4.734211993732606e-13 	101324.999999998
-0.9321821821821823 	299.9999999999924 	7.890957150206049e-13 	101324.9999999979
-0.9296796796796799 	300.0000000000001 	6.259544164086082e-13 	101324.999999998
-0.9271771771771771 	299.9999999999966 	1.019900761407806e-12 	101324.999999998
-0.9246746746746748 	299.9999999999918 	7.7134622622762e-13 	101324.9999999981
-0.9221721721721724 	299.9999999999981 	1.491537780140702e-12 	101324.9999999983
-0.9196696696696698 	299.999999999998 	1.38153717522511e-12 	101324.9999999983
-0.9171671671671672 	299.9999999999882 	9.333766857543582e-13 	101324.9999999982
-0.9146646646646649 	299.9999999999963 	6.443657276504149e-13 	101324.9999999983
-0.9121621621621623 	300.000000000004 	5.488680006042159e-13 	101324.9999999983
-0.9096596596596597 	299.9999999999939 	3.770131657683106e-13 	101324.9999999983
-0.9071571571571573 	299.9999999999965 	3.671288003265004e-13 	101324.9999999981
-0.9046546546546547 	300.0000000000015 	4.378131072967218e-13 	101324.9999999979
-0.9021521521521524 	299.9999999999924 	9.066614555640047e-13 	101324.9999999977
-0.8996496496496498 	299.9999999999955 	8.499702770168222e-13 	101324.9999999976
-0.8971471471471473 	299.9999999999999 	8.093376884404073e-13 	101324.9999999977
-0.894644644644645 	299.9999999999999 	9.667606898871178e-13 	101324.9999999978
-0.892142142142142 	300.0000000000006 	1.255245081579555e-12 	101324.9999999982
-0.8896396396396397 	300.0000000000014 	2.496187674304508e-12 	101324.9999999983
-0.8871371371371374 	299.9999999999893 	1.58905463023405e-12 	101324.9999999982
-0.8846346346346349 	299.9999999999853 	2.382669061312719e-12 	101324.9999999982
-0.8821321321321324 	299.9999999999856 	1.55547725469744e-12 	101324.9999999979
-0.8796296296296297 	299.9999999999888 	2.239825795898482e-12 	101324.9999999977
-0.8771271271271271 	299.9999999999899 	1.482102624943834e-12 	101324.9999999976
-0.8746246246246248 	299.9999999999959 	2.263247467805537e-12 	101324.9999999974
-0.8721221221221224 	299.9999999999988 	1.498584190778833e-12 	101324.9999999974
-0.8696196196196196 	299.9999999999927 	1.896674121053308e-12 	101324.9999999974
-0.8671171171171175 	299.9999999999968 	1.299025697789556e-12 	101324.9999999975
-0.8646146146146148 	299.9999999999869 	1.23520124260746e-12 	101324.9999999975
-0.8621121121121121 	299.9999999999928 	7.054343193542174e-13 	101324.9999999976
-0.8596096096096097 	300.0000000000031 	1.604935624458848e-13 	101324.9999999977
-0.857107107107107 	299.9999999999916 	4.858377946543232e-13 	101324.9999999976
-0.8546046046046049 	299.9999999999952 	5.227971962524851e-13 	101324.9999999978
-0.8521021021021022 	299.9999999999995 	4.595133239720992e-13 	101324.9999999979
-0.8495995995995997 	299.9999999999978 	7.533813087298162e-13 	101324.999999998
-0.8470970970970974 	299.999999999986 	6.088750520658627e-13 	101324.9999999979
-0.8445945945945946 	299.9999999999902 	1.088325221632544e-12 	101324.9999999979
-0.8420920920920922 	300.0000000000003 	9.145679411821679e-13 	101324.9999999977
-0.8395895895895897 	299.9999999999973 	2.500768080929015e-12 	101324.9999999977
-0.8370870870870872 	299.9999999999991 	1.460913953910762e-12 	101324.9999999978
-0.8345845845845846 	300.0000000000018 	1.670461307878785e-12 	101324.9999999979
-0.8320820820820823 	299.9999999999877 	1.103393227991088e-12 	101324.999999998
-0.8295795795795798 	299.9999999999806 	6.808106655423322e-13 	101324.9999999979
-0.8270770770770772 	299.9999999999887 	9.674232331177776e-13 	101324.9999999979
-0.8245745745745746 	299.9999999999832 	7.363377896526637e-13 	101324.9999999978
-0.8220720720720721 	299.9999999999882 	1.011120390470085e-12 	101324.9999999978
-0.8195695695695699 	299.999999999997 	6.799917236740845e-13 	101324.999999998
-0.817067067067067 	299.9999999999885 	1.410444859975871e-12 	101324.9999999982
-0.8145645645645651 	299.999999999982 	1.43109648559578e-12 	101324.9999999982
-0.8120620620620621 	299.9999999999953 	9.956230396339088e-13 	101324.9999999981
-0.8095595595595597 	300 	6.33887797438754e-13 	101324.9999999982
-0.8070570570570572 	299.9999999999854 	2.959733461805844e-13 	101324.9999999983
-0.8045545545545546 	299.9999999999847 	3.280694978928375e-13 	101324.9999999983
-0.8020520520520523 	299.9999999999964 	9.245246597893734e-13 	101324.9999999982
-0.7995495495495494 	300.0000000000031 	1.967981398434552e-12 	101324.9999999983
-0.7970470470470474 	299.9999999999998 	1.680346694455211e-12 	101324.9999999982
-0.7945445445445446 	300.0000000000011 	1.854540600713537e-12 	101324.9999999979
-0.7920420420420423 	300.0000000000023 	1.586534685202557e-12 	101324.9999999978
-0.7895395395395397 	300.0000000000011 	2.095137094904858e-12 	101324.999999998
-0.7870370370370371 	300.0000000000002 	1.307678425266697e-12 	101324.9999999981
-0.7845345345345348 	299.9999999999926 	1.426810834803348e-12 	101324.9999999981
-0.7820320320320323 	299.9999999999948 	1.093390595667291e-12 	101324.9999999984
-0.7795295295295296 	299.9999999999825 	1.439595545379843e-12 	101324.9999999985
-0.7770270270270272 	299.999999999979 	1.739564765288815e-12 	101324.9999999983
-0.7745245245245247 	299.9999999999788 	1.687262418810653e-12 	101324.9999999981
-0.7720220220220222 	299.9999999999882 	9.23874216260444e-13 	101324.9999999979
-0.7695195195195199 	299.9999999999871 	9.443318570995524e-13 	101324.9999999979
-0.767017017017017 	299.9999999999943 	1.313577647919652e-12 	101324.9999999979
-0.7645145145145147 	300.0000000000023 	1.289130404492491e-12 	101324.9999999982
-0.7620120120120122 	300.0000000000034 	2.082514107879183e-12 	101324.9999999984
-0.7595095095095097 	299.999999999982 	2.064769656946629e-12 	101324.9999999984
-0.7570070070070072 	299.9999999999837 	3.627473520595136e-12 	101324.9999999984
-0.7545045045045048 	299.9999999999964 	2.859782073342266e-12 	101324.9999999983
-0.7520020020020022 	299.9999999999907 	3.092381548431092e-12 	101324.9999999984
-0.7494994994994997 	299.9999999999899 	2.177023221474516e-12 	101324.9999999983
-0.7469969969969972 	299.9999999999973 	1.710639533440404e-12 	101324.9999999984
-0.7444944944944945 	299.9999999999953 	6.662824462075988e-13 	101324.9999999984
-0.7419919919919924 	299.9999999999959 	1.16678884799816e-12 	101324.9999999984
-0.7394894894894897 	299.9999999999894 	1.70046504692116e-12 	101324.9999999983
-0.7369869869869872 	299.9999999999964 	1.751595097642992e-12 	101324.9999999982
-0.7344844844844846 	299.9999999999907 	2.84124860658184e-12 	101324.9999999981
-0.7319819819819822 	300.0000000000006 	1.779119327990155e-12 	101324.9999999981
-0.7294794794794797 	299.9999999999984 	3.112911299825823e-12 	101324.9999999981
-0.7269769769769773 	300.0000000000026 	2.032092225812964e-12 	101324.9999999981
-0.7244744744744747 	300.0000000000039 	1.796871157721914e-12 	101324.9999999983
-0.721971971971972 	299.9999999999889 	1.938484556459011e-12 	101324.9999999982
-0.7194694694694695 	299.9999999999953 	1.817048311907758e-12 	101324.9999999983
-0.7169669669669674 	299.9999999999843 	2.096543285735462e-12 	101324.9999999983
-0.7144644644644647 	299.999999999993 	2.635947211681953e-12 	101324.999999998
-0.711961961961962 	300.0000000000027 	2.77350653294419e-12 	101324.9999999977
-0.7094594594594597 	300.0000000000026 	1.714188971844189e-12 	101324.9999999978
-0.7069569569569573 	300.000000000004 	2.162105208433791e-12 	101324.9999999978
-0.7044544544544545 	300.0000000000056 	1.693446541006157e-12 	101324.9999999979
-0.7019519519519523 	300.0000000000024 	1.774115547395628e-12 	101324.999999998
-0.6994494494494495 	299.9999999999828 	2.239855096390985e-12 	101324.999999998
-0.6969469469469471 	299.9999999999866 	2.450976540261062e-12 	101324.9999999981
-0.6944444444444446 	299.9999999999914 	2.264608216741166e-12 	101324.9999999982
-0.6919419419419421 	300.0000000000057 	1.896098293257554e-12 	101324.9999999983
-0.6894394394394396 	299.9999999999978 	1.333980467825722e-12 	101324.9999999986
-0.6869369369369374 	300.0000000000021 	1.347987002557398e-12 	101324.9999999986
-0.6844344344344344 	300.0000000000055 	6.457002190935012e-13 	101324.9999999983
-0.6819319319319321 	299.9999999999933 	8.777530603326301e-13 	101324.9999999982
-0.6794294294294296 	299.9999999999886 	4.639914694168244e-13 	101324.9999999983
-0.6769269269269272 	299.999999999981 	7.690208059733623e-13 	101324.9999999985
-0.6744244244244245 	299.9999999999923 	1.014410760978607e-12 	101324.9999999984
-0.6719219219219222 	299.9999999999917 	9.88873722628651e-13 	101324.9999999983
-0.6694194194194195 	299.9999999999999 	1.119991100213462e-12 	101324.9999999984
-0.6669169169169172 	300.000000000004 	6.062566164486977e-13 	101324.9999999986
-0.6644144144144146 	299.9999999999904 	4.544518564325419e-13 	101324.9999999985
-0.661911911911912 	299.9999999999909 	5.015700718329584e-13 	101324.9999999986
-0.6594094094094097 	299.9999999999942 	9.658712649481395e-13 	101324.9999999987
-0.656906906906907 	299.9999999999851 	1.029963443963957e-12 	101324.9999999986
-0.6544044044044046 	299.9999999999862 	1.467708218452202e-12 	101324.9999999984
-0.6519019019019021 	299.9999999999985 	1.068041940808192e-12 	101324.9999999983
-0.6493993993993996 	300.000000000006 	1.674877073848787e-12 	101324.9999999982
-0.6468968968968971 	300.0000000000073 	1.244995765109055e-12 	101324.999999998
-0.6443943943943946 	299.9999999999981 	1.332839185939584e-12 	101324.999999998
-0.6418918918918921 	299.9999999999991 	6.568874299519911e-13 	101324.9999999982
-0.6393893893893897 	299.999999999999 	5.227559069562135e-13 	101324.9999999983
-0.6368868868868871 	299.9999999999931 	5.285625276071569e-13 	101324.9999999983
-0.6343843843843846 	300.0000000000003 	5.658926044939086e-13 	101324.9999999983
-0.6318818818818821 	299.9999999999918 	6.163101526670667e-13 	101324.9999999982
-0.6293793793793795 	300.000000000002 	4.579283855690562e-13 	101324.9999999985
-0.6268768768768773 	300.0000000000057 	3.333268578213421e-13 	101324.9999999987
-0.6243743743743745 	299.9999999999944 	6.820560804123552e-13 	101324.9999999985
-0.6218718718718721 	300.0000000000009 	7.43179517749721e-13 	101324.9999999983
-0.6193693693693696 	299.9999999999866 	9.176372841856741e-13 	101324.9999999984
-0.6168668668668671 	299.9999999999964 	6.282819082778859e-13 	101324.9999999983
-0.6143643643643645 	300.000000000002 	9.434650103846069e-13 	101324.9999999981
-0.6118618618618621 	299.999999999994 	4.620874805182011e-13 	101324.9999999982
-0.6093593593593596 	299.9999999999942 	4.067775663369858e-13 	101324.9999999983
-0.6068568568568571 	299.9999999999949 	8.45284015383721e-13 	101324.9999999983
-0.6043543543543546 	299.9999999999893 	1.083233774365139e-12 	101324.9999999984
-0.6018518518518521 	299.9999999999919 	1.117804194842459e-12 	101324.9999999982
-0.5993493493493496 	299.9999999999853 	9.21570095803271e-13 	101324.9999999982
-0.5968468468468471 	299.9999999999879 	8.798302836520157e-13 	101324.9999999981
-0.5943443443443446 	299.9999999999973 	1.196357091724557e-12 	101324.9999999982
-0.591841841841842 	299.9999999999897 	7.560284666884508e-13 	101324.9999999983
-0.5893393393393397 	299.9999999999894 	9.350499797196086e-13 	101324.9999999983
-0.5868368368368371 	299.9999999999986 	8.164784316320004e-13 	101324.9999999981
-0.5843343343343346 	300.0000000000002 	1.205561650852836e-12 	101324.9999999983
-0.5818318318318321 	300.0000000000049 	1.497877430072467e-12 	101324.9999999984
-0.5793293293293297 	299.9999999999956 	9.633083747600778e-13 	101324.9999999984
-0.5768268268268271 	300.0000000000009 	1.068046167143275e-12 	101324.9999999984
-0.5743243243243245 	300.0000000000047 	1.025026701933442e-12 	101324.9999999983
-0.5718218218218221 	300.0000000000041 	8.251490346724208e-13 	101324.9999999982
-0.5693193193193196 	300.0000000000092 	7.057644890137572e-13 	101324.9999999984
-0.5668168168168171 	299.9999999999962 	1.450825784122646e-12 	101324.9999999985
-0.5643143143143147 	299.999999999987 	9.86758299063166e-13 	101324.9999999985
-0.5618118118118121 	300.0000000000036 	1.843819966237748e-12 	101324.9999999987
-0.5593093093093094 	300.0000000000082 	1.109567083495628e-12 	101324.9999999985
-0.5568068068068072 	300.0000000000043 	1.337100567331149e-12 	101324.9999999984
-0.5543043043043046 	300.0000000000053 	1.119476213674239e-12 	101324.9999999983
-0.551801801801802 	299.9999999999911 	1.125470043690626e-12 	101324.9999999983
-0.5492992992992995 	300.0000000000009 	8.689610312883604e-13 	101324.9999999983
-0.5467967967967969 	300.0000000000045 	1.198187274001626e-12 	101324.9999999984
-0.5442942942942947 	300.0000000000001 	1.504254389274507e-12 	101324.9999999983
-0.5417917917917919 	299.9999999999899 	1.59345219600272e-12 	101324.9999999985
-0.5392892892892895 	299.999999999986 	1.080669047613563e-12 	101324.9999999985
-0.536786786786787 	299.9999999999905 	1.050750951941081e-12 	101324.9999999984
-0.5342842842842846 	299.999999999991 	9.709352745454616e-13 	101324.9999999983
-0.531781781781782 	299.9999999999836 	1.044563606121246e-12 	101324.9999999983
-0.5292792792792794 	299.9999999999825 	5.365288243330368e-13 	101324.9999999985
-0.526776776776777 	299.9999999999794 	1.590607523844672e-12 	101324.9999999987
-0.5242742742742745 	299.9999999999931 	1.218399363699714e-12 	101324.9999999987
-0.521771771771772 	300.0000000000031 	2.075432122067635e-12 	101324.9999999988
-0.5192692692692695 	299.9999999999897 	1.596615480758372e-12 	101324.9999999988
-0.516766766766767 	299.9999999999991 	2.256961556927775e-12 	101324.9999999986
-0.5142642642642645 	299.9999999999928 	1.409860241973259e-12 	101324.9999999985
-0.511761761761762 	299.9999999999893 	1.364310774867458e-12 	101324.9999999985
-0.5092592592592596 	299.9999999999953 	8.895800198577004e-13 	101324.9999999985
-0.506756756756757 	299.99999999999 	1.193189150817744e-12 	101324.9999999984
-0.5042542542542544 	299.9999999999976 	5.915903087723557e-13 	101324.9999999985
-0.5017517517517521 	300.0000000000052 	1.340027169437519e-12 	101324.9999999985
-0.4992492492492494 	300.0000000000063 	1.051738260466527e-12 	101324.9999999985
-0.496746746746747 	299.9999999999964 	8.903132267661942e-13 	101324.9999999985
-0.4942442442442445 	299.999999999986 	4.214101009891926e-13 	101324.9999999985
-0.4917417417417421 	299.9999999999864 	3.07169973983959e-13 	101324.9999999984
-0.4892392392392395 	299.9999999999883 	3.207099066937074e-13 	101324.9999999984
-0.486736736736737 	299.9999999999876 	1.557953533419264e-13 	101324.9999999985
-0.4842342342342345 	299.999999999983 	7.767168779911806e-13 	101324.9999999986
-0.481731731731732 	300.0000000000094 	3.264273947356476e-13 	101324.9999999987
-0.4792292292292296 	300.0000000000066 	8.19933550526399e-13 	101324.9999999987
-0.4767267267267268 	299.9999999999927 	1.296223462353156e-12 	101324.9999999988
-0.4742242242242246 	300.0000000000011 	1.560472113160359e-12 	101324.9999999987
-0.471721721721722 	299.9999999999898 	3.367085856740589e-13 	101324.9999999985
-0.4692192192192195 	299.9999999999955 	1.587508820685051e-12 	101324.9999999985
-0.4667167167167169 	299.9999999999807 	1.123447377508634e-12 	101324.9999999986
-0.4642142142142145 	300.0000000000014 	1.436703098279142e-12 	101324.9999999986
-0.461711711711712 	300.0000000000068 	7.955187461310597e-13 	101324.9999999986
-0.4592092092092094 	300.0000000000017 	1.024243881498803e-12 	101324.9999999986
-0.456706706706707 	300.0000000000105 	3.177403456820744e-13 	101324.9999999986
-0.4542042042042045 	299.9999999999858 	3.683787075099151e-14 	101324.9999999986
-0.451701701701702 	299.9999999999897 	3.536643463416106e-14 	101324.9999999986
-0.4491991991991995 	299.9999999999919 	1.665934174813554e-13 	101324.9999999986
-0.4466966966966969 	299.9999999999894 	2.117250242272027e-13 	101324.9999999988
-0.4441941941941945 	299.9999999999978 	6.15390334345049e-13 	101324.9999999989
-0.441691691691692 	299.9999999999907 	6.968046311979337e-13 	101324.9999999988
-0.4391891891891895 	299.9999999999964 	1.075932183211953e-12 	101324.9999999986
-0.436686686686687 	299.9999999999918 	8.573640166396205e-13 	101324.9999999983
-0.4341841841841846 	299.9999999999994 	2.369701936580564e-12 	101324.9999999982
-0.431681681681682 	299.9999999999898 	5.424823788016551e-13 	101324.9999999984
-0.4291791791791794 	299.9999999999833 	1.461048058074846e-12 	101324.9999999983
-0.426676676676677 	299.9999999999828 	1.005531439256038e-12 	101324.9999999981
-0.4241741741741744 	299.9999999999928 	1.889193799059693e-12 	101324.9999999984
-0.421671671671672 	300.000000000001 	1.478967799694995e-12 	101324.9999999983
-0.4191691691691694 	300.0000000000099 	1.581020703318252e-12 	101324.9999999983
-0.4166666666666669 	300.0000000000124 	1.658753468474325e-12 	101324.9999999984
-0.4141641641641645 	299.9999999999883 	1.967965344208168e-12 	101324.9999999986
-0.411661661661662 	300.0000000000015 	2.674512445060089e-12 	101324.9999999987
-0.4091591591591594 	300.0000000000032 	1.969325680538082e-12 	101324.9999999989
-0.406656656656657 	299.9999999999909 	2.294554754026395e-12 	101324.9999999988
-0.4041541541541545 	300.0000000000024 	2.337361240133022e-12 	101324.9999999989
-0.401651651651652 	299.9999999999842 	2.571502601582865e-12 	101324.9999999989
-0.3991491491491494 	300.0000000000005 	4.063293344375268e-12 	101324.9999999989
-0.396646646646647 	299.9999999999908 	1.866360769046927e-12 	101324.9999999989
-0.3941441441441444 	299.9999999999959 	3.135625250287988e-12 	101324.9999999989
-0.3916416416416419 	299.9999999999844 	8.308700398778269e-13 	101324.9999999987
-0.3891391391391395 	299.9999999999922 	1.534470275488919e-12 	101324.9999999984
-0.3866366366366368 	299.9999999999918 	3.844387877918329e-13 	101324.9999999983
-0.3841341341341344 	299.9999999999995 	7.075114487239341e-13 	101324.9999999984
-0.381631631631632 	299.9999999999895 	8.128161211500693e-13 	101324.9999999986
-0.3791291291291294 	300.000000000001 	1.035032679299954e-12 	101324.9999999987
-0.3766266266266269 	300.0000000000047 	1.575425760466708e-12 	101324.9999999988
-0.3741241241241244 	300.0000000000045 	1.347117182097854e-12 	101324.9999999986
-0.371621621621622 	300.000000000004 	2.405017707571796e-12 	101324.9999999986
-0.3691191191191194 	300.0000000000015 	6.00039451908279e-13 	101324.9999999989
-0.366616616616617 	300.0000000000019 	2.245808007987486e-12 	101324.9999999989
-0.3641141141141143 	299.9999999999941 	8.241118786921197e-13 	101324.9999999989
-0.3616116116116119 	299.9999999999864 	1.443664756102682e-12 	101324.9999999986
-0.3591091091091095 	299.9999999999952 	4.412766504435862e-13 	101324.9999999985
-0.356606606606607 	299.9999999999958 	8.261988028749066e-13 	101324.9999999985
-0.3541041041041044 	299.9999999999995 	9.139688345801422e-13 	101324.9999999985
-0.3516016016016019 	300.0000000000045 	3.378220195207513e-13 	101324.9999999986
-0.3490990990990994 	299.9999999999991 	1.159597797413055e-12 	101324.9999999988
-0.346596596596597 	300.000000000007 	3.399626104905455e-13 	101324.9999999986
-0.3440940940940944 	300.0000000000077 	5.608964551491892e-13 	101324.9999999984
-0.3415915915915919 	300.0000000000055 	9.315757573688425e-13 	101324.9999999985
-0.3390890890890895 	299.9999999999959 	2.620201481590377e-13 	101324.9999999984
-0.3365865865865869 	300.0000000000037 	4.286666302084173e-13 	101324.9999999984
-0.3340840840840844 	299.9999999999973 	2.130471064621473e-13 	101324.9999999987
-0.3315815815815819 	300.0000000000051 	5.361837088749828e-14 	101324.9999999987
-0.3290790790790794 	300.0000000000061 	7.570693928109517e-13 	101324.9999999989
-0.3265765765765769 	299.9999999999863 	1.086100892760134e-12 	101324.9999999987
-0.3240740740740744 	300.0000000000016 	9.154953002153416e-13 	101324.9999999986
-0.3215715715715718 	300.0000000000054 	1.118754433389717e-12 	101324.9999999986
-0.3190690690690695 	299.999999999989 	4.380904833424306e-13 	101324.9999999985
-0.3165665665665668 	299.9999999999978 	4.260369128966444e-14 	101324.9999999986
-0.3140640640640644 	299.9999999999994 	4.297094580788543e-13 	101324.9999999986
-0.311561561561562 	299.9999999999866 	5.098191168117858e-13 	101324.9999999987
-0.3090590590590593 	299.9999999999989 	1.223923048948838e-12 	101324.9999999985
-0.3065565565565568 	300.0000000000006 	1.317443162035688e-12 	101324.9999999987
-0.3040540540540545 	299.9999999999993 	1.312352171427865e-12 	101324.9999999984
-0.3015515515515518 	300.0000000000062 	1.722813084904155e-12 	101324.9999999983
-0.2990490490490494 	299.9999999999848 	7.233131817541433e-13 	101324.9999999986
-0.2965465465465469 	300.0000000000003 	1.405129507949451e-12 	101324.9999999987
-0.2940440440440444 	299.9999999999991 	1.524440586797817e-12 	101324.9999999989
-0.2915415415415418 	300.0000000000033 	1.764932176411007e-12 	101324.9999999989
-0.2890390390390395 	300.0000000000039 	2.012661793611215e-12 	101324.999999999
-0.2865365365365368 	299.9999999999936 	1.043792101489955e-12 	101324.9999999991
-0.2840340340340343 	299.9999999999978 	1.872683879444395e-12 	101324.9999999991
-0.2815315315315318 	299.9999999999831 	6.977723556667354e-13 	101324.9999999991
-0.2790290290290295 	299.9999999999937 	1.439627329994792e-12 	101324.9999999987
-0.2765265265265269 	300.0000000000013 	7.554812534854881e-13 	101324.9999999983
-0.2740240240240244 	300.0000000000045 	1.051174368751271e-12 	101324.9999999983
-0.2715215215215219 	300.0000000000049 	1.297947634964219e-12 	101324.9999999983
-0.2690190190190194 	299.9999999999848 	1.097770507086282e-12 	101324.9999999985
-0.2665165165165169 	299.999999999998 	1.443374027201739e-12 	101324.9999999986
-0.2640140140140144 	299.9999999999995 	1.361288139397718e-12 	101324.9999999983
-0.2615115115115119 	299.999999999999 	2.446776764570638e-12 	101324.9999999983
-0.2590090090090094 	299.999999999982 	1.837992890838113e-12 	101324.9999999983
-0.2565065065065068 	299.9999999999944 	2.011200084169168e-12 	101324.9999999982
-0.2540040040040044 	299.9999999999948 	1.797280687777551e-12 	101324.9999999985
-0.2515015015015019 	300.0000000000044 	1.752259325515742e-12 	101324.9999999987
-0.2489989989989994 	300.0000000000076 	2.305675301772823e-12 	101324.9999999988
-0.2464964964964968 	299.9999999999937 	1.441089586882693e-12 	101324.9999999989
-0.2439939939939944 	299.9999999999961 	2.961179125235148e-12 	101324.9999999988
-0.2414914914914919 	299.9999999999903 	1.978937724571664e-12 	101324.9999999989
-0.2389889889889893 	299.999999999996 	3.266758719154058e-12 	101324.9999999988
-0.2364864864864869 	300.0000000000083 	2.148953320705036e-12 	101324.9999999984
-0.2339839839839843 	299.9999999999906 	3.552659274016109e-12 	101324.9999999983
-0.2314814814814819 	299.9999999999919 	1.636592231169345e-12 	101324.9999999981
-0.2289789789789792 	299.9999999999811 	2.050977548578848e-12 	101324.999999998
-0.2264764764764769 	299.9999999999874 	1.195699021967508e-12 	101324.9999999981
-0.2239739739739743 	299.9999999999969 	1.776846988408569e-12 	101324.9999999985
-0.2214714714714718 	299.9999999999851 	1.44782448953479e-12 	101324.9999999985
-0.2189689689689693 	299.9999999999927 	5.091528762991013e-13 	101324.9999999989
-0.2164664664664669 	299.9999999999937 	1.512429645578771e-12 	101324.9999999986
-0.2139639639639643 	299.9999999999828 	3.244087183474856e-13 	101324.9999999987
-0.2114614614614618 	299.9999999999943 	5.394944622698923e-13 	101324.9999999986
-0.2089589589589593 	300.000000000002 	3.392178800695283e-13 	101324.9999999986
-0.2064564564564568 	300.0000000000007 	4.537258868857392e-13 	101324.9999999984
-0.2039539539539543 	299.9999999999842 	9.692244404291632e-13 	101324.9999999984
-0.2014514514514518 	299.9999999999794 	7.207279813407041e-13 	101324.9999999984
-0.1989489489489494 	299.9999999999946 	2.158319433783414e-12 	101324.9999999985
-0.1964464464464468 	300.0000000000027 	9.212035612696954e-13 	101324.9999999984
-0.1939439439439443 	300.0000000000021 	2.085372876164024e-12 	101324.9999999984
-0.1914414414414418 	299.999999999989 	1.042425946171111e-12 	101324.9999999983
-0.1889389389389393 	299.9999999999976 	1.053112371900018e-12 	101324.9999999981
-0.1864364364364368 	300.0000000000039 	1.44449730472449e-12 	101324.9999999979
-0.1839339339339343 	299.9999999999973 	1.728037494726776e-12 	101324.9999999979
-0.1814314314314318 	299.999999999996 	1.7316096816616e-12 	101324.9999999979
-0.1789289289289293 	299.9999999999806 	1.152031504575614e-12 	101324.999999998
-0.1764264264264268 	299.9999999999907 	9.638332366303704e-13 	101324.9999999979
-0.1739239239239243 	299.9999999999784 	6.819116481345412e-13 	101324.9999999982
-0.1714214214214218 	299.9999999999979 	3.364396517153385e-13 	101324.9999999982
-0.1689189189189193 	299.9999999999852 	2.372691816619954e-13 	101324.9999999981
-0.1664164164164168 	299.9999999999972 	1.082293146631074e-12 	101324.9999999979
-0.1639139139139143 	299.9999999999979 	8.958705224118091e-13 	101324.9999999978
-0.1614114114114118 	300.000000000001 	7.68383458314517e-13 	101324.9999999977
-0.1589089089089093 	300.0000000000007 	3.122998502917285e-12 	101324.9999999976
-0.1564064064064068 	299.9999999999917 	2.097029952961682e-13 	101324.9999999976
-0.1539039039039043 	300.0000000000023 	4.113238668246436e-12 	101324.9999999979
-0.1514014014014018 	300.0000000000043 	9.036410906692369e-13 	101324.999999998
-0.1488988988988993 	300.0000000000044 	3.447034850152004e-12 	101324.9999999982
-0.1463963963963968 	300.0000000000031 	1.202446881371303e-12 	101324.9999999981
-0.1438938938938943 	299.9999999999981 	3.121381298134481e-12 	101324.9999999981
-0.1413913913913918 	299.9999999999835 	1.085602877411721e-12 	101324.9999999978
-0.1388888888888893 	299.9999999999901 	1.704779221753636e-12 	101324.9999999976
-0.1363863863863868 	299.999999999976 	1.569599484384281e-12 	101324.9999999974
-0.1338838838838843 	299.9999999999875 	1.629351772830835e-12 	101324.9999999973
-0.1313813813813818 	299.9999999999969 	1.640862433789506e-12 	101324.9999999974
-0.1288788788788793 	299.9999999999869 	1.663284050065699e-12 	101324.9999999973
-0.1263763763763768 	299.9999999999941 	1.293846435154294e-12 	101324.9999999972
-0.1238738738738743 	299.9999999999874 	1.72425940132091e-12 	101324.9999999971
-0.1213713713713717 	300 	8.81155940478609e-13 	101324.9999999972
-0.1188688688688693 	300.0000000000062 	1.470019374188125e-12 	101324.9999999974
-0.1163663663663668 	299.999999999977 	8.642568297345032e-14 	101324.9999999974
-0.1138638638638643 	299.9999999999981 	1.283534824795784e-12 	101324.9999999975
-0.1113613613613618 	299.9999999999995 	2.513980197848167e-13 	101324.9999999973
-0.1088588588588592 	299.9999999999998 	2.343412829142844e-12 	101324.9999999973
-0.1063563563563568 	299.999999999992 	5.176362223767969e-13 	101324.9999999974
-0.1038538538538543 	299.9999999999988 	1.801180185160182e-12 	101324.9999999975
-0.1013513513513517 	299.9999999999993 	1.017765028570041e-12 	101324.9999999972
-0.09884884884884926 	299.9999999999906 	1.534454690288616e-12 	101324.9999999971
-0.09634634634634676 	299.9999999999798 	6.189820748192294e-13 	101324.9999999967
-0.09384384384384425 	299.9999999999795 	4.035346439824853e-13 	101324.9999999968
-0.09134134134134177 	300.0000000000006 	1.459017288324001e-13 	101324.9999999966
-0.08883883883883925 	300.0000000000007 	5.367456286861101e-13 	101324.9999999966
-0.08633633633633674 	299.9999999999878 	1.118860745437526e-12 	101324.9999999967
-0.08383383383383426 	299.9999999999994 	1.68966763603228e-12 	101324.9999999968
-0.08133133133133173 	299.9999999999916 	2.549992045102971e-12 	101324.9999999972
-0.07882882882882926 	299.9999999999745 	1.48667386883929e-12 	101324.9999999972
-0.07632632632632676 	299.9999999999947 	1.187057110013642e-12 	101324.9999999973
-0.07382382382382424 	299.9999999999754 	1.226555622803569e-12 	101324.9999999972
-0.07132132132132173 	300.0000000000001 	1.438635126545507e-12 	101324.9999999974
-0.06881881881881925 	299.9999999999872 	1.562204114591499e-12 	101324.9999999974
-0.06631631631631671 	299.9999999999749 	1.191278973228764e-12 	101324.9999999973
-0.06381381381381425 	299.999999999989 	1.440826258169617e-12 	101324.9999999973
-0.06131131131131173 	299.9999999999895 	2.322588614089582e-12 	101324.9999999975
-0.05880880880880923 	299.9999999999837 	2.291852825166237e-12 	101324.9999999974
-0.05630630630630672 	299.9999999999909 	2.005351208153578e-12 	101324.9999999973
-0.05380380380380424 	300.0000000000049 	1.739739011556129e-12 	101324.9999999974
-0.05130130130130173 	300.0000000000011 	2.008301007110888e-12 	101324.9999999971
-0.04879879879879922 	299.9999999999835 	1.855457612723443e-12 	101324.9999999972
-0.04629629629629672 	299.9999999999865 	8.800175039114316e-13 	101324.9999999972
-0.04379379379379422 	299.999999999981 	4.738476673757061e-13 	101324.9999999974
-0.04129129129129173 	299.9999999999949 	3.641092844258154e-13 	101324.9999999976
-0.03878878878878922 	299.9999999999986 	4.486931515467742e-13 	101324.9999999974
-0.03628628628628671 	299.9999999999961 	9.927421160606566e-13 	101324.9999999974
-0.03378378378378422 	299.9999999999867 	1.503259121348872e-12 	101324.9999999973
-0.03128128128128172 	299.9999999999924 	9.737232241013132e-13 	101324.9999999972
-0.02877877877877922 	299.9999999999917 	1.113693765981708e-12 	101324.9999999971
-0.0262762762762767 	299.9999999999763 	1.161580382161444e-12 	101324.9999999971
-0.02377377377377422 	300.0000000000015 	9.619641674111386e-13 	101324.9999999969
-0.0212712712712717 	299.9999999999771 	9.511440476738668e-13 	101324.9999999969
-0.01876876876876921 	299.9999999999934 	6.66869186879965e-14 	101324.9999999968
-0.01626626626626671 	299.9999999999987 	7.098895760783122e-13 	101324.9999999968
-0.0137637637637642 	299.9999999999887 	3.686247392287137e-13 	101324.9999999966
-0.0112612612612617 	299.9999999999994 	3.484711852626333e-13 	101324.9999999964
-0.008758758758759198 	299.9999999999981 	3.176699172955355e-14 	101324.9999999965
-0.006256256256256697 	299.9999999999728 	4.697280081695245e-14 	101324.9999999966
-0.003753753753754195 	299.9999999999867 	4.190041239430169e-13 	101324.9999999969
-0.001251251251251693 	299.9999999999828 	2.250704836372196e-13 	101324.999999997
0.00125125125125081 	299.9999999999878 	7.992345395755066e-14 	101324.9999999969
0.003753753753753312 	299.9999999999885 	3.059433770710751e-13 	101324.9999999968
0.006256256256255817 	299.9999999999733 	8.776175320430976e-14 	101324.9999999966
0.008758758758758317 	299.9999999999947 	4.08656813607248e-14 	101324.9999999967
0.01126126126126082 	300.0000000000002 	3.233621684942519e-13 	101324.9999999968
0.01376376376376332 	299.9999999999911 	4.119687640814416e-13 	101324.9999999968
0.01626626626626582 	300.0000000000015 	7.851407274553641e-15 	101324.999999997
0.01876876876876833 	299.9999999999874 	1.103803583568036e-13 	101324.9999999971
0.02127127127127083 	299.9999999999937 	4.796073333192706e-13 	101324.9999999972
0.02377377377377332 	299.9999999999959 	3.936181564599441e-13 	101324.9999999971
0.02627627627627583 	299.9999999999799 	9.697777071010501e-13 	101324.999999997
0.02877877877877833 	299.9999999999983 	7.911571901931765e-13 	101324.9999999969
0.03128128128128083 	299.9999999999892 	7.543394015832052e-14 	101324.9999999968
0.03378378378378333 	299.9999999999768 	8.684003798562975e-14 	101324.9999999966
0.03628628628628584 	299.9999999999954 	1.557332992777521e-13 	101324.9999999966
0.03878878878878834 	299.9999999999998 	5.374840309856029e-14 	101324.9999999968
0.04129129129129084 	299.9999999999907 	7.680218325513051e-13 	101324.9999999969
0.04379379379379333 	299.9999999999849 	1.322057064155296e-12 	101324.9999999971
0.04629629629629585 	299.9999999999748 	1.743837209724262e-12 	101324.9999999974
0.04879879879879834 	299.9999999999888 	2.090216457898578e-12 	101324.9999999975
0.05130130130130085 	299.9999999999995 	1.784271333657367e-12 	101324.9999999975
0.05380380380380335 	300.0000000000078 	1.12221659492304e-12 	101324.9999999975
0.05630630630630584 	299.999999999996 	1.227226681495074e-12 	101324.9999999973
0.05880880880880836 	299.9999999999857 	1.473071532821258e-12 	101324.9999999973
0.06131131131131085 	299.9999999999955 	1.147380590301025e-12 	101324.9999999972
0.06381381381381336 	299.999999999988 	6.266940313321088e-14 	101324.9999999971
0.06631631631631586 	299.9999999999739 	2.040845200037331e-13 	101324.9999999971
0.06881881881881835 	299.9999999999882 	1.789714674762648e-13 	101324.9999999969
0.07132132132132088 	300.0000000000028 	7.996491121527041e-13 	101324.9999999971
0.07382382382382337 	299.9999999999765 	1.174349685546945e-12 	101324.9999999971
0.07632632632632587 	299.9999999999908 	6.110045561382894e-13 	101324.9999999971
0.07882882882882837 	299.9999999999837 	6.281507957019602e-14 	101324.9999999971
0.08133133133133086 	299.9999999999977 	1.129707951379368e-12 	101324.999999997
0.08383383383383337 	300.0000000000052 	1.085687886672103e-12 	101324.999999997
0.08633633633633589 	299.9999999999781 	1.753069736194346e-12 	101324.9999999972
0.08883883883883838 	300.0000000000019 	2.52956944186446e-12 	101324.9999999972
0.09134134134134086 	299.9999999999978 	2.110222565633707e-12 	101324.9999999973
0.09384384384384339 	299.9999999999814 	2.492669087728906e-12 	101324.9999999973
0.09634634634634588 	299.9999999999933 	2.530259306364885e-12 	101324.9999999975
0.09884884884884838 	299.9999999999947 	2.549736849204362e-12 	101324.9999999974
0.1013513513513509 	300.0000000000076 	2.593327958691387e-12 	101324.9999999973
0.1038538538538534 	299.9999999999854 	2.235011260656664e-12 	101324.9999999975
0.1063563563563559 	300.0000000000003 	2.456055504867897e-12 	101324.9999999974
0.1088588588588584 	300.0000000000001 	1.816337448078645e-12 	101324.9999999973
0.1113613613613609 	299.9999999999895 	2.050610623001808e-12 	101324.9999999976
0.1138638638638634 	299.9999999999887 	2.120496158027114e-12 	101324.9999999975
0.1163663663663659 	299.9999999999855 	1.549857173629863e-12 	101324.9999999976
0.1188688688688684 	299.9999999999904 	1.34213245726239e-12 	101324.9999999973
0.1213713713713709 	299.9999999999947 	1.346573361050632e-12 	101324.9999999974
0.1238738738738734 	299.9999999999803 	1.814304304855851e-12 	101324.9999999975
0.1263763763763759 	300.0000000000014 	2.285875070448693e-12 	101324.9999999976
0.1288788788788784 	299.9999999999993 	1.518122091641292e-12 	101324.9999999975
0.1313813813813809 	299.9999999999972 	1.711660713756428e-12 	101324.9999999974
0.1338838838838834 	299.9999999999889 	1.778392901516199e-12 	101324.9999999975
0.1363863863863859 	300.0000000000054 	1.676084762508952e-12 	101324.9999999976
0.1388888888888884 	300.0000000000063 	8.17041969607454e-13 	101324.9999999976
0.1413913913913909 	299.9999999999999 	2.868704133115646e-13 	101324.9999999976
0.1438938938938934 	299.9999999999953 	4.385367871536476e-13 	101324.9999999975
0.1463963963963959 	299.999999999991 	1.01408814094873e-12 	101324.9999999978
0.1488988988988985 	299.9999999999817 	1.384253383649844e-12 	101324.9999999978
0.1514014014014009 	299.9999999999922 	1.565569838150088e-12 	101324.9999999981
0.1539039039039035 	299.9999999999897 	2.396901502228452e-12 	101324.9999999978
0.1564064064064059 	299.9999999999919 	1.577292344421854e-12 	101324.9999999977
0.1589089089089084 	299.999999999992 	3.656590288014279e-12 	101324.9999999979
0.1614114114114109 	299.999999999991 	2.269713257207059e-12 	101324.999999998
0.1639139139139134 	299.9999999999844 	2.712689509154342e-12 	101324.9999999981
0.166416416416416 	299.999999999997 	2.081480558437456e-12 	101324.999999998
0.1689189189189185 	300.0000000000072 	1.364556290478425e-12 	101324.9999999978
0.1714214214214209 	300.0000000000013 	1.113200975489348e-12 	101324.9999999976
0.1739239239239235 	299.999999999999 	4.955981472812871e-13 	101324.9999999975
0.1764264264264259 	299.9999999999872 	1.279078542016361e-12 	101324.9999999975
0.1789289289289284 	300.0000000000023 	5.811430387228877e-13 	101324.9999999976
0.181431431431431 	299.9999999999939 	2.02803303673647e-12 	101324.9999999978
0.1839339339339334 	299.9999999999969 	1.045079735828758e-12 	101324.9999999979
0.186436436436436 	299.9999999999893 	1.525706136237886e-12 	101324.9999999978
0.1889389389389385 	299.9999999999951 	1.538080172139701e-12 	101324.9999999979
0.191441441441441 	299.9999999999935 	1.532675832714443e-12 	101324.9999999979
0.1939439439439434 	299.9999999999825 	1.866419789684016e-12 	101324.9999999981
0.196446446446446 	299.9999999999938 	1.21315229116597e-12 	101324.999999998
0.1989489489489485 	299.9999999999931 	2.370607844735059e-12 	101324.9999999982
0.2014514514514509 	299.9999999999973 	1.196294758639142e-12 	101324.9999999982
0.2039539539539535 	299.9999999999968 	1.743747595033885e-12 	101324.9999999983
0.2064564564564559 	299.9999999999889 	2.032770685983222e-12 	101324.9999999986
0.2089589589589585 	299.9999999999964 	2.605436620497634e-12 	101324.9999999985
0.211461461461461 	299.9999999999886 	2.588924641663117e-12 	101324.9999999984
0.2139639639639635 	299.9999999999992 	2.690892044971683e-12 	101324.9999999982
0.2164664664664659 	300.0000000000061 	2.848422312289473e-12 	101324.9999999981
0.2189689689689684 	300.0000000000056 	1.693439712478646e-12 	101324.9999999984
0.221471471471471 	300.0000000000003 	2.02059938859798e-12 	101324.9999999985
0.2239739739739735 	299.9999999999917 	8.657114175471856e-13 	101324.9999999985
0.226476476476476 	300.0000000000006 	2.025371873055852e-12 	101324.9999999984
0.2289789789789785 	300.0000000000011 	2.175516057855486e-12 	101324.9999999986
0.231481481481481 	299.9999999999943 	2.184808723962873e-12 	101324.9999999986
0.2339839839839835 	299.9999999999948 	2.54383331421952e-12 	101324.9999999983
0.236486486486486 	300.0000000000067 	1.896932520627755e-12 	101324.9999999983
0.2389889889889885 	300.0000000000001 	1.890600275926163e-12 	101324.9999999983
0.241491491491491 	299.9999999999825 	1.090162018876874e-12 	101324.9999999985
0.2439939939939935 	299.9999999999955 	2.683607982387478e-12 	101324.9999999986
0.246496496496496 	299.9999999999953 	1.568809552273989e-12 	101324.9999999984
0.2489989989989985 	300.0000000000039 	2.265747385359806e-12 	101324.9999999985
0.251501501501501 	300.0000000000028 	1.581759496628869e-12 	101324.9999999986
0.2540040040040035 	299.9999999999971 	1.607381142394265e-12 	101324.9999999985
0.256506506506506 	300.0000000000024 	1.587911566601318e-12 	101324.9999999985
0.2590090090090086 	299.9999999999846 	9.042292482707897e-13 	101324.9999999987
0.261511511511511 	300.0000000000044 	1.906231581694669e-12 	101324.9999999986
0.2640140140140135 	299.9999999999965 	6.773583321520469e-13 	101324.9999999984
0.2665165165165161 	299.9999999999899 	7.898117863103176e-13 	101324.9999999984
0.2690190190190185 	300.0000000000074 	5.747185200826662e-14 	101324.9999999984
0.271521521521521 	300.0000000000021 	3.135927571626281e-13 	101324.9999999985
0.2740240240240235 	300.0000000000031 	2.284653943416418e-13 	101324.9999999986
0.276526526526526 	299.9999999999965 	1.410917669960135e-13 	101324.9999999987
0.2790290290290286 	299.9999999999891 	7.305702636286977e-13 	101324.9999999984
0.281531531531531 	299.9999999999803 	4.058752327863551e-13 	101324.9999999983
0.2840340340340335 	299.9999999999977 	1.445499354862819e-12 	101324.9999999984
0.2865365365365361 	299.9999999999936 	3.951184064054316e-13 	101324.9999999984
0.2890390390390385 	299.9999999999981 	9.078984332024945e-13 	101324.9999999986
0.291541541541541 	299.9999999999966 	1.947705092265441e-13 	101324.9999999986
0.2940440440440436 	299.9999999999993 	5.583276821527892e-13 	101324.9999999987
0.296546546546546 	299.999999999996 	6.115575725793593e-13 	101324.9999999988
0.2990490490490486 	299.9999999999846 	5.973736375386189e-13 	101324.9999999988
0.3015515515515511 	300.0000000000048 	1.893645037355875e-12 	101324.9999999987
0.3040540540540535 	299.9999999999971 	8.386177237172489e-13 	101324.9999999987
0.3065565565565562 	299.9999999999993 	2.00438158370482e-12 	101324.9999999989
0.3090590590590585 	299.9999999999969 	9.335722597508223e-13 	101324.9999999989
0.3115615615615611 	299.9999999999846 	7.858198660502496e-13 	101324.999999999
0.3140640640640635 	299.9999999999993 	6.12724704036715e-13 	101324.9999999991
0.316566566566566 	299.9999999999976 	1.270748139035376e-12 	101324.999999999
0.3190690690690687 	299.9999999999873 	1.10073724664896e-12 	101324.9999999993
0.3215715715715711 	299.9999999999999 	1.373639915015315e-12 	101324.9999999993
0.3240740740740735 	299.9999999999962 	1.185035435608085e-12 	101324.9999999992
0.326576576576576 	299.9999999999799 	2.016946982183096e-12 	101324.9999999992
0.3290790790790786 	300.0000000000001 	1.42777995784202e-12 	101324.9999999992
0.3315815815815811 	300.0000000000099 	8.849399583752521e-13 	101324.9999999991
0.3340840840840836 	300.0000000000017 	5.905188768578308e-13 	101324.9999999991
0.3365865865865861 	300.000000000013 	4.731173391947733e-13 	101324.999999999
0.3390890890890886 	300.0000000000095 	2.982653263719644e-13 	101324.999999999
0.3415915915915911 	300.0000000000003 	3.143266112281183e-13 	101324.9999999989
0.3440940940940935 	299.9999999999908 	7.05685565373471e-13 	101324.999999999
0.3465965965965962 	300.0000000000101 	6.35129830203527e-13 	101324.9999999991
0.3490990990990985 	300.0000000000082 	8.254710142321183e-13 	101324.999999999
0.3516016016016011 	299.9999999999983 	4.774159458811573e-13 	101324.999999999
0.3541041041041035 	300.0000000000028 	9.339042075664409e-13 	101324.9999999992
0.3566066066066061 	299.9999999999912 	9.699943426742705e-13 	101324.9999999991
0.3591091091091085 	299.9999999999851 	8.06192337996331e-13 	101324.9999999989
0.3616116116116112 	299.9999999999885 	1.255482930273441e-12 	101324.9999999987
0.3641141141141137 	299.9999999999866 	7.945774398764658e-13 	101324.9999999986
0.3666166166166161 	299.9999999999852 	1.639926128873453e-12 	101324.9999999988
0.3691191191191185 	300.0000000000082 	1.171400405458521e-12 	101324.9999999987
0.371621621621621 	300.0000000000032 	9.677245480244332e-13 	101324.9999999986
0.3741241241241237 	300.0000000000113 	3.816199319238821e-13 	101324.9999999989
0.3766266266266261 	300.0000000000032 	9.360871486806169e-13 	101324.9999999991
0.3791291291291286 	299.999999999997 	9.283331251633808e-13 	101324.999999999
0.3816316316316311 	299.999999999987 	1.33464233717263e-12 	101324.9999999989
0.3841341341341336 	300.0000000000031 	9.877305692431636e-13 	101324.9999999989
0.3866366366366362 	299.9999999999999 	1.157330622434146e-12 	101324.9999999989
0.3891391391391387 	299.99999999999 	1.058639655072348e-12 	101324.9999999988
0.391641641641641 	300.0000000000001 	1.494410552091514e-12 	101324.9999999988
0.3941441441441436 	300.000000000001 	1.99015299402743e-12 	101324.9999999988
0.3966466466466462 	299.9999999999995 	2.594431672099229e-12 	101324.9999999988
0.3991491491491486 	299.99999999999 	2.666940598368382e-12 	101324.9999999985
0.4016516516516512 	299.9999999999828 	2.622234411264797e-12 	101324.9999999984
0.4041541541541536 	299.9999999999912 	1.758711142777743e-12 	101324.9999999985
0.4066566566566561 	299.9999999999909 	2.352669218435152e-12 	101324.9999999987
0.4091591591591587 	299.9999999999989 	6.866636282098834e-13 	101324.9999999986
0.4116616616616612 	300.0000000000028 	1.828094504888025e-12 	101324.9999999986
0.4141641641641635 	300.0000000000107 	1.395537433637069e-12 	101324.9999999985
0.4166666666666662 	299.9999999999999 	2.077811480755673e-12 	101324.9999999982
0.4191691691691687 	299.9999999999877 	1.851314416672396e-12 	101324.999999998
0.421671671671671 	300.0000000000028 	1.383861564967232e-12 	101324.9999999981
0.4241741741741737 	299.9999999999951 	2.230745541199572e-12 	101324.9999999982
0.4266766766766761 	299.9999999999923 	7.286273260038426e-13 	101324.9999999984
0.4291791791791785 	300.0000000000028 	2.503730656020258e-12 	101324.9999999985
0.4316816816816812 	299.9999999999982 	5.990586270558489e-13 	101324.9999999983
0.4341841841841836 	299.9999999999962 	2.982625967706103e-12 	101324.9999999982
0.4366866866866862 	299.9999999999867 	2.156957970979101e-12 	101324.9999999983
0.4391891891891885 	299.9999999999973 	2.980115170206494e-12 	101324.9999999983
0.4416916916916913 	299.9999999999974 	2.901807340190681e-12 	101324.9999999983
0.4441941941941936 	299.9999999999966 	2.598515530937436e-12 	101324.9999999984
0.4466966966966961 	299.9999999999837 	1.764978656686939e-12 	101324.9999999987
0.4491991991991987 	299.9999999999974 	1.099704231967332e-12 	101324.9999999988
0.4517017017017012 	299.9999999999969 	1.497745157889116e-12 	101324.999999999
0.4542042042042035 	299.9999999999951 	1.303366650796936e-12 	101324.9999999989
0.4567067067067062 	299.9999999999971 	1.852851510358037e-12 	101324.9999999989
0.4592092092092087 	299.9999999999858 	1.785328429187994e-12 	101324.9999999989
0.4617117117117112 	300.0000000000009 	2.370926753462534e-12 	101324.9999999987
0.4642142142142137 	299.9999999999914 	2.356916360059699e-12 	101324.9999999986
0.4667167167167162 	299.9999999999964 	1.989994736965086e-12 	101324.9999999986
0.4692192192192187 	299.9999999999889 	1.501447825662923e-12 	101324.9999999986
0.4717217217217212 	300.0000000000045 	8.983346322795599e-13 	101324.9999999985
0.4742242242242236 	299.9999999999902 	5.42316737378783e-13 	101324.9999999984
0.4767267267267262 	299.999999999998 	3.903812719079814e-13 	101324.9999999984
0.4792292292292287 	300.000000000002 	5.333612725965025e-13 	101324.9999999985
0.4817317317317312 	300.000000000005 	6.523813877438188e-13 	101324.9999999985
0.4842342342342336 	299.9999999999954 	7.113711321066432e-13 	101324.9999999983
0.4867367367367362 	299.999999999989 	5.556654697816978e-13 	101324.9999999983
0.4892392392392387 	300.0000000000032 	4.560727782468703e-13 	101324.9999999983
0.4917417417417412 	299.9999999999994 	1.187499536141517e-12 	101324.9999999983
0.4942442442442437 	299.999999999979 	8.486170612595976e-13 	101324.9999999983
0.4967467467467462 	299.9999999999839 	1.304945646735803e-12 	101324.9999999983
0.4992492492492487 	299.9999999999843 	3.922121064264933e-13 	101324.9999999982
0.5017517517517511 	299.9999999999907 	6.487049083690693e-13 	101324.9999999983
0.5042542542542537 	299.9999999999911 	3.459333616504853e-13 	101324.9999999984
0.5067567567567562 	299.9999999999846 	5.598996526339071e-13 	101324.999999998
0.5092592592592589 	299.99999999999 	8.246379489777419e-13 	101324.9999999978
0.5117617617617611 	299.99999999999 	6.924708297303998e-13 	101324.9999999977
0.5142642642642637 	299.9999999999986 	9.987995007099115e-13 	101324.9999999979
0.5167667667667663 	299.9999999999955 	9.111726279069091e-13 	101324.9999999982
0.5192692692692688 	299.9999999999828 	2.029498237756877e-12 	101324.9999999983
0.5217717717717714 	299.9999999999849 	1.033250327085618e-12 	101324.9999999983
0.5242742742742736 	299.9999999999868 	1.153450567472582e-12 	101324.9999999982
0.5267767767767763 	299.9999999999933 	7.814159516223912e-13 	101324.9999999983
0.5292792792792789 	299.9999999999895 	5.176034049453777e-13 	101324.9999999983
0.5317817817817813 	299.9999999999798 	7.822719952955231e-13 	101324.9999999983
0.5342842842842837 	300 	7.552646712627889e-13 	101324.9999999981
0.5367867867867864 	299.999999999999 	5.864339398475416e-13 	101324.9999999983
0.5392892892892888 	299.9999999999913 	3.620970232373333e-13 	101324.9999999982
0.5417917917917912 	300.0000000000001 	6.451914783432623e-13 	101324.9999999981
0.5442942942942938 	299.9999999999936 	9.033729263148463e-13 	101324.999999998
0.5467967967967964 	299.9999999999874 	1.004863196212896e-12 	101324.999999998
0.5492992992992988 	299.9999999999857 	6.524281412074254e-13 	101324.9999999978
0.5518018018018012 	299.9999999999882 	7.307638582961382e-13 	101324.9999999976
0.5543043043043039 	300.0000000000028 	5.453389699415201e-13 	101324.9999999976
0.5568068068068063 	299.9999999999977 	5.107751155233698e-13 	101324.9999999977
0.5593093093093087 	299.9999999999823 	6.433195647605207e-13 	101324.9999999979
0.5618118118118114 	299.9999999999928 	1.129829190467711e-12 	101324.999999998
0.5643143143143137 	299.9999999999899 	5.804494140643906e-13 	101324.9999999981
0.5668168168168163 	299.9999999999996 	1.258677461298154e-12 	101324.9999999982
0.5693193193193188 	300.0000000000074 	6.607778962990144e-13 	101324.999999998
0.5718218218218213 	300.0000000000067 	7.140159962416227e-13 	101324.9999999981
0.5743243243243239 	300.000000000003 	8.37622933556685e-13 	101324.9999999982
0.5768268268268262 	300.0000000000028 	7.974944393696827e-13 	101324.9999999983
0.5793293293293288 	299.9999999999909 	9.919732388623892e-13 	101324.9999999983
0.5818318318318314 	299.9999999999841 	1.623977595047298e-12 	101324.9999999983
0.5843343343343338 	299.999999999996 	8.318870142692437e-13 	101324.9999999983
0.5868368368368363 	299.9999999999943 	1.542411989963373e-12 	101324.9999999981
0.5893393393393387 	299.9999999999876 	3.64573090731952e-13 	101324.9999999979
0.5918418418418413 	299.9999999999888 	6.173385575050255e-13 	101324.9999999978
0.5943443443443439 	300.0000000000041 	6.608233041036383e-13 	101324.9999999976
0.5968468468468463 	300.000000000003 	8.182641505544303e-13 	101324.9999999976
0.5993493493493487 	300.000000000009 	7.955954471137398e-13 	101324.9999999977
0.6018518518518514 	299.9999999999935 	3.95220312192955e-13 	101324.9999999976
0.6043543543543537 	299.9999999999987 	3.685627710413361e-13 	101324.9999999974
0.6068568568568564 	299.9999999999951 	6.05752802105922e-13 	101324.9999999975
0.6093593593593587 	299.9999999999822 	1.087608312674658e-12 	101324.9999999975
0.6118618618618614 	299.9999999999837 	8.123404871466871e-13 	101324.9999999977
0.6143643643643638 	300.000000000003 	6.317739974717243e-13 	101324.9999999977
0.6168668668668662 	299.9999999999978 	9.347475383495274e-13 	101324.9999999977
0.6193693693693688 	299.9999999999894 	8.533871434973519e-13 	101324.9999999977
0.6218718718718714 	299.9999999999941 	8.300031161701355e-13 	101324.9999999975
0.6243743743743737 	299.9999999999868 	8.843617709852605e-13 	101324.9999999974
0.6268768768768762 	299.9999999999827 	5.003583528216992e-13 	101324.9999999974
0.629379379379379 	299.9999999999895 	7.296646935437382e-13 	101324.9999999976
0.6318818818818812 	299.9999999999907 	3.523632301046319e-13 	101324.9999999977
0.6343843843843838 	300.0000000000027 	5.800995338793436e-13 	101324.9999999976
0.6368868868868864 	299.9999999999957 	9.381532510187445e-13 	101324.9999999977
0.6393893893893888 	299.9999999999842 	1.377917856041696e-12 	101324.9999999978
0.6418918918918912 	299.9999999999993 	8.104239346403294e-13 	101324.9999999978
0.6443943943943939 	299.9999999999963 	1.856895172600588e-12 	101324.9999999978
0.6468968968968963 	299.9999999999947 	7.389422398305556e-13 	101324.9999999978
0.6493993993993988 	299.9999999999939 	1.615622800375981e-12 	101324.9999999976
0.6519019019019012 	299.9999999999926 	5.611740971243972e-13 	101324.9999999975
0.6544044044044038 	299.9999999999787 	1.089515752085242e-12 	101324.9999999975
0.6569069069069065 	299.9999999999914 	3.367389406718679e-13 	101324.9999999975
0.6594094094094087 	299.9999999999893 	2.925586310885301e-13 	101324.9999999976
0.6619119119119113 	299.9999999999873 	6.497552423062944e-13 	101324.9999999975
0.664414414414414 	299.9999999999986 	4.343611563323838e-13 	101324.9999999977
0.6669169169169162 	300.000000000002 	4.612211670035562e-13 	101324.9999999979
0.6694194194194188 	299.9999999999966 	3.52320559202987e-13 	101324.9999999981
0.6719219219219214 	299.9999999999871 	3.157602502648362e-13 	101324.9999999979
0.674424424424424 	299.9999999999953 	5.718086865764064e-13 	101324.9999999981
0.6769269269269262 	299.9999999999824 	6.184463404463096e-13 	101324.9999999981
0.679429429429429 	300.0000000000006 	6.804265247297573e-13 	101324.999999998
0.6819319319319311 	299.9999999999936 	7.594331403514149e-13 	101324.9999999979
0.6844344344344341 	299.9999999999966 	1.061059128550153e-12 	101324.9999999978
0.686936936936936 	299.9999999999966 	6.60449295271054e-13 	101324.9999999978
0.6894394394394392 	299.9999999999986 	1.125555221407212e-12 	101324.9999999978
0.6919419419419413 	299.9999999999974 	1.249538783467765e-12 	101324.9999999979
0.694444444444444 	299.9999999999907 	1.116289329087772e-12 	101324.999999998
0.6969469469469463 	299.9999999999864 	8.522769657047131e-13 	101324.999999998
0.6994494494494489 	299.9999999999837 	7.057099169238405e-13 	101324.9999999979
0.7019519519519515 	299.9999999999959 	9.473294033189469e-13 	101324.9999999981
0.7044544544544538 	299.9999999999894 	6.022756295838032e-13 	101324.9999999982
0.7069569569569564 	299.9999999999981 	1.121462733074386e-12 	101324.9999999981
0.7094594594594589 	299.9999999999919 	8.248494397882697e-13 	101324.9999999981
0.7119619619619615 	299.999999999981 	6.627278013766819e-13 	101324.9999999981
0.7144644644644638 	299.9999999999879 	4.674716947285916e-13 	101324.999999998
0.7169669669669665 	299.9999999999841 	3.967726626453901e-13 	101324.9999999977
0.7194694694694688 	299.999999999998 	5.032496501910876e-13 	101324.9999999976
0.7219719719719715 	299.9999999999991 	2.907672027924795e-13 	101324.9999999975
0.7244744744744737 	299.9999999999999 	9.079472087524785e-13 	101324.9999999975
0.7269769769769764 	299.9999999999985 	1.185025125637956e-12 	101324.9999999976
0.7294794794794791 	299.9999999999969 	1.758747361707125e-12 	101324.9999999976
0.7319819819819813 	299.9999999999947 	7.317368675970707e-13 	101324.9999999976
0.7344844844844839 	299.9999999999836 	1.355309534365925e-12 	101324.9999999977
0.7369869869869864 	299.9999999999916 	3.003069354593663e-13 	101324.9999999977
0.739489489489489 	299.9999999999894 	9.367850642378686e-13 	101324.9999999976
0.7419919919919914 	299.9999999999867 	9.696176421998865e-13 	101324.9999999975
0.7444944944944939 	299.9999999999936 	7.790350438391051e-13 	101324.9999999974
0.7469969969969963 	299.9999999999934 	1.7864391043946e-12 	101324.9999999975
0.7494994994994989 	299.9999999999863 	1.320498057220485e-12 	101324.9999999975
0.7520020020020015 	299.9999999999916 	1.470738371431962e-12 	101324.9999999976
0.7545045045045039 	299.9999999999926 	1.499146147896517e-12 	101324.9999999975
0.7570070070070062 	299.9999999999875 	9.081918456896849e-13 	101324.9999999973
0.7595095095095092 	299.9999999999839 	6.303721201082078e-13 	101324.9999999972
0.7620120120120112 	299.9999999999978 	3.997748675814728e-13 	101324.9999999972
0.7645145145145138 	299.9999999999957 	5.710214066643365e-13 	101324.9999999974
0.7670170170170165 	299.9999999999874 	7.116775133914004e-13 	101324.9999999975
0.7695195195195191 	299.9999999999845 	1.434140018331405e-12 	101324.9999999977
0.7720220220220213 	299.9999999999879 	9.797194494980937e-13 	101324.9999999977
0.7745245245245239 	299.9999999999901 	1.058217280278399e-12 	101324.9999999978
0.7770270270270263 	299.9999999999953 	1.124934183210093e-12 	101324.9999999978
0.779529529529529 	299.9999999999938 	7.323021162431617e-13 	101324.9999999977
0.7820320320320313 	299.999999999991 	9.793826954395184e-13 	101324.9999999978
0.784534534534534 	299.9999999999963 	7.751316720343995e-13 	101324.9999999979
0.7870370370370364 	299.9999999999964 	9.900735157637716e-13 	101324.9999999978
0.7895395395395389 	299.9999999999947 	1.38418792214505e-12 	101324.9999999979
0.7920420420420413 	299.9999999999946 	7.893589876772281e-13 	101324.9999999978
0.794544544544544 	299.9999999999969 	1.629344139865801e-12 	101324.9999999978
0.7970470470470463 	300.000000000002 	1.212370106889093e-12 	101324.9999999978
0.799549549549549 	299.9999999999973 	1.362616933851409e-12 	101324.9999999977
0.8020520520520515 	299.9999999999977 	6.699580611734977e-13 	101324.9999999976
0.8045545545545539 	299.9999999999889 	6.176995898280358e-13 	101324.9999999975
0.8070570570570563 	299.9999999999967 	6.343916897791741e-14 	101324.9999999976
0.8095595595595589 	299.9999999999915 	1.511259245723579e-13 	101324.9999999975
0.8120620620620614 	299.9999999999858 	4.692472358039358e-13 	101324.9999999974
0.8145645645645638 	299.9999999999965 	7.863052261307377e-13 	101324.9999999972
0.8170670670670666 	299.9999999999969 	9.535696469137142e-13 	101324.9999999971
0.8195695695695689 	299.9999999999945 	1.392370033101116e-12 	101324.9999999972
0.8220720720720714 	299.9999999999877 	1.160128221915501e-12 	101324.9999999973
0.8245745745745739 	299.9999999999981 	5.340935120195242e-13 	101324.9999999974
0.8270770770770765 	299.9999999999924 	1.444474880185375e-12 	101324.9999999975
0.8295795795795788 	299.9999999999887 	1.158700789660849e-12 	101324.9999999976
0.8320820820820815 	300.0000000000043 	1.131237441190375e-12 	101324.9999999977
0.834584584584584 	300.0000000000013 	8.746850925531136e-13 	101324.9999999977
0.8370870870870865 	299.9999999999932 	6.709718447146838e-13 	101324.9999999978
0.8395895895895891 	299.9999999999854 	4.330558251833669e-13 	101324.9999999978
0.8420920920920915 	299.9999999999857 	5.35891959021736e-13 	101324.9999999978
0.844594594594594 	299.9999999999827 	5.607447168227177e-14 	101324.9999999979
0.8470970970970964 	299.9999999999872 	1.280959808009959e-13 	101324.999999998
0.8495995995995991 	299.9999999999961 	3.082203085938906e-13 	101324.999999998
0.8521021021021015 	299.9999999999966 	3.84762455209416e-13 	101324.9999999979
0.8546046046046039 	299.9999999999941 	5.819653473114899e-13 	101324.9999999979
0.8571071071071066 	299.9999999999977 	1.151840960411717e-12 	101324.999999998
0.8596096096096089 	299.9999999999896 	1.530001761300524e-12 	101324.9999999981
0.8621121121121116 	299.9999999999844 	1.026069801988139e-12 	101324.9999999981
0.8646146146146139 	299.9999999999978 	7.38087350090082e-13 	101324.999999998
0.8671171171171166 	299.9999999999953 	4.39494530244111e-13 	101324.999999998
0.8696196196196189 	299.9999999999902 	3.55967239619828e-13 	101324.9999999977
0.8721221221221216 	299.9999999999905 	2.506996833509361e-13 	101324.9999999975
0.874624624624624 	299.9999999999985 	5.360705074159999e-13 	101324.9999999974
0.8771271271271264 	300.0000000000009 	9.485319379273734e-13 	101324.9999999974
0.879629629629629 	299.9999999999986 	1.242258255431901e-12 	101324.9999999973
0.8821321321321317 	299.9999999999964 	1.350875659847489e-12 	101324.9999999974
0.8846346346346339 	299.9999999999858 	7.63970894144782e-13 	101324.9999999976
0.8871371371371364 	299.9999999999922 	7.745843073187438e-13 	101324.9999999976
0.8896396396396391 	299.9999999999903 	7.776446240609152e-13 	101324.9999999976
0.8921421421421414 	299.9999999999902 	9.652787077566315e-13 	101324.9999999977
0.8946446446446441 	299.9999999999963 	1.522891779093609e-12 	101324.9999999978
0.8971471471471464 	299.9999999999975 	1.585335416118356e-12 	101324.9999999977
0.8996496496496489 	299.9999999999934 	1.302039258021833e-12 	101324.9999999978
0.9021521521521517 	299.9999999999902 	1.641985769580906e-12 	101324.9999999978
0.9046546546546541 	299.9999999999944 	7.611742660756004e-13 	101324.9999999979
0.9071571571571564 	299.9999999999868 	6.865257621158213e-13 	101324.9999999978
0.9096596596596589 	299.9999999999892 	6.375654348737602e-13 	101324.9999999978
0.9121621621621616 	300.0000000000016 	9.94942260347869e-13 	101324.9999999979
0.9146646646646639 	299.999999999996 	1.105871620011409e-12 	101324.999999998
0.9171671671671666 	299.9999999999894 	9.063627675063402e-13 	101324.999999998
0.9196696696696689 	299.9999999999995 	1.286231106692907e-12 	101324.999999998
0.9221721721721714 	300.0000000000003 	1.272849346222351e-12 	101324.9999999983
0.9246746746746741 	299.9999999999883 	1.244621074005996e-12 	101324.9999999984
0.9271771771771765 	299.9999999999868 	5.934047492353606e-13 	101324.9999999983
0.9296796796796791 	299.9999999999973 	1.003444024382983e-12 	101324.9999999982
0.9321821821821816 	299.9999999999973 	3.252865360799152e-13 	101324.9999999982
0.9346846846846838 	299.9999999999912 	2.710774206415347e-13 	101324.9999999981
0.9371871871871866 	300.0000000000012 	4.517267153522169e-13 	101324.9999999981
0.9396896896896891 	300.0000000000036 	7.571069399203081e-13 	101324.9999999981
0.9421921921921914 	300.0000000000014 	1.040743700734015e-12 	101324.9999999982
0.9446946946946939 	299.9999999999922 	1.37727714079871e-12 	101324.9999999982
0.9471971971971965 	299.9999999999846 	9.487371733862181e-13 	101324.9999999982
0.9496996996996991 	299.9999999999887 	5.537487303136263e-13 	101324.9999999983
0.9522022022022016 	299.9999999999926 	7.392267893319343e-13 	101324.9999999983
0.9547047047047038 	299.9999999999959 	3.692355651927909e-13 	101324.9999999983
0.9572072072072064 	299.9999999999948 	6.480580499863601e-13 	101324.9999999983
0.9597097097097093 	299.9999999999927 	7.147142448603534e-13 	101324.9999999985
0.9622122122122114 	299.999999999991 	5.936445876086759e-13 	101324.9999999986
0.964714714714714 	299.9999999999916 	6.822124850276077e-13 	101324.9999999986
0.9672172172172167 	299.9999999999919 	3.494397959006501e-13 	101324.9999999985
0.969719719719719 	299.9999999999969 	4.702359187977792e-13 	101324.9999999984
0.9722222222222214 	299.9999999999932 	4.716270661670727e-13 	101324.9999999983
0.9747247247247239 	299.9999999999908 	8.02256153139945e-13 	101324.9999999981
0.9772272272272267 	299.9999999999962 	8.16768127143342e-13 	101324.9999999981
0.9797297297297292 	299.9999999999959 	8.718572166008336e-13 	101324.999999998
0.9822322322322313 	300.0000000000001 	1.530620373940607e-12 	101324.999999998
0.9847347347347344 	299.9999999999996 	1.446117455669569e-12 	101324.9999999981
0.9872372372372363 	299.999999999991 	1.044546744464692e-12 	101324.9999999982
0.9897397397397389 	299.9999999999955 	6.189793096190403e-13 	101324.9999999981
0.9922422422422417 	299.9999999999914 	8.107323552926358e-13 	101324.9999999981
0.9947447447447441 	299.9999999999898 	8.036367796917169e-13 	101324.9999999982
0.9972472472472468 	299.9999999999931 	1.198335620435117e-12 	101324.9999999982
0.999749749749749 	299.9999999999914 	9.23169974891209e-13 	101324.9999999982
1.002252252252252 	299.9999999999929 	1.030952274591585e-12 	101324.9999999982
1.004754754754754 	299.999999999994 	1.257958743426401e-12 	101324.9999999981
1.007257257257256 	299.9999999999893 	1.174935842893912e-12 	101324.9999999979
1.009759759759759 	299.9999999999878 	1.465785567479222e-12 	101324.9999999979
1.012262262262261 	299.9999999999872 	5.887841400236275e-13 	101324.9999999979
1.014764764764764 	299.9999999999831 	8.069374826206467e-13 	101324.9999999981
1.017267267267267 	299.9999999999808 	2.497505553895894e-13 	101324.9999999982
1.019769769769769 	299.9999999999912 	3.433379380749634e-13 	101324.9999999981
1.022272272272272 	299.9999999999938 	4.721690179178806e-13 	101324.9999999981
1.024774774774774 	299.999999999991 	7.640758305088518e-13 	101324.999999998
1.027277277277277 	299.9999999999914 	9.432535528703927e-13 	101324.999999998
1.029779779779779 	299.9999999999978 	4.961520092974719e-13 	101324.9999999981
1.032282282282282 	299.9999999999973 	4.975679727110603e-13 	101324.9999999982
1.034784784784784 	299.9999999999959 	3.717194003746829e-13 	101324.9999999982
1.037287287287286 	299.9999999999899 	7.308077626905358e-13 	101324.9999999983
1.039789789789789 	299.999999999993 	8.309551221753654e-13 	101324.9999999984
1.042292292292291 	300.0000000000007 	1.013848235089238e-12 	101324.9999999983
1.044794794794794 	300.0000000000019 	1.338823972222515e-12 	101324.9999999982
1.047297297297296 	300.0000000000053 	8.478059702109335e-13 	101324.9999999983
1.049799799799799 	299.9999999999965 	9.595955477244077e-13 	101324.9999999985
1.052302302302302 	299.9999999999913 	8.176775234526737e-13 	101324.9999999985
1.054804804804804 	299.9999999999889 	9.6885763548455e-13 	101324.9999999985
1.057307307307306 	299.9999999999842 	9.560469818978709e-13 	101324.9999999984
1.059809809809809 	299.9999999999891 	1.597052154044028e-12 	101324.9999999983
1.062312312312312 	299.9999999999867 	1.525202954976673e-12 	101324.9999999983
1.064814814814814 	299.999999999987 	1.525917179089261e-12 	101324.9999999982
1.067317317317317 	299.9999999999843 	1.426581025587124e-12 	101324.999999998
1.069819819819819 	299.9999999999826 	1.095441362621758e-12 	101324.999999998
1.072322322322321 	299.9999999999964 	1.478001812060677e-12 	101324.999999998
1.074824824824824 	300.0000000000015 	6.620028671856062e-13 	101324.9999999981
1.077327327327327 	300.0000000000034 	3.682033685337429e-13 	101324.9999999983
1.079829829829829 	300.0000000000031 	4.723267302827843e-13 	101324.9999999983
1.082332332332332 	299.9999999999978 	9.141521014007864e-13 	101324.9999999982
1.084834834834834 	299.9999999999953 	1.205003137460174e-12 	101324.999999998
1.087337337337337 	299.9999999999876 	1.57154747379335e-12 	101324.999999998
1.089839839839839 	299.9999999999862 	1.279857824566565e-12 	101324.9999999981
1.092342342342342 	299.9999999999958 	1.447603234515863e-12 	101324.9999999982
1.094844844844844 	299.9999999999981 	1.749802241370682e-12 	101324.9999999983
1.097347347347347 	299.999999999991 	1.66132699004632e-12 	101324.9999999984
1.099849849849849 	299.9999999999868 	1.412401044949328e-12 	101324.9999999985
1.102352352352352 	299.9999999999906 	6.442154015565959e-13 	101324.9999999985
1.104854854854854 	299.9999999999961 	7.833374654908994e-13 	101324.9999999986
1.107357357357357 	299.9999999999949 	2.008957331433881e-13 	101324.9999999986
1.109859859859859 	299.9999999999895 	6.825978820525306e-13 	101324.9999999985
1.112362362362362 	300.0000000000031 	1.045262657823314e-12 	101324.9999999984
1.114864864864865 	300.0000000000026 	1.19218708502338e-12 	101324.9999999984
1.117367367367367 	299.9999999999908 	1.179918299796364e-12 	101324.9999999983
1.119869869869869 	299.9999999999853 	9.635214061127956e-13 	101324.9999999983
1.122372372372372 	299.9999999999893 	1.089164119549664e-12 	101324.9999999985
1.124874874874874 	299.9999999999887 	1.026698522888108e-12 	101324.9999999987
1.127377377377377 	299.9999999999948 	1.773226928671864e-12 	101324.9999999988
1.129879879879879 	300.0000000000072 	1.659723208011056e-12 	101324.999999999
1.132382382382382 	300.000000000005 	1.531953267478949e-12 	101324.999999999
1.134884884884884 	299.9999999999992 	1.215614372298094e-12 	101324.9999999989
1.137387387387387 	300.000000000001 	1.085103354177732e-12 	101324.999999999
1.139889889889889 	299.9999999999907 	1.270582389320957e-12 	101324.999999999
1.142392392392392 	299.9999999999891 	9.808049838419562e-13 	101324.9999999989
1.144894894894894 	299.9999999999993 	1.128566342866965e-12 	101324.999999999
1.147397397397397 	299.9999999999962 	3.271522831153874e-13 	101324.9999999991
1.149899899899899 	299.9999999999858 	3.613334084646989e-13 	101324.9999999992
1.152402402402402 	299.9999999999844 	2.436417820918881e-13 	101324.9999999992
1.154904904904904 	299.9999999999931 	5.918185953573385e-13 	101324.9999999992
1.157407407407407 	299.9999999999965 	8.605659548118436e-13 	101324.999999999
1.159909909909909 	299.9999999999902 	1.689812968855682e-12 	101324.9999999991
1.162412412412412 	299.9999999999851 	2.035314602676355e-12 	101324.9999999992
1.164914914914914 	299.9999999999905 	1.466630194316257e-12 	101324.9999999993
1.167417417417417 	299.9999999999909 	1.938172766668082e-12 	101324.9999999994
1.169919919919919 	300.0000000000001 	1.243046916225091e-12 	101324.9999999995
1.172422422422422 	300.0000000000051 	1.116435215962338e-12 	101324.9999999995
1.174924924924925 	299.999999999995 	9.115580013359398e-13 	101324.9999999994
1.177427427427427 	299.9999999999899 	1.450734744506144e-12 	101324.9999999994
1.179929929929929 	299.9999999999989 	1.645190827765526e-12 	101324.9999999994
1.182432432432432 	300.0000000000044 	9.029182594528043e-13 	101324.9999999993
1.184934934934934 	300.0000000000014 	1.443628087000212e-12 	101324.999999999
1.187437437437437 	299.9999999999952 	1.485540331203614e-12 	101324.9999999987
1.189939939939939 	299.9999999999916 	1.993564086692978e-12 	101324.9999999987
1.192442442442442 	299.9999999999853 	1.964330238614187e-12 	101324.9999999989
1.194944944944944 	299.9999999999859 	2.691672601108348e-12 	101324.9999999991
1.197447447447447 	299.9999999999964 	2.405889400267295e-12 	101324.9999999991
1.199949949949949 	299.9999999999983 	2.042223002859917e-12 	101324.9999999991
1.202452452452452 	299.9999999999885 	1.972105514224025e-12 	101324.9999999992
1.204954954954955 	299.9999999999877 	1.371394287587102e-12 	101324.9999999994
1.207457457457457 	299.9999999999928 	1.676494231192842e-12 	101324.9999999993
1.20995995995996 	299.9999999999917 	1.852600157303558e-12 	101324.9999999992
1.212462462462462 	299.9999999999948 	2.4899130265452e-12 	101324.9999999993
1.214964964964964 	299.9999999999952 	2.096992390563043e-12 	101324.9999999992
1.217467467467467 	299.9999999999964 	2.230525661107148e-12 	101324.9999999992
1.219969969969969 	299.9999999999952 	1.84973820523791e-12 	101324.9999999994
1.222472472472472 	300.0000000000005 	2.322605327461853e-12 	101324.9999999996
1.224974974974975 	300.0000000000045 	2.450446268444296e-12 	101324.9999999996
1.227477477477477 	299.9999999999997 	1.589857615859424e-12 	101324.9999999996
1.229979979979979 	299.9999999999974 	2.014203950492705e-12 	101324.9999999996
1.232482482482482 	299.9999999999894 	1.917538608527024e-12 	101324.9999999995
1.234984984984984 	299.999999999989 	2.728169753958132e-12 	101324.9999999995
1.237487487487487 	299.9999999999925 	2.298768399996424e-12 	101324.9999999996
1.239989989989989 	299.9999999999941 	2.849402974475893e-12 	101324.9999999997
1.242492492492492 	300.0000000000015 	3.161804343023338e-12 	101324.9999999997
1.244994994994994 	299.9999999999948 	2.424372774489529e-12 	101324.9999999996
1.247497497497497 	299.9999999999953 	2.740456721014904e-12 	101324.9999999996
1.249999999999999 	300.0000000000289 	2.191455906697617e-12 	101324.9999999998
