-1.25 	345.2413526233011 	0.002901845602594459 	101325.0018849556
-1.247497497497497 	300.0541555790241 	0.002779551699455557 	101325.0106756235
-1.244994994994995 	300.0000435584269 	0.002515239278999025 	101325.0024958745
-1.242492492492492 	300.0000088806717 	0.002271501856939619 	101325.0105182926
-1.23998998998999 	300.0000026050884 	0.002043131472465963 	101325.0030435743
-1.237487487487487 	300.0000085548392 	0.001832184775440593 	101325.0101490037
-1.234984984984985 	300.00000305839 	0.001636499370666177 	101325.0035884546
-1.232482482482482 	300.0000082196846 	0.001457492000091638 	101325.0097438142
-1.22997997997998 	300.0000035864106 	0.001292548203689092 	101325.0042189369
-1.227477477477477 	300.0000080435086 	0.00114380247897367 	101325.0095281675
-1.224974974974975 	300.0000042644803 	0.001007022474867183 	101325.0050255937
-1.222472472472472 	300.0000079104264 	0.0008854568618480191 	101325.0093658897
-1.21996996996997 	300.000004713391 	0.0007741093839810037 	101325.0055611338
-1.217467467467467 	300.0000075823426 	0.0006763472399562681 	101325.0089742591
-1.214964964964965 	300.0000050928708 	0.0005871279822189184 	101325.0060120979
-1.212462462462462 	300.0000074859573 	0.0005099672454546625 	101325.0088573476
-1.20995995995996 	300.0000055612962 	0.0004393534885719541 	101325.006568173
-1.207457457457457 	300.0000074123739 	0.0003799262555322312 	101325.0087683097
-1.204954954954955 	300.000005902926 	0.0003248517784269478 	101325.0069737129
-1.202452452452452 	300.0000073326317 	0.0002795538938971502 	101325.0086716849
-1.19994994994995 	300.0000061662678 	0.0002361579759063326 	101325.0072861491
-1.197447447447447 	300.0000073560032 	0.0002002211884532087 	101325.008699973
-1.194944944944945 	300.0000061935859 	0.0001634520348701043 	101325.0073196389
-1.192442442442442 	300.0000075078877 	0.0001334685500300239 	101325.0088780254
-1.18993993993994 	300.0000063048784 	0.0001023378858439121 	101325.0074520566
-1.187437437437437 	300.0000075977663 	7.860273627151488e-05 	101325.0089832151
-1.184934934934935 	300.0000065403781 	5.414737009589537e-05 	101325.0077306138
-1.182432432432432 	300.0000076577752 	3.77052469768932e-05 	101325.0090530508
-1.17992992992993 	300.000006803182 	2.603138504428797e-05 	101325.0080417541
-1.177427427427427 	300.0000075700641 	1.678751701510415e-05 	101325.0089491793
-1.174924924924925 	300.0000070498794 	2.326614393123526e-05 	101325.0083340926
-1.172422422422422 	300.0000072672985 	2.054854516761012e-05 	101325.0085914187
-1.16991991991992 	300.0000072859719 	2.112597102836276e-05 	101325.0086134514
-1.167417417417417 	300.000007333751 	2.125156019727701e-05 	101325.0086697862
-1.164914914914915 	300.0000073911265 	2.140938724411754e-05 	101325.0087374855
-1.162412412412412 	300.0000074383129 	2.1544389031759e-05 	101325.0087932501
-1.15990990990991 	300.0000074713083 	2.164398424904753e-05 	101325.0088322973
-1.157407407407407 	300.0000075006199 	2.173208597029937e-05 	101325.008866969
-1.154904904904904 	300.0000075348701 	2.182928164157619e-05 	101325.0089074592
-1.152402402402403 	300.0000075679553 	2.191590473666965e-05 	101325.0089466199
-1.1498998998999 	300.0000075770154 	2.194107714182427e-05 	101325.0089574128
-1.147397397397397 	300.0000075609225 	2.191155803279847e-05 	101325.0089384552
-1.144894894894895 	300.0000075621774 	2.192611987164409e-05 	101325.0089399881
-1.142392392392392 	300.0000076080166 	2.204584421352331e-05 	101325.0089942209
-1.13988988988989 	300.0000076675457 	2.220187017497347e-05 	101325.0090645498
-1.137387387387387 	300.0000077007834 	2.229875742466423e-05 	101325.0091036782
-1.134884884884885 	300.000007709388 	2.233393844109808e-05 	101325.0091136664
-1.132382382382382 	300.0000077198474 	2.236954185547097e-05 	101325.009125999
-1.12987987987988 	300.0000077455098 	2.243990475612636e-05 	101325.0091566022
-1.127377377377377 	300.0000077740669 	2.251446988560888e-05 	101325.0091907585
-1.124874874874875 	300.0000077822101 	2.253583810354699e-05 	101325.0092005474
-1.122372372372372 	300.0000077636706 	2.249039716503601e-05 	101325.0091783182
-1.11986986986987 	300.0000077413624 	2.243609613096705e-05 	101325.0091513342
-1.117367367367367 	300.0000077448007 	2.244666257683455e-05 	101325.0091549932
-1.114864864864865 	300.0000077773921 	2.253013605382051e-05 	101325.0091937474
-1.112362362362362 	300.0000078092962 	2.260837148116746e-05 	101325.009232258
-1.10985985985986 	300.0000077998964 	2.257609035125876e-05 	101325.0092219814
-1.107357357357357 	300.0000077339411 	2.239888039167072e-05 	101325.0091442084
-1.104854854854855 	300.0000076494501 	2.218257937662087e-05 	101325.0090436424
-1.102352352352353 	300.0000076249479 	2.21300684556544e-05 	101325.0090134747
-1.09984984984985 	300.0000077123184 	2.236469450717256e-05 	101325.0091157393
-1.097347347347347 	300.0000078661377 	2.276042637386075e-05 	101325.0092973786
-1.094844844844845 	300.0000079582697 	2.298919796071419e-05 	101325.0094070449
-1.092342342342342 	300.0000078898963 	2.280662526927357e-05 	101325.0093274026
-1.08983983983984 	300.0000076989715 	2.231569590828356e-05 	101325.0091025658
-1.087337337337337 	300.0000075422952 	2.191585320350394e-05 	101325.0089174313
-1.084834834834835 	300.0000075552146 	2.194757241082914e-05 	101325.0089321337
-1.082332332332332 	300.0000077205638 	2.236267316872506e-05 	101325.0091268739
-1.07982982982983 	300.0000078744168 	2.273978775007384e-05 	101325.0093083023
-1.077327327327327 	300.0000078445837 	2.263766072185736e-05 	101325.0092730085
-1.074824824824825 	300.0000075981775 	2.197697225539452e-05 	101325.0089819177
-1.072322322322323 	300.0000072786111 	2.113616247709083e-05 	101325.0086042403
-1.06981981981982 	300.000007107004 	2.070166803545973e-05 	101325.0084012446
-1.067317317317317 	300.0000072371537 	2.107937239917378e-05 	101325.0085548873
-1.064814814814815 	300.0000076551271 	2.222430128658942e-05 	101325.0090488686
-1.062312312312312 	300.0000081775263 	2.364304156740038e-05 	101325.0096665366
-1.05980980980981 	300.0000085521287 	2.464744230563414e-05 	101325.0101097809
-1.057307307307307 	300.0000085726209 	2.466283981060033e-05 	101325.0101346266
-1.054804804804805 	300.0000081435603 	2.342106666157982e-05 	101325.0096280515
-1.052302302302302 	300.0000072964799 	2.100828446675077e-05 	101325.0086271703
-1.0497997997998 	300.0000061648598 	1.779221739024849e-05 	101325.0072896726
-1.047297297297297 	300.0000049278335 	1.426670780019563e-05 	101325.0058273037
-1.044794794794795 	300.0000037461545 	1.088123399483939e-05 	101325.0044301963
-1.042292292292292 	300.0000027227332 	7.933213338829863e-06 	101325.0032200753
-1.03978978978979 	300.0000019001179 	5.55266193536164e-06 	101325.0022473195
-1.037287287287287 	300.000001277617 	3.744006765944418e-06 	101325.0015111442
-1.034784784784785 	300.0000008300097 	2.438825482977829e-06 	101325.0009817576
-1.032282282282283 	300.0000005222018 	1.538350849461051e-06 	101325.0006176951
-1.02977977977978 	300.0000003188043 	9.415166379273352e-07 	101325.0003771179
-1.027277277277277 	300.0000001891643 	5.600742381618247e-07 	101325.0002237978
-1.024774774774775 	300.0000001092656 	3.243097846073409e-07 	101325.0001292879
-1.022272272272272 	300.0000000615262 	1.830399981753155e-07 	101325.0000728038
-1.01976976976977 	300.0000000338043 	1.008130901094242e-07 	101325.0000400084
-1.017267267267267 	300.0000000181293 	5.424115128265994e-08 	101325.0000214782
-1.014764764764765 	300.0000000095063 	2.853722113648493e-08 	101325.0000112746
-1.012262262262262 	300.0000000048815 	1.469348575452969e-08 	101325.0000057917
-1.00975975975976 	300.0000000024511 	7.411212249839178e-09 	101325.0000029135
-1.007257257257257 	300.0000000012001 	3.663891208602692e-09 	101325.000001436
-1.004754754754755 	300.000000000587 	1.777466142390915e-09 	101325.0000006935
-1.002252252252252 	300.0000000002768 	8.464807509692375e-10 	101325.000000328
-0.9997497497497498 	300.0000000001232 	3.958519642911394e-10 	101325.0000001517
-0.9972472472472473 	300.0000000000554 	1.825459345844412e-10 	101325.0000000683
-0.9947447447447449 	300.0000000000099 	8.283932675706685e-11 	101325.0000000294
-0.9922422422422421 	299.9999999999998 	3.771083492385996e-11 	101325.0000000114
-0.9897397397397399 	299.9999999999963 	1.65287407160363e-11 	101325.0000000032
-0.9872372372372376 	299.9999999999945 	8.370102741210334e-12 	101324.9999999998
-0.9847347347347346 	299.9999999999816 	3.514191297673242e-12 	101324.9999999985
-0.9822322322322323 	299.9999999999806 	2.318125817627281e-12 	101324.9999999981
-0.9797297297297296 	299.9999999999901 	2.161125874359478e-12 	101324.9999999979
-0.9772272272272275 	299.9999999999982 	1.967516045196888e-12 	101324.9999999978
-0.9747247247247248 	300.0000000000042 	2.115544799475457e-12 	101324.9999999977
-0.9722222222222224 	299.999999999982 	1.937167878508999e-12 	101324.9999999976
-0.9697197197197196 	299.9999999999743 	2.048744736501679e-12 	101324.9999999975
-0.9672172172172175 	299.9999999999785 	1.422589785134559e-12 	101324.9999999975
-0.9647147147147147 	299.9999999999866 	1.201698727540389e-12 	101324.9999999972
-0.9622122122122124 	299.9999999999879 	7.75575749770007e-13 	101324.9999999972
-0.9597097097097099 	299.9999999999897 	8.770607465833394e-13 	101324.9999999973
-0.9572072072072073 	299.9999999999858 	1.071185303308593e-12 	101324.9999999972
-0.9547047047047047 	299.9999999999973 	8.775964909029461e-13 	101324.9999999971
-0.9522022022022023 	299.9999999999937 	1.568704377088542e-12 	101324.9999999972
-0.9496996996996998 	299.9999999999932 	9.35634519947151e-13 	101324.9999999971
-0.9471971971971973 	299.9999999999967 	1.869087558373914e-12 	101324.9999999971
-0.9446946946946947 	299.9999999999788 	1.679754998098007e-12 	101324.9999999971
-0.9421921921921923 	299.9999999999908 	1.558992281324821e-12 	101324.9999999971
-0.93968968968969 	299.9999999999986 	1.148398831082236e-12 	101324.9999999971
-0.9371871871871872 	299.9999999999941 	1.747685494935059e-12 	101324.999999997
-0.9346846846846848 	299.9999999999821 	2.001187122470155e-12 	101324.999999997
-0.9321821821821823 	299.9999999999886 	1.313932473108174e-12 	101324.9999999969
-0.9296796796796799 	300.0000000000001 	1.900645650465992e-12 	101324.9999999969
-0.9271771771771771 	299.9999999999954 	1.065288258100609e-12 	101324.9999999969
-0.9246746746746748 	299.9999999999896 	1.488912241933509e-12 	101324.999999997
-0.9221721721721724 	299.999999999999 	1.974458419254574e-12 	101324.9999999972
-0.9196696696696698 	299.9999999999957 	1.76932309635574e-12 	101324.9999999973
-0.9171671671671672 	299.9999999999827 	8.941429497646438e-13 	101324.9999999974
-0.9146646646646649 	299.9999999999957 	1.227092591881401e-12 	101324.9999999974
-0.9121621621621623 	300.0000000000055 	1.50997779523879e-12 	101324.9999999976
-0.9096596596596597 	299.9999999999875 	1.522243604695347e-12 	101324.9999999975
-0.9071571571571573 	299.9999999999947 	2.01311208867612e-12 	101324.9999999973
-0.9046546546546547 	300.0000000000047 	2.067897877556797e-12 	101324.9999999974
-0.9021521521521524 	299.9999999999893 	2.74122063376667e-12 	101324.9999999975
-0.8996496496496498 	299.999999999994 	2.078082747867303e-12 	101324.9999999976
-0.8971471471471473 	300.0000000000015 	2.125027410061731e-12 	101324.9999999974
-0.894644644644645 	300.0000000000012 	2.045544737609165e-12 	101324.9999999973
-0.892142142142142 	300.0000000000003 	1.023761971920594e-12 	101324.9999999973
-0.8896396396396397 	300.0000000000043 	1.995091958494372e-12 	101324.9999999974
-0.8871371371371374 	299.9999999999851 	1.13651345499854e-12 	101324.9999999976
-0.8846346346346349 	299.9999999999786 	2.490801505394911e-12 	101324.9999999975
-0.8821321321321324 	299.9999999999799 	1.835855502252147e-12 	101324.9999999975
-0.8796296296296297 	299.9999999999835 	3.320954016775926e-12 	101324.9999999976
-0.8771271271271271 	299.9999999999842 	2.090234917028849e-12 	101324.9999999976
-0.8746246246246248 	299.9999999999948 	2.160122631673261e-12 	101324.9999999975
-0.8721221221221224 	299.9999999999996 	1.908067707655404e-12 	101324.9999999973
-0.8696196196196196 	299.9999999999906 	1.514189177001093e-12 	101324.9999999971
-0.8671171171171175 	299.9999999999973 	1.211024245936574e-12 	101324.999999997
-0.8646146146146148 	299.9999999999807 	6.96661664852349e-13 	101324.9999999969
-0.8621121121121121 	299.9999999999893 	5.750867571484311e-13 	101324.999999997
-0.8596096096096097 	300.000000000004 	3.959936970433349e-13 	101324.9999999971
-0.857107107107107 	299.9999999999878 	2.680122907330667e-13 	101324.9999999971
-0.8546046046046049 	299.9999999999935 	2.685871761891072e-13 	101324.9999999972
-0.8521021021021022 	300.0000000000006 	1.215998887005968e-13 	101324.9999999973
-0.8495995995995997 	299.9999999999987 	6.105040464997284e-13 	101324.9999999975
-0.8470970970970974 	299.9999999999786 	7.956946368126895e-13 	101324.9999999974
-0.8445945945945946 	299.9999999999859 	5.848992518801446e-13 	101324.9999999971
-0.8420920920920922 	300.000000000001 	9.077477596900316e-13 	101324.9999999969
-0.8395895895895897 	299.9999999999969 	2.003872966321827e-12 	101324.999999997
-0.8370870870870872 	299.9999999999997 	1.52331488802056e-12 	101324.9999999971
-0.8345845845845846 	300.0000000000026 	1.715196734471848e-12 	101324.999999997
-0.8320820820820823 	299.9999999999834 	8.597342152837308e-13 	101324.9999999971
-0.8295795795795798 	299.9999999999716 	7.241009285381424e-13 	101324.9999999973
-0.8270770770770772 	299.9999999999833 	1.020815172983455e-12 	101324.9999999975
-0.8245745745745746 	299.9999999999757 	9.082321160179499e-13 	101324.9999999974
-0.8220720720720721 	299.9999999999844 	7.514799205275141e-13 	101324.9999999975
-0.8195695695695699 	299.9999999999963 	1.067992127508513e-12 	101324.9999999972
-0.817067067067067 	299.9999999999835 	1.379687366521934e-12 	101324.9999999973
-0.8145645645645651 	299.9999999999735 	1.779189144891084e-12 	101324.9999999973
-0.8120620620620621 	299.9999999999918 	8.027119621566517e-13 	101324.9999999974
-0.8095595595595597 	300 	8.204675821686081e-13 	101324.9999999974
-0.8070570570570572 	299.999999999978 	1.099433285185336e-12 	101324.9999999974
-0.8045545545545546 	299.9999999999774 	9.684452715954301e-13 	101324.9999999973
-0.8020520520520523 	299.9999999999966 	2.181277826145347e-12 	101324.9999999972
-0.7995495495495494 	300.0000000000067 	1.741455165559366e-12 	101324.9999999974
-0.7970470470470474 	300.0000000000005 	2.910620955542986e-12 	101324.9999999975
-0.7945445445445446 	300.0000000000018 	2.168408028155061e-12 	101324.9999999976
-0.7920420420420423 	300.000000000004 	2.738727897293891e-12 	101324.9999999977
-0.7895395395395397 	300.0000000000032 	2.509848426563094e-12 	101324.9999999976
-0.7870370370370371 	300.0000000000007 	2.209477002537727e-12 	101324.9999999975
-0.7845345345345348 	299.9999999999901 	2.088092773148597e-12 	101324.9999999973
-0.7820320320320323 	299.9999999999911 	1.795232410873037e-12 	101324.9999999975
-0.7795295295295296 	299.9999999999736 	2.262993920718209e-12 	101324.9999999976
-0.7770270270270272 	299.9999999999686 	2.410380855596879e-12 	101324.9999999975
-0.7745245245245247 	299.999999999966 	2.117916611601926e-12 	101324.9999999975
-0.7720220220220222 	299.9999999999794 	2.166881761051311e-12 	101324.9999999975
-0.7695195195195199 	299.9999999999818 	1.194199854378721e-12 	101324.9999999975
-0.767017017017017 	299.999999999993 	2.458795626260268e-12 	101324.9999999974
-0.7645145145145147 	300.0000000000041 	1.823377650302234e-12 	101324.9999999975
-0.7620120120120122 	300.0000000000055 	3.273666079094936e-12 	101324.9999999974
-0.7595095095095097 	299.999999999975 	2.836783762229445e-12 	101324.9999999975
-0.7570070070070072 	299.9999999999771 	4.956998397087855e-12 	101324.9999999975
-0.7545045045045048 	299.9999999999961 	3.452913060159395e-12 	101324.9999999975
-0.7520020020020022 	299.9999999999862 	4.257870380494677e-12 	101324.9999999976
-0.7494994994994997 	299.9999999999856 	2.206344692761294e-12 	101324.9999999974
-0.7469969969969972 	299.9999999999982 	2.588505290361033e-12 	101324.9999999974
-0.7444944944944945 	299.9999999999949 	1.32620781031559e-12 	101324.9999999972
-0.7419919919919924 	299.9999999999957 	1.503221935180663e-12 	101324.9999999972
-0.7394894894894897 	299.9999999999845 	1.635279065262246e-12 	101324.9999999974
-0.7369869869869872 	299.9999999999964 	1.507348886745394e-12 	101324.9999999975
-0.7344844844844846 	299.9999999999866 	2.283089696757067e-12 	101324.9999999975
-0.7319819819819822 	300.0000000000009 	1.140518362586418e-12 	101324.9999999975
-0.7294794794794797 	299.9999999999974 	1.838828775189878e-12 	101324.9999999976
-0.7269769769769773 	300.0000000000045 	1.326878084180952e-12 	101324.9999999975
-0.7244744744744747 	300.0000000000066 	6.457419806570916e-13 	101324.9999999974
-0.721971971971972 	299.9999999999836 	5.291356008312879e-13 	101324.9999999973
-0.7194694694694695 	299.9999999999934 	8.503798100457583e-13 	101324.9999999973
-0.7169669669669674 	299.999999999977 	1.14076572712833e-12 	101324.9999999971
-0.7144644644644647 	299.9999999999919 	1.183825547553313e-12 	101324.9999999972
-0.711961961961962 	300.0000000000036 	1.14001186739996e-12 	101324.9999999972
-0.7094594594594597 	300.0000000000027 	6.695980948610793e-13 	101324.9999999972
-0.7069569569569573 	300.0000000000081 	9.678114911551691e-13 	101324.9999999973
-0.7044544544544545 	300.0000000000112 	4.905384678112715e-13 	101324.9999999975
-0.7019519519519523 	300.0000000000036 	3.409047670795167e-13 	101324.9999999974
-0.6994494494494495 	299.9999999999748 	4.988429301160109e-13 	101324.9999999973
-0.6969469469469471 	299.9999999999816 	1.037233873169517e-12 	101324.9999999975
-0.6944444444444446 	299.9999999999881 	1.38452013087281e-12 	101324.9999999975
-0.6919419419419421 	300.00000000001 	1.473578050784079e-12 	101324.9999999973
-0.6894394394394396 	299.9999999999973 	1.181814323854327e-12 	101324.9999999973
-0.6869369369369374 	300.0000000000029 	7.430319270236499e-13 	101324.9999999972
-0.6844344344344344 	300.0000000000061 	5.887753357017547e-13 	101324.9999999972
-0.6819319319319321 	299.9999999999865 	3.068365523478599e-13 	101324.9999999973
-0.6794294294294296 	299.9999999999811 	5.100058065902387e-13 	101324.9999999973
-0.6769269269269272 	299.9999999999693 	3.992556907299717e-13 	101324.9999999971
-0.6744244244244245 	299.9999999999871 	3.240100432425936e-13 	101324.999999997
-0.6719219219219222 	299.9999999999858 	2.813981815017483e-13 	101324.9999999971
-0.6694194194194195 	299.999999999999 	1.116738289601971e-12 	101324.9999999969
-0.6669169169169172 	300.0000000000057 	1.278159175584106e-12 	101324.9999999969
-0.6644144144144146 	299.9999999999864 	1.678996023287722e-12 	101324.9999999967
-0.661911911911912 	299.9999999999868 	1.116985856972918e-12 	101324.9999999968
-0.6594094094094097 	299.99999999999 	9.955660107528224e-13 	101324.999999997
-0.656906906906907 	299.9999999999761 	9.573939759235897e-13 	101324.9999999972
-0.6544044044044046 	299.9999999999797 	2.095030697794873e-12 	101324.9999999972
-0.6519019019019021 	299.9999999999972 	1.508809111782646e-12 	101324.9999999972
-0.6493993993993996 	300.0000000000092 	2.687658213929787e-12 	101324.9999999971
-0.6468968968968971 	300.0000000000115 	1.046171661733977e-12 	101324.9999999972
-0.6443943943943946 	299.9999999999979 	2.382096700617848e-12 	101324.9999999972
-0.6418918918918921 	299.9999999999968 	9.548958188906152e-13 	101324.9999999971
-0.6393893893893897 	299.9999999999978 	1.28486368596745e-12 	101324.9999999969
-0.6368868868868871 	299.9999999999906 	1.045679050759749e-12 	101324.9999999967
-0.6343843843843846 	299.9999999999994 	1.098985371084064e-12 	101324.9999999969
-0.6318818818818821 	299.999999999987 	1.155297406226519e-12 	101324.999999997
-0.6293793793793795 	300.0000000000013 	1.284359269249173e-12 	101324.9999999971
-0.6268768768768773 	300.0000000000063 	1.382027176145509e-12 	101324.9999999972
-0.6243743743743745 	299.9999999999897 	5.521850532906028e-13 	101324.9999999972
-0.6218718718718721 	299.9999999999999 	1.034185332871811e-12 	101324.9999999973
-0.6193693693693696 	299.9999999999785 	6.296424403806618e-13 	101324.9999999973
-0.6168668668668671 	299.9999999999933 	1.207462867206336e-12 	101324.9999999973
-0.6143643643643645 	300.0000000000036 	7.659528858534422e-13 	101324.9999999972
-0.6118618618618621 	299.9999999999909 	4.558090771526421e-13 	101324.9999999972
-0.6093593593593596 	299.9999999999923 	7.320855954766973e-13 	101324.9999999972
-0.6068568568568571 	299.9999999999934 	1.481322736704303e-12 	101324.9999999973
-0.6043543543543546 	299.9999999999839 	1.357456372875248e-12 	101324.9999999975
-0.6018518518518521 	299.9999999999877 	6.548388534697971e-13 	101324.9999999976
-0.5993493493493496 	299.9999999999794 	4.617225527520021e-13 	101324.9999999977
-0.5968468468468471 	299.9999999999831 	5.385564701410667e-13 	101324.9999999977
-0.5943443443443446 	299.9999999999954 	5.584016990461543e-13 	101324.9999999978
-0.591841841841842 	299.999999999984 	1.01433020079816e-12 	101324.9999999976
-0.5893393393393397 	299.9999999999832 	6.03445540578206e-13 	101324.9999999974
-0.5868368368368371 	299.9999999999978 	1.709953190464832e-12 	101324.9999999972
-0.5843343343343346 	299.9999999999998 	8.510783372410111e-13 	101324.9999999971
-0.5818318318318321 	300.0000000000081 	1.811305032019256e-12 	101324.9999999973
-0.5793293293293297 	299.9999999999932 	1.398413663314715e-12 	101324.9999999973
-0.5768268268268271 	300.0000000000003 	1.057630042726909e-12 	101324.9999999973
-0.5743243243243245 	300.0000000000059 	1.124822094215009e-12 	101324.9999999972
-0.5718218218218221 	300.0000000000049 	5.080816633078815e-13 	101324.9999999971
-0.5693193193193196 	300.0000000000134 	5.0664525323027e-13 	101324.9999999971
-0.5668168168168171 	299.9999999999937 	1.248031307383239e-12 	101324.9999999971
-0.5643143143143147 	299.9999999999808 	5.283590107195564e-13 	101324.9999999973
-0.5618118118118121 	300.0000000000045 	1.314099737109245e-12 	101324.9999999977
-0.5593093093093094 	300.0000000000121 	6.797649936541618e-13 	101324.9999999979
-0.5568068068068072 	300.0000000000072 	9.738123373089223e-13 	101324.9999999978
-0.5543043043043046 	300.0000000000079 	6.751993539547144e-13 	101324.999999998
-0.551801801801802 	299.9999999999859 	4.016960987773419e-13 	101324.9999999981
-0.5492992992992995 	300.0000000000016 	7.102100417671497e-13 	101324.999999998
-0.5467967967967969 	300.0000000000069 	4.968595317470329e-13 	101324.9999999977
-0.5442942942942947 	300.0000000000013 	3.406704488761797e-13 	101324.9999999975
-0.5417917917917919 	299.9999999999868 	7.016314923048279e-14 	101324.9999999975
-0.5392892892892895 	299.9999999999777 	4.299758276405122e-13 	101324.9999999978
-0.536786786786787 	299.9999999999855 	2.213319371704204e-13 	101324.9999999979
-0.5342842842842846 	299.9999999999877 	5.90389927439807e-13 	101324.9999999981
-0.531781781781782 	299.9999999999767 	1.940936542153096e-13 	101324.9999999983
-0.5292792792792794 	299.9999999999737 	1.635906257735755e-12 	101324.9999999982
-0.526776776776777 	299.9999999999674 	1.017812984991234e-12 	101324.9999999981
-0.5242742742742745 	299.9999999999892 	2.057489083483361e-12 	101324.9999999979
-0.521771771771772 	300.0000000000054 	2.857242805584627e-12 	101324.9999999979
-0.5192692692692695 	299.9999999999849 	2.463329030584103e-12 	101324.9999999977
-0.516766766766767 	300.0000000000001 	2.685719741176682e-12 	101324.9999999976
-0.5142642642642645 	299.9999999999887 	2.286616125929587e-12 	101324.9999999976
-0.511761761761762 	299.9999999999828 	1.824862353837242e-12 	101324.9999999976
-0.5092592592592596 	299.9999999999916 	1.476417546103908e-12 	101324.9999999975
-0.506756756756757 	299.9999999999835 	1.139076260520227e-12 	101324.9999999975
-0.5042542542542544 	299.9999999999953 	1.322427388700423e-12 	101324.9999999975
-0.5017517517517521 	300.0000000000072 	6.124126924392541e-13 	101324.9999999977
-0.4992492492492494 	300.0000000000082 	3.324031090742949e-13 	101324.9999999979
-0.496746746746747 	299.9999999999962 	8.597830729752595e-13 	101324.9999999981
-0.4942442442442445 	299.9999999999797 	5.393262941728615e-13 	101324.9999999981
-0.4917417417417421 	299.9999999999815 	5.589802772703764e-13 	101324.9999999979
-0.4892392392392395 	299.9999999999836 	1.51963768282243e-13 	101324.9999999979
-0.486736736736737 	299.9999999999823 	5.566658918499061e-14 	101324.999999998
-0.4842342342342345 	299.9999999999729 	9.74875078811849e-13 	101324.9999999979
-0.481731731731732 	300.0000000000121 	3.707949181558262e-13 	101324.9999999981
-0.4792292292292296 	300.0000000000097 	1.515800155421747e-12 	101324.999999998
-0.4767267267267268 	299.9999999999886 	6.123153765498819e-13 	101324.9999999983
-0.4742242242242246 	300.0000000000024 	2.463090936429674e-12 	101324.9999999984
-0.471721721721722 	299.9999999999865 	6.768131282477402e-13 	101324.9999999985
-0.4692192192192195 	299.9999999999927 	1.912243965558276e-12 	101324.9999999984
-0.4667167167167169 	299.9999999999707 	1.204206291462419e-12 	101324.9999999983
-0.4642142142142145 	300.0000000000007 	1.748840910076989e-12 	101324.9999999983
-0.461711711711712 	300.0000000000088 	4.677269073611365e-13 	101324.9999999982
-0.4592092092092094 	300.0000000000039 	5.365412547453399e-13 	101324.999999998
-0.456706706706707 	300.0000000000183 	3.306062503114144e-13 	101324.9999999978
-0.4542042042042045 	299.9999999999782 	1.422790303760171e-13 	101324.9999999976
-0.451701701701702 	299.9999999999844 	1.665709146946537e-13 	101324.9999999975
-0.4491991991991995 	299.9999999999882 	1.92967794001827e-13 	101324.9999999977
-0.4466966966966969 	299.9999999999837 	3.017513756703485e-13 	101324.9999999981
-0.4441941941941945 	299.9999999999967 	7.460007711134137e-13 	101324.9999999983
-0.441691691691692 	299.9999999999865 	5.91446736639022e-13 	101324.9999999983
-0.4391891891891895 	299.9999999999955 	1.446531741607338e-12 	101324.9999999983
-0.436686686686687 	299.9999999999893 	1.671077740993286e-12 	101324.9999999984
-0.4341841841841846 	300.0000000000016 	2.12744479997545e-12 	101324.9999999983
-0.431681681681682 	299.9999999999866 	8.893597279082841e-13 	101324.999999998
-0.4291791791791794 	299.9999999999752 	1.914406798048119e-12 	101324.999999998
-0.426676676676677 	299.9999999999718 	6.096196791783404e-13 	101324.9999999978
-0.4241741741741744 	299.9999999999892 	1.565401597241374e-12 	101324.9999999978
-0.421671671671672 	300.0000000000026 	7.397762826042391e-13 	101324.9999999977
-0.4191691691691694 	300.0000000000164 	7.772449488730219e-13 	101324.9999999978
-0.4166666666666669 	300.0000000000188 	3.8806653552273e-13 	101324.9999999979
-0.4141641641641645 	299.9999999999811 	4.92722499213128e-13 	101324.9999999979
-0.411661661661662 	300.0000000000023 	1.153732697199355e-12 	101324.999999998
-0.4091591591591594 	300.0000000000039 	7.011390515125096e-13 	101324.9999999978
-0.406656656656657 	299.9999999999861 	7.644832514941637e-13 	101324.9999999975
-0.4041541541541545 	300.000000000004 	1.294319449118384e-12 	101324.9999999975
-0.401651651651652 	299.9999999999742 	8.329629984259855e-13 	101324.9999999975
-0.3991491491491494 	300.0000000000002 	2.777169465158501e-12 	101324.9999999978
-0.396646646646647 	299.9999999999863 	8.090311379522808e-13 	101324.9999999978
-0.3941441441441444 	299.9999999999908 	2.570533898090952e-12 	101324.9999999976
-0.3916416416416419 	299.999999999975 	1.127807788182755e-12 	101324.9999999975
-0.3891391391391395 	299.999999999987 	1.741128388360449e-12 	101324.9999999978
-0.3866366366366368 	299.9999999999884 	5.870398071801183e-13 	101324.9999999977
-0.3841341341341344 	299.9999999999999 	1.476421473214787e-12 	101324.9999999978
-0.381631631631632 	299.999999999985 	1.314364421973223e-12 	101324.9999999978
-0.3791291291291294 	300.000000000003 	1.105522622826282e-12 	101324.999999998
-0.3766266266266269 	300.0000000000078 	1.014857240769767e-12 	101324.9999999981
-0.3741241241241244 	300.0000000000082 	1.528700382983918e-13 	101324.9999999981
-0.371621621621622 	300.0000000000061 	1.852691077729736e-12 	101324.9999999979
-0.3691191191191194 	300.0000000000014 	6.090487938759089e-13 	101324.9999999978
-0.366616616616617 	300.0000000000023 	2.716769077480811e-12 	101324.9999999975
-0.3641141141141143 	299.9999999999914 	1.00671683995026e-12 	101324.9999999973
-0.3616116116116119 	299.9999999999812 	2.169461359997837e-12 	101324.9999999974
-0.3591091091091095 	299.999999999993 	8.741444092254398e-13 	101324.9999999977
-0.356606606606607 	299.9999999999957 	1.004605672769913e-12 	101324.9999999979
-0.3541041041041044 	299.9999999999987 	1.198234954350822e-12 	101324.9999999977
-0.3516016016016019 	300.0000000000094 	7.48215535891436e-13 	101324.9999999979
-0.3490990990990994 	299.9999999999977 	1.421736290253931e-12 	101324.9999999978
-0.346596596596597 	300.0000000000096 	3.030684741747335e-13 	101324.9999999978
-0.3440940940940944 	300.0000000000118 	1.415675972333503e-12 	101324.9999999977
-0.3415915915915919 	300.0000000000086 	5.235006435597812e-13 	101324.9999999976
-0.3390890890890895 	299.9999999999939 	5.066015918014753e-13 	101324.9999999975
-0.3365865865865869 	300.0000000000052 	2.90560130754962e-13 	101324.9999999975
-0.3340840840840844 	299.9999999999957 	8.060093289695279e-14 	101324.9999999975
-0.3315815815815819 	300.0000000000074 	3.750153990078187e-13 	101324.9999999975
-0.3290790790790794 	300.0000000000083 	9.09691407448659e-13 	101324.9999999975
-0.3265765765765769 	299.9999999999802 	1.217315697099301e-12 	101324.9999999973
-0.3240740740740744 	300.000000000002 	1.135293996948252e-12 	101324.9999999975
-0.3215715715715718 	300.0000000000092 	1.582744357987372e-12 	101324.9999999976
-0.3190690690690695 	299.999999999981 	5.834651310252144e-13 	101324.9999999974
-0.3165665665665668 	299.9999999999967 	9.478858864186659e-13 	101324.9999999975
-0.3140640640640644 	299.9999999999984 	2.943140748248215e-13 	101324.9999999976
-0.311561561561562 	299.9999999999772 	1.381835309793421e-12 	101324.9999999978
-0.3090590590590593 	299.999999999997 	1.366353069996786e-12 	101324.9999999975
-0.3065565565565568 	300.0000000000002 	2.170369156903923e-12 	101324.9999999975
-0.3040540540540545 	299.9999999999984 	1.19667267700607e-12 	101324.9999999976
-0.3015515515515518 	300.0000000000084 	2.621619150660104e-12 	101324.9999999977
-0.2990490490490494 	299.9999999999768 	9.41517268161452e-13 	101324.9999999977
-0.2965465465465469 	299.9999999999995 	1.534869046498636e-12 	101324.9999999974
-0.2940440440440444 	299.9999999999974 	1.125102170983444e-12 	101324.9999999972
-0.2915415415415418 	300.0000000000035 	1.141192332679456e-12 	101324.9999999974
-0.2890390390390395 	300.0000000000043 	1.29872770426797e-12 	101324.9999999976
-0.2865365365365368 	299.99999999999 	3.114682763651643e-13 	101324.9999999978
-0.2840340340340343 	299.9999999999972 	1.267974416474074e-12 	101324.9999999979
-0.2815315315315318 	299.9999999999742 	7.602234580570753e-13 	101324.9999999979
-0.2790290290290295 	299.9999999999922 	8.038002076525766e-13 	101324.9999999981
-0.2765265265265269 	300.0000000000043 	1.07535326568279e-13 	101324.9999999978
-0.2740240240240244 	300.0000000000065 	8.974053732454144e-13 	101324.9999999976
-0.2715215215215219 	300.0000000000065 	1.417007014346181e-12 	101324.9999999974
-0.2690190190190194 	299.9999999999775 	1.231071968571509e-12 	101324.9999999976
-0.2665165165165169 	299.9999999999972 	1.572186602082833e-12 	101324.999999998
-0.2640140140140144 	299.9999999999974 	1.306124391101694e-12 	101324.9999999978
-0.2615115115115119 	299.9999999999991 	2.824059301330947e-12 	101324.9999999978
-0.2590090090090094 	299.9999999999734 	2.025642736219027e-12 	101324.9999999977
-0.2565065065065068 	299.9999999999941 	2.354315701829101e-12 	101324.9999999974
-0.2540040040040044 	299.9999999999953 	2.300089274873402e-12 	101324.9999999974
-0.2515015015015019 	300.0000000000068 	2.244302306753322e-12 	101324.9999999973
-0.2489989989989994 	300.0000000000113 	3.098719256821995e-12 	101324.9999999972
-0.2464964964964968 	299.9999999999908 	2.038727793028445e-12 	101324.9999999972
-0.2439939939939944 	299.9999999999942 	3.394255567624883e-12 	101324.9999999973
-0.2414914914914919 	299.9999999999857 	1.094635389561254e-12 	101324.9999999973
-0.2389889889889893 	299.9999999999943 	2.577267377161779e-12 	101324.9999999973
-0.2364864864864869 	300.0000000000082 	1.153893198714756e-12 	101324.999999997
-0.2339839839839843 	299.9999999999845 	3.216647052567216e-12 	101324.9999999973
-0.2314814814814819 	299.999999999989 	1.420536011606654e-12 	101324.9999999974
-0.2289789789789792 	299.9999999999732 	3.630062427437394e-12 	101324.9999999976
-0.2264764764764769 	299.9999999999822 	3.321475852200089e-12 	101324.9999999978
-0.2239739739739743 	299.9999999999936 	4.266540858970179e-12 	101324.9999999976
-0.2214714714714718 	299.9999999999804 	3.775087475872581e-12 	101324.9999999979
-0.2189689689689693 	299.9999999999863 	2.505093255557135e-12 	101324.9999999976
-0.2164664664664669 	299.9999999999899 	3.683429719457517e-12 	101324.9999999975
-0.2139639639639643 	299.9999999999724 	2.492117019555258e-12 	101324.9999999974
-0.2114614614614618 	299.9999999999897 	3.136826458380023e-12 	101324.9999999973
-0.2089589589589593 	300.0000000000026 	2.388913966997764e-12 	101324.999999997
-0.2064564564564568 	300.0000000000032 	2.488864255741667e-12 	101324.9999999969
-0.2039539539539543 	299.9999999999737 	2.732784797803263e-12 	101324.9999999967
-0.2014514514514518 	299.9999999999726 	1.613368200957635e-12 	101324.9999999966
-0.1989489489489494 	299.9999999999938 	3.491139505571531e-12 	101324.9999999968
-0.1964464464464468 	300.0000000000044 	1.650925916590405e-12 	101324.9999999965
-0.1939439439439443 	300.0000000000012 	3.229482950467985e-12 	101324.9999999966
-0.1914414414414418 	299.99999999998 	2.160480435355512e-12 	101324.9999999969
-0.1889389389389393 	299.999999999998 	2.197769375413177e-12 	101324.999999997
-0.1864364364364368 	300.0000000000098 	2.401739859009825e-12 	101324.9999999969
-0.1839339339339343 	299.9999999999948 	2.911812111126144e-12 	101324.999999997
-0.1814314314314318 	299.9999999999953 	3.477922473252635e-12 	101324.9999999972
-0.1789289289289293 	299.9999999999698 	3.437861211432824e-12 	101324.9999999973
-0.1764264264264268 	299.9999999999874 	3.453050294785059e-12 	101324.9999999972
-0.1739239239239243 	299.9999999999673 	3.822115673280094e-12 	101324.9999999971
-0.1714214214214218 	299.9999999999985 	2.768664672038012e-12 	101324.9999999973
-0.1689189189189193 	299.999999999979 	3.186732631913172e-12 	101324.9999999972
-0.1664164164164168 	299.9999999999957 	1.291849596145433e-12 	101324.9999999969
-0.1639139139139143 	299.9999999999948 	3.930295657529102e-12 	101324.9999999968
-0.1614114114114118 	300.0000000000028 	1.791781608972372e-12 	101324.9999999968
-0.1589089089089093 	300.0000000000016 	6.299611981877113e-12 	101324.9999999969
-0.1564064064064068 	299.999999999989 	9.438083275874846e-13 	101324.9999999966
-0.1539039039039043 	299.9999999999999 	5.857873534053358e-12 	101324.9999999965
-0.1514014014014018 	300.0000000000045 	1.692606945797791e-12 	101324.9999999968
-0.1488988988988993 	300.0000000000015 	5.854308945321238e-12 	101324.9999999968
-0.1463963963963968 	300.0000000000027 	2.202973928180578e-12 	101324.9999999966
-0.1438938938938943 	299.9999999999914 	4.470555953937403e-12 	101324.9999999964
-0.1413913913913918 	299.9999999999761 	2.017677256092677e-12 	101324.9999999964
-0.1388888888888893 	299.9999999999883 	3.08360732742267e-12 	101324.9999999967
-0.1363863863863868 	299.9999999999627 	2.708404223745594e-12 	101324.9999999968
-0.1338838838838843 	299.999999999978 	3.394268917253542e-12 	101324.9999999968
-0.1313813813813818 	299.999999999998 	3.200806700741176e-12 	101324.9999999967
-0.1288788788788793 	299.9999999999821 	3.839652316885841e-12 	101324.9999999968
-0.1263763763763768 	299.9999999999933 	2.845251243219103e-12 	101324.9999999966
-0.1238738738738743 	299.9999999999818 	3.459948619227448e-12 	101324.9999999966
-0.1213713713713717 	299.9999999999969 	2.251075337844802e-12 	101324.9999999968
-0.1188688688688693 	300.0000000000059 	3.703167084814587e-12 	101324.9999999968
-0.1163663663663668 	299.9999999999661 	1.538322290830665e-12 	101324.9999999969
-0.1138638638638643 	299.9999999999989 	3.066730231482214e-12 	101324.9999999968
-0.1113613613613618 	299.9999999999991 	5.363748079600567e-13 	101324.9999999967
-0.1088588588588592 	299.9999999999978 	3.285996064138054e-12 	101324.9999999968
-0.1063563563563568 	299.9999999999882 	5.522189662854966e-13 	101324.9999999965
-0.1038538538538543 	299.9999999999941 	2.823783387664131e-12 	101324.9999999964
-0.1013513513513517 	300.0000000000013 	2.137359893127817e-12 	101324.9999999964
-0.09884884884884926 	299.9999999999872 	3.342993738075797e-12 	101324.9999999961
-0.09634634634634676 	299.9999999999698 	2.759909501477802e-12 	101324.9999999959
-0.09384384384384425 	299.9999999999726 	3.065186186955049e-12 	101324.999999996
-0.09134134134134177 	300.000000000004 	2.181127691235145e-12 	101324.9999999961
-0.08883883883883925 	300.0000000000017 	2.911606628729998e-12 	101324.9999999963
-0.08633633633633674 	299.999999999982 	3.157238338263596e-12 	101324.9999999964
-0.08383383383383426 	300.0000000000026 	3.477580680731837e-12 	101324.9999999966
-0.08133133133133173 	299.9999999999883 	4.057633030560931e-12 	101324.9999999965
-0.07882882882882926 	299.9999999999624 	2.801799719158777e-12 	101324.9999999965
-0.07632632632632676 	299.9999999999909 	2.837983314550282e-12 	101324.9999999965
-0.07382382382382424 	299.9999999999633 	2.398492398034024e-12 	101324.9999999963
-0.07132132132132173 	300.0000000000019 	2.069126163666471e-12 	101324.9999999963
-0.06881881881881925 	299.999999999981 	2.546049821556775e-12 	101324.999999996
-0.06631631631631671 	299.9999999999642 	2.328877289508688e-12 	101324.9999999959
-0.06381381381381425 	299.9999999999855 	1.914658363056843e-12 	101324.9999999961
-0.06131131131131173 	299.9999999999857 	1.648128184571037e-12 	101324.9999999959
-0.05880880880880923 	299.9999999999747 	1.226260093229898e-12 	101324.9999999959
-0.05630630630630672 	299.9999999999884 	1.533024322251302e-12 	101324.9999999959
-0.05380380380380424 	300.0000000000057 	2.010168025461441e-12 	101324.9999999959
-0.05130130130130173 	300.0000000000023 	2.688735188356536e-12 	101324.9999999961
-0.04879879879879922 	299.9999999999745 	2.595802714712632e-12 	101324.9999999962
-0.04629629629629672 	299.9999999999764 	1.807643018859638e-12 	101324.9999999963
-0.04379379379379422 	299.9999999999724 	1.222246561006842e-12 	101324.999999996
-0.04129129129129173 	299.9999999999911 	9.566639017912393e-13 	101324.9999999961
-0.03878878878878922 	299.9999999999956 	1.112542479909283e-12 	101324.9999999958
-0.03628628628628671 	299.9999999999952 	1.174587012562907e-12 	101324.9999999958
-0.03378378378378422 	299.999999999977 	1.558794676651667e-12 	101324.9999999957
-0.03128128128128172 	299.999999999988 	1.012666403217961e-12 	101324.9999999954
-0.02877877877877922 	299.9999999999882 	8.65267515975084e-13 	101324.9999999953
-0.0262762762762767 	299.9999999999647 	1.255824152799827e-13 	101324.9999999954
-0.02377377377377422 	300.0000000000045 	7.418890304620458e-13 	101324.9999999958
-0.0212712712712717 	299.9999999999681 	8.233447073367766e-13 	101324.999999996
-0.01876876876876921 	299.9999999999876 	1.292372870306621e-12 	101324.9999999961
-0.01626626626626671 	299.9999999999984 	8.434675650084614e-13 	101324.9999999961
-0.0137637637637642 	299.9999999999882 	1.608493092631056e-12 	101324.9999999962
-0.0112612612612617 	300.0000000000019 	6.631850512660228e-13 	101324.9999999962
-0.008758758758759198 	299.9999999999965 	1.476096915016889e-13 	101324.9999999959
-0.006256256256256697 	299.9999999999609 	2.605941049353768e-13 	101324.9999999958
-0.003753753753754195 	299.9999999999802 	1.21460919431583e-13 	101324.9999999958
-0.001251251251251693 	299.9999999999746 	7.244640545598122e-13 	101324.9999999957
0.00125125125125081 	299.9999999999823 	5.179130216981463e-13 	101324.9999999959
0.003753753753753312 	299.9999999999843 	1.374933517654112e-12 	101324.9999999958
0.006256256256255817 	299.9999999999608 	1.322874341564718e-12 	101324.9999999957
0.008758758758758317 	299.9999999999935 	1.378674900261388e-12 	101324.9999999961
0.01126126126126082 	300.0000000000003 	1.232780481593287e-12 	101324.999999996
0.01376376376376332 	299.9999999999895 	1.186312281347108e-12 	101324.9999999962
0.01626626626626582 	300.0000000000024 	3.172175925599874e-13 	101324.9999999962
0.01876876876876833 	299.9999999999835 	1.970827857989183e-13 	101324.9999999962
0.02127127127127083 	299.9999999999914 	3.324013809266779e-13 	101324.9999999963
0.02377377377377332 	299.9999999999959 	7.925854505595671e-13 	101324.9999999964
0.02627627627627583 	299.9999999999698 	1.449154480600722e-12 	101324.9999999968
0.02877877877877833 	299.9999999999989 	1.252429618137685e-12 	101324.9999999968
0.03128128128128083 	299.9999999999827 	6.738029349082961e-13 	101324.9999999965
0.03378378378378333 	299.9999999999672 	8.143719950335051e-13 	101324.9999999965
0.03628628628628584 	299.9999999999923 	6.37097453898196e-13 	101324.9999999966
0.03878878878878834 	299.9999999999985 	2.929252595585976e-13 	101324.9999999967
0.04129129129129084 	299.9999999999895 	3.236104314877109e-13 	101324.9999999969
0.04379379379379333 	299.9999999999799 	6.488279120639657e-13 	101324.9999999965
0.04629629629629585 	299.9999999999629 	9.780407900101569e-13 	101324.9999999962
0.04879879879879834 	299.9999999999827 	1.523578707078107e-12 	101324.9999999961
0.05130130130130085 	300.0000000000003 	1.808980631975711e-12 	101324.999999996
0.05380380380380335 	300.0000000000084 	1.279646150134356e-12 	101324.9999999958
0.05630630630630584 	299.9999999999938 	1.014833731951686e-12 	101324.9999999957
0.05880880880880836 	299.9999999999781 	9.370860602266976e-13 	101324.9999999957
0.06131131131131085 	299.9999999999924 	1.127054277451756e-12 	101324.9999999957
0.06381381381381336 	299.9999999999825 	1.605805822582009e-12 	101324.9999999958
0.06631631631631586 	299.9999999999613 	2.372857246491194e-12 	101324.9999999959
0.06881881881881835 	299.9999999999845 	2.641774607691345e-12 	101324.999999996
0.07132132132132088 	300.0000000000001 	2.159047807857313e-12 	101324.999999996
0.07382382382382337 	299.9999999999652 	1.758313555535927e-12 	101324.9999999959
0.07632632632632587 	299.9999999999887 	2.170551169289213e-12 	101324.9999999962
0.07882882882882837 	299.9999999999787 	2.326269183620486e-12 	101324.9999999963
0.08133133133133086 	299.9999999999974 	2.862709676496607e-12 	101324.9999999964
0.08383383383383337 	300.0000000000028 	2.399532514030529e-12 	101324.9999999967
0.08633633633633589 	299.9999999999691 	2.661770693440149e-12 	101324.9999999965
0.08883883883883838 	300.0000000000032 	3.21395783471443e-12 	101324.9999999965
0.09134134134134086 	299.9999999999978 	3.538903496916133e-12 	101324.9999999964
0.09384384384384339 	299.9999999999686 	4.235448361613942e-12 	101324.9999999963
0.09634634634634588 	299.9999999999881 	4.178335399381714e-12 	101324.9999999962
0.09884884884884838 	299.9999999999893 	4.003078196670335e-12 	101324.9999999962
0.1013513513513509 	300.0000000000106 	3.590717226853182e-12 	101324.9999999962
0.1038538538538534 	299.999999999981 	2.261271436865902e-12 	101324.9999999963
0.1063563563563559 	300.000000000002 	2.301004492736905e-12 	101324.9999999962
0.1088588588588584 	300.0000000000031 	1.733828617044781e-12 	101324.9999999961
0.1113613613613609 	299.9999999999804 	2.053814577681889e-12 	101324.9999999962
0.1138638638638634 	299.9999999999841 	2.621386273002734e-12 	101324.9999999962
0.1163663663663659 	299.9999999999794 	3.14972368102564e-12 	101324.999999996
0.1188688688688684 	299.9999999999858 	3.355504433566477e-12 	101324.9999999962
0.1213713713713709 	299.9999999999926 	3.139808340840009e-12 	101324.9999999961
0.1238738738738734 	299.9999999999731 	2.7990301855805e-12 	101324.9999999962
0.1263763763763759 	299.9999999999987 	2.751424829377404e-12 	101324.9999999965
0.1288788788788784 	300.0000000000002 	2.230608876877593e-12 	101324.9999999966
0.1313813813813809 	299.9999999999978 	2.473115873471841e-12 	101324.9999999964
0.1338838838838834 	299.9999999999867 	2.385102448761548e-12 	101324.9999999965
0.1363863863863859 	300.00000000001 	2.710442218601876e-12 	101324.9999999967
0.1388888888888884 	300.0000000000105 	2.769558549838035e-12 	101324.9999999969
0.1413913913913909 	300.0000000000002 	3.110268534245712e-12 	101324.9999999972
0.1438938938938934 	299.9999999999945 	2.892552645006895e-12 	101324.9999999972
0.1463963963963959 	299.9999999999872 	2.688114960600673e-12 	101324.999999997
0.1488988988988985 	299.9999999999714 	3.392167453252621e-12 	101324.9999999972
0.1514014014014009 	299.999999999989 	3.388935779600163e-12 	101324.9999999967
0.1539039039039035 	299.9999999999857 	4.149132316862234e-12 	101324.9999999966
0.1564064064064059 	299.9999999999838 	2.800057473690714e-12 	101324.9999999967
0.1589089089089084 	299.9999999999901 	4.584247850790825e-12 	101324.9999999969
0.1614114114114109 	299.9999999999888 	2.495491793871314e-12 	101324.9999999968
0.1639139139139134 	299.9999999999753 	3.721523615628379e-12 	101324.9999999969
0.166416416416416 	299.9999999999973 	3.848672405198254e-12 	101324.9999999969
0.1689189189189185 	300.0000000000128 	3.789772743378366e-12 	101324.9999999971
0.1714214214214209 	300.000000000002 	4.00054316936659e-12 	101324.9999999972
0.1739239239239235 	299.9999999999998 	2.73454994100862e-12 	101324.999999997
0.1764264264264259 	299.9999999999847 	3.966511386050737e-12 	101324.9999999968
0.1789289289289284 	300.0000000000035 	2.524616262870954e-12 	101324.9999999968
0.181431431431431 	299.999999999992 	4.01886696981102e-12 	101324.9999999968
0.1839339339339334 	299.9999999999939 	2.851222181244157e-12 	101324.9999999969
0.186436436436436 	299.9999999999821 	4.092615309642719e-12 	101324.9999999969
0.1889389389389385 	299.9999999999952 	4.025470705045169e-12 	101324.999999997
0.191441441441441 	299.999999999993 	3.087586450880359e-12 	101324.9999999968
0.1939439439439434 	299.9999999999716 	3.661667094169678e-12 	101324.9999999967
0.196446446446446 	299.9999999999876 	2.087178768051959e-12 	101324.9999999968
0.1989489489489485 	299.9999999999917 	3.250869776242986e-12 	101324.9999999968
0.2014514514514509 	299.9999999999941 	2.155786081154315e-12 	101324.9999999969
0.2039539539539535 	299.9999999999953 	2.739133329480758e-12 	101324.9999999971
0.2064564564564559 	299.999999999985 	2.247299493452636e-12 	101324.9999999973
0.2089589589589585 	299.9999999999943 	2.800607205751064e-12 	101324.9999999973
0.211461461461461 	299.9999999999852 	3.003130755968028e-12 	101324.9999999972
0.2139639639639635 	299.9999999999986 	2.932939867658007e-12 	101324.999999997
0.2164664664664659 	300.0000000000043 	3.295582197225175e-12 	101324.9999999972
0.2189689689689684 	300.000000000005 	2.306549233287484e-12 	101324.9999999972
0.221471471471471 	300.0000000000024 	3.841267146645174e-12 	101324.9999999971
0.2239739739739735 	299.9999999999855 	2.25103945421014e-12 	101324.9999999971
0.226476476476476 	299.9999999999989 	3.064352848881546e-12 	101324.9999999971
0.2289789789789785 	300.0000000000018 	2.613067207706204e-12 	101324.9999999973
0.231481481481481 	299.9999999999887 	2.54579561073599e-12 	101324.9999999976
0.2339839839839835 	299.9999999999937 	2.767534511063686e-12 	101324.9999999973
0.236486486486486 	300.0000000000068 	2.067068070801828e-12 	101324.9999999974
0.2389889889889885 	299.9999999999993 	2.852512411569647e-12 	101324.9999999975
0.241491491491491 	299.9999999999725 	1.314558988294776e-12 	101324.9999999975
0.2439939939939935 	299.9999999999929 	3.268676468421833e-12 	101324.9999999976
0.246496496496496 	299.9999999999922 	2.369522278220647e-12 	101324.9999999977
0.2489989989989985 	300.0000000000076 	3.260296654573898e-12 	101324.9999999977
0.251501501501501 	300.0000000000053 	2.899182883426835e-12 	101324.9999999979
0.2540040040040035 	299.9999999999941 	3.208547168221515e-12 	101324.9999999978
0.256506506506506 	300.0000000000039 	3.442082423264617e-12 	101324.9999999978
0.2590090090090086 	299.9999999999719 	2.717097283228912e-12 	101324.9999999979
0.261511511511511 	300.0000000000055 	4.649494772701405e-12 	101324.9999999978
0.2640140140140135 	299.999999999996 	2.506268095461288e-12 	101324.999999998
0.2665165165165161 	299.9999999999825 	3.611713019890349e-12 	101324.9999999981
0.2690190190190185 	300.0000000000084 	2.383991642665741e-12 	101324.9999999981
0.271521521521521 	300.000000000004 	2.08647133649198e-12 	101324.9999999982
0.2740240240240235 	300.0000000000057 	1.877081111311066e-12 	101324.999999998
0.276526526526526 	299.9999999999998 	1.78404304552799e-12 	101324.9999999978
0.2790290290290286 	299.999999999984 	2.465975418977506e-12 	101324.9999999976
0.281531531531531 	299.9999999999746 	1.439006516246912e-12 	101324.9999999976
0.2840340340340335 	299.9999999999964 	2.690336450966118e-12 	101324.9999999977
0.2865365365365361 	299.9999999999879 	1.260282052954976e-12 	101324.9999999975
0.2890390390390385 	299.9999999999968 	1.654312923898145e-12 	101324.9999999975
0.291541541541541 	299.9999999999965 	6.971379920148084e-13 	101324.9999999976
0.2940440440440436 	299.9999999999978 	1.201282429037495e-12 	101324.9999999976
0.296546546546546 	299.9999999999947 	1.354445164633376e-12 	101324.9999999975
0.2990490490490486 	299.9999999999766 	7.43791757181334e-13 	101324.9999999976
0.3015515515515511 	300.0000000000082 	2.379629786711124e-12 	101324.9999999976
0.3040540540540535 	299.9999999999973 	1.355897002377836e-12 	101324.9999999978
0.3065565565565562 	299.9999999999989 	2.652314390135044e-12 	101324.9999999977
0.3090590590590585 	299.9999999999959 	5.792210634113607e-13 	101324.9999999978
0.3115615615615611 	299.9999999999769 	2.534516698478488e-12 	101324.9999999977
0.3140640640640635 	300.0000000000006 	1.151516215753674e-12 	101324.9999999976
0.316566566566566 	299.999999999996 	1.2879392825658e-12 	101324.9999999978
0.3190690690690687 	299.9999999999825 	6.522603906407616e-13 	101324.9999999978
0.3215715715715711 	300.0000000000014 	1.389509367667606e-12 	101324.9999999978
0.3240740740740735 	299.9999999999956 	5.134678875077613e-13 	101324.9999999975
0.326576576576576 	299.9999999999692 	4.010888730897166e-13 	101324.9999999976
0.3290790790790786 	300.0000000000003 	7.034431701077285e-13 	101324.9999999976
0.3315815815815811 	300.0000000000146 	1.174312415081369e-12 	101324.9999999973
0.3340840840840836 	300.0000000000009 	1.543901330548398e-12 	101324.9999999975
0.3365865865865861 	300.0000000000188 	1.226158830291225e-12 	101324.9999999977
0.3390890890890886 	300.0000000000147 	1.88492878555176e-12 	101324.9999999978
0.3415915915915911 	299.9999999999976 	9.979099482933651e-13 	101324.9999999977
0.3440940940940935 	299.9999999999845 	1.480467734801801e-12 	101324.9999999976
0.3465965965965962 	300.0000000000135 	3.269980212646131e-13 	101324.9999999973
0.3490990990990985 	300.0000000000103 	1.458238461163127e-12 	101324.9999999971
0.3516016016016011 	299.9999999999946 	9.074146160346387e-13 	101324.999999997
0.3541041041041035 	300.0000000000032 	1.665944247173459e-12 	101324.9999999972
0.3566066066066061 	299.9999999999856 	1.705025369815311e-12 	101324.9999999973
0.3591091091091085 	299.9999999999766 	1.391771586169241e-12 	101324.9999999974
0.3616116116116112 	299.9999999999816 	1.739440470681852e-12 	101324.9999999974
0.3641141141141137 	299.99999999998 	8.258860985835463e-13 	101324.9999999974
0.3666166166166161 	299.9999999999778 	2.286082205719037e-12 	101324.9999999974
0.3691191191191185 	300.0000000000117 	9.359153861577553e-13 	101324.9999999974
0.371621621621621 	300.0000000000033 	2.150979686942901e-12 	101324.9999999972
0.3741241241241237 	300.0000000000147 	7.443199787632327e-13 	101324.9999999976
0.3766266266266261 	300.000000000006 	2.272928740017036e-12 	101324.9999999979
0.3791291291291286 	299.9999999999948 	1.24933735980887e-12 	101324.9999999981
0.3816316316316311 	299.9999999999782 	1.250331181480101e-12 	101324.9999999979
0.3841341341341336 	300.0000000000054 	6.363935630072854e-13 	101324.9999999979
0.3866366366366362 	300.000000000001 	5.624546491140965e-13 	101324.999999998
0.3891391391391387 	299.9999999999862 	9.984233113389054e-14 	101324.999999998
0.391641641641641 	299.9999999999997 	1.343695415799585e-13 	101324.9999999979
0.3941441441441436 	300.0000000000028 	2.981384555372261e-13 	101324.9999999977
0.3966466466466462 	300.0000000000011 	1.180220927871951e-12 	101324.9999999976
0.3991491491491486 	299.9999999999874 	1.327089587198168e-12 	101324.9999999974
0.4016516516516512 	299.9999999999748 	1.639694742043381e-12 	101324.9999999977
0.4041541541541536 	299.9999999999871 	7.586596082749969e-13 	101324.9999999978
0.4066566566566561 	299.9999999999866 	1.936565152756087e-12 	101324.9999999981
0.4091591591591587 	299.9999999999987 	3.378026249993639e-13 	101324.9999999984
0.4116616616616612 	300.0000000000027 	1.533912032073319e-12 	101324.9999999983
0.4141641641641635 	300.0000000000135 	5.493486562287922e-13 	101324.9999999983
0.4166666666666662 	300.0000000000014 	1.629503420426238e-12 	101324.9999999984
0.4191691691691687 	299.9999999999817 	2.139981898070577e-12 	101324.9999999983
0.421671671671671 	300.0000000000049 	1.514191451775141e-12 	101324.9999999983
0.4241741741741737 	299.9999999999948 	2.785920769359274e-12 	101324.9999999981
0.4266766766766761 	299.9999999999885 	9.894711525604476e-13 	101324.9999999979
0.4291791791791785 	300.0000000000067 	3.242914552826444e-12 	101324.999999998
0.4316816816816812 	300.0000000000011 	7.07910384224824e-13 	101324.9999999978
0.4341841841841836 	299.9999999999935 	2.631976975230554e-12 	101324.9999999978
0.4366866866866862 	299.9999999999771 	1.077017484428818e-12 	101324.9999999977
0.4391891891891885 	299.9999999999953 	2.515123098647771e-12 	101324.9999999978
0.4416916916916913 	299.9999999999949 	2.536476190977043e-12 	101324.999999998
0.4441941941941936 	299.9999999999944 	3.148087167651657e-12 	101324.9999999979
0.4466966966966961 	299.9999999999754 	2.591390294652883e-12 	101324.9999999979
0.4491991991991987 	299.9999999999935 	1.960182804834372e-12 	101324.9999999977
0.4517017017017012 	299.9999999999929 	2.274285503914258e-12 	101324.9999999978
0.4542042042042035 	299.9999999999926 	1.607432303988231e-12 	101324.999999998
0.4567067067067062 	299.9999999999965 	1.985759741040181e-12 	101324.999999998
0.4592092092092087 	299.9999999999779 	1.669542005568415e-12 	101324.9999999979
0.4617117117117112 	300.0000000000039 	1.827476965077181e-12 	101324.999999998
0.4642142142142137 	299.9999999999877 	1.735011530632332e-12 	101324.9999999978
0.4667167167167162 	299.9999999999953 	1.553079930138091e-12 	101324.9999999979
0.4692192192192187 	299.9999999999841 	1.904766659120502e-12 	101324.9999999977
0.4717217217217212 	300.0000000000065 	1.998311345715561e-12 	101324.9999999978
0.4742242242242236 	299.9999999999866 	1.991102281100129e-12 	101324.999999998
0.4767267267267262 	299.9999999999976 	1.789743766050041e-12 	101324.9999999978
0.4792292292292287 	300.0000000000052 	2.214886275090415e-12 	101324.9999999976
0.4817317317317312 	300.0000000000079 	1.892213628020204e-12 	101324.9999999974
0.4842342342342336 	299.9999999999928 	1.863331079858641e-12 	101324.9999999976
0.4867367367367362 	299.9999999999835 	1.673938499810784e-12 	101324.9999999974
0.4892392392392387 	300.0000000000061 	1.677920280535044e-12 	101324.9999999972
0.4917417417417412 	299.9999999999995 	2.672640469389085e-12 	101324.9999999971
0.4942442442442437 	299.9999999999699 	2.083185059881173e-12 	101324.9999999972
0.4967467467467462 	299.9999999999775 	2.739046835988093e-12 	101324.9999999973
0.4992492492492487 	299.9999999999762 	1.278173736888731e-12 	101324.9999999975
0.5017517517517511 	299.9999999999865 	2.043730205687405e-12 	101324.9999999978
0.5042542542542537 	299.9999999999862 	1.233139495506235e-12 	101324.999999998
0.5067567567567562 	299.9999999999803 	1.30434582894003e-12 	101324.9999999979
0.5092592592592589 	299.9999999999875 	1.359365455279017e-12 	101324.9999999978
0.5117617617617611 	299.9999999999869 	1.738554018914547e-12 	101324.9999999976
0.5142642642642637 	299.9999999999977 	2.590582530293722e-12 	101324.9999999975
0.5167667667667663 	299.9999999999931 	2.274696498741328e-12 	101324.9999999973
0.5192692692692688 	299.9999999999761 	3.597536806135602e-12 	101324.9999999974
0.5217717717717714 	299.9999999999799 	1.281741999848533e-12 	101324.9999999975
0.5242742742742736 	299.99999999998 	3.593732905208778e-12 	101324.9999999977
0.5267767767767763 	299.9999999999903 	2.056111950280882e-12 	101324.9999999978
0.5292792792792789 	299.9999999999838 	3.108179653689581e-12 	101324.9999999976
0.5317817817817813 	299.9999999999698 	1.595979536253333e-12 	101324.9999999976
0.5342842842842837 	300.0000000000019 	1.660836275545542e-12 	101324.9999999975
0.5367867867867864 	299.9999999999985 	1.500485638370895e-12 	101324.9999999974
0.5392892892892888 	299.9999999999858 	1.470005530489924e-12 	101324.9999999972
0.5417917917917912 	300.0000000000001 	1.174002980836545e-12 	101324.9999999971
0.5442942942942938 	299.9999999999928 	1.213108499278249e-12 	101324.9999999971
0.5467967967967964 	299.9999999999832 	7.901452122600641e-13 	101324.9999999972
0.5492992992992988 	299.999999999979 	6.373144059107631e-13 	101324.9999999972
0.5518018018018012 	299.9999999999812 	3.638473857914869e-13 	101324.9999999971
0.5543043043043039 	300.0000000000045 	6.694770832221282e-13 	101324.999999997
0.5568068068068063 	299.999999999996 	8.539956860989014e-13 	101324.9999999971
0.5593093093093087 	299.9999999999733 	1.253726475417553e-12 	101324.9999999972
0.5618118118118114 	299.9999999999881 	5.252064879128869e-13 	101324.999999997
0.5643143143143137 	299.9999999999828 	7.262755757144582e-13 	101324.999999997
0.5668168168168163 	299.9999999999985 	5.004364589141001e-13 	101324.9999999971
0.5693193193193188 	300.0000000000101 	6.136909517949839e-13 	101324.999999997
0.5718218218218213 	300.0000000000092 	6.521542417001822e-13 	101324.9999999971
0.5743243243243239 	300.0000000000029 	7.179419533121259e-13 	101324.9999999968
0.5768268268268262 	300.0000000000023 	1.229876718434614e-12 	101324.9999999967
0.5793293293293288 	299.9999999999864 	9.234869558410337e-13 	101324.9999999967
0.5818318318318314 	299.9999999999765 	1.753009677544806e-12 	101324.9999999969
0.5843343343343338 	299.9999999999944 	1.548581932813356e-12 	101324.9999999968
0.5868368368368363 	299.9999999999923 	1.555609065620712e-12 	101324.9999999967
0.5893393393393387 	299.9999999999826 	4.739576593425861e-13 	101324.9999999967
0.5918418418418413 	299.9999999999811 	1.001385669599889e-12 	101324.9999999967
0.5943443443443439 	300.0000000000036 	6.710336759047905e-13 	101324.9999999969
0.5968468468468463 	300.0000000000033 	9.370470328960739e-13 	101324.9999999971
0.5993493493493487 	300.0000000000149 	6.161315286211191e-13 	101324.9999999973
0.6018518518518514 	299.9999999999914 	6.154286273231127e-13 	101324.9999999972
0.6043543543543537 	299.999999999999 	4.856526977543684e-13 	101324.9999999972
0.6068568568568564 	299.9999999999941 	6.991151840874398e-13 	101324.999999997
0.6093593593593587 	299.9999999999761 	6.376039330436576e-13 	101324.9999999968
0.6118618618618614 	299.9999999999762 	4.702846945498717e-13 	101324.9999999967
0.6143643643643638 	300.0000000000031 	6.296499788723981e-13 	101324.9999999968
0.6168668668668662 	299.9999999999948 	8.883148307683793e-13 	101324.9999999968
0.6193693693693688 	299.9999999999844 	7.727562622830055e-13 	101324.9999999968
0.6218718718718714 	299.9999999999903 	1.119221061139136e-12 	101324.9999999967
0.6243743743743737 	299.9999999999796 	5.521040820118099e-13 	101324.9999999968
0.6268768768768762 	299.9999999999738 	9.357740965499152e-13 	101324.999999997
0.629379379379379 	299.9999999999846 	6.070106649379254e-13 	101324.999999997
0.6318818818818812 	299.9999999999864 	1.230348323927736e-12 	101324.9999999969
0.6343843843843838 	300.0000000000042 	8.772113431234957e-13 	101324.9999999968
0.6368868868868864 	299.9999999999943 	1.048578466904957e-12 	101324.9999999968
0.6393893893893888 	299.9999999999775 	1.366206333002797e-12 	101324.9999999969
0.6418918918918912 	299.9999999999991 	1.221671327335378e-12 	101324.9999999969
0.6443943943943939 	299.9999999999955 	2.330894364075126e-12 	101324.9999999971
0.6468968968968963 	299.9999999999933 	1.206100357647778e-12 	101324.9999999971
0.6493993993993988 	299.999999999991 	2.433918718172645e-12 	101324.9999999971
0.6519019019019012 	299.9999999999886 	1.399597908784146e-12 	101324.999999997
0.6544044044044038 	299.99999999997 	2.503344975389951e-12 	101324.9999999969
0.6569069069069065 	299.9999999999879 	1.355059657722272e-12 	101324.9999999968
0.6594094094094087 	299.9999999999848 	1.970568275116819e-12 	101324.9999999966
0.6619119119119113 	299.9999999999817 	1.050244016124213e-12 	101324.9999999965
0.664414414414414 	299.9999999999986 	1.468753403409034e-12 	101324.9999999964
0.6669169169169162 	300.0000000000013 	1.412561809669178e-12 	101324.9999999963
0.6694194194194188 	299.9999999999936 	1.572839452034704e-12 	101324.9999999964
0.6719219219219214 	299.9999999999802 	8.840901085667703e-13 	101324.9999999962
0.674424424424424 	299.9999999999916 	6.410317299364449e-13 	101324.9999999961
0.6769269269269262 	299.9999999999732 	3.64553644386416e-13 	101324.9999999961
0.679429429429429 	300.0000000000003 	5.621287849628667e-13 	101324.9999999962
0.6819319319319311 	299.9999999999901 	4.001695203216381e-13 	101324.9999999963
0.6844344344344341 	299.9999999999944 	7.263482037117782e-13 	101324.9999999963
0.686936936936936 	299.9999999999937 	5.199778045448048e-13 	101324.9999999963
0.6894394394394392 	299.999999999996 	2.50610244415308e-14 	101324.9999999962
0.6919419419419413 	299.9999999999938 	1.488268716564375e-13 	101324.9999999961
0.694444444444444 	299.9999999999832 	4.386768525353314e-13 	101324.999999996
0.6969469469469463 	299.9999999999782 	5.851914323636923e-13 	101324.9999999962
0.6994494494494489 	299.9999999999743 	2.879595610299817e-13 	101324.9999999963
0.7019519519519515 	299.999999999992 	8.330125060800247e-13 	101324.9999999964
0.7044544544544538 	299.9999999999829 	1.035481807854664e-12 	101324.9999999966
0.7069569569569564 	299.9999999999972 	1.148952965197543e-12 	101324.9999999968
0.7094594594594589 	299.9999999999876 	1.136617019300126e-12 	101324.9999999968
0.7119619619619615 	299.9999999999712 	5.508270581230767e-13 	101324.9999999969
0.7144644644644638 	299.9999999999829 	5.287175917319654e-13 	101324.999999997
0.7169669669669665 	299.9999999999768 	4.969592307510307e-13 	101324.9999999971
0.7194694694694688 	299.9999999999977 	6.830886968257587e-13 	101324.9999999972
0.7219719719719715 	299.9999999999975 	4.248267369355675e-13 	101324.999999997
0.7244744744744737 	299.9999999999991 	5.893451029224306e-13 	101324.9999999967
0.7269769769769764 	299.9999999999966 	1.01138731430141e-12 	101324.9999999964
0.7294794794794791 	299.9999999999952 	1.470457283909274e-12 	101324.9999999963
0.7319819819819813 	299.999999999992 	1.2546135911248e-12 	101324.9999999962
0.7344844844844839 	299.9999999999752 	9.429796610624777e-13 	101324.9999999963
0.7369869869869864 	299.9999999999873 	2.415354025595894e-13 	101324.9999999964
0.739489489489489 	299.9999999999837 	8.979959706682774e-13 	101324.9999999966
0.7419919919919914 	299.9999999999796 	1.042536715615362e-12 	101324.9999999966
0.7444944944944939 	299.9999999999918 	9.619165767488335e-13 	101324.9999999964
0.7469969969969963 	299.9999999999895 	2.111541117266836e-12 	101324.9999999962
0.7494994994994989 	299.9999999999793 	1.505704479888613e-12 	101324.9999999963
0.7520020020020015 	299.999999999988 	2.24215647902905e-12 	101324.9999999963
0.7545045045045039 	299.9999999999887 	1.049948574439529e-12 	101324.9999999964
0.7570070070070062 	299.9999999999814 	1.506493765984358e-12 	101324.9999999966
0.7595095095095092 	299.9999999999767 	6.172383190849339e-13 	101324.9999999968
0.7620120120120112 	299.9999999999968 	3.906166836853235e-13 	101324.999999997
0.7645145145145138 	299.9999999999948 	5.586772100750569e-13 	101324.999999997
0.7670170170170165 	299.9999999999804 	1.086835549375609e-12 	101324.9999999969
0.7695195195195191 	299.9999999999765 	1.119254048010566e-12 	101324.9999999969
0.7720220220220213 	299.9999999999815 	1.622765986129281e-12 	101324.9999999969
0.7745245245245239 	299.9999999999831 	1.099288846680562e-12 	101324.9999999969
0.7770270270270263 	299.9999999999931 	1.137993799622974e-12 	101324.999999997
0.779529529529529 	299.9999999999922 	4.269863062160317e-13 	101324.9999999969
0.7820320320320313 	299.999999999989 	8.091968455061069e-13 	101324.9999999969
0.784534534534534 	299.9999999999957 	6.670089222951583e-13 	101324.9999999969
0.7870370370370364 	299.9999999999953 	6.933924515483566e-13 	101324.999999997
0.7895395395395389 	299.9999999999933 	1.273686556030425e-12 	101324.9999999969
0.7920420420420413 	299.9999999999899 	1.057600287954201e-12 	101324.9999999968
0.794544544544544 	299.9999999999929 	1.646663312712453e-12 	101324.9999999967
0.7970470470470463 	300.0000000000031 	1.520228733554563e-12 	101324.9999999967
0.799549549549549 	299.9999999999959 	1.688822423806633e-12 	101324.9999999968
0.8020520520520515 	299.9999999999963 	9.132421223613079e-13 	101324.9999999968
0.8045545545545539 	299.9999999999846 	5.459074959364198e-13 	101324.9999999968
0.8070570570570563 	299.9999999999956 	3.763382387821074e-13 	101324.9999999968
0.8095595595595589 	299.9999999999873 	3.471601717542158e-13 	101324.9999999965
0.8120620620620614 	299.9999999999789 	6.121071602743101e-13 	101324.9999999963
0.8145645645645638 	299.9999999999961 	8.506994795977591e-13 	101324.9999999964
0.8170670670670666 	299.9999999999965 	1.299867503825161e-12 	101324.9999999966
0.8195695695695689 	299.9999999999921 	1.455567422266747e-12 	101324.9999999968
0.8220720720720714 	299.9999999999824 	2.147971469908901e-12 	101324.9999999968
0.8245745745745739 	299.9999999999986 	1.017721819715097e-12 	101324.9999999968
0.8270770770770765 	299.9999999999909 	1.769702201373788e-12 	101324.9999999969
0.8295795795795788 	299.9999999999843 	1.134052893524256e-12 	101324.9999999969
0.8320820820820815 	300.0000000000065 	1.143241952787459e-12 	101324.9999999968
0.834584584584584 	300.0000000000015 	8.254178656088986e-13 	101324.9999999968
0.8370870870870865 	299.9999999999909 	5.083922245395042e-13 	101324.999999997
0.8395895895895891 	299.9999999999775 	6.683518157865753e-13 	101324.9999999971
0.8420920920920915 	299.9999999999783 	4.018998164094344e-13 	101324.9999999969
0.844594594594594 	299.9999999999767 	5.136894538999614e-13 	101324.9999999967
0.8470970970970964 	299.9999999999831 	6.566234775339132e-13 	101324.9999999966
0.8495995995995991 	299.9999999999938 	8.85236111929062e-13 	101324.9999999969
0.8521021021021015 	299.9999999999923 	8.997236052948489e-13 	101324.9999999971
0.8546046046046039 	299.9999999999919 	9.021047711217797e-13 	101324.9999999971
0.8571071071071066 	299.9999999999977 	1.722816740536837e-12 	101324.9999999972
0.8596096096096089 	299.9999999999849 	1.383028590799009e-12 	101324.9999999972
0.8621121121121116 	299.9999999999768 	1.779599177550079e-12 	101324.9999999971
0.8646146146146139 	299.9999999999976 	5.827694280078568e-13 	101324.9999999971
0.8671171171171166 	299.9999999999942 	8.019958147231326e-13 	101324.9999999971
0.8696196196196189 	299.999999999986 	1.29934842037792e-13 	101324.9999999969
0.8721221221221216 	299.9999999999867 	3.36345838658244e-13 	101324.9999999968
0.874624624624624 	299.9999999999992 	5.958332595508839e-13 	101324.9999999969
0.8771271271271264 	300.0000000000019 	1.019906725852894e-12 	101324.9999999969
0.879629629629629 	299.9999999999978 	1.593704056785446e-12 	101324.9999999969
0.8821321321321317 	299.999999999995 	1.388172587196718e-12 	101324.999999997
0.8846346346346339 	299.9999999999769 	1.874019086889299e-12 	101324.9999999971
0.8871371371371364 	299.9999999999878 	1.181491653711253e-12 	101324.999999997
0.8896396396396391 	299.999999999987 	1.830913633286075e-12 	101324.9999999969
0.8921421421421414 	299.9999999999858 	1.163455988240147e-12 	101324.9999999967
0.8946446446446441 	299.9999999999938 	9.892628887730074e-13 	101324.9999999967
0.8971471471471464 	299.9999999999972 	8.360970732200761e-13 	101324.9999999966
0.8996496496496489 	299.9999999999902 	6.162898051756907e-13 	101324.9999999966
0.9021521521521517 	299.9999999999861 	7.320587169387117e-13 	101324.9999999967
0.9046546546546541 	299.9999999999914 	5.716187991602508e-13 	101324.9999999966
0.9071571571571564 	299.9999999999804 	2.250486780444815e-13 	101324.9999999967
0.9096596596596589 	299.9999999999828 	1.757966480076086e-13 	101324.9999999966
0.9121621621621616 	300.0000000000009 	3.972661952362211e-13 	101324.9999999966
0.9146646646646639 	299.9999999999936 	5.874541887036382e-13 	101324.9999999968
0.9171671671671666 	299.9999999999836 	1.111060204528706e-12 	101324.999999997
0.9196696696696689 	299.9999999999994 	1.565404302052331e-12 	101324.9999999971
0.9221721721721714 	300.0000000000001 	1.607730508819916e-12 	101324.9999999972
0.9246746746746741 	299.9999999999812 	1.37216570993965e-12 	101324.9999999971
0.9271771771771765 	299.999999999981 	1.014966483148709e-12 	101324.9999999971
0.9296796796796791 	299.9999999999974 	7.970342517708902e-13 	101324.9999999972
0.9321821821821816 	299.9999999999941 	6.577955297847726e-13 	101324.9999999971
0.9346846846846838 	299.9999999999843 	5.635805633872448e-13 	101324.9999999968
0.9371871871871866 	300.0000000000013 	7.704876056845674e-13 	101324.9999999967
0.9396896896896891 	300.0000000000034 	1.017920897844445e-12 	101324.9999999967
0.9421921921921914 	300.0000000000015 	1.721263853563945e-12 	101324.9999999968
0.9446946946946939 	299.9999999999858 	1.355283401509129e-12 	101324.9999999968
0.9471971971971965 	299.9999999999738 	1.385067039578584e-12 	101324.9999999967
0.9496996996996991 	299.9999999999828 	5.890549748082973e-13 	101324.9999999967
0.9522022022022016 	299.9999999999884 	1.296505281760251e-12 	101324.9999999967
0.9547047047047038 	299.9999999999908 	1.102799453414571e-12 	101324.9999999968
0.9572072072072064 	299.9999999999899 	1.7636323836592e-12 	101324.9999999968
0.9597097097097093 	299.9999999999882 	1.869707098672907e-12 	101324.9999999967
0.9622122122122114 	299.9999999999839 	1.860158403723622e-12 	101324.9999999966
0.964714714714714 	299.9999999999851 	2.507030600526085e-12 	101324.9999999967
0.9672172172172167 	299.9999999999876 	2.205870432173941e-12 	101324.9999999968
0.969719719719719 	299.9999999999953 	2.609553738647409e-12 	101324.9999999969
0.9722222222222214 	299.9999999999903 	2.243350018743717e-12 	101324.999999997
0.9747247247247239 	299.9999999999879 	2.304442098191034e-12 	101324.9999999971
0.9772272272272267 	299.9999999999966 	2.257518047689776e-12 	101324.9999999972
0.9797297297297292 	299.999999999994 	2.527368062390844e-12 	101324.9999999973
0.9822322322322313 	300.0000000000006 	2.809575321965395e-12 	101324.9999999974
0.9847347347347344 	300.0000000000025 	1.866247574367218e-12 	101324.9999999976
0.9872372372372363 	299.9999999999882 	2.485493684047884e-12 	101324.9999999976
0.9897397397397389 	299.9999999999932 	1.151138363033509e-12 	101324.9999999976
0.9922422422422417 	299.9999999999868 	1.506974101474343e-12 	101324.9999999975
0.9947447447447441 	299.9999999999844 	8.572552660022852e-13 	101324.9999999974
0.9972472472472468 	299.9999999999875 	1.243512590242021e-12 	101324.9999999974
0.999749749749749 	299.9999999999854 	1.184139277905246e-12 	101324.9999999974
1.002252252252252 	299.9999999999879 	1.492049872433065e-12 	101324.9999999974
1.004754754754754 	299.9999999999907 	1.776326404567676e-12 	101324.9999999975
1.007257257257256 	299.9999999999866 	1.365247913405469e-12 	101324.9999999978
1.009759759759759 	299.9999999999832 	1.56702120327935e-12 	101324.9999999979
1.012262262262261 	299.9999999999815 	9.613940343739493e-13 	101324.9999999978
1.014764764764764 	299.9999999999731 	1.833475355797335e-12 	101324.9999999977
1.017267267267267 	299.9999999999713 	1.717573303108524e-12 	101324.9999999974
1.019769769769769 	299.9999999999877 	2.214619871350992e-12 	101324.9999999973
1.022272272272272 	299.9999999999914 	2.237028202418177e-12 	101324.9999999972
1.024774774774774 	299.9999999999882 	2.14717729060805e-12 	101324.9999999973
1.027277277277277 	299.9999999999882 	2.109025132286511e-12 	101324.9999999974
1.029779779779779 	299.9999999999977 	1.23731174754428e-12 	101324.9999999975
1.032282282282282 	299.999999999996 	1.120515808293925e-12 	101324.9999999976
1.034784784784784 	299.999999999993 	6.152732518072951e-13 	101324.9999999976
1.037287287287286 	299.9999999999856 	1.1782470517441e-12 	101324.9999999976
1.039789789789789 	299.9999999999895 	1.388924236809589e-12 	101324.9999999975
1.042292292292291 	300.0000000000016 	1.638847950330793e-12 	101324.9999999975
1.044794794794794 	300.0000000000044 	1.741364155587805e-12 	101324.9999999976
1.047297297297296 	300.0000000000095 	1.403268159200731e-12 	101324.9999999978
1.049799799799799 	299.9999999999957 	2.174650165379677e-12 	101324.9999999978
1.052302302302302 	299.9999999999895 	1.539425924805003e-12 	101324.9999999979
1.054804804804804 	299.9999999999845 	2.247434712015152e-12 	101324.9999999981
1.057307307307306 	299.9999999999737 	1.695982182589474e-12 	101324.9999999981
1.059809809809809 	299.9999999999831 	2.069609534164991e-12 	101324.9999999981
1.062312312312312 	299.9999999999818 	1.970993930804753e-12 	101324.999999998
1.064814814814814 	299.9999999999822 	2.249161976160334e-12 	101324.9999999979
1.067317317317317 	299.9999999999756 	2.066800986930053e-12 	101324.9999999979
1.069819819819819 	299.9999999999753 	2.062560724705717e-12 	101324.9999999979
1.072322322322321 	299.9999999999964 	2.770767118063708e-12 	101324.999999998
1.074824824824824 	300.0000000000023 	1.806019764121957e-12 	101324.999999998
1.077327327327327 	300.0000000000065 	2.503048678673582e-12 	101324.999999998
1.079829829829829 	300.0000000000084 	1.902075588112441e-12 	101324.9999999981
1.082332332332332 	300.0000000000017 	2.22531360400534e-12 	101324.9999999983
1.084834834834834 	299.9999999999962 	1.896101920858866e-12 	101324.9999999982
1.087337337337337 	299.9999999999836 	1.814857146766513e-12 	101324.9999999982
1.089839839839839 	299.9999999999806 	2.379641593813824e-12 	101324.9999999982
1.092342342342342 	299.9999999999925 	1.686155440339925e-12 	101324.9999999981
1.094844844844844 	299.9999999999936 	2.342829858904372e-12 	101324.9999999979
1.097347347347347 	299.9999999999839 	2.484460915371224e-12 	101324.9999999978
1.099849849849849 	299.999999999981 	3.26392550100727e-12 	101324.9999999978
1.102352352352352 	299.9999999999866 	2.531736581571474e-12 	101324.9999999978
1.104854854854854 	299.9999999999925 	3.25487141489415e-12 	101324.9999999978
1.107357357357357 	299.9999999999886 	2.625779499136818e-12 	101324.9999999979
1.109859859859859 	299.9999999999851 	3.426456675128981e-12 	101324.9999999978
1.112362362362362 	300.0000000000057 	3.020401720488423e-12 	101324.9999999977
1.114864864864865 	300.0000000000039 	2.568617598387798e-12 	101324.9999999976
1.117367367367367 	299.9999999999898 	2.50914434002767e-12 	101324.9999999976
1.119869869869869 	299.9999999999792 	1.709431356871934e-12 	101324.9999999979
1.122372372372372 	299.9999999999844 	2.457567809415512e-12 	101324.9999999983
1.124874874874874 	299.9999999999833 	1.966609605611883e-12 	101324.9999999983
1.127377377377377 	299.99999999999 	2.420652173743385e-12 	101324.9999999981
1.129879879879879 	300.0000000000094 	2.134466692793951e-12 	101324.9999999981
1.132382382382382 	300.000000000009 	2.285603979949658e-12 	101324.9999999982
1.134884884884884 	300.0000000000008 	1.994821653220726e-12 	101324.9999999981
1.137387387387387 	300.0000000000042 	1.827713184042634e-12 	101324.999999998
1.139889889889889 	299.9999999999852 	2.354351399073319e-12 	101324.9999999981
1.142392392392392 	299.9999999999833 	2.175620821668999e-12 	101324.9999999981
1.144894894894894 	299.9999999999994 	2.707727928494768e-12 	101324.9999999983
1.147397397397397 	299.9999999999924 	1.88132704533228e-12 	101324.9999999983
1.149899899899899 	299.999999999977 	1.661778368469192e-12 	101324.9999999983
1.152402402402402 	299.9999999999769 	1.356336209319687e-12 	101324.9999999983
1.154904904904904 	299.9999999999901 	2.030373287746788e-12 	101324.9999999983
1.157407407407407 	299.9999999999912 	1.919914042905009e-12 	101324.9999999985
1.159909909909909 	299.9999999999832 	2.044392078573654e-12 	101324.9999999984
1.162412412412412 	299.9999999999811 	2.742721873721531e-12 	101324.9999999981
1.164914914914914 	299.9999999999844 	2.239351944749915e-12 	101324.9999999981
1.167417417417417 	299.9999999999824 	3.110018473578851e-12 	101324.9999999983
1.169919919919919 	299.9999999999977 	2.778338406710559e-12 	101324.9999999985
1.172422422422422 	300.0000000000064 	2.956983768043629e-12 	101324.9999999985
1.174924924924925 	299.9999999999915 	2.312521875493863e-12 	101324.9999999985
1.177427427427427 	299.9999999999814 	2.654619739285812e-12 	101324.9999999985
1.179929929929929 	299.9999999999965 	2.87345199434501e-12 	101324.9999999985
1.182432432432432 	300.0000000000057 	1.696406114602354e-12 	101324.9999999985
1.184934934934934 	299.9999999999985 	1.965529705061848e-12 	101324.9999999984
1.187437437437437 	299.9999999999939 	1.517929523300265e-12 	101324.9999999984
1.189939939939939 	299.9999999999892 	1.581577942117093e-12 	101324.9999999985
1.192442442442442 	299.9999999999779 	1.123689869488139e-12 	101324.9999999985
1.194944944944944 	299.999999999979 	1.783121829907808e-12 	101324.9999999985
1.197447447447447 	299.9999999999936 	1.671835551244148e-12 	101324.9999999986
1.199949949949949 	299.9999999999968 	1.68394010879382e-12 	101324.9999999986
1.202452452452452 	299.9999999999842 	1.722230925525838e-12 	101324.9999999987
1.204954954954955 	299.9999999999828 	1.241754367891444e-12 	101324.9999999988
1.207457457457457 	299.9999999999887 	1.775675650537162e-12 	101324.9999999991
1.20995995995996 	299.9999999999873 	1.772990604802468e-12 	101324.999999999
1.212462462462462 	299.9999999999942 	2.607776441437209e-12 	101324.999999999
1.214964964964964 	299.9999999999939 	2.315256049369108e-12 	101324.9999999991
1.217467467467467 	299.9999999999931 	2.665253116314753e-12 	101324.9999999991
1.219969969969969 	299.9999999999948 	2.08878625122617e-12 	101324.9999999992
1.222472472472472 	300.0000000000077 	2.183841521758011e-12 	101324.9999999992
1.224974974974975 	300.0000000000119 	2.193193678686861e-12 	101324.9999999994
1.227477477477477 	300.000000000001 	1.456520373265708e-12 	101324.9999999995
1.229979979979979 	299.9999999999952 	1.855921629265962e-12 	101324.9999999996
1.232482482482482 	299.9999999999844 	1.246912786752151e-12 	101324.9999999997
1.234984984984984 	299.9999999999849 	2.189257748828734e-12 	101324.9999999997
1.237487487487487 	299.9999999999885 	1.581854579016033e-12 	101324.9999999996
1.239989989989989 	299.9999999999878 	2.065436657133418e-12 	101324.9999999996
1.242492492492492 	299.9999999999961 	2.725224954955805e-12 	101324.9999999994
1.244994994994994 	299.9999999999895 	2.520713672986275e-12 	101324.9999999994
1.247497497497497 	299.9999999999954 	3.220150000695886e-12 	101324.9999999993
1.249999999999999 	300.0000000000359 	2.660080462359851e-12 	101324.9999999993
