-1.25 	300 	0.07207092754020179 	101295.6107373854
-1.247497497497497 	299.9788249530966 	0.05968836967158853 	101301.3304263037
-1.244994994994995 	299.9853205887342 	0.04186528039666153 	101307.6421691353
-1.242492492492492 	299.9906863026014 	0.02744669978515809 	101313.9856443846
-1.23998998998999 	299.9963091170885 	0.01039695569454724 	101320.6359660876
-1.237487487487487 	300.0020553353357 	0.008345278961211632 	101327.428901543
-1.234984984984985 	300.0077588021906 	0.02251584903262596 	101334.1718222585
-1.232482482482482 	300.0133448593502 	0.03865061245518335 	101340.7762087942
-1.22997997997998 	300.0187262627887 	0.05414139283618399 	101347.1389072611
-1.227477477477477 	300.0237492930487 	0.0686361003566016 	101353.0781833209
-1.224974974974975 	300.0283175063233 	0.08188187721767202 	101358.4799016873
-1.222472472472472 	300.0324144908446 	0.09369115586861136 	101363.3246160712
-1.21996996996997 	300.0358979553458 	0.1037453512244678 	101367.4440197713
-1.217467467467467 	300.0386511823116 	0.1117382610980746 	101370.6999383533
-1.214964964964965 	300.0406861643378 	0.1176429363129721 	101373.1065465846
-1.212462462462462 	300.0420062029467 	0.1215038636307874 	101374.6676919599
-1.20995995995996 	300.0425785439144 	0.1231441510576226 	101375.3445945288
-1.207457457457457 	300.0423746641623 	0.1225027021247655 	101375.1035277473
-1.204954954954955 	300.0413732475927 	0.1195720020036065 	101373.9193321312
-1.202452452452452 	300.0395728908927 	0.1143418447726471 	101371.7903646617
-1.19994994994995 	300.0369946974315 	0.1069261968559713 	101368.7415610809
-1.197447447447447 	300.0337260641335 	0.0974886692366341 	101364.8763128142
-1.194944944944945 	300.0298680519664 	0.08630643792393031 	101360.3142444395
-1.192442442442442 	300.0254849540848 	0.07363215263307051 	101355.1314508012
-1.18993993993994 	300.0206426934155 	0.05968831329162693 	101349.4058923637
-1.187437437437437 	300.0154436326054 	0.04468234685458203 	101343.2587159091
-1.184934934934935 	300.0099608284673 	0.02879627131065454 	101336.7763152379
-1.182432432432432 	300.0042946971223 	0.01239711661618251 	101330.0774730165
-1.17992992992993 	299.9985796404881 	0.008481818242152751 	101323.3211226553
-1.177427427427427 	299.9928854220142 	0.02064511312173375 	101316.5896873857
-1.174924924924925 	299.9872828624996 	0.03683200427881445 	101309.9669303216
-1.172422422422422 	299.9818778470837 	0.05241926662491865 	101303.5779500609
-1.16991991991992 	299.9767881171155 	0.06709866244301549 	101297.5619244385
-1.167417417417417 	299.972134039515 	0.08053874302727615 	101292.0610640763
-1.164914914914915 	299.9680199654617 	0.09245180144457846 	101287.1985829321
-1.162412412412412 	299.9645192852551 	0.1025770626426419 	101283.0612216532
-1.15990990990991 	299.9616753583069 	0.1107927278031677 	101279.7001129104
-1.157407407407407 	299.9595154175146 	0.1170511322125243 	101277.1474118393
-1.154904904904904 	299.958078264114 	0.1212053522289123 	101275.4488978894
-1.152402402402403 	299.9574249782758 	0.1231019216962452 	101274.676778433
-1.1498998998999 	299.9575883700916 	0.12261409173954 	101274.8698591741
-1.147397397397397 	299.9585610128938 	0.1197529817557511 	101276.0192229071
-1.144894894894895 	299.9603167848874 	0.114667789392199 	101278.0941095496
-1.142392392392392 	299.9628051635799 	0.1074914852029583 	101281.0348691391
-1.13988988988989 	299.9659582586114 	0.09838507296302068 	101284.7612437626
-1.137387387387387 	299.9697235560748 	0.08749202747636999 	101289.211313461
-1.134884884884885 	299.974044141737 	0.07498524793862635 	101294.3178124113
-1.132382382382382 	299.9788444470043 	0.06112139696779512 	101299.9915393638
-1.12987987987988 	299.9840308521094 	0.04616654668426107 	101306.1219087566
-1.127377377377377 	299.989484936735 	0.03043458973847678 	101312.5689254949
-1.124874874874875 	299.9950817334174 	0.01421472526064905 	101319.184985794
-1.122372372372372 	300.0007375549866 	0.008362775078885658 	101325.87111511
-1.11986986986987 	300.0064065061216 	0.01861302108619126 	101332.573112216
-1.117367367367367 	300.0120124837531 	0.03479346330003658 	101339.2010009969
-1.114864864864865 	300.0174249189524 	0.05041212284331026 	101345.6003259598
-1.112362362362362 	300.022516634377 	0.06511548087281806 	101351.6207619256
-1.10985985985986 	300.0271883910231 	0.07861428766616328 	101357.1448517533
-1.107357357357357 	300.0313501428568 	0.09061344673298008 	101362.0661025301
-1.104854854854855 	300.0349284178192 	0.1009633462725643 	101366.2975645807
-1.102352352352353 	300.0378803438686 	0.1094918430091286 	101369.7884078326
-1.09984984984985 	300.0401553150787 	0.1160670621903867 	101372.4788149931
-1.097347347347347 	300.0417022341059 	0.1205668353525571 	101374.3082532874
-1.094844844844845 	300.0424760021288 	0.1227728647963194 	101375.22338381
-1.092342342342342 	300.0424394344357 	0.1226461204011429 	101375.1801779081
-1.08983983983984 	300.0415857797323 	0.1201815153808655 	101374.1707035256
-1.087337337337337 	300.0399560520365 	0.1154563285582833 	101372.2435328634
-1.084834834834835 	300.0375886058245 	0.1086328176396374 	101369.4439250484
-1.082332332332332 	300.0345321369174 	0.09978216672330713 	101365.8295601248
-1.07982982982983 	300.0308426106021 	0.08910099117629132 	101361.4667193435
-1.077327327327327 	300.0265832275633 	0.07678645217918002 	101356.4301395476
-1.074824824824825 	300.0218332507642 	0.06308577990091407 	101350.81366561
-1.072322322322323 	300.0167035156837 	0.04827076111838075 	101344.7483948364
-1.06981981981982 	300.0112762332636 	0.03254881094347482 	101338.331566327
-1.067317317317317 	300.0056538968556 	0.01628622647201879 	101331.6844483519
-1.064814814814815 	299.9999416675378 	0.008171377490425256 	101324.9313435028
-1.062312312312312 	299.9942016791911 	0.01686970058739307 	101318.1457370968
-1.05980980980981 	299.988534186757 	0.03320954816215918 	101311.4461527987
-1.057307307307307 	299.9830722170281 	0.0489681838053927 	101304.9897845684
-1.054804804804805 	299.9779366997558 	0.06379833821220794 	101298.9195869728
-1.052302302302302 	299.9732284017616 	0.07743056714315 	101293.354574928
-1.0497997997998 	299.9690153712158 	0.08965018113862541 	101288.3751079946
-1.047297297297297 	299.9653555452503 	0.1002158181282871 	101284.049629176
-1.044794794794795 	299.9623189973071 	0.1089751180753056 	101280.460853757
-1.042292292292292 	299.959977100843 	0.1157325284753343 	101277.6931149646
-1.03978978978979 	299.9583923334628 	0.1203013652084263 	101275.8201231201
-1.037287287287287 	299.9576045362837 	0.1225899083024349 	101274.889046663
-1.034784784784785 	299.9576157854082 	0.1225284572351862 	101274.902323073
-1.032282282282283 	299.9584132436053 	0.1201870777665985 	101275.8446620369
-1.02977977977978 	299.9599770191086 	0.1156708744322799 	101277.6926555082
-1.027277277277277 	299.9622731464335 	0.1090463508186143 	101280.4061728552
-1.024774774774775 	299.9652621093666 	0.100431554117057 	101283.9385636464
-1.022272272272272 	299.9688949272817 	0.08993206899520735 	101288.2320145825
-1.01976976976977 	299.9730973264149 	0.07776018682369519 	101293.1987791757
-1.017267267267267 	299.9777884878012 	0.06419785656683483 	101298.743466976
-1.014764764764765 	299.9828747933764 	0.04950208035729692 	101304.7554431629
-1.012262262262262 	299.9882488757134 	0.03396985135224224 	101311.1078429355
-1.00975975975976 	299.9938061357621 	0.01786672227705766 	101317.6770937512
-1.007257257257257 	299.9994514205521 	0.007607560196207027 	101324.3506933295
-1.004754754754755 	300.0051111507563 	0.01486420831771987 	101331.041723106
-1.002252252252252 	300.0107017668711 	0.03098431706445182 	101337.6513639145
-0.9997497497497498 	300.0161034644647 	0.04656474458308411 	101344.0379362969
-0.9972472472472473 	300.0212184350244 	0.06135407361590896 	101350.0857979753
-0.9947447447447449 	300.0259678673299 	0.07509085220199631 	101355.7016771918
-0.9922422422422421 	300.0302634976146 	0.08747570803481165 	101360.7811756761
-0.9897397397397399 	300.034014803118 	0.09832753216442261 	101365.2171982963
-0.9872372372372376 	300.0371497716016 	0.1073732311119453 	101368.924493676
-0.9847347347347346 	300.0395907840803 	0.1144697128258946 	101371.8112351162
-0.9822322322322323 	300.0412984886984 	0.1194543975368635 	101373.830827934
-0.9797297297297296 	300.0422485023341 	0.1221377307761539 	101374.9543777914
-0.9772272272272275 	300.0424113096363 	0.1225678903794785 	101375.1469418504
-0.9747247247247248 	300.0417715660373 	0.1207045428750326 	101374.3904398568
-0.9722222222222224 	300.040355215952 	0.1166076885300625 	101372.7155948749
-0.9697197197197196 	300.0381743441525 	0.1103357997888944 	101370.1366425452
-0.9672172172172175 	300.0352830099889 	0.1019442341372947 	101366.7175314728
-0.9647147147147147 	300.0317429083391 	0.09169249364007084 	101362.5313358533
-0.9622122122122124 	300.0276174031088 	0.07978263780048064 	101357.6530493118
-0.9597097097097099 	300.0229831161866 	0.06645339067827143 	101352.1733209718
-0.9572072072072073 	300.0179364406872 	0.05185614545844854 	101346.2062079125
-0.9547047047047047 	300.012541162119 	0.03621253184870071 	101339.8271589976
-0.9522022022022023 	300.0069202464961 	0.01995548837060034 	101333.1816242191
-0.9496996996996998 	300.0012058347145 	0.007012004765158996 	101326.4258885947
-0.9471971971971973 	299.9954775678083 	0.01317491596640075 	101319.6540696258
-0.9446946946946947 	299.9898202976663 	0.02951038661322162 	101312.9664923894
-0.9421921921921923 	299.9843358171523 	0.04532447987850383 	101306.4834604344
-0.93968968968969 	299.9791323362076 	0.06033467185017583 	101300.3328484836
-0.9371871871871872 	299.9743108534861 	0.07429236927831855 	101294.6340199423
-0.9346846846846848 	299.9699594674423 	0.08688785827491913 	101289.4909952863
-0.9321821821821823 	299.9661623286672 	0.09786265540738644 	101285.0031872496
-0.9296796796796799 	299.9629955848632 	0.1070098419146774 	101281.2605333958
-0.9271771771771771 	299.9605213821336 	0.1141498549592906 	101278.3364042266
-0.9246746746746748 	299.9587917505584 	0.1191718746072371 	101276.2922218235
-0.9221721721721724 	299.957836094201 	0.1219388236626077 	101275.1627594224
-0.9196696696696698 	299.9576652471442 	0.1223917897257171 	101274.9608241195
-0.9171671671671672 	299.9582831174091 	0.1205624008251695 	101275.6909600016
-0.9146646646646649 	299.9596741639095 	0.1165294178908623 	101277.3347911249
-0.9121621621621623 	299.9618024319548 	0.1103995624757054 	101279.8499370816
-0.9096596596596597 	299.9646278187906 	0.1022537808454049 	101283.1890022279
-0.9071571571571573 	299.9680976690056 	0.09221613181378298 	101287.2898017593
-0.9046546546546547 	299.9721515773119 	0.0804694774456251 	101292.0810498354
-0.9021521521521524 	299.9767243352423 	0.06726597309082097 	101297.4857197236
-0.8996496496496498 	299.9817213499226 	0.05285926765646787 	101303.3921037383
-0.8971471471471473 	299.9870281392664 	0.03751622141238198 	101309.6649050086
-0.894644644644645 	299.9925352175497 	0.02155669536667856 	101316.1747486922
-0.892142142142142 	299.998132361042 	0.005957191432828229 	101322.7913868051
-0.8896396396396397 	300.003748075794 	0.01092629710802134 	101329.4302905062
-0.8871371371371374 	300.0093198214995 	0.02699065046539251 	101336.0175432652
-0.8846346346346349 	300.0147424093565 	0.04265384266836941 	101342.4287472774
-0.8821321321321324 	300.019925311584 	0.05764837465450678 	101348.5568379427
-0.8796296296296297 	300.0247758513279 	0.07166591621956138 	101354.2922239129
-0.8771271271271271 	300.0291862578167 	0.0843805389026327 	101359.507387901
-0.8746246246246248 	300.0330665655559 	0.09559038440544471 	101364.0959138025
-0.8721221221221224 	300.0363455595754 	0.1050591197257381 	101367.9735019786
-0.8696196196196196 	300.038948996315 	0.1126465911176719 	101371.052285364
-0.8671171171171175 	300.0408429223314 	0.118148895303914 	101373.2920994672
-0.8646146146146148 	300.0419894321351 	0.1213891194400837 	101374.6480329149
-0.8621121121121121 	300.0423454538301 	0.1223912380006153 	101375.0691081966
-0.8596096096096097 	300.0419070743778 	0.1211080158691362 	101374.5507045052
-0.857107107107107 	300.0406919004731 	0.1176010805555916 	101373.1137575323
-0.8546046046046049 	300.0387108998725 	0.1119002843168327 	101370.7711766055
-0.8521021021021022 	300.0360124183536 	0.1040563025381215 	101367.5801184812
-0.8495995995995997 	300.0326405225866 	0.09427557613350353 	101363.5928072705
-0.8470970970970974 	300.0286392117717 	0.08274434341777122 	101358.8613390149
-0.8445945945945946 	300.024098864171 	0.06968443564914525 	101353.4926300938
-0.8420920920920922 	300.0191135401566 	0.05526935999089816 	101347.5980141103
-0.8395895895895897 	300.0137688020986 	0.03979226019958802 	101341.2786574498
-0.8370870870870872 	300.0081969028607 	0.02365879584741317 	101334.6910204379
-0.8345845845845846 	300.0025235121035 	0.007213704615900971 	101327.9836969248
-0.8320820820820823 	299.9968147497088 	0.01044158439351804 	101321.2348514068
-0.8295795795795798 	299.9911403451084 	0.025683294996386 	101314.526962226
-0.8270770770770772 	299.98560085601 	0.04164983183498385 	101307.9788324533
-0.8245745745745746 	299.9803190540181 	0.05690896885749192 	101301.7355955224
-0.8220720720720721 	299.9754019062643 	0.07114381992589446 	101295.9236341267
-0.8195695695695699 	299.9709390928703 	0.08405696385372262 	101290.6488556277
-0.817067067067067 	299.9670142592097 	0.09537747665243811 	101286.010106979
-0.8145645645645651 	299.9637106770646 	0.104927526992617 	101282.1056991184
-0.8120620620620621 	299.9610885055453 	0.1125184795724112 	101279.0066969115
-0.8095595595595597 	299.9592038671337 	0.1179831874146314 	101276.7793321507
-0.8070570570570572 	299.9580867347752 	0.1212121139047363 	101275.4589987433
-0.8045545545545546 	299.9577507420582 	0.1221313224383841 	101275.0619161431
-0.8020520520520523 	299.9581950203353 	0.1208135199306905 	101275.586898989
-0.7995495495495494 	299.9594079202072 	0.1173226146180539 	101277.0202167461
-0.7970470470470474 	299.961353952185 	0.1116997289846429 	101279.319975605
-0.7945445445445446 	299.9640102026353 	0.1040292041650745 	101282.4591225471
-0.7920420420420423 	299.9673343923823 	0.09439797571482929 	101286.3877660353
-0.7895395395395397 	299.971271483139 	0.08301751597970125 	101291.0409031378
-0.7870370370370371 	299.9757399831834 	0.07013145238269096 	101296.3223144739
-0.7845345345345348 	299.9806428218623 	0.05598780092178514 	101302.1173247226
-0.7820320320320323 	299.9858604647211 	0.04088254069059681 	101308.2846856334
-0.7795295295295296 	299.9912990231733 	0.02512039743980932 	101314.7134882377
-0.7770270270270272 	299.9968463130665 	0.009047519765601513 	101321.271097164
-0.7745245245245247 	300.0024269483736 	0.009582550618466424 	101327.8684722091
-0.7720220220220222 	300.0079789614609 	0.0231391637513294 	101334.4323164073
-0.7695195195195199 	300.0134150696423 	0.03885053659426649 	101340.8594175913
-0.767017017017017 	300.0186476509999 	0.05394267044073284 	101347.0462060829
-0.7645145145145147 	300.0235735220649 	0.06815422526792213 	101352.8705710759
-0.7620120120120122 	300.0280827119463 	0.08116532843951775 	101358.2025078019
-0.7595095095095097 	300.0320895282311 	0.09277258624337158 	101362.9405856933
-0.7570070070070072 	300.0355122621835 	0.1026782239064335 	101366.9880991833
-0.7545045045045048 	300.03828316624 	0.1107072098153784 	101370.2649372954
-0.7520020020020022 	300.0403546932846 	0.116697773708964 	101372.7147351829
-0.7494994994994997 	300.0416774744293 	0.1204817967423262 	101374.2791323594
-0.7469969969969972 	300.0422195700884 	0.1220793557974737 	101374.9202869011
-0.7444944944944945 	300.0419913663939 	0.1213768041234374 	101374.6503919142
-0.7419919919919924 	300.0409875687868 	0.1184295704186285 	101373.4634442047
-0.7394894894894897 	300.0392123621398 	0.1132992505419329 	101371.3642013824
-0.7369869869869872 	300.0366934541717 	0.1059805249058626 	101368.3854927875
-0.7344844844844846 	300.0334710770939 	0.09670276787881593 	101364.5749932601
-0.7319819819819822 	300.0296057790737 	0.08557466970268794 	101360.0042957679
-0.7294794794794797 	300.0252020318181 	0.07283646729997351 	101354.7971037113
-0.7269769769769773 	300.0203251251347 	0.05876258528320028 	101349.0305947509
-0.7244744744744747 	300.0150675132322 	0.04355267310131423 	101342.8141950973
-0.721971971971972 	300.009545979499 	0.02759763424756506 	101336.2860552837
-0.7194694694694695 	300.0038851272467 	0.01117534050062397 	101329.5934535559
-0.7169669669669674 	299.9981713721314 	0.009092198120241814 	101322.8386617515
-0.7144644644644647 	299.9924761455119 	0.02185505820895305 	101316.1060602606
-0.711961961961962 	299.9868819418725 	0.03796160205411104 	101309.4931918299
-0.7094594594594597 	299.981526357871 	0.05340295610427593 	101303.1626935881
-0.7069569569569573 	299.9765198050675 	0.06792146181193651 	101297.2449747804
-0.7044544544544545 	299.9719509407052 	0.08115537570944242 	101291.8448340695
-0.7019519519519523 	299.9679032125664 	0.09278634104377227 	101287.060779973
-0.6994494494494495 	299.9644703727757 	0.1027008632838822 	101283.0035909608
-0.6969469469469471 	299.9617044790973 	0.110679462824494 	101279.7347292718
-0.6944444444444446 	299.9596735237371 	0.1166383008468739 	101277.3344429398
-0.6919419419419421 	299.9583872667006 	0.1204093051726866 	101275.8142270956
-0.6894394394394396 	299.9578591922004 	0.1218353741590287 	101275.1901231901
-0.6869369369369374 	299.9581102534734 	0.1210391000643415 	101275.4867844102
-0.6844344344344344 	299.9591606610981 	0.1180221510660842 	101276.7280579692
-0.6819319319319321 	299.9609565929513 	0.1128676272339331 	101278.850431892
-0.6794294294294296 	299.9634741093802 	0.1056331459060847 	101281.8256151626
-0.6769269269269272 	299.9666389250282 	0.09639007046767352 	101285.5658661968
-0.6744244244244245 	299.9704105023678 	0.0854429524163995 	101290.0233775002
-0.6719219219219222 	299.9747322705399 	0.07299177646672708 	101295.1313026339
-0.6694194194194195 	299.9795292411798 	0.05926352645999679 	101300.8011310938
-0.6669169169169172 	299.9846533595238 	0.04443212501863746 	101306.8578833562
-0.6644144144144146 	299.9900339816796 	0.02878044544059784 	101313.2181022407
-0.661911911911912 	299.9955324183714 	0.01283311211265652 	101319.717928452
-0.6594094094094097 	300.0010694777708 	0.007717467077509857 	101326.2636867423
-0.656906906906907 	300.0066099774301 	0.01917812989219511 	101332.8138484956
-0.6544044044044046 	300.0120660904128 	0.03494668581012822 	101339.2645467639
-0.6519019019019021 	300.0173436959731 	0.050226334350827 	101345.5044681318
-0.6493993993993996 	300.0223425782846 	0.06463621608126123 	101351.4151461833
-0.6468968968968971 	300.0269467565918 	0.07790863801932818 	101356.8593127652
-0.6443943943943946 	300.0310768873535 	0.08982967911581499 	101361.7431625506
-0.6418918918918921 	300.0346355116885 	0.1001213388489838 	101365.9513569249
-0.6393893893893897 	300.0375531325103 	0.1086467448162543 	101369.4016316194
-0.6368868868868871 	300.0397896568765 	0.11511237970651 	101372.0465750396
-0.6343843843843846 	300.0413067133252 	0.1194189300487861 	101373.8406889758
-0.6318818818818821 	300.042057676598 	0.1216113075598891 	101374.7288520974
-0.6293793793793795 	300.0420546456609 	0.121563147509449 	101374.7252776353
-0.6268768768768773 	300.0412656801935 	0.1193054614245094 	101373.7923236365
-0.6243743743743745 	300.0396889299833 	0.114723431898052 	101371.9275356971
-0.6218718718718721 	300.0373323448383 	0.1078343925536777 	101369.1407971167
-0.6193693693693696 	300.0342388198636 	0.09889256741406219 	101365.4828252856
-0.6168668668668671 	300.0304705867929 	0.08808031821643081 	101361.0269859499
-0.6143643643643645 	300.0261712356026 	0.0756876329982758 	101355.9431729557
-0.6118618618618621 	300.0213983947276 	0.06188929163362908 	101350.2996730498
-0.6093593593593596 	300.0162431561029 	0.04693426128804061 	101344.2042732372
-0.6068568568568571 	300.0107855351183 	0.03115599971202363 	101337.7515985962
-0.6043543543543546 	300.0051436163637 	0.01483419522180542 	101331.0813463899
-0.6018518518518521 	299.9994151144689 	0.006967841909467134 	101324.309027417
-0.5993493493493496 	299.9936861350204 	0.01829500872139148 	101317.5364566581
-0.5968468468468471 	299.988074557009 	0.03450549925698042 	101310.9029954062
-0.5943443443443446 	299.9826987071828 	0.05004538900501911 	101304.5484448258
-0.591841841841842 	299.9776509359801 	0.06464773469592106 	101298.5819701783
-0.5893393393393397 	299.9730046402863 	0.07807984066022451 	101293.0902476304
-0.5868368368368371 	299.9688308496969 	0.09013556607013086 	101288.1571677588
-0.5843343343343346 	299.9652164096528 	0.1005650092727822 	101283.8853335619
-0.5818318318318321 	299.9622566487989 	0.1091027640085975 	101280.3873118521
-0.5793293293293297 	299.9600411008253 	0.1154964453968393 	101277.7688686245
-0.5768268268268271 	299.9586295575018 	0.119575734051003 	101276.1005715346
-0.5743243243243245 	299.9580303763977 	0.1213223915992094 	101275.3924364419
-0.5718218218218221 	299.9582038482864 	0.1208332195952219 	101275.5974134629
-0.5693193193193196 	299.9590922281742 	0.1182715783415622 	101276.6472260269
-0.5668168168168171 	299.9606496369514 	0.1137616260877656 	101278.4876954503
-0.5643143143143147 	299.9628614776973 	0.1073406375010027 	101281.1016240806
-0.5618118118118121 	299.9657390121781 	0.09899364581428058 	101284.5023354737
-0.5593093093093094 	299.9692915897779 	0.08870034053872625 	101288.7009589603
-0.5568068068068072 	299.9734972545932 	0.07653437646842368 	101293.6716210013
-0.5543043043043046 	299.9782797136295 	0.06272479084482703 	101299.3242147438
-0.551801801801802 	299.9834982705672 	0.04767109689297106 	101305.4925433028
-0.5492992992992995 	299.9889650558051 	0.03190296081863358 	101311.954579695
-0.5467967967967969 	299.9944877083867 	0.01595904873976993 	101318.4829691176
-0.5442942942942947 	299.9999161228525 	0.005171078464908432 	101324.9002740934
-0.5417917917917919 	300.0051775348999 	0.01498392461855502 	101331.1204182869
-0.5392892892892895 	300.0102764768906 	0.02977271843681935 	101337.1487535805
-0.536786786786787 	300.0152591873015 	0.04422059689301182 	101343.0399159409
-0.5342842842842846 	300.020160706761 	0.05841259027048302 	101348.8353160701
-0.531781781781782 	300.0249606711135 	0.07228177561841863 	101354.5108914487
-0.5292792792792794 	300.0295618754903 	0.08554754485029263 	101359.951665307
-0.526776776776777 	300.0337942303879 	0.09772522759056568 	101364.95649835
-0.5242742742742745 	300.0374393750641 	0.1081947589924046 	101369.2671240586
-0.521771771771772 	300.0402679055638 	0.1163058816282614 	101372.6121644913
-0.5192692692692695 	300.0420803970879 	0.1214945480341326 	101374.7557269672
-0.516766766766767 	300.0427441044891 	0.1233865141745043 	101375.5407026715
-0.5142642642642645 	300.0422180904072 	0.121868685993465 	101374.9186411442
-0.511761761761762 	300.0405628607055 	0.1171168697302087 	101372.961360854
-0.5092592592592596 	300.0379345715977 	0.1095759039099457 	101369.8533178031
-0.506756756756757 	300.034561587718 	0.09989589529334507 	101365.8646519362
-0.5042542542542544 	300.0307117111019 	0.08883866716773403 	101361.3121475272
-0.5017517517517521 	300.0266552802624 	0.07717374680583962 	101356.5155262883
-0.4992492492492494 	300.0226315186005 	0.0655845479153999 	101351.7576779922
-0.496746746746747 	300.0188257319294 	0.05460546922801637 	101347.2577048219
-0.4942442442442445 	300.0153629027325 	0.04460109376943586 	101343.1633590146
-0.4917417417417421 	300.0123132746587 	0.0357787962842114 	101339.5576594155
-0.4892392392392395 	300.0097024891462 	0.02821680477115396 	101336.4708876333
-0.486736736736737 	300.0075227968173 	0.02189624451078173 	101333.8938504512
-0.4842342342342345 	300.0057437475185 	0.01673188631963402 	101331.7905221201
-0.481731731731732 	300.0043214324635 	0.01259884191103456 	101330.1089717629
-0.4792292292292296 	300.0032058411759 	0.009353900553214285 	101328.7900615697
-0.4767267267267268 	300.0023462666744 	0.006851266608702434 	101327.7738347285
-0.4742242242242246 	300.0016949254422 	0.004953156492557554 	101327.0037940816
-0.471721721721722 	300.0012090910855 	0.003536095480370957 	101326.4294240949
-0.4692192192192195 	300.0008520858105 	0.002493891708234356 	101326.0073611525
-0.4667167167167169 	300.000593457417 	0.001738237903237457 	101325.7016030024
-0.4642142142142145 	300.0004086309628 	0.001197767235174499 	101325.4830956666
-0.461711711711712 	300.0002782597807 	0.0008162244100507947 	101325.3289670741
-0.4592092092092094 	300.0001874473573 	0.0005502411448051823 	101325.2216060033
-0.456706706706707 	300.0001249515167 	0.0003670510291579215 	101325.1477215309
-0.4542042042042045 	300.0000824425935 	0.0002423513069417775 	101325.0974663648
-0.451701701701702 	300.0000538541761 	0.000158423052123582 	101325.063668238
-0.4491991991991995 	300.0000348374173 	0.0001025528090508969 	101325.041186034
-0.4466966966966969 	300.0000223217148 	6.575507193997679e-05 	101325.0263895737
-0.4441941941941945 	300.0000141695735 	4.176902831336215e-05 	101325.0167517779
-0.441691691691692 	300.0000089128184 	2.62911263258804e-05 	101325.0105371122
-0.4391891891891895 	300.0000055563709 	1.640118170079692e-05 	101325.0065689511
-0.436686686686687 	300.0000034336298 	1.014215673114849e-05 	101325.0040593983
-0.4341841841841846 	300.0000021037206 	6.21795738790045e-06 	101325.0024870937
-0.431681681681682 	300.0000012780081 	3.780063979022978e-06 	101325.0015109763
-0.4291791791791794 	300.0000007699789 	2.279028263469514e-06 	101325.0009103849
-0.426676676676677 	300.0000004601095 	1.362908640658431e-06 	101325.000544074
-0.4241741741741744 	300.0000002728084 	8.085510005861126e-07 	101325.0003225648
-0.421671671671672 	300.0000001605109 	4.759243821342903e-07 	101325.0001897405
-0.4191691691691694 	300.0000000937433 	2.779747394872373e-07 	101325.0001107492
-0.4166666666666669 	300.0000000543412 	1.611321150897174e-07 	101325.0000641518
-0.4141641641641645 	300.0000000311288 	9.270354765385216e-08 	101325.0000368816
-0.411661661661662 	300.0000000178153 	5.294643264809138e-08 	101325.0000210466
-0.4091591591591594 	300.0000000100918 	3.001928940762336e-08 	101325.0000119218
-0.406656656656657 	300.0000000056097 	1.690161625517387e-08 	101325.0000067036
-0.4041541541541545 	300.0000000031977 	9.446428420437547e-09 	101325.000003741
-0.401651651651652 	300.0000000016725 	5.247363330600704e-09 	101325.0000020715
-0.3991491491491494 	300.0000000009732 	2.889869877989331e-09 	101325.0000011373
-0.396646646646647 	300.0000000004811 	1.586782058070885e-09 	101325.0000006182
-0.3941441441441444 	300.0000000002704 	8.598615157848452e-10 	101325.0000003316
-0.3916416416416419 	300.0000000000797 	4.682949492296655e-10 	101325.0000001744
-0.3891391391391395 	300.0000000000355 	2.48608521790344e-10 	101325.0000000889
-0.3866366366366368 	299.9999999999955 	1.349439137304683e-10 	101325.0000000424
-0.3841341341341344 	300.0000000000171 	7.035831171037465e-11 	101325.0000000176
-0.381631631631632 	299.9999999999486 	3.825642193478781e-11 	101325.0000000042
-0.3791291291291294 	300.000000000013 	1.977277512061373e-11 	101324.9999999972
-0.3766266266266269 	300.0000000000294 	1.123490231248251e-11 	101324.9999999936
-0.3741241241241244 	300.0000000000288 	7.833819827773093e-12 	101324.9999999917
-0.371621621621622 	300.0000000000174 	4.167974464505125e-12 	101324.9999999906
-0.3691191191191194 	300.0000000000065 	5.877670315788027e-12 	101324.9999999904
-0.366616616616617 	300.0000000000113 	2.015528749779551e-12 	101324.9999999905
-0.3641141141141143 	299.9999999999544 	4.567019375823084e-12 	101324.9999999905
-0.3616116116116119 	299.9999999999374 	2.075376119347584e-12 	101324.9999999908
-0.3591091091091095 	299.9999999999824 	3.109325335212426e-12 	101324.9999999907
-0.356606606606607 	299.9999999999683 	1.770585617563652e-12 	101324.9999999905
-0.3541041041041044 	299.999999999991 	1.113660081956438e-12 	101324.9999999903
-0.3516016016016019 	300.000000000006 	1.454311357906695e-12 	101324.9999999903
-0.3490990990990994 	299.9999999999892 	7.519434890351296e-13 	101324.9999999903
-0.346596596596597 	300.0000000000506 	1.950443905366653e-12 	101324.9999999903
-0.3440940940940944 	300.0000000000605 	1.006852091316573e-12 	101324.9999999904
-0.3415915915915919 	300.0000000000206 	2.879963716994766e-12 	101324.9999999903
-0.3390890890890895 	299.9999999999802 	1.134191850146429e-12 	101324.9999999906
-0.3365865865865869 	300.0000000000223 	3.542881967283492e-12 	101324.9999999906
-0.3340840840840844 	300.0000000000022 	2.682726894330811e-12 	101324.999999991
-0.3315815815815819 	300.0000000000238 	4.253305400601361e-12 	101324.9999999912
-0.3290790790790794 	300.0000000000129 	3.275470173550922e-12 	101324.999999991
-0.3265765765765769 	299.9999999999108 	4.675722522618146e-12 	101324.9999999908
-0.3240740740740744 	299.9999999999939 	2.251348429835905e-12 	101324.9999999908
-0.3215715715715718 	300.0000000000079 	4.254628234551511e-12 	101324.9999999906
-0.3190690690690695 	299.9999999999203 	1.399778138935539e-12 	101324.9999999903
-0.3165665665665668 	299.9999999999953 	3.75171578368974e-12 	101324.9999999902
-0.3140640640640644 	300.0000000000077 	6.810243360422655e-13 	101324.99999999
-0.311561561561562 	299.9999999999148 	4.392433286548045e-12 	101324.9999999898
-0.3090590590590593 	299.9999999999951 	1.730545747608332e-12 	101324.9999999895
-0.3065565565565568 	300.0000000000041 	5.632857028839674e-12 	101324.9999999893
-0.3040540540540545 	300.0000000000015 	1.918724412923791e-12 	101324.9999999893
-0.3015515515515518 	300.0000000000371 	5.422470502815314e-12 	101324.999999989
-0.2990490490490494 	299.9999999999346 	1.04224903925678e-12 	101324.999999989
-0.2965465465465469 	299.9999999999819 	3.730707943435496e-12 	101324.9999999891
-0.2940440440440444 	300.000000000002 	2.326343316617392e-12 	101324.9999999896
-0.2915415415415418 	300.0000000000013 	3.157817856722903e-12 	101324.9999999898
-0.2890390390390395 	300.0000000000031 	3.564614659477049e-12 	101324.99999999
-0.2865365365365368 	299.9999999999782 	2.86550883528344e-12 	101324.9999999901
-0.2840340340340343 	300.0000000000003 	5.080500296417481e-12 	101324.9999999903
-0.2815315315315318 	299.9999999999168 	2.423522973339826e-12 	101324.9999999905
-0.2790290290290295 	299.9999999999541 	4.386741737567873e-12 	101324.9999999901
-0.2765265265265269 	300.0000000000087 	2.661362375136268e-12 	101324.9999999901
-0.2740240240240244 	300.0000000000321 	3.610237245650603e-12 	101324.9999999902
-0.2715215215215219 	300.0000000000164 	3.612491898484788e-12 	101324.9999999902
-0.2690190190190194 	299.9999999999339 	4.105534088133742e-12 	101324.99999999
-0.2665165165165169 	299.999999999998 	4.884920311458332e-12 	101324.9999999898
-0.2640140140140144 	299.9999999999629 	3.845384093647028e-12 	101324.9999999898
-0.2615115115115119 	300.0000000000024 	5.328034512407551e-12 	101324.9999999897
-0.2590090090090094 	299.9999999999203 	3.249039328867607e-12 	101324.9999999898
-0.2565065065065068 	299.9999999999926 	3.595971061118295e-12 	101324.9999999899
-0.2540040040040044 	299.9999999999948 	3.995538195692673e-12 	101324.9999999902
-0.2515015015015019 	300.0000000000437 	2.735552368017503e-12 	101324.9999999901
-0.2489989989989994 	300.0000000000518 	5.206311600772254e-12 	101324.9999999901
-0.2464964964964968 	299.9999999999886 	2.359218470013778e-12 	101324.9999999901
-0.2439939939939944 	299.9999999999951 	6.199584218092591e-12 	101324.99999999
-0.2414914914914919 	299.9999999999634 	1.349277162248736e-12 	101324.99999999
-0.2389889889889893 	300.0000000000009 	5.795140096545789e-12 	101324.99999999
-0.2364864864864869 	300.0000000000235 	1.597357284838356e-12 	101324.9999999901
-0.2339839839839843 	299.9999999999191 	6.175477639452946e-12 	101324.9999999897
-0.2314814814814819 	299.9999999999773 	1.710041255281143e-12 	101324.9999999895
-0.2289789789789792 	299.9999999999011 	5.655935884599867e-12 	101324.9999999892
-0.2264764764764769 	299.9999999999364 	2.44585803784508e-12 	101324.999999989
-0.2239739739739743 	299.9999999999491 	4.350725882889313e-12 	101324.9999999887
-0.2214714714714718 	299.9999999999289 	3.270562731945081e-12 	101324.9999999888
-0.2189689689689693 	299.9999999999625 	3.103045016500097e-12 	101324.999999989
-0.2164664664664669 	299.999999999982 	4.675562685712506e-12 	101324.999999989
-0.2139639639639643 	299.9999999999199 	3.762906995429512e-12 	101324.999999989
-0.2114614614614618 	299.999999999964 	4.866724421812474e-12 	101324.9999999889
-0.2089589589589593 	299.9999999999857 	5.496668512331562e-12 	101324.999999989
-0.2064564564564568 	299.9999999999854 	5.526558002883705e-12 	101324.9999999892
-0.2039539539539543 	299.9999999998926 	7.035741679967211e-12 	101324.9999999896
-0.2014514514514518 	299.9999999999361 	4.693468554433224e-12 	101324.9999999896
-0.1989489489489494 	299.9999999999671 	8.270086942547312e-12 	101324.9999999897
-0.1964464464464468 	299.9999999999968 	4.265141434309775e-12 	101324.9999999895
-0.1939439439439443 	299.9999999999825 	7.158641085407175e-12 	101324.9999999898
-0.1914414414414418 	299.9999999999044 	3.670305636328545e-12 	101324.9999999901
-0.1889389389389393 	300.0000000000086 	4.765179600673488e-12 	101324.9999999902
-0.1864364364364368 	300.0000000000476 	2.983897367405485e-12 	101324.9999999904
-0.1839339339339343 	299.999999999969 	4.763362365314271e-12 	101324.9999999905
-0.1814314314314318 	299.9999999999941 	2.815979735880161e-12 	101324.9999999904
-0.1789289289289293 	299.9999999998849 	4.08737709473806e-12 	101324.9999999903
-0.1764264264264268 	299.9999999999732 	7.875357990807816e-13 	101324.9999999903
-0.1739239239239243 	299.9999999998828 	4.626656194002717e-12 	101324.9999999902
-0.1714214214214218 	299.999999999984 	5.414572607598188e-13 	101324.9999999904
-0.1689189189189193 	299.9999999999444 	6.523728470942648e-12 	101324.9999999904
-0.1664164164164168 	300.0000000000001 	1.520857327969919e-12 	101324.9999999903
-0.1639139139139143 	299.9999999999842 	7.567456081022933e-12 	101324.9999999903
-0.1614114114114118 	300.0000000000294 	2.945076028476182e-12 	101324.9999999902
-0.1589089089089093 	299.9999999999937 	9.320951197479587e-12 	101324.99999999
-0.1564064064064068 	299.9999999999813 	4.152217089683199e-12 	101324.9999999899
-0.1539039039039043 	299.9999999999857 	9.719267436245765e-12 	101324.99999999
-0.1514014014014018 	300.000000000028 	3.704455882048946e-12 	101324.9999999902
-0.1488988988988993 	299.9999999999773 	8.224003247117498e-12 	101324.9999999901
-0.1463963963963968 	300.0000000000011 	3.169364873091646e-12 	101324.9999999901
-0.1438938938938943 	299.9999999999437 	6.998890315545174e-12 	101324.9999999898
-0.1413913913913918 	299.9999999999114 	1.684949646031741e-12 	101324.9999999898
-0.1388888888888893 	299.9999999999732 	5.182524764002812e-12 	101324.9999999899
-0.1363863863863868 	299.9999999998736 	5.37788955817947e-13 	101324.99999999
-0.1338838838838843 	299.9999999999017 	4.310236039214316e-12 	101324.9999999899
-0.1313813813813818 	299.999999999997 	6.488249927053082e-13 	101324.9999999899
-0.1288788788788793 	299.9999999999533 	3.732304694081009e-12 	101324.9999999902
-0.1263763763763768 	299.9999999999661 	2.381976288648647e-13 	101324.9999999903
-0.1238738738738743 	299.9999999999188 	4.027259232334194e-12 	101324.9999999903
-0.1213713713713717 	299.9999999999811 	5.784634323589884e-13 	101324.9999999901
-0.1188688688688693 	300.0000000000068 	4.938315472012919e-12 	101324.9999999899
-0.1163663663663668 	299.9999999998897 	7.380341754980806e-13 	101324.9999999901
-0.1138638638638643 	299.9999999999823 	5.050357487961918e-12 	101324.99999999
-0.1113613613613618 	299.9999999999832 	1.920622323452383e-12 	101324.9999999901
-0.1088588588588592 	299.9999999999724 	4.456448511511062e-12 	101324.9999999899
-0.1063563563563568 	299.9999999999486 	2.406238360585326e-12 	101324.9999999901
-0.1038538538538543 	299.9999999999702 	2.791294323604433e-12 	101324.9999999899
-0.1013513513513517 	300.0000000000132 	1.997295305777192e-12 	101324.9999999901
-0.09884884884884926 	299.9999999999404 	2.135817085950691e-12 	101324.99999999
-0.09634634634634676 	299.9999999998763 	1.59274758916554e-12 	101324.9999999898
-0.09384384384384425 	299.9999999999165 	1.003820432850599e-12 	101324.9999999898
-0.09134134134134177 	300.0000000000252 	1.201182917428444e-12 	101324.9999999897
-0.08883883883883925 	300.0000000000097 	7.570147771558092e-13 	101324.9999999897
-0.08633633633633674 	299.9999999999374 	4.951831347025125e-13 	101324.9999999897
-0.08383383383383426 	300.0000000000101 	1.360114356367665e-13 	101324.9999999897
-0.08133133133133173 	299.999999999961 	3.813847764279901e-13 	101324.9999999897
-0.07882882882882926 	299.9999999998592 	5.975881974330009e-13 	101324.9999999894
-0.07632632632632676 	299.9999999999549 	6.745202067746561e-13 	101324.999999989
-0.07382382382382424 	299.9999999998804 	1.04955927363048e-12 	101324.9999999892
-0.07132132132132173 	300.0000000000124 	1.017929907520187e-12 	101324.9999999894
-0.06881881881881925 	299.9999999999539 	1.100120954385084e-13 	101324.9999999895
-0.06631631631631671 	299.9999999998756 	1.864876564000515e-13 	101324.9999999894
-0.06381381381381425 	299.9999999999459 	3.812641368536778e-13 	101324.9999999894
-0.06131131131131173 	299.9999999999478 	8.66018852822143e-13 	101324.9999999892
-0.05880880880880923 	299.9999999999072 	1.02113404971552e-12 	101324.9999999896
-0.05630630630630672 	299.9999999999582 	7.991478692426571e-13 	101324.9999999896
-0.05380380380380424 	300.0000000000132 	1.214292191816675e-12 	101324.9999999896
-0.05130130130130173 	300.0000000000139 	1.451929526496003e-12 	101324.9999999897
-0.04879879879879922 	299.9999999999366 	1.68244806400378e-12 	101324.9999999898
-0.04629629629629672 	299.9999999999247 	1.095194048393189e-12 	101324.9999999899
-0.04379379379379422 	299.9999999999067 	1.559319006446055e-12 	101324.9999999902
-0.04129129129129173 	299.9999999999772 	1.132079759543742e-12 	101324.9999999903
-0.03878878878878922 	299.9999999999784 	1.359404069171785e-12 	101324.9999999904
-0.03628628628628671 	299.9999999999769 	8.142551496227543e-13 	101324.9999999905
-0.03378378378378422 	299.9999999999175 	1.076864663284508e-12 	101324.9999999904
-0.03128128128128172 	299.9999999999627 	7.49215325506326e-13 	101324.9999999904
-0.02877877877877922 	299.9999999999613 	1.596440257027239e-12 	101324.9999999903
-0.0262762762762767 	299.9999999998836 	1.810138911449455e-12 	101324.9999999904
-0.02377377377377422 	300.0000000000206 	1.514744461150099e-12 	101324.9999999904
-0.0212712712712717 	299.999999999891 	1.51582580050308e-12 	101324.9999999902
-0.01876876876876921 	299.9999999999661 	3.585897775042874e-13 	101324.9999999901
-0.01626626626626671 	300.0000000000168 	4.466103909676375e-13 	101324.99999999
-0.0137637637637642 	299.9999999999572 	1.636630506406698e-13 	101324.9999999899
-0.0112612612612617 	300.0000000000188 	5.7915244168711e-14 	101324.9999999898
-0.008758758758759198 	299.9999999999955 	6.717542394267088e-13 	101324.9999999894
-0.006256256256256697 	299.9999999998694 	5.108256200837433e-13 	101324.9999999894
-0.003753753753754195 	299.999999999949 	1.477078602954982e-12 	101324.9999999893
-0.001251251251251693 	299.9999999999143 	7.092318149213565e-13 	101324.9999999892
0.00125125125125081 	299.9999999999509 	2.729858270986213e-13 	101324.9999999891
0.003753753753753312 	299.9999999999557 	3.528820397114112e-13 	101324.9999999889
0.006256256256255817 	299.9999999998694 	2.575847844195413e-13 	101324.9999999889
0.008758758758758317 	299.9999999999912 	1.284074634659629e-13 	101324.999999989
0.01126126126126082 	300.0000000000113 	4.137045697742311e-13 	101324.9999999891
0.01376376376376332 	299.9999999999633 	9.582675417417409e-13 	101324.9999999895
0.01626626626626582 	300.0000000000109 	1.466023746165897e-12 	101324.9999999896
0.01876876876876833 	299.999999999943 	1.864957848325054e-12 	101324.9999999898
0.02127127127127083 	299.999999999963 	1.275571924670165e-12 	101324.99999999
0.02377377377377332 	299.9999999999957 	1.481718298935985e-12 	101324.9999999903
0.02627627627627583 	299.9999999998909 	1.513748153571037e-12 	101324.9999999903
0.02877877877877833 	300.0000000000061 	5.78185246773616e-13 	101324.9999999902
0.03128128128128083 	299.9999999999352 	7.969261257404098e-13 	101324.9999999901
0.03378378378378333 	299.9999999998877 	2.743948748456717e-13 	101324.9999999901
0.03628628628628584 	299.9999999999654 	8.634435209252854e-13 	101324.99999999
0.03878878878878834 	299.9999999999754 	1.18669392732016e-12 	101324.9999999899
0.04129129129129084 	299.9999999999719 	1.368551996728954e-12 	101324.9999999898
0.04379379379379333 	299.9999999999302 	1.350052127053271e-12 	101324.9999999897
0.04629629629629585 	299.9999999998708 	1.877531155644117e-12 	101324.9999999897
0.04879879879879834 	299.9999999999476 	2.509852788507253e-12 	101324.99999999
0.05130130130130085 	300.0000000000166 	2.293015803687966e-12 	101324.99999999
0.05380380380380335 	300.0000000000216 	1.937685961913605e-12 	101324.9999999901
0.05630630630630584 	299.9999999999876 	1.554121004072129e-12 	101324.9999999903
0.05880880880880836 	299.9999999999079 	2.106621764640944e-12 	101324.9999999905
0.06131131131131085 	299.9999999999686 	1.943515721421559e-12 	101324.9999999907
0.06381381381381336 	299.9999999999596 	1.449067532914797e-12 	101324.9999999906
0.06631631631631586 	299.9999999998735 	1.29830417240266e-12 	101324.9999999901
0.06881881881881835 	299.9999999999379 	1.926333594375083e-12 	101324.9999999898
0.07132132132132088 	299.9999999999835 	1.38330555639047e-12 	101324.9999999897
0.07382382382382337 	299.999999999888 	1.743922397630545e-12 	101324.9999999896
0.07632632632632587 	299.9999999999678 	1.906023327575522e-12 	101324.9999999896
0.07882882882882837 	299.9999999999272 	2.191223195931365e-12 	101324.9999999895
0.08133133133133086 	299.9999999999812 	2.039004605858616e-12 	101324.9999999897
0.08383383383383337 	299.9999999999792 	1.966575502811325e-12 	101324.9999999898
0.08633633633633589 	299.9999999998925 	2.180479469915353e-12 	101324.9999999897
0.08883883883883838 	300.0000000000157 	2.932429613423933e-12 	101324.9999999897
0.09134134134134086 	299.9999999999908 	1.935548960858151e-12 	101324.9999999897
0.09384384384384339 	299.9999999998783 	2.870662636846367e-12 	101324.9999999896
0.09634634634634588 	299.9999999999588 	2.512087072195148e-12 	101324.9999999895
0.09884884884884838 	299.9999999999648 	2.390525304050626e-12 	101324.9999999895
0.1013513513513509 	300.0000000000188 	2.048490901334329e-12 	101324.9999999894
0.1038538538538534 	299.9999999999417 	1.911989443363687e-12 	101324.9999999892
0.1063563563563559 	300.00000000002 	1.97307722384794e-12 	101324.9999999894
0.1088588588588584 	300.0000000000294 	9.079842627586637e-13 	101324.9999999897
0.1113613613613609 	299.999999999899 	1.100544082400612e-12 	101324.9999999896
0.1138638638638634 	299.9999999999369 	1.200667932824594e-12 	101324.9999999896
0.1163663663663659 	299.999999999936 	1.780026664907619e-12 	101324.9999999897
0.1188688688688684 	299.9999999999675 	2.129343993090322e-12 	101324.9999999898
0.1213713713713709 	299.9999999999902 	2.26978957741237e-12 	101324.9999999899
0.1238738738738734 	299.9999999999138 	2.536571696598408e-12 	101324.9999999899
0.1263763763763759 	299.9999999999857 	2.324922113853903e-12 	101324.9999999898
0.1288788788788784 	299.9999999999897 	1.866519482430859e-12 	101324.9999999898
0.1313813813813809 	299.9999999999879 	1.436919294283846e-12 	101324.9999999894
0.1338838838838834 	299.999999999973 	1.633959511032938e-12 	101324.9999999891
0.1363863863863859 	300.000000000034 	1.050089545166132e-12 	101324.9999999893
0.1388888888888884 	300.0000000000518 	1.026878289447963e-12 	101324.9999999894
0.1413913913913909 	300.0000000000006 	1.699611546163292e-13 	101324.9999999893
0.1438938938938934 	299.9999999999881 	1.104661610663647e-12 	101324.9999999894
0.1463963963963959 	299.9999999999555 	2.562881805418932e-13 	101324.9999999896
0.1488988988988985 	299.9999999998966 	2.168401699888362e-12 	101324.9999999895
0.1514014014014009 	299.9999999999707 	1.146464788899429e-12 	101324.9999999895
0.1539039039039035 	299.9999999999586 	3.505662667627934e-12 	101324.9999999894
0.1564064064064059 	299.9999999999247 	9.347307455339356e-13 	101324.9999999895
0.1589089089089084 	299.9999999999762 	4.422333190872323e-12 	101324.9999999896
0.1614114114114109 	299.9999999999714 	1.485218625997638e-12 	101324.9999999897
0.1639139139139134 	299.9999999999009 	3.773631195282761e-12 	101324.9999999902
0.166416416416416 	300.0000000000077 	3.177360153824193e-12 	101324.9999999903
0.1689189189189185 	300.0000000000391 	3.7012551245314e-12 	101324.9999999903
0.1714214214214209 	299.9999999999944 	3.374957835435267e-12 	101324.9999999902
0.1739239239239235 	299.999999999987 	1.79840831957044e-12 	101324.9999999904
0.1764264264264259 	299.9999999999608 	3.265778597409792e-12 	101324.9999999903
0.1789289289289284 	300.0000000000115 	8.573639498667088e-13 	101324.9999999904
0.181431431431431 	299.999999999962 	3.789063458270614e-12 	101324.9999999903
0.1839339339339334 	299.9999999999661 	2.036366996302805e-12 	101324.9999999899
0.186436436436436 	299.9999999999138 	3.502830667868539e-12 	101324.9999999897
0.1889389389389385 	299.9999999999844 	3.363743539481854e-12 	101324.9999999895
0.191441441441441 	299.9999999999768 	2.529424041272931e-12 	101324.9999999894
0.1939439439439434 	299.9999999999026 	4.029908755469578e-12 	101324.9999999893
0.196446446446446 	299.9999999999378 	3.105947695155086e-12 	101324.9999999891
0.1989489489489485 	299.9999999999569 	5.608968715390176e-12 	101324.9999999891
0.2014514514514509 	299.9999999999797 	3.405928777429929e-12 	101324.9999999891
0.2039539539539535 	299.9999999999924 	4.607117915359877e-12 	101324.9999999891
0.2064564564564559 	299.9999999999537 	3.828992853808577e-12 	101324.9999999894
0.2089589589589585 	299.9999999999781 	4.18660044230206e-12 	101324.9999999895
0.211461461461461 	299.9999999999216 	4.486960788914004e-12 	101324.9999999892
0.2139639639639635 	299.9999999999803 	4.033121513960224e-12 	101324.999999989
0.2164664664664659 	299.999999999994 	4.725174911415134e-12 	101324.9999999887
0.2189689689689684 	299.9999999999943 	2.29348048010472e-12 	101324.9999999891
0.221471471471471 	299.9999999999923 	4.207604421654086e-12 	101324.9999999894
0.2239739739739735 	299.9999999999495 	2.095442513428226e-12 	101324.9999999894
0.226476476476476 	299.9999999999746 	3.421826854638788e-12 	101324.9999999892
0.2289789789789785 	299.999999999993 	2.745199248359896e-12 	101324.9999999892
0.231481481481481 	299.9999999999831 	3.1003007199235e-12 	101324.9999999894
0.2339839839839835 	299.9999999999833 	3.555491556902818e-12 	101324.9999999895
0.236486486486486 	300.0000000000205 	1.929880097672039e-12 	101324.9999999894
0.2389889889889885 	300.0000000000009 	2.978392867289349e-12 	101324.9999999893
0.241491491491491 	299.9999999999104 	4.583147368139611e-13 	101324.9999999895
0.2439939939939935 	299.9999999999811 	2.797959196844264e-12 	101324.9999999896
0.246496496496496 	299.9999999999865 	3.737691370698342e-13 	101324.9999999894
0.2489989989989985 	300.0000000000404 	1.179017729631685e-12 	101324.9999999893
0.251501501501501 	300.0000000000342 	1.515485079551041e-13 	101324.9999999891
0.2540040040040035 	299.9999999999843 	4.82412820095119e-13 	101324.9999999893
0.256506506506506 	300.0000000000286 	1.246818001486987e-12 	101324.9999999893
0.2590090090090086 	299.9999999998886 	5.527659043781695e-13 	101324.9999999894
0.261511511511511 	299.9999999999962 	2.872540060106211e-12 	101324.9999999895
0.2640140140140135 	299.9999999999853 	9.267553259715821e-13 	101324.9999999897
0.2665165165165161 	299.9999999999176 	2.616895840123407e-12 	101324.9999999897
0.2690190190190185 	300.0000000000067 	1.88085694872617e-12 	101324.9999999896
0.271521521521521 	300.0000000000122 	1.907794541027907e-12 	101324.9999999896
0.2740240240240235 	300.0000000000152 	2.039124069465368e-12 	101324.9999999896
0.276526526526526 	300.000000000006 	1.380362395064483e-12 	101324.9999999898
0.2790290290290286 	299.9999999999305 	2.231640291649473e-12 	101324.9999999896
0.281531531531531 	299.9999999999156 	8.442934672163586e-13 	101324.9999999898
0.2840340340340335 	299.999999999974 	1.98790492641704e-12 	101324.9999999896
0.2865365365365361 	299.9999999999487 	1.661921297696388e-13 	101324.9999999894
0.2890390390390385 	299.9999999999969 	4.032452075998151e-13 	101324.9999999893
0.291541541541541 	299.9999999999957 	4.955197314338212e-13 	101324.9999999892
0.2940440440440436 	299.9999999999842 	9.600519700203158e-13 	101324.9999999895
0.296546546546546 	299.9999999999903 	1.402409922765387e-12 	101324.9999999896
0.2990490490490486 	299.9999999999242 	2.474175060246257e-12 	101324.9999999899
0.3015515515515511 	300.0000000000443 	2.837428526848854e-12 	101324.9999999897
0.3040540540540535 	300.0000000000019 	3.526671141794657e-12 	101324.9999999895
0.3065565565565562 	299.9999999999902 	3.617104655963998e-12 	101324.9999999896
0.3090590590590585 	299.999999999986 	2.879027144922672e-12 	101324.9999999897
0.3115615615615611 	299.9999999999295 	3.078320955140389e-12 	101324.9999999896
0.3140640640640635 	300.0000000000113 	1.651164075775694e-12 	101324.9999999895
0.316566566566566 	299.9999999999949 	2.389379596142463e-12 	101324.9999999894
0.3190690690690687 	299.9999999999483 	1.325631118402664e-12 	101324.9999999895
0.3215715715715711 	300.0000000000189 	2.124178859761371e-12 	101324.9999999895
0.3240740740740735 	299.9999999999986 	1.229659725540666e-12 	101324.9999999896
0.326576576576576 	299.9999999998956 	1.669855143164429e-12 	101324.9999999897
0.3290790790790786 	300.0000000000098 	5.455215815310055e-13 	101324.9999999897
0.3315815815815811 	300.0000000000369 	9.565705629059394e-13 	101324.9999999899
0.3340840840840836 	299.9999999999878 	1.167107202753479e-12 	101324.99999999
0.3365865865865861 	300.0000000000596 	5.062020190501266e-13 	101324.99999999
0.3390890890890886 	300.0000000000532 	1.832563820495794e-12 	101324.9999999899
0.3415915915915911 	300.000000000001 	5.830553626800443e-13 	101324.9999999896
0.3440940940940935 	299.9999999999443 	1.336515600191664e-12 	101324.9999999895
0.3465965965965962 	300.0000000000364 	1.108503322261936e-12 	101324.9999999892
0.3490990990990985 	300.0000000000264 	1.023825602546608e-12 	101324.999999989
0.3516016016016011 	299.9999999999841 	8.747907627865629e-13 	101324.9999999891
0.3541041041041035 	300.0000000000057 	1.675063072932765e-12 	101324.999999989
0.3566066066066061 	299.999999999948 	3.117829352918525e-12 	101324.9999999886
0.3591091091091085 	299.9999999999084 	3.183620085172545e-12 	101324.9999999883
0.3616116116116112 	299.9999999999352 	7.124904176612079e-12 	101324.9999999877
0.3641141141141137 	299.9999999999247 	9.291304821092383e-12 	101324.9999999859
0.3666166166166161 	299.9999999999122 	2.144465928621609e-11 	101324.9999999825
0.3691191191191185 	300.0000000000356 	3.516504916690187e-11 	101324.9999999756
0.371621621621621 	299.999999999992 	7.325926781471959e-11 	101324.999999962
0.3741241241241237 	300.0000000000107 	1.344986295982247e-10 	101324.9999999363
0.3766266266266261 	299.9999999999483 	2.61156164003045e-10 	101324.9999998873
0.3791291291291286 	299.9999999998158 	4.920205099136843e-10 	101324.9999997952
0.3816316316316311 	299.9999999996017 	9.315072533101125e-10 	101324.9999996223
0.3841341341341336 	299.9999999994292 	1.743916191236343e-09 	101324.9999993
0.3866366366366362 	299.9999999989067 	3.251986349916482e-09 	101324.9999987035
0.3891391391391387 	299.9999999979357 	6.015902071357913e-09 	101324.9999976073
0.391641641641641 	299.9999999962857 	1.106287884641089e-08 	101324.9999956066
0.3941441441441436 	299.9999999932372 	2.019997653368862e-08 	101324.9999919802
0.3966466466466462 	299.9999999877051 	3.663532537224391e-08 	101324.9999854552
0.3991491491491486 	299.9999999777844 	6.597260850780373e-08 	101324.9999737984
0.4016516516516512 	299.999999960271 	1.17970215667319e-07 	101324.9999531268
0.4041541541541536 	299.9999999295312 	2.094342660610656e-07 	101324.9999167404
0.4066566566566561 	299.9999998757615 	3.691170169249464e-07 	101324.9998531766
0.4091591591591587 	299.9999997826134 	6.457446203540868e-07 	101324.9997429879
0.4116616616616612 	299.9999996223171 	1.121230635072747e-06 	101324.9995534664
0.4141641641641635 	299.9999993488297 	1.932009638268996e-06 	101324.9992300871
0.4166666666666662 	299.9999988858294 	3.303312277698435e-06 	101324.9986827788
0.4191691691691687 	299.9999981087319 	5.603468287605708e-06 	101324.9977641319
0.421671671671671 	299.9999968155585 	9.429090645052417e-06 	101324.9962351953
0.4241741741741737 	299.9999946816322 	1.573708697733566e-05 	101324.993712427
0.4266766766766761 	299.9999911915992 	2.604670217498079e-05 	101324.9895864114
0.4291791791791785 	299.9999855350288 	4.27449094837065e-05 	101324.9828989125
0.4316816816816812 	299.9999764509614 	6.954158332078503e-05 	101324.9721594068
0.4341841841841836 	299.999962000159 	0.0001121385313118145 	101324.9550751939
0.4366866866866862 	299.9999392340185 	0.0001791976454871662 	101324.9281603633
0.4391891891891885 	299.9999037233461 	0.0002837195925594967 	101324.8861783885
0.4416916916916913 	299.9998488973478 	0.0004449724861020689 	101324.8213613725
0.4441941941941936 	299.9997651368014 	0.0006911390222704865 	101324.7223371481
0.4466966966966961 	299.9996385523655 	0.001062873414134578 	101324.5726856099
0.4491991991991987 	299.9994493801213 	0.001617969286292079 	101324.3490413281
0.4517017017017012 	299.9991699270524 	0.002437322279050605 	101324.0186658184
0.4542042042042035 	299.9987620250776 	0.003632309976072614 	101323.5364370072
0.4567067067067062 	299.9981739894667 	0.005353583843195917 	101322.8412545654
0.4592092092092087 	299.9973371569513 	0.007801048144223509 	101321.851948432
0.4617117117117112 	299.9961621928142 	0.01123446363866658 	101320.4629145766
0.4642142142142137 	299.9945355170302 	0.01598364064237137 	101318.5398948955
0.4667167167167162 	299.9923164170209 	0.02245657412352726 	101315.9165686425
0.4692192192192187 	299.9893356580048 	0.03114314959178338 	101312.3929206315
0.4717217217217212 	299.9853966784767 	0.04261128330793661 	101307.7366682863
0.4742242242242236 	299.980280691185 	0.05749168242591957 	101301.6893131234
0.4767267267267262 	299.9737571616914 	0.07644701404255344 	101293.9785529499
0.4792292292292287 	299.9656010930015 	0.1001214108375783 	101284.3387440509
0.4817317317317312 	299.9556182285912 	0.1290672045429529 	101272.540717871
0.4842342342342336 	299.943678578207 	0.1636478444044602 	101258.4314186683
0.4867367367367362 	299.9297575157209 	0.2039193249564717 	101241.9824546283
0.4892392392392387 	299.9139820686966 	0.2494971636370942 	101223.344726219
0.4917417417417412 	299.8966779749474 	0.2994221283825687 	101202.9038819139
0.4942442442442437 	299.8784101496551 	0.3520494009234093 	101181.3279014249
0.4967467467467462 	299.8600000728388 	0.405014372460565 	101159.5873543067
0.4992492492492487 	299.8424868938134 	0.4553519549962269 	101138.9092018775
0.5017517517517511 	299.8270182207423 	0.499798616988837 	101120.6477148636
0.5042542542542537 	299.814695352972 	0.5352271218578873 	101106.101863879
0.5067567567567562 	299.806400921205 	0.5591343080566915 	101096.3122030825
0.5092592592592589 	299.8026374341815 	0.5701016469130803 	101091.8703308606
0.5117617617617611 	299.8034019035867 	0.5681520983826829 	101092.7714550979
0.5142642642642637 	299.8081181445143 	0.5549269236836561 	101098.3390337703
0.5167667667667663 	299.815670175773 	0.5336267595163735 	101107.2543201527
0.5192692692692688 	299.8244997131799 	0.5087017414401797 	101117.6769873348
0.5217717717717714 	299.8328109533499 	0.4852311197806696 	101127.4883645976
0.5242742742742736 	299.8389179345598 	0.4679336247813595 	101134.6978727954
0.5267767767767763 	299.8416787298159 	0.4599982702927573 	101137.9574125508
0.5292792792792789 	299.8408196422517 	0.4622087475972217 	101136.9438149598
0.5317817817817813 	299.8369993449252 	0.4727476472855062 	101132.4325438924
0.5342842842842837 	299.8316102399394 	0.4877075206049209 	101126.0697151153
0.5367867867867864 	299.8264198332565 	0.5021484379481853 	101119.9424649662
0.5392892892892888 	299.8230608057051 	0.5115491350848427 	101115.9772751336
0.5417917917917912 	299.8224785655587 	0.5132852452938338 	101115.2896729036
0.5442942942942938 	299.8246121664286 	0.5074958443867108 	101117.8080777836
0.5467967967967964 	299.8284572369473 	0.4969374419448803 	101122.3482778725
0.5492992992992988 	299.8324566235914 	0.4859185806030561 	101127.0697179967
0.5518018018018012 	299.8350733865082 	0.4786576610057975 	101130.1588734563
0.5543043043043039 	299.835419724034 	0.4775897574551926 	101130.568022664
0.5568068068068063 	299.8336270553496 	0.482382382806915 	101128.4517287198
0.5593093093093087 	299.8307443218528 	0.4901874330580672 	101125.0477341934
0.5618118118118114 	299.8282374090272 	0.4970075705309494 	101122.0882860265
0.5643143143143137 	299.8273052287965 	0.499591848560159 	101120.9876677839
0.5668168168168163 	299.8282910620197 	0.4969893604383796 	101122.1510921153
0.5693193193193188 	299.8305496342747 	0.490915802124361 	101124.818207451
0.5718218218218213 	299.8328340074217 	0.4847377505199821 	101127.5150061708
0.5743243243243239 	299.8339665075524 	0.4816224229571914 	101128.8521320165
0.5768268268268262 	299.833489448214 	0.4828118987769346 	101128.289182511
0.5793293293293288 	299.831895379205 	0.4870135269960961 	101126.406753062
0.5818318318318314 	299.8302868678055 	0.4912868782437786 	101124.5078288098
0.5843343343343338 	299.8296953130416 	0.4928858801658705 	101123.8092580639
0.5868368368368363 	299.8304425054668 	0.49093712959262 	101124.6909864614
0.5893393393393387 	299.8319754230573 	0.4868798962731258 	101126.5014089324
0.5918418418418413 	299.8332808578908 	0.4833936295636327 	101128.0425257929
0.5943443443443439 	299.8335735449152 	0.482553185825273 	101128.3880284832
0.5968468468468463 	299.8328232367294 	0.4844569847200482 	101127.5025325626
0.5993493493493487 	299.8317317065668 	0.4872834502423051 	101126.2134950412
0.6018518518518514 	299.8311850871081 	0.4887131776779874 	101125.5679551521
0.6043543543543537 	299.831597378242 	0.4876524274422876 	101126.0547017435
0.6068568568568564 	299.8326286746289 	0.4849636745680365 	101127.2724817398
0.6093593593593587 	299.8334978309135 	0.4826693497588441 	101128.2985972506
0.6118618618618614 	299.8336161815098 	0.4822999415443459 	101128.4385278236
0.6143643643643638 	299.8330454137755 	0.4837158072395736 	101127.7647030949
0.6168668668668662 	299.8324020561246 	0.4853427435759219 	101127.0048742342
0.6193693693693688 	299.8323072495795 	0.485581446311912 	101126.8929284807
0.6218718718718714 	299.8328615808221 	0.4841575836260159 	101127.5474861457
0.6243743743743737 	299.8335965924294 	0.482252214237036 	101128.4154252046
0.6268768768768762 	299.8339293066997 	0.4813520100954424 	101128.8082927337
0.629379379379379 	299.8336903159762 	0.4819008940281593 	101128.5261449835
0.6318818818818812 	299.8332476673267 	0.4829823115725465 	101128.0033438654
0.6343843843843838 	299.8331228941747 	0.4832799168446746 	101127.8557096918
0.6368868868868864 	299.8334867294533 	0.482349676730945 	101128.2852435402
0.6393893893893888 	299.8340240698584 	0.4809682576140913 	101128.9198744656
0.6418918918918912 	299.8342823291672 	0.4802702555453277 	101129.2247028598
0.6443943943943939 	299.8341299180086 	0.4805954738931285 	101129.0447613034
0.6468968968968963 	299.8338632945294 	0.4812190162796738 	101128.7299341141
0.6493993993993988 	299.8338655292131 	0.4811890638575707 	101128.7325677956
0.6519019019019012 	299.8342001885252 	0.4803355439539827 	101129.127686943
0.6544044044044038 	299.8345727587143 	0.4793748087045293 	101129.5675822552
0.6569069069069065 	299.8346789823415 	0.4790588222702596 	101129.6930884979
0.6594094094094087 	299.8345367930263 	0.4793559176562232 	101129.5253121618
0.6619119119119113 	299.834437330003 	0.4795624013699206 	101129.4075753151
0.664414414414414 	299.8345917368699 	0.4791562489251297 	101129.5897484807
0.6669169169169162 	299.8348990913177 	0.4783704496563769 	101129.9528598868
0.6694194194194188 	299.8350937390445 	0.4778476284244708 	101130.1824644499
0.6719219219219214 	299.8350704145244 	0.4778488484463639 	101130.154994049
0.674424424424424 	299.834994739335 	0.4779849467195078 	101130.0657877882
0.6769269269269262 	299.8350764913877 	0.477751709309663 	101130.1621692751
0.679429429429429 	299.8353091036296 	0.4771544234460147 	101130.4368144141
0.6819319319319311 	299.835500797202 	0.4766456598720021 	101130.6632673737
0.6844344344344341 	299.8355333545278 	0.4765124939847056 	101130.7015787379
0.686936936936936 	299.8355036878992 	0.4765327823005682 	101130.6664857933
0.6894394394394392 	299.8355771191781 	0.4763160291563295 	101130.7532017444
0.6919419419419413 	299.8357651364223 	0.4758277373013186 	101130.9751463889
0.694444444444444 	299.8359270588885 	0.4753936928465902 	101131.1663452083
0.6969469469469463 	299.8359739701342 	0.4752263284544604 	101131.2218112622
0.6994494494494489 	299.835982773071 	0.4751531092787689 	101131.2321609759
0.7019519519519515 	299.8360727136205 	0.4748964413357895 	101131.3382545164
0.7044544544544538 	299.836236147522 	0.4744673352510604 	101131.5312289412
0.7069569569569564 	299.8363639321682 	0.4741150810826833 	101131.6821589455
0.7094594594594589 	299.8364109498768 	0.4739480748769925 	101131.7376308225
0.7119619619619615 	299.8364529510077 	0.4737971021774293 	101131.7871421929
0.7144644644644638 	299.8365629705107 	0.4734929143663339 	101131.9171449138
0.7169669669669665 	299.8367054114149 	0.4731121235863734 	101132.085309815
0.7194694694694688 	299.8368013604054 	0.4728335568514556 	101132.1984861429
0.7219719719719715 	299.8368513931578 	0.4726597856099894 	101132.2576520788
0.7244744744744737 	299.8369253906242 	0.4724360667464823 	101132.3449553669
0.7269769769769764 	299.8370471387747 	0.4721054434649111 	101132.4886266758
0.7294794794794791 	299.8371636513857 	0.47178310357105 	101132.6262917277
0.7319819819819813 	299.8372373110392 	0.4715553207567982 	101132.713286304
0.7344844844844839 	299.8373028532104 	0.4713484291035448 	101132.7905163794
0.7369869869869864 	299.8374028375578 	0.4710666021299794 	101132.9086520644
0.739489489489489 	299.8375189348733 	0.4707477491945177 	101133.0456956208
0.7419919919919914 	299.8376089980056 	0.470484166339901 	101133.1520047665
0.7444944944944939 	299.8376792417901 	0.4702648805593402 	101133.2349811828
0.7469969969969963 	299.8377677294454 	0.4700080217695288 	101133.3393425828
0.7494994994994989 	299.8378764625012 	0.4697064365699692 	101133.4677256891
0.7520020020020015 	299.8379730012772 	0.4694291650228924 	101133.5818802005
0.7545045045045039 	299.8380503852022 	0.469194057261489 	101133.6730634806
0.7570070070070062 	299.8381351004338 	0.468944622732597 	101133.7730184747
0.7595095095095092 	299.8382370671627 	0.468657884643795 	101133.8936164386
0.7620120120120112 	299.8383347493626 	0.4683794815586791 	101134.0088893968
0.7645145145145138 	299.8384171190456 	0.4681337433139903 	101134.1059287208
0.7670170170170165 	299.8385017645679 	0.4678838113628606 	101134.2059903329
0.7695195195195191 	299.8385996929886 	0.4676063614190972 	101134.3216674734
0.7720220220220213 	299.8386960425902 	0.4673315016979028 	101134.435345933
0.7745245245245239 	299.8387809383624 	0.4670802348824917 	101134.5355578975
0.7770270270270263 	299.8388669930793 	0.466827435858446 	101134.6371824376
0.779529529529529 	299.8389626296453 	0.4665550754556023 	101134.7501220096
0.7820320320320313 	299.8390570704706 	0.4662846644459178 	101134.8615074713
0.784534534534534 	299.8391431624486 	0.466030991721836 	101134.9632179384
0.7870370370370364 	299.8392306780081 	0.4657751477375003 	101135.0666250465
0.7895395395395389 	299.8393251299307 	0.4655056740969641 	101135.1779780017
0.7920420420420413 	299.8394175233528 	0.4652395153761756 	101135.2870770792
0.794544544544544 	299.8395041432102 	0.4649848223254145 	101135.3895341945
0.7970470470470463 	299.8395932778797 	0.4647263365333362 	101135.4945405913
0.799549549549549 	299.8396866215218 	0.4644590925953307 	101135.6046922654
0.8020520520520515 	299.8397770901248 	0.4641966556076442 	101135.7117885365
0.8045545545545539 	299.8398645963591 	0.4639410880640293 	101135.8149026468
0.8070570570570563 	299.8399546612303 	0.4636806248929218 	101135.9211708174
0.8095595595595589 	299.8400467415474 	0.4634156883829026 	101136.0300412659
0.8120620620620614 	299.8401361685237 	0.4631560896294175 	101136.1355618245
0.8145645645645638 	299.8402242595818 	0.4628993650661248 	101136.2395149593
0.8170670670670666 	299.840314855295 	0.4626378613265001 	101136.3465407686
0.8195695695695689 	299.8404058862408 	0.4623755479717873 	101136.4539530774
0.8220720720720714 	299.8404944655534 	0.4621177751063719 	101136.5585304024
0.8245745745745739 	299.8405833116084 	0.4618597151102619 	101136.663461502
0.8270770770770765 	299.8406740521859 	0.4615983079533851 	101136.7705242227
0.8295795795795788 	299.840763739848 	0.4613385551454388 	101136.8764628572
0.8320820820820815 	299.8408521321454 	0.4610813778172616 	101136.9808445539
0.834584584584584 	299.8409417191265 	0.4608222411570946 	101137.0865771588
0.8370870870870865 	299.8410318587828 	0.4605620582478124 	101137.1929815188
0.8395895895895891 	299.8411206436102 	0.460304294924078 	101137.2978501096
0.8420920920920915 	299.8412094175092 	0.4600467967393143 	101137.4026195898
0.844594594594594 	299.8412991786204 	0.459787529899961 	101137.5085720045
0.8470970970970964 	299.8413884708201 	0.4595291452145571 	101137.6139520441
0.8495995995995991 	299.8414769182874 	0.4592721840039567 	101137.7184458607
0.8521021021021015 	299.8415659562287 	0.459014199319793 	101137.8236810484
0.8546046046046039 	299.8416555180083 	0.4587559255461719 	101137.9291659142
0.8571071071071066 	299.8417440799828 	0.458499053289442 	101138.033762332
0.8596096096096089 	299.8418325328777 	0.4582420640360229 	101138.1384450837
0.8621121121121116 	299.8419218307712 	0.4579842911986716 	101138.2436716041
0.8646146146146139 	299.8420106259957 	0.4577273736918046 	101138.348378106
0.8671171171171166 	299.8420988174027 	0.4574710175856717 	101138.4527588437
0.8696196196196189 	299.8421877164392 	0.4572140624943224 	101138.5576121291
0.8721221221221216 	299.8422764989448 	0.4569574019834031 	101138.6623242754
0.874624624624624 	299.8423646520568 	0.4567014374578711 	101138.7665776669
0.8771271271271264 	299.8424532157166 	0.456445177693878 	101138.8710713943
0.879629629629629 	299.8425418889768 	0.4561888839019387 	101138.9756364191
0.8821321321321317 	299.84262997621 	0.4559332357205789 	101139.0797920174
0.8846346346346339 	299.842718270394 	0.4556776071956166 	101139.1839969265
0.8871371371371364 	299.8428066988799 	0.4554218118552699 	101139.2883589951
0.8896396396396391 	299.8428947846054 	0.4551664838046619 	101139.3924195827
0.8921421421421414 	299.8429829725142 	0.4549113725842703 	101139.4964002453
0.8946446446446441 	299.8430711048251 	0.4546561412724837 	101139.6005314583
0.8971471471471464 	299.843159081188 	0.4544012293326432 	101139.704462833
0.8996496496496489 	299.8432471055523 	0.4541465661417622 	101139.8082536475
0.9021521521521517 	299.8433350479465 	0.4538918317644307 	101139.9121530665
0.9046546546546541 	299.8434228939088 	0.4536373643656495 	101140.0159246424
0.9071571571571564 	299.8435107667475 	0.4533831780378409 	101140.1195445044
0.9096596596596589 	299.8435985242515 	0.4531289581990587 	101140.223232556
0.9121621621621616 	299.8436862527661 	0.4528748787104345 	101140.3268306144
0.9146646646646639 	299.8437739873461 	0.4526210643057635 	101140.4302769797
0.9171671671671666 	299.8438615460566 	0.4523673978588071 	101140.5337542993
0.9196696696696689 	299.843949056326 	0.4521138972800217 	101140.637166629
0.9221721721721714 	299.844036783959 	0.4518605262921105 	101140.7404494112
0.9246746746746741 	299.8441241410164 	0.451607246135548 	101140.8437401546
0.9271771771771765 	299.8442114299153 	0.451354200175198 	101140.9469657652
0.9296796796796791 	299.8442989386286 	0.4511013410695357 	101141.0500679357
0.9321821821821816 	299.8443862608958 	0.4508485049465005 	101141.153157209
0.9346846846846838 	299.8444733946797 	0.4505958613896514 	101141.2561857729
0.9371871871871866 	299.8445606601829 	0.4503434924028092 	101141.3591172743
0.9396896896896891 	299.844647877153 	0.4500911960715213 	101141.4620371431
0.9421921921921914 	299.8447349587876 	0.4498390329614707 	101141.5648934427
0.9446946946946939 	299.8448220159793 	0.4495870948818655 	101141.6676503431
0.9471971971971965 	299.8449089710034 	0.4493352340846598 	101141.7703702709
0.9496996996996991 	299.8449959042186 	0.4490835282315857 	101141.8730182211
0.9522022022022016 	299.8450828904352 	0.4488320643316295 	101141.9755899819
0.9547047047047038 	299.8451696460608 	0.4485807041290918 	101142.0781358014
0.9572072072072064 	299.8452564333808 	0.4483294720249526 	101142.1806141917
0.9597097097097093 	299.8453432750954 	0.4480784124200448 	101142.2830196079
0.9622122122122114 	299.8454299272229 	0.4478274882913509 	101142.3853795909
0.964714714714714 	299.8455164843325 	0.4475767518356426 	101142.4876612446
0.9672172172172167 	299.8456031960185 	0.4473261962586879 	101142.5898801178
0.969719719719719 	299.845689702042 	0.4470757776994256 	101142.6920569023
0.9722222222222214 	299.8457760905427 	0.4468255022836778 	101142.7941631239
0.9747247247247239 	299.8458626763372 	0.4465753889960323 	101142.8962114781
0.9772272272272267 	299.8459490491517 	0.4463254164570769 	101142.9982030203
0.9797297297297292 	299.8460352244658 	0.4460755460621468 	101143.1001192862
0.9822322322322313 	299.846121598063 	0.4458258732112905 	101143.2019824927
0.9847347347347344 	299.8462079129251 	0.4455764576761349 	101143.303791055
0.9872372372372363 	299.8462939505373 	0.445327133217348 	101143.4055359563
0.9897397397397389 	299.8463801455266 	0.4450778506632988 	101143.5072289098
0.9922422422422417 	299.8464662836265 	0.444828812674146 	101143.6088557121
0.9947447447447441 	299.8465522360377 	0.4445800121389364 	101143.7104160128
0.9972472472472468 	299.8466382645128 	0.4443312880230478 	101143.8119206051
0.999749749749749 	299.8467241615054 	0.4440826869307385 	101143.9133620178
1.002252252252252 	299.846809925222 	0.4438342809286394 	101144.0147490522
1.004754754754754 	299.8468959110434 	0.4435860390723082 	101144.1160813989
1.007257257257256 	299.846981714952 	0.4433379460526174 	101144.2173479862
1.009759759759759 	299.8470672355716 	0.4430900469156892 	101144.3185536632
1.012262262262261 	299.8471530315218 	0.4428423109237689 	101144.4196962259
1.014764764764764 	299.8472387724655 	0.4425946512994953 	101144.5207801603
1.017267267267267 	299.8473241827304 	0.4423471661385141 	101144.6218124416
1.019769769769769 	299.8474097235935 	0.4420998812679937 	101144.7227841264
1.022272272272272 	299.8474953104126 	0.4418527429751499 	101144.8236933686
1.024774774774774 	299.8475805765877 	0.4416058258396668 	101144.9245391823
1.027277277277277 	299.8476659395826 	0.4413590512144336 	101145.0253229307
1.029779779779779 	299.8477513888716 	0.4411123346057182 	101145.1260528496
1.032282282282282 	299.8478366102948 	0.4408657636212847 	101145.2267269187
1.034784784784784 	299.8479217936601 	0.4406194657917573 	101145.3273436013
1.037287287287286 	299.8480070238946 	0.4403733969265931 	101145.42790024
1.039789789789789 	299.8480921279955 	0.4401273634292336 	101145.5283920221
1.042292292292291 	299.8481771313321 	0.4398814445141442 	101145.6288228617
1.044794794794794 	299.8482622261022 	0.4396358545303061 	101145.7291955718
1.047297297297296 	299.8483472309759 	0.4393904638754309 	101145.829512997
1.049799799799799 	299.848432032302 	0.4391450928868671 	101145.9297745639
1.052302302302302 	299.8485170102185 	0.4388998559551067 	101146.029975066
1.054804804804804 	299.8486019095307 	0.4386548326624888 	101146.1301153513
1.057307307307306 	299.8486864698228 	0.4384099989124958 	101146.2301957375
1.059809809809809 	299.8487712626174 	0.4381653170765489 	101146.3302162966
1.062312312312312 	299.8488560563848 	0.4379208220260187 	101146.4301779303
1.064814814814814 	299.8489405750427 	0.4376765599531813 	101146.5300811002
1.067317317317317 	299.8490251269971 	0.437432419372466 	101146.6299283144
1.069819819819819 	299.84910971997 	0.4371884013871377 	101146.7297187627
1.072322322322321 	299.8491941702031 	0.4369446115775512 	101146.8294511387
1.074824824824824 	299.849278530605 	0.4367009678388504 	101146.9291242072
1.077327327327327 	299.8493629800362 	0.4364574651571472 	101147.0287366374
1.079829829829829 	299.8494473582616 	0.4362142877393403 	101147.1282902278
1.082332332332332 	299.8495315115782 	0.435971380471411 	101147.2277863978
1.084834834834834 	299.8496158378647 	0.4357285358042558 	101147.3272261521
1.087337337337337 	299.8497001275323 	0.4354856967310339 	101147.426608419
1.089839839839839 	299.8497840922456 	0.4352430981642165 	101147.5259312649
1.092342342342342 	299.8498681825356 	0.4350009085993097 	101147.6251942577
1.094844844844844 	299.8499522846186 	0.4347588359293442 	101147.724397334
1.097347347347347 	299.8500362182959 	0.4345167756995282 	101147.8235421353
1.099849849849849 	299.8501200196553 	0.4342749646550138 	101147.9226306194
1.102352352352352 	299.8502040299057 	0.434033439662687 	101148.0216644907
1.104854854854854 	299.850287994142 	0.4337921200849384 	101148.120643253
1.107357357357357 	299.8503716298112 	0.4335509326636107 	101148.2195641189
1.109859859859859 	299.850455371517 	0.4333099097538675 	101148.3184246806
1.112362362362362 	299.8505391698938 	0.4330691507255135 	101148.4172244391
1.114864864864865 	299.8506227945552 	0.4328285216144181 	101148.515966248
1.117367367367367 	299.8507063140635 	0.4325880140714436 	101148.6146530752
1.119869869869869 	299.8507899143124 	0.4323478725234432 	101148.7132856311
1.122372372372372 	299.8508734578312 	0.4321080219818101 	101148.8118621492
1.124874874874874 	299.8509567996214 	0.4318682471650104 	101148.9103806928
1.127377377377377 	299.8510402767928 	0.4316285292477639 	101149.0088414149
1.129879879879879 	299.8511237302944 	0.4313889671790919 	101149.1072458821
1.132382382382382 	299.851206967919 	0.431149780417432 	101149.2055959591
1.134884884884884 	299.8512901462281 	0.4309109426323563 	101149.3038911604
1.137387387387387 	299.8513733709342 	0.4306721589388334 	101149.4021284935
1.139889889889889 	299.8514566049757 	0.4304335085392554 	101149.5003052469
1.142392392392392 	299.8515397603353 	0.4301951595831444 	101149.5984227539
1.144894894894894 	299.851622844307 	0.4299570686040225 	101149.6964859109
1.147397397397397 	299.8517058763061 	0.4297191925148637 	101149.7944984874
1.149899899899899 	299.8517888597444 	0.4294814063976341 	101149.8924600074
1.152402402402402 	299.8518717530592 	0.4292438864290222 	101149.9903670323
1.154904904904904 	299.8519547055587 	0.4290068258234935 	101150.0882171023
1.157407407407407 	299.8520376145395 	0.4287699767334457 	101150.1860098287
1.159909909909909 	299.8521203637372 	0.428533167334524 	101150.283745851
1.162412412412412 	299.8522031059383 	0.4282964965865725 	101150.3814259372
1.164914914914914 	299.8522858043381 	0.4280600959379974 	101150.4790512812
1.167417417417417 	299.8523684716429 	0.4278240454590527 	101150.5766238715
1.169919919919919 	299.8524510454293 	0.4275883852770605 	101150.674146319
1.172422422422422 	299.8525336377895 	0.4273529263179202 	101150.7716197813
1.174924924924925 	299.8526162878643 	0.4271175745848385 	101150.8690419936
1.177427427427427 	299.8526988508606 	0.4268825125394908 	101150.9664092579
1.179929929929929 	299.8527812581686 	0.4266476510926299 	101151.0637203126
1.182432432432432 	299.8528636184934 	0.4264130721588468 	101151.1609772973
1.184934934934934 	299.8529460115119 	0.4261789461156442 	101151.2581831071
1.187437437437437 	299.8530284560135 	0.4259449512828755 	101151.3553393225
1.189939939939939 	299.8531107094361 	0.4257110621889776 	101151.4524466055
1.192442442442442 	299.8531927463351 	0.4254775152946565 	101151.5495055454
1.194944944944944 	299.8532750105742 	0.425244236057839 	101151.6465157605
1.197447447447447 	299.8533573487956 	0.4250112517158616 	101151.7434755139
1.199949949949949 	299.8534396293828 	0.4247786877698343 	101151.8403831664
1.202452452452452 	299.8535216825259 	0.4245462488978887 	101151.9372385966
1.204954954954955 	299.8536035684068 	0.4243139697783693 	101152.0340437347
1.207457457457457 	299.8536855739736 	0.4240820863900787 	101152.130802764
1.20995995995996 	299.8537676789811 	0.4238505883129439 	101152.2275204931
1.212462462462462 	299.85384973536 	0.4236187484934055 	101152.3241983805
1.214964964964964 	299.8539318409875 	0.4233883875586851 	101152.4208341171
1.217467467467467 	299.8540138255763 	0.4231556868504557 	101152.5174207938
1.219969969969969 	299.8540955380396 	0.4229292062899246 	101152.6139573716
1.222472472472472 	299.8541773663139 	0.4226861490414726 	101152.7104348404
1.224974974974975 	299.8542592794946 	0.4224888245294375 	101152.8068918622
1.227477477477477 	299.8543411746474 	0.4221402210417905 	101152.9032466447
1.229979979979979 	299.854423400986 	0.4222359570034633 	101152.9999397069
1.232482482482482 	299.8545048734009 	0.4209626717231895 	101153.0955173562
1.234984984984984 	299.8545863503567 	0.4221514811498349 	101153.1921397256
1.237487487487487 	299.8546705695338 	0.4203505567645575 	101153.2883271513
1.239989989989989 	299.8547466937947 	0.4211726815326226 	101153.3826493781
1.242492492492492 	299.8548335984862 	0.4218233405803448 	101153.4821675001
1.244994994994994 	299.8523316142811 	0.4188562826038341 	101153.5757484667
1.247497497497497 	299.167127089009 	0.4206914607350946 	101153.6723047358
1.249999999999999 	301.4391527294305 	0.42015820770548 	101153.7693914912
