-1.25 	300 	0.1183565963063812 	101277.4471741852
-1.247497497497497 	299.9576471651858 	0.1190919974946208 	101275.3280948506
-1.244994994994995 	299.9574522665072 	0.1224753033878618 	101274.7048772362
-1.242492492492492 	299.957574101345 	0.1234240921819345 	101274.8529574929
-1.23998998998999 	299.9584071396719 	0.1200371816210771 	101275.8375332914
-1.237487487487487 	299.9601210401952 	0.115276331785971 	101277.8628835175
-1.234984984984985 	299.9626016481582 	0.1080832920666364 	101280.7944283626
-1.232482482482482 	299.9657732726629 	0.09889240477624783 	101284.5427107032
-1.22997997997998 	299.9696108193931 	0.08785846900964224 	101289.0781419403
-1.227477477477477 	299.9739673935406 	0.07523670203907029 	101294.2271945997
-1.224974974974975 	299.9787404950117 	0.06143057510653116 	101299.8687782832
-1.222472472472472 	299.9838821284786 	0.04656708471432373 	101305.9462056363
-1.21996996996997 	299.98932623563 	0.03084835808274884 	101312.3814502958
-1.217467467467467 	299.9949491613343 	0.0145681149754951 	101319.0283855183
-1.214964964964965 	300.0006385956967 	0.0083176304463274 	101325.7542674378
-1.212462462462462 	300.0063534253873 	0.01845879227629783 	101332.5104945512
-1.20995995995996 	300.0119880065249 	0.03470466540782817 	101339.1721915702
-1.207457457457457 	300.0173895658464 	0.05032543410779773 	101345.5586841179
-1.204954954954955 	300.0224916774505 	0.06509641501168012 	101351.5913951853
-1.202452452452452 	300.0272194935276 	0.0787535911093124 	101357.1817961168
-1.19994994994995 	300.0314349293396 	0.09087861872089056 	101362.1665331289
-1.197447447447447 	300.0350337468719 	0.1012661809450561 	101366.4222682278
-1.194944944944945 	300.0379730412944 	0.1097707470857695 	101369.8982026505
-1.192442442442442 	300.0402144654665 	0.1162653576255185 	101372.548938869
-1.18993993993994 	300.041730121301 	0.1206714431863972 	101374.3414172013
-1.187437437437437 	300.0425091423467 	0.1228924838634604 	101375.262754964
-1.184934934934935 	300.0425071271142 	0.1228577409741922 	101375.2603891378
-1.182432432432432 	300.0416759122417 	0.1204613666136211 	101374.2774653242
-1.17992992992993 	300.0400313005601 	0.1157095747101723 	101372.3326917816
-1.177427427427427 	300.0376402714802 	0.1087887333572649 	101369.5051994414
-1.174924924924925 	300.0345740500106 	0.09989205907258397 	101365.879303737
-1.172422422422422 	300.0308857714259 	0.0892089014236276 	101361.5179153614
-1.16991991991992 	300.0266282121727 	0.0769220912079463 	101356.4835001294
-1.167417417417417 	300.0218811006 	0.06322469538917255 	101350.8704104972
-1.164914914914915 	300.0167367918491 	0.0483477826730655 	101344.7878970409
-1.162412412412412 	300.011285758247 	0.03258998234454173 	101338.3429971893
-1.15990990990991 	300.0056571039013 	0.01633392084680318 	101331.6883925037
-1.157407407407407 	299.9999689126079 	0.008228171945566581 	101324.9636965173
-1.154904904904904 	299.994272135987 	0.01664451088594019 	101318.2291788701
-1.152402402402403 	299.9886353615065 	0.03294231792598098 	101311.5658887314
-1.1498998998999 	299.9831676083512 	0.04874910322011126 	101305.1026914831
-1.147397397397397 	299.9779888506337 	0.06368746417462595 	101298.9813745668
-1.144894894894895 	299.9732287127989 	0.07744577468134042 	101293.3550742015
-1.142392392392392 	299.9689872856057 	0.08973365089560773 	101288.3420609462
-1.13988988988989 	299.9653295575469 	0.1002835853121411 	101284.0190516401
-1.137387387387387 	299.9623147166279 	0.1089873422828689 	101280.4559489495
-1.134884884884885 	299.9599875555248 	0.1157149973630699 	101277.7056258194
-1.132382382382382 	299.9583812927063 	0.1203559506664216 	101275.8072264645
-1.12987987987988 	299.9575336347096 	0.1228122625672137 	101274.8054066587
-1.127377377377377 	299.9574791992585 	0.1229463571013214 	101274.7410505316
-1.124874874874875 	299.9582391306059 	0.1207292552331813 	101275.6390533811
-1.122372372372372 	299.9598071211901 	0.1161992211348974 	101277.4920102008
-1.11986986986987 	299.9621306351964 	0.1094871954945556 	101280.2378845775
-1.117367367367367 	299.965139160323 	0.1007896672197789 	101283.7933968076
-1.114864864864865 	299.9687717231079 	0.09028335670806602 	101288.0865413462
-1.112362362362362 	299.9729577637495 	0.07818543704261677 	101293.0339907677
-1.10985985985986 	299.9776029467386 	0.06476051168085502 	101298.524319781
-1.107357357357357 	299.9826084399721 	0.05027330699010375 	101304.4407590829
-1.104854854854855 	299.9879163321474 	0.03489757818286769 	101310.7149073383
-1.102352352352353 	299.9935022594195 	0.01873635661935288 	101317.3180139964
-1.09984984984985 	299.9992833798337 	0.008037783547068975 	101324.1521993728
-1.097347347347347 	300.0050601390036 	0.01459418406080622 	101330.9815771352
-1.094844844844845 	300.0106138930066 	0.03065741097925104 	101337.5476397375
-1.092342342342342 	300.0158796592622 	0.0459496140676125 	101343.7734980314
-1.08983983983984 	300.0209497574039 	0.06065732953990066 	101349.7682684557
-1.087337337337337 	300.025868117326 	0.07483820143295464 	101355.5838815323
-1.084834834834835 	300.0304569232283 	0.08799574429581369 	101361.010062361
-1.082332332332332 	300.0343720293449 	0.0992230312528769 	101365.6398081951
-1.07982982982983 	300.0373398829956 	0.1078098387037055 	101369.1495226345
-1.077327327327327 	300.039361691025 	0.1137573940564203 	101371.5405299051
-1.074824824824825 	300.0406939510121 	0.1177196349920552 	101373.1160939053
-1.072322322322323 	300.0416140168497 	0.1204046315801696 	101374.2042005741
-1.06981981981982 	300.0421770629162 	0.1219456501797866 	101374.8701022971
-1.067317317317317 	300.0421543058757 	0.1217262546961276 	101374.843188699
-1.064814814814815 	300.0411662821026 	0.1187262956147773 	101373.6748365413
-1.062312312312312 	300.0389010107924 	0.1121116463819959 	101370.9961521703
-1.05980980980981 	300.0352944962829 	0.1017292921646364 	101366.7313855513
-1.057307307307307 	300.0305969565478 	0.08828672431970182 	101361.1765381038
-1.054804804804805 	300.0253045242318 	0.0731601319844403 	101354.9184333421
-1.052302302302302 	300.019991191803 	0.05794156434029414 	101348.6358477611
-1.0497997997998 	300.0151304741294 	0.04396759924682266 	101342.8886527491
-1.047297297297297 	300.0110047072198 	0.03206097134037094 	101338.0106043852
-1.044794794794795 	300.0077127761568 	0.02252718588111804 	101334.1185346231
-1.042292292292292 	300.005221489991 	0.01528854677418934 	101331.1731313627
-1.03978978978979 	300.0034217243513 	0.01004313174004586 	101329.0453307355
-1.037287287287287 	300.0021745378272 	0.006397652284277574 	101327.5708389549
-1.034784784784785 	300.0013423662965 	0.003958513665627729 	101326.5870058731
-1.032282282282283 	300.0008060997802 	0.002382518335313161 	101325.9530076263
-1.02977977977978 	300.0004715034133 	0.001396685290816675 	101325.5574331847
-1.027277277277277 	300.0002689470666 	0.0007984133184629154 	101325.3179621537
-1.024774774774775 	300.0001497593085 	0.0004455371626770013 	101325.1770529653
-1.022272272272272 	300.0000814860379 	0.0002429322875452562 	101325.0963370588
-1.01976976976977 	300.000043362667 	0.0001295429143049407 	101325.051265721
-1.017267267267267 	300.0000225861225 	6.761135376600628e-05 	101325.0267026212
-1.014764764764765 	300.0000115234522 	3.456415524667839e-05 	101325.0136237264
-1.012262262262262 	300.0000057628406 	1.731932758999605e-05 	101325.0068131957
-1.00975975975976 	300.0000028266962 	8.511611205993168e-06 	101325.0033419117
-1.007257257257257 	300.000001360713 	4.105119432587252e-06 	101325.0016087378
-1.004754754754755 	300.0000006432011 	1.944078360076716e-06 	101325.0007604341
-1.002252252252252 	300.000000298697 	9.044839275907234e-07 	101325.0003531411
-0.9997497497497498 	300.0000001363408 	4.136170089953488e-07 	101325.0001611964
-0.9972472472472473 	300.0000000612001 	1.859973975054632e-07 	101325.0000723569
-0.9947447447447449 	300.0000000270106 	8.228347628450315e-08 	101325.0000319524
-0.9922422422422421 	300.0000000117346 	3.582623395495973e-08 	101325.0000138864
-0.9897397397397399 	300.0000000050181 	1.535774354974081e-08 	101325.0000059411
-0.9872372372372376 	300.0000000021126 	6.485196788190798e-09 	101325.0000025029
-0.9847347347347346 	300.0000000008631 	2.698143022477084e-09 	101325.0000010381
-0.9822322322322323 	300.0000000003417 	1.10718945728663e-09 	101325.0000004233
-0.9797297297297296 	300.0000000001369 	4.48217849085249e-10 	101325.0000001691
-0.9772272272272275 	300.000000000055 	1.790676192260532e-10 	101325.0000000655
-0.9747247247247248 	300.0000000000225 	7.091244087754865e-11 	101325.0000000241
-0.9722222222222224 	299.9999999999881 	2.773280304284653e-11 	101325.0000000076
-0.9697197197197196 	299.999999999978 	1.083637869652888e-11 	101325.0000000011
-0.9672172172172175 	299.999999999979 	3.824120564962602e-12 	101324.9999999987
-0.9647147147147147 	299.9999999999869 	1.569706926034267e-12 	101324.9999999977
-0.9622122122122124 	299.9999999999898 	8.159936411037734e-13 	101324.9999999974
-0.9597097097097099 	299.9999999999915 	7.22050808222121e-13 	101324.9999999973
-0.9572072072072073 	299.9999999999887 	6.170035815022879e-13 	101324.9999999971
-0.9547047047047047 	300.0000000000003 	2.737945946471485e-13 	101324.9999999973
-0.9522022022022023 	299.9999999999937 	1.021058902293116e-12 	101324.9999999975
-0.9496996996996998 	299.9999999999922 	9.522701668526151e-13 	101324.9999999974
-0.9471971971971973 	299.9999999999964 	1.754645857187273e-12 	101324.9999999973
-0.9446946946946947 	299.9999999999763 	1.661662910875431e-12 	101324.9999999972
-0.9421921921921923 	299.9999999999877 	1.549933907771032e-12 	101324.999999997
-0.93968968968969 	299.9999999999995 	1.041383120345683e-12 	101324.999999997
-0.9371871871871872 	299.9999999999972 	1.412625472384256e-12 	101324.9999999969
-0.9346846846846848 	299.9999999999837 	2.159460218481949e-12 	101324.999999997
-0.9321821821821823 	299.9999999999891 	1.979095685856513e-12 	101324.9999999969
-0.9296796796796799 	300.0000000000004 	2.251205839798984e-12 	101324.9999999968
-0.9271771771771771 	299.9999999999952 	1.296219239009651e-12 	101324.9999999967
-0.9246746746746748 	299.9999999999915 	2.213773285745846e-12 	101324.9999999969
-0.9221721721721724 	299.9999999999993 	1.351411017585981e-12 	101324.9999999971
-0.9196696696696698 	299.9999999999948 	1.713116984595186e-12 	101324.9999999975
-0.9171671671671672 	299.9999999999812 	1.219291793657081e-12 	101324.9999999976
-0.9146646646646649 	299.9999999999933 	1.259858912068879e-12 	101324.9999999975
-0.9121621621621623 	300.0000000000028 	1.755921492735626e-12 	101324.9999999975
-0.9096596596596597 	299.9999999999883 	1.649805355352307e-12 	101324.9999999973
-0.9071571571571573 	299.9999999999949 	1.614227111926153e-12 	101324.9999999973
-0.9046546546546547 	300.0000000000031 	1.430348065482386e-12 	101324.9999999972
-0.9021521521521524 	299.9999999999899 	2.070884281256507e-12 	101324.9999999973
-0.8996496496496498 	299.9999999999957 	1.205191558001551e-12 	101324.9999999975
-0.8971471471471473 	300.0000000000013 	1.13566554165896e-12 	101324.9999999975
-0.894644644644645 	300.0000000000019 	1.356534115835999e-12 	101324.9999999975
-0.892142142142142 	300.0000000000027 	9.327835184348876e-13 	101324.9999999975
-0.8896396396396397 	300.0000000000044 	2.163355810664046e-12 	101324.9999999974
-0.8871371371371374 	299.9999999999868 	1.197130088096417e-12 	101324.9999999973
-0.8846346346346349 	299.9999999999807 	2.379252194815189e-12 	101324.9999999974
-0.8821321321321324 	299.9999999999804 	2.118612725354178e-12 	101324.9999999974
-0.8796296296296297 	299.9999999999849 	3.131002638084355e-12 	101324.9999999975
-0.8771271271271271 	299.9999999999862 	2.081170212360794e-12 	101324.9999999974
-0.8746246246246248 	299.9999999999959 	2.344949350450229e-12 	101324.9999999972
-0.8721221221221224 	300.0000000000011 	1.806130122706476e-12 	101324.9999999972
-0.8696196196196196 	299.9999999999902 	1.46423553112876e-12 	101324.9999999971
-0.8671171171171175 	299.9999999999952 	1.205316420036095e-12 	101324.9999999972
-0.8646146146146148 	299.9999999999809 	9.134153300481814e-13 	101324.9999999971
-0.8621121121121121 	299.9999999999915 	5.556931069261784e-13 	101324.999999997
-0.8596096096096097 	300.0000000000053 	3.837653565910953e-13 	101324.9999999969
-0.857107107107107 	299.9999999999877 	7.499084187190306e-13 	101324.999999997
-0.8546046046046049 	299.9999999999942 	9.381779090203639e-13 	101324.999999997
-0.8521021021021022 	299.9999999999995 	7.60545779143722e-13 	101324.9999999969
-0.8495995995995997 	299.9999999999956 	9.078402806155439e-13 	101324.9999999969
-0.8470970970970974 	299.9999999999768 	6.073342155408708e-13 	101324.9999999969
-0.8445945945945946 	299.9999999999849 	9.108907238768091e-13 	101324.9999999969
-0.8420920920920922 	300.0000000000018 	1.362276928780621e-12 	101324.9999999967
-0.8395895895895897 	299.9999999999975 	1.491576669178264e-12 	101324.9999999968
-0.8370870870870872 	299.999999999999 	1.59349146940156e-12 	101324.999999997
-0.8345845845845846 	300.0000000000022 	1.563570947846439e-12 	101324.9999999972
-0.8320820820820823 	299.9999999999843 	9.135262272618106e-13 	101324.9999999974
-0.8295795795795798 	299.9999999999706 	5.749922560190506e-13 	101324.9999999976
-0.8270770770770772 	299.999999999984 	8.899637237080574e-13 	101324.9999999977
-0.8245745745745746 	299.9999999999758 	9.564321176412476e-13 	101324.9999999977
-0.8220720720720721 	299.9999999999823 	7.857555276716274e-13 	101324.9999999977
-0.8195695695695699 	299.999999999996 	8.952043255393632e-13 	101324.9999999976
-0.817067067067067 	299.9999999999845 	1.282175013974347e-12 	101324.9999999975
-0.8145645645645651 	299.9999999999744 	1.883143946857133e-12 	101324.9999999974
-0.8120620620620621 	299.9999999999928 	1.06184168060052e-12 	101324.9999999974
-0.8095595595595597 	300.0000000000016 	1.395425589974454e-12 	101324.9999999976
-0.8070570570570572 	299.9999999999809 	1.60883127223666e-12 	101324.9999999975
-0.8045545545545546 	299.9999999999788 	1.158416925447903e-12 	101324.9999999976
-0.8020520520520523 	299.9999999999945 	2.360425798857578e-12 	101324.9999999975
-0.7995495495495494 	300.0000000000067 	1.668452892969239e-12 	101324.9999999975
-0.7970470470470474 	299.9999999999999 	3.054205425895764e-12 	101324.9999999976
-0.7945445445445446 	300.0000000000009 	2.122483715884893e-12 	101324.9999999974
-0.7920420420420423 	300.0000000000037 	2.8865522256611e-12 	101324.9999999974
-0.7895395395395397 	300.0000000000035 	2.939449043352677e-12 	101324.9999999974
-0.7870370370370371 	299.9999999999985 	1.953461600843029e-12 	101324.9999999974
-0.7845345345345348 	299.9999999999879 	2.425898486320394e-12 	101324.9999999972
-0.7820320320320323 	299.9999999999886 	1.795009964320848e-12 	101324.9999999971
-0.7795295295295296 	299.999999999974 	2.556080877744873e-12 	101324.9999999971
-0.7770270270270272 	299.9999999999673 	2.590557972248783e-12 	101324.9999999972
-0.7745245245245247 	299.9999999999662 	1.970287602612221e-12 	101324.999999997
-0.7720220220220222 	299.9999999999812 	2.290820863302778e-12 	101324.999999997
-0.7695195195195199 	299.999999999985 	1.557699642987747e-12 	101324.999999997
-0.767017017017017 	299.9999999999935 	1.95445856867105e-12 	101324.9999999969
-0.7645145145145147 	300.0000000000041 	2.160055066157344e-12 	101324.999999997
-0.7620120120120122 	300.000000000007 	2.949405429419173e-12 	101324.9999999972
-0.7595095095095097 	299.9999999999746 	3.001069202094223e-12 	101324.9999999974
-0.7570070070070072 	299.9999999999761 	4.330455175363869e-12 	101324.9999999976
-0.7545045045045048 	299.9999999999943 	3.587972356220131e-12 	101324.9999999979
-0.7520020020020022 	299.9999999999862 	4.488061188857418e-12 	101324.9999999979
-0.7494994994994997 	299.9999999999844 	2.013365404228047e-12 	101324.9999999978
-0.7469969969969972 	299.9999999999972 	2.846369028270609e-12 	101324.9999999977
-0.7444944944944945 	299.9999999999944 	1.665665476045255e-12 	101324.9999999975
-0.7419919919919924 	299.9999999999949 	2.076441031210786e-12 	101324.9999999974
-0.7394894894894897 	299.9999999999848 	1.924499126625893e-12 	101324.9999999975
-0.7369869869869872 	299.9999999999968 	1.241526261207656e-12 	101324.9999999974
-0.7344844844844846 	299.9999999999895 	1.742950531813658e-12 	101324.9999999974
-0.7319819819819822 	300.0000000000015 	1.014833428032997e-12 	101324.9999999973
-0.7294794794794797 	299.9999999999988 	1.826138150057088e-12 	101324.9999999973
-0.7269769769769773 	300.0000000000039 	7.052194019634947e-13 	101324.9999999972
-0.7244744744744747 	300.0000000000048 	1.166469793287781e-12 	101324.9999999974
-0.721971971971972 	299.9999999999828 	1.306372427531889e-12 	101324.9999999975
-0.7194694694694695 	299.9999999999943 	1.282441034545562e-12 	101324.9999999975
-0.7169669669669674 	299.9999999999768 	1.214083790879301e-12 	101324.9999999974
-0.7144644644644647 	299.9999999999903 	1.105571103535583e-12 	101324.9999999973
-0.711961961961962 	300.0000000000031 	7.755558955865122e-13 	101324.9999999974
-0.7094594594594597 	300.0000000000027 	5.170516217846016e-13 	101324.9999999975
-0.7069569569569573 	300.0000000000067 	6.445301195550587e-13 	101324.9999999974
-0.7044544544544545 	300.0000000000094 	9.245277479611293e-13 	101324.9999999972
-0.7019519519519523 	300.0000000000014 	7.191302772052958e-13 	101324.9999999973
-0.6994494494494495 	299.999999999975 	4.212891330639189e-13 	101324.9999999976
-0.6969469469469471 	299.9999999999802 	3.683870705431229e-13 	101324.9999999976
-0.6944444444444446 	299.9999999999867 	7.607798016118831e-13 	101324.9999999976
-0.6919419419419421 	300.0000000000089 	9.598262510503148e-13 	101324.9999999975
-0.6894394394394396 	299.9999999999971 	7.85595637112964e-13 	101324.9999999973
-0.6869369369369374 	300.0000000000035 	9.30896767931016e-13 	101324.9999999972
-0.6844344344344344 	300.0000000000076 	4.262919871549283e-13 	101324.9999999971
-0.6819319319319321 	299.9999999999856 	1.874916803981168e-13 	101324.9999999971
-0.6794294294294296 	299.999999999979 	2.363489344299233e-13 	101324.9999999972
-0.6769269269269272 	299.9999999999692 	7.80214242024077e-14 	101324.9999999971
-0.6744244244244245 	299.9999999999873 	3.269392905967412e-13 	101324.9999999971
-0.6719219219219222 	299.9999999999858 	1.489727606182179e-13 	101324.9999999972
-0.6694194194194195 	300 	8.032477247332483e-13 	101324.999999997
-0.6669169169169172 	300.000000000006 	6.487047328041951e-13 	101324.9999999968
-0.6644144144144146 	299.9999999999849 	8.885165572941335e-13 	101324.9999999968
-0.661911911911912 	299.9999999999872 	7.933272410255346e-13 	101324.9999999968
-0.6594094094094097 	299.9999999999907 	1.305782565257202e-12 	101324.9999999968
-0.656906906906907 	299.9999999999769 	9.289336805171661e-13 	101324.9999999969
-0.6544044044044046 	299.9999999999783 	1.582487809042813e-12 	101324.999999997
-0.6519019019019021 	299.9999999999941 	7.384986695277969e-13 	101324.999999997
-0.6493993993993996 	300.0000000000071 	1.705985169806473e-12 	101324.9999999968
-0.6468968968968971 	300.0000000000102 	1.439087703347135e-12 	101324.9999999968
-0.6443943943943946 	299.9999999999976 	1.856093530323446e-12 	101324.9999999969
-0.6418918918918921 	299.9999999999978 	9.548832057447872e-13 	101324.9999999969
-0.6393893893893897 	299.9999999999982 	8.44978687689297e-13 	101324.9999999969
-0.6368868868868871 	299.9999999999897 	6.223311935081197e-13 	101324.9999999969
-0.6343843843843846 	299.9999999999989 	9.027049507948694e-13 	101324.999999997
-0.6318818818818821 	299.9999999999847 	1.193451280708108e-12 	101324.9999999969
-0.6293793793793795 	300 	9.785543316372045e-13 	101324.9999999968
-0.6268768768768773 	300.0000000000053 	7.481558338218887e-13 	101324.9999999967
-0.6243743743743745 	299.9999999999923 	3.72084780871877e-13 	101324.9999999968
-0.6218718718718721 	300.0000000000007 	1.363300119393458e-12 	101324.999999997
-0.6193693693693696 	299.9999999999773 	1.043582493916471e-12 	101324.9999999971
-0.6168668668668671 	299.9999999999928 	2.190352974348207e-12 	101324.9999999973
-0.6143643643643645 	300.0000000000044 	1.712458919302222e-12 	101324.9999999974
-0.6118618618618621 	299.9999999999948 	1.327975829530856e-12 	101324.9999999973
-0.6093593593593596 	299.9999999999935 	3.315626261952695e-13 	101324.9999999973
-0.6068568568568571 	299.9999999999935 	2.612111383446063e-13 	101324.9999999975
-0.6043543543543546 	299.9999999999862 	9.851643596933264e-13 	101324.9999999975
-0.6018518518518521 	299.9999999999885 	1.153580828087003e-12 	101324.9999999973
-0.5993493493493496 	299.9999999999777 	1.322798375084416e-12 	101324.9999999973
-0.5968468468468471 	299.999999999983 	8.623053804778865e-13 	101324.9999999974
-0.5943443443443446 	299.9999999999962 	1.028712710944468e-12 	101324.9999999973
-0.591841841841842 	299.9999999999843 	9.681606068856991e-13 	101324.9999999974
-0.5893393393393397 	299.999999999984 	8.419383413004173e-13 	101324.9999999976
-0.5868368368368371 	299.9999999999966 	1.178444288331124e-12 	101324.9999999977
-0.5843343343343346 	300.0000000000001 	2.069060065181153e-12 	101324.9999999977
-0.5818318318318321 	300.0000000000101 	9.910636668485712e-13 	101324.9999999976
-0.5793293293293297 	299.9999999999939 	1.766984114747175e-12 	101324.9999999974
-0.5768268268268271 	300.0000000000002 	1.028745593459459e-12 	101324.9999999975
-0.5743243243243245 	300.0000000000074 	1.168509192374256e-12 	101324.9999999974
-0.5718218218218221 	300.0000000000074 	8.515714688727589e-13 	101324.9999999972
-0.5693193193193196 	300.0000000000149 	7.515587355558369e-13 	101324.9999999971
-0.5668168168168171 	299.9999999999955 	1.264000110387051e-12 	101324.9999999971
-0.5643143143143147 	299.9999999999805 	7.416722523724402e-13 	101324.9999999971
-0.5618118118118121 	300.0000000000048 	1.131640794042574e-12 	101324.9999999972
-0.5593093093093094 	300.0000000000122 	5.551195524758462e-13 	101324.9999999973
-0.5568068068068072 	300.0000000000061 	8.54225911912555e-13 	101324.9999999974
-0.5543043043043046 	300.000000000008 	6.207370728156393e-13 	101324.9999999976
-0.551801801801802 	299.999999999985 	4.164934525140856e-13 	101324.9999999978
-0.5492992992992995 	299.9999999999993 	7.242242672613748e-13 	101324.9999999978
-0.5467967967967969 	300.0000000000057 	8.918614134697166e-13 	101324.9999999978
-0.5442942942942947 	300.0000000000026 	1.06001236582495e-12 	101324.9999999977
-0.5417917917917919 	299.9999999999853 	7.334307500466769e-13 	101324.9999999975
-0.5392892892892895 	299.9999999999779 	6.094598629219676e-13 	101324.9999999976
-0.536786786786787 	299.9999999999855 	5.011288016456139e-13 	101324.999999998
-0.5342842842842846 	299.9999999999875 	8.187480553421453e-13 	101324.9999999983
-0.531781781781782 	299.9999999999783 	5.343908742115534e-13 	101324.9999999984
-0.5292792792792794 	299.9999999999758 	1.46146292811946e-12 	101324.9999999982
-0.526776776776777 	299.9999999999703 	1.360189635924205e-12 	101324.9999999979
-0.5242742742742745 	299.9999999999916 	1.874188260079205e-12 	101324.9999999977
-0.521771771771772 	300.0000000000043 	2.733971356191927e-12 	101324.9999999976
-0.5192692692692695 	299.9999999999857 	3.013536853197218e-12 	101324.9999999977
-0.516766766766767 	299.9999999999991 	2.156553597589292e-12 	101324.9999999975
-0.5142642642642645 	299.9999999999877 	2.553731531031684e-12 	101324.9999999977
-0.511761761761762 	299.9999999999829 	1.379318211067761e-12 	101324.9999999977
-0.5092592592592596 	299.9999999999909 	1.949159886888328e-12 	101324.9999999977
-0.506756756756757 	299.9999999999825 	7.775246726348969e-13 	101324.9999999979
-0.5042542542542544 	299.9999999999984 	1.252067483722546e-12 	101324.999999998
-0.5017517517517521 	300.0000000000107 	6.303937536483541e-13 	101324.999999998
-0.4992492492492494 	300.0000000000114 	5.148525719075278e-13 	101324.999999998
-0.496746746746747 	299.9999999999976 	5.427213204701225e-13 	101324.999999998
-0.4942442442442445 	299.9999999999791 	1.340009037337206e-13 	101324.9999999977
-0.4917417417417421 	299.99999999998 	2.948997549813737e-13 	101324.9999999978
-0.4892392392392395 	299.9999999999858 	1.894638276309995e-13 	101324.999999998
-0.486736736736737 	299.9999999999848 	5.53094316257589e-13 	101324.9999999982
-0.4842342342342345 	299.9999999999728 	6.769694679822452e-13 	101324.9999999982
-0.481731731731732 	300.000000000013 	7.776743865022614e-13 	101324.9999999982
-0.4792292292292296 	300.0000000000088 	1.161340769727392e-12 	101324.9999999981
-0.4767267267267268 	299.9999999999878 	1.148195213984163e-12 	101324.9999999983
-0.4742242242242246 	300.0000000000007 	2.327038209779972e-12 	101324.9999999983
-0.471721721721722 	299.9999999999867 	5.945392283537943e-13 	101324.9999999982
-0.4692192192192195 	299.9999999999949 	2.528832008940891e-12 	101324.9999999982
-0.4667167167167169 	299.99999999997 	1.841545621543683e-12 	101324.9999999983
-0.4642142142142145 	299.9999999999985 	2.313402398703173e-12 	101324.9999999982
-0.461711711711712 	300.0000000000075 	1.033436812706258e-12 	101324.9999999981
-0.4592092092092094 	300.0000000000037 	1.412138309882391e-12 	101324.9999999982
-0.456706706706707 	300.000000000018 	3.143837725570286e-13 	101324.9999999981
-0.4542042042042045 	299.9999999999815 	4.288253178791814e-14 	101324.9999999982
-0.451701701701702 	299.9999999999847 	7.282334952630332e-14 	101324.999999998
-0.4491991991991995 	299.9999999999874 	4.886869747591677e-13 	101324.9999999978
-0.4466966966966969 	299.9999999999861 	7.345753514718038e-13 	101324.9999999979
-0.4441941941941945 	299.9999999999978 	1.394473744277228e-12 	101324.9999999981
-0.441691691691692 	299.9999999999879 	4.82493368992305e-13 	101324.9999999983
-0.4391891891891895 	299.9999999999962 	1.925219214030221e-12 	101324.9999999982
-0.436686686686687 	299.9999999999908 	9.133959659937595e-13 	101324.9999999983
-0.4341841841841846 	299.9999999999998 	2.554472249232342e-12 	101324.9999999981
-0.431681681681682 	299.999999999984 	6.409092619420922e-13 	101324.9999999979
-0.4291791791791794 	299.9999999999748 	2.329020524023576e-12 	101324.9999999978
-0.426676676676677 	299.9999999999726 	1.793682807096035e-12 	101324.9999999977
-0.4241741741741744 	299.9999999999886 	2.267121189672808e-12 	101324.9999999978
-0.421671671671672 	300.0000000000026 	9.619403508194236e-13 	101324.999999998
-0.4191691691691694 	300.0000000000171 	8.793069715891243e-13 	101324.9999999982
-0.4166666666666669 	300.0000000000201 	5.026046168059906e-13 	101324.9999999981
-0.4141641641641645 	299.9999999999799 	6.571408625953764e-13 	101324.9999999982
-0.411661661661662 	300.000000000002 	1.215474530206219e-12 	101324.9999999981
-0.4091591591591594 	300.0000000000026 	3.106849409228579e-13 	101324.999999998
-0.406656656656657 	299.9999999999821 	6.519301920558673e-13 	101324.9999999977
-0.4041541541541545 	300.0000000000072 	1.028120706837283e-12 	101324.9999999976
-0.401651651651652 	299.9999999999753 	2.275058329364516e-13 	101324.9999999978
-0.3991491491491494 	299.9999999999999 	1.829693175965806e-12 	101324.9999999976
-0.396646646646647 	299.9999999999861 	9.724289336980938e-13 	101324.9999999978
-0.3941441441441444 	299.9999999999935 	2.669965321066823e-12 	101324.9999999979
-0.3916416416416419 	299.9999999999791 	7.237812861294298e-13 	101324.9999999981
-0.3891391391391395 	299.9999999999873 	2.472147525381983e-12 	101324.999999998
-0.3866366366366368 	299.9999999999869 	1.019472393032001e-12 	101324.999999998
-0.3841341341341344 	300 	1.12163718428682e-12 	101324.999999998
-0.381631631631632 	299.9999999999846 	8.152720361570727e-13 	101324.9999999978
-0.3791291291291294 	300.0000000000022 	1.052952486050999e-12 	101324.9999999977
-0.3766266266266269 	300.0000000000074 	1.313630428811733e-12 	101324.9999999978
-0.3741241241241244 	300.0000000000081 	3.036897737643547e-13 	101324.9999999978
-0.371621621621622 	300.0000000000078 	1.639546202316497e-12 	101324.9999999975
-0.3691191191191194 	300.0000000000056 	7.91733196828403e-13 	101324.9999999975
-0.366616616616617 	300.0000000000058 	2.46990283882898e-12 	101324.9999999976
-0.3641141141141143 	299.9999999999919 	8.431869506966751e-13 	101324.9999999974
-0.3616116116116119 	299.9999999999799 	2.038350928661003e-12 	101324.9999999977
-0.3591091091091095 	299.9999999999921 	8.733503724885708e-13 	101324.9999999978
-0.356606606606607 	299.9999999999943 	1.15464549921447e-12 	101324.9999999979
-0.3541041041041044 	299.9999999999984 	1.236250687146219e-12 	101324.9999999976
-0.3516016016016019 	300.0000000000073 	6.770932826376165e-13 	101324.9999999976
-0.3490990990990994 	299.9999999999986 	1.734971420755191e-12 	101324.9999999977
-0.346596596596597 	300.0000000000097 	3.710426173494593e-13 	101324.9999999974
-0.3440940940940944 	300.0000000000117 	1.738642109932066e-12 	101324.9999999975
-0.3415915915915919 	300.0000000000097 	4.289209347878289e-13 	101324.9999999976
-0.3390890890890895 	299.999999999994 	6.717201235933962e-13 	101324.9999999976
-0.3365865865865869 	300.0000000000048 	4.596486304812488e-13 	101324.9999999975
-0.3340840840840844 	299.9999999999955 	1.095084071043019e-13 	101324.9999999975
-0.3315815815815819 	300.0000000000076 	6.513056552162115e-13 	101324.9999999976
-0.3290790790790794 	300.0000000000113 	1.405335901486626e-12 	101324.9999999978
-0.3265765765765769 	299.99999999998 	1.494193707640098e-12 	101324.9999999978
-0.3240740740740744 	300.0000000000019 	1.093908182243742e-12 	101324.9999999978
-0.3215715715715718 	300.0000000000061 	1.099592559566805e-12 	101324.9999999978
-0.3190690690690695 	299.9999999999814 	3.645378388892007e-13 	101324.9999999977
-0.3165665665665668 	299.9999999999959 	5.985261963906874e-13 	101324.9999999978
-0.3140640640640644 	299.9999999999976 	1.526524769097612e-13 	101324.9999999978
-0.311561561561562 	299.999999999977 	1.436404485131371e-12 	101324.9999999977
-0.3090590590590593 	300 	1.03826710008901e-12 	101324.9999999977
-0.3065565565565568 	300.0000000000028 	2.320412861639298e-12 	101324.9999999978
-0.3040540540540545 	299.9999999999982 	1.288038816317291e-12 	101324.9999999978
-0.3015515515515518 	300.0000000000084 	2.076152459400448e-12 	101324.9999999978
-0.2990490490490494 	299.9999999999797 	5.376132182597513e-13 	101324.9999999978
-0.2965465465465469 	300.0000000000002 	1.617279316980453e-12 	101324.9999999977
-0.2940440440440444 	299.9999999999965 	1.644460377567508e-12 	101324.9999999976
-0.2915415415415418 	300.0000000000055 	2.085989744224355e-12 	101324.9999999976
-0.2890390390390395 	300.0000000000064 	2.512521113429773e-12 	101324.9999999977
-0.2865365365365368 	299.9999999999906 	1.265523841804546e-12 	101324.9999999977
-0.2840340340340343 	299.9999999999987 	2.306245909975031e-12 	101324.9999999975
-0.2815315315315318 	299.999999999974 	7.424667684108512e-13 	101324.9999999976
-0.2790290290290295 	299.9999999999892 	1.851665002810852e-12 	101324.9999999973
-0.2765265265265269 	300.000000000003 	1.113437195557168e-12 	101324.9999999973
-0.2740240240240244 	300.0000000000083 	1.473100944016668e-12 	101324.9999999973
-0.2715215215215219 	300.0000000000074 	2.035019182458301e-12 	101324.9999999972
-0.2690190190190194 	299.9999999999795 	1.97186554091362e-12 	101324.9999999973
-0.2665165165165169 	299.9999999999981 	2.29498890437978e-12 	101324.9999999975
-0.2640140140140144 	299.9999999999987 	1.346368117359411e-12 	101324.9999999977
-0.2615115115115119 	299.9999999999994 	2.569219882537051e-12 	101324.9999999975
-0.2590090090090094 	299.999999999974 	1.636642003056109e-12 	101324.9999999977
-0.2565065065065068 	299.9999999999955 	2.563692841715362e-12 	101324.9999999977
-0.2540040040040044 	299.9999999999935 	2.593780183419128e-12 	101324.9999999976
-0.2515015015015019 	300.0000000000086 	2.616540544715665e-12 	101324.9999999976
-0.2489989989989994 	300.0000000000115 	3.464329819715366e-12 	101324.9999999977
-0.2464964964964968 	299.9999999999911 	2.595481885554143e-12 	101324.9999999975
-0.2439939939939944 	299.9999999999932 	4.007660584295773e-12 	101324.9999999977
-0.2414914914914919 	299.9999999999845 	1.392143836185194e-12 	101324.9999999978
-0.2389889889889893 	299.9999999999963 	3.171561518329046e-12 	101324.9999999974
-0.2364864864864869 	300.0000000000067 	2.237216990573757e-12 	101324.9999999972
-0.2339839839839843 	299.9999999999852 	4.621243602595249e-12 	101324.9999999969
-0.2314814814814819 	299.99999999999 	2.726164650069118e-12 	101324.999999997
-0.2289789789789792 	299.999999999971 	4.142792859278823e-12 	101324.9999999971
-0.2264764764764769 	299.999999999978 	2.83920609308565e-12 	101324.9999999973
-0.2239739739739743 	299.9999999999916 	3.471992714418477e-12 	101324.9999999973
-0.2214714714714718 	299.9999999999804 	2.970645532378182e-12 	101324.9999999973
-0.2189689689689693 	299.9999999999874 	2.432934412269407e-12 	101324.9999999974
-0.2164664664664669 	299.9999999999916 	3.983353154696488e-12 	101324.9999999972
-0.2139639639639643 	299.9999999999763 	2.726879921761639e-12 	101324.9999999972
-0.2114614614614618 	299.9999999999896 	3.067058275576028e-12 	101324.9999999971
-0.2089589589589593 	300.0000000000023 	2.721733138011644e-12 	101324.9999999969
-0.2064564564564568 	300.0000000000023 	2.699639985426414e-12 	101324.9999999969
-0.2039539539539543 	299.9999999999738 	3.131121755500782e-12 	101324.9999999967
-0.2014514514514518 	299.9999999999719 	1.919857114822121e-12 	101324.9999999968
-0.1989489489489494 	299.9999999999904 	3.758260467912107e-12 	101324.9999999966
-0.1964464464464468 	300.0000000000032 	1.917311982276405e-12 	101324.9999999966
-0.1939439439439443 	300.0000000000012 	3.919033195360711e-12 	101324.9999999965
-0.1914414414414418 	299.9999999999802 	2.655841649406228e-12 	101324.9999999965
-0.1889389389389393 	299.9999999999968 	2.722091479823285e-12 	101324.9999999967
-0.1864364364364368 	300.0000000000045 	2.678668651231234e-12 	101324.9999999968
-0.1839339339339343 	299.9999999999916 	2.794428366356044e-12 	101324.9999999969
-0.1814314314314318 	299.9999999999951 	2.985441174756391e-12 	101324.9999999968
-0.1789289289289293 	299.9999999999676 	2.819430319355778e-12 	101324.999999997
-0.1764264264264268 	299.9999999999889 	2.914145820087807e-12 	101324.999999997
-0.1739239239239243 	299.9999999999663 	3.45039432244444e-12 	101324.9999999969
-0.1714214214214218 	299.9999999999966 	2.896792877876781e-12 	101324.9999999968
-0.1689189189189193 	299.9999999999807 	3.176892907686006e-12 	101324.9999999967
-0.1664164164164168 	299.9999999999969 	1.393518730940921e-12 	101324.9999999966
-0.1639139139139143 	299.9999999999946 	3.228326473314755e-12 	101324.9999999967
-0.1614114114114118 	300.0000000000041 	6.513560766603458e-13 	101324.9999999967
-0.1589089089089093 	300.0000000000006 	4.935712419869223e-12 	101324.999999997
-0.1564064064064068 	299.9999999999888 	6.412280243826838e-13 	101324.9999999972
-0.1539039039039043 	300.0000000000006 	5.424694154119152e-12 	101324.999999997
-0.1514014014014018 	300.0000000000077 	1.024478863286698e-12 	101324.9999999971
-0.1488988988988993 	300.0000000000022 	5.397934261502942e-12 	101324.9999999971
-0.1463963963963968 	300.0000000000016 	1.530416706965211e-12 	101324.999999997
-0.1438938938938943 	299.9999999999885 	4.311133885621043e-12 	101324.999999997
-0.1413913913913918 	299.9999999999728 	2.172379489320125e-12 	101324.999999997
-0.1388888888888893 	299.9999999999896 	3.524507200311693e-12 	101324.9999999971
-0.1363863863863868 	299.9999999999631 	2.470311724702608e-12 	101324.9999999972
-0.1338838838838843 	299.9999999999824 	2.190294363579419e-12 	101324.999999997
-0.1313813813813818 	299.9999999999977 	1.656770165928086e-12 	101324.999999997
-0.1288788788788793 	299.9999999999856 	2.130686343277651e-12 	101324.999999997
-0.1263763763763768 	299.999999999994 	1.507119546301856e-12 	101324.9999999965
-0.1238738738738743 	299.9999999999835 	1.738675823692411e-12 	101324.9999999965
-0.1213713713713717 	299.9999999999995 	9.081828764354528e-13 	101324.9999999964
-0.1188688688688693 	300.0000000000064 	3.012929320173478e-12 	101324.9999999965
-0.1163663663663668 	299.9999999999649 	1.343940342507076e-12 	101324.9999999966
-0.1138638638638643 	299.9999999999947 	2.711299201510978e-12 	101324.9999999965
-0.1113613613613618 	299.9999999999957 	5.295536900553165e-13 	101324.9999999962
-0.1088588588588592 	299.9999999999936 	2.833454494396025e-12 	101324.9999999963
-0.1063563563563568 	299.9999999999911 	6.845327724951702e-13 	101324.9999999964
-0.1038538538538543 	299.9999999999982 	2.96281689565067e-12 	101324.9999999963
-0.1013513513513517 	300.0000000000009 	2.125415169774756e-12 	101324.999999996
-0.09884884884884926 	299.9999999999879 	3.330197542089983e-12 	101324.9999999957
-0.09634634634634676 	299.9999999999714 	2.722391293386956e-12 	101324.9999999957
-0.09384384384384425 	299.9999999999704 	2.542354495927754e-12 	101324.9999999959
-0.09134134134134177 	300.0000000000045 	1.57051444027382e-12 	101324.9999999962
-0.08883883883883925 	300.0000000000015 	2.376648224372482e-12 	101324.999999996
-0.08633633633633674 	299.9999999999843 	2.728756118454895e-12 	101324.9999999961
-0.08383383383383426 	300.0000000000001 	2.528307307448739e-12 	101324.9999999961
-0.08133133133133173 	299.9999999999874 	2.700046012007132e-12 	101324.9999999961
-0.07882882882882926 	299.9999999999634 	2.24337508468452e-12 	101324.999999996
-0.07632632632632676 	299.9999999999907 	2.153001007345302e-12 	101324.9999999961
-0.07382382382382424 	299.9999999999649 	2.207773946311239e-12 	101324.9999999962
-0.07132132132132173 	299.9999999999998 	2.313372705307835e-12 	101324.9999999961
-0.06881881881881925 	299.9999999999866 	2.304063056201032e-12 	101324.9999999958
-0.06631631631631671 	299.9999999999642 	2.00807588974821e-12 	101324.9999999962
-0.06381381381381425 	299.9999999999852 	2.053136677425374e-12 	101324.9999999963
-0.06131131131131173 	299.9999999999861 	2.718766492006541e-12 	101324.9999999965
-0.05880880880880923 	299.9999999999753 	2.053754408967946e-12 	101324.9999999963
-0.05630630630630672 	299.9999999999862 	2.178433854936819e-12 	101324.999999996
-0.05380380380380424 	300.0000000000076 	2.401036697977798e-12 	101324.9999999959
-0.05130130130130173 	300.0000000000038 	2.565837934684514e-12 	101324.9999999958
-0.04879879879879922 	299.9999999999818 	2.592566496602031e-12 	101324.999999996
-0.04629629629629672 	299.9999999999797 	2.641301948281271e-12 	101324.9999999961
-0.04379379379379422 	299.9999999999679 	2.516242544571908e-12 	101324.999999996
-0.04129129129129173 	299.9999999999937 	1.941831850281627e-12 	101324.9999999963
-0.03878878878878922 	299.9999999999951 	2.315083551813087e-12 	101324.999999996
-0.03628628628628671 	299.9999999999943 	1.503459339144238e-12 	101324.9999999958
-0.03378378378378422 	299.9999999999768 	1.950589878702687e-12 	101324.9999999958
-0.03128128128128172 	299.9999999999869 	1.050423425219474e-12 	101324.9999999955
-0.02877877877877922 	299.9999999999868 	1.087112456599647e-12 	101324.9999999954
-0.0262762762762767 	299.9999999999656 	6.004564303404317e-13 	101324.9999999953
-0.02377377377377422 	300.0000000000046 	1.572044868738323e-13 	101324.9999999955
-0.0212712712712717 	299.9999999999671 	2.674662491829827e-14 	101324.9999999955
-0.01876876876876921 	299.9999999999886 	1.05590873601323e-12 	101324.9999999955
-0.01626626626626671 	300.0000000000003 	8.945707119999135e-13 	101324.9999999954
-0.0137637637637642 	299.9999999999861 	9.305779289709735e-13 	101324.9999999957
-0.0112612612612617 	300.0000000000022 	1.97659669673839e-13 	101324.9999999959
-0.008758758758759198 	299.9999999999977 	8.807659418787295e-15 	101324.9999999959
-0.006256256256256697 	299.9999999999634 	2.173878607615356e-13 	101324.999999996
-0.003753753753754195 	299.9999999999823 	1.154631632757141e-15 	101324.999999996
-0.001251251251251693 	299.9999999999757 	1.514569380962112e-13 	101324.999999996
0.00125125125125081 	299.9999999999831 	1.428244968541868e-13 	101324.9999999961
0.003753753753753312 	299.999999999987 	8.275978771594069e-13 	101324.9999999963
0.006256256256255817 	299.9999999999632 	7.123279526806636e-13 	101324.9999999963
0.008758758758758317 	299.9999999999948 	5.977920804510753e-13 	101324.9999999963
0.01126126126126082 	300.0000000000009 	1.025367664697032e-12 	101324.9999999963
0.01376376376376332 	299.9999999999886 	4.99920416404911e-13 	101324.9999999964
0.01626626626626582 	300.0000000000021 	1.630909740957503e-13 	101324.9999999964
0.01876876876876833 	299.999999999984 	3.536338514727761e-13 	101324.9999999962
0.02127127127127083 	299.9999999999908 	1.522079705722511e-12 	101324.9999999962
0.02377377377377332 	299.999999999997 	1.561502654652011e-12 	101324.9999999961
0.02627627627627583 	299.9999999999694 	1.087119529913291e-12 	101324.999999996
0.02877877877877833 	299.9999999999987 	4.664671438093074e-13 	101324.999999996
0.03128128128128083 	299.9999999999797 	1.719543875738703e-13 	101324.9999999961
0.03378378378378333 	299.9999999999643 	4.17700217638907e-13 	101324.9999999963
0.03628628628628584 	299.9999999999928 	4.570644505209244e-13 	101324.9999999964
0.03878878878878834 	299.9999999999937 	6.650272384286802e-14 	101324.9999999965
0.04129129129129084 	299.9999999999895 	4.197050084654874e-13 	101324.9999999966
0.04379379379379333 	299.9999999999776 	7.234216041422884e-13 	101324.9999999965
0.04629629629629585 	299.9999999999623 	9.972603615936059e-13 	101324.9999999962
0.04879879879879834 	299.9999999999835 	1.478466626975212e-12 	101324.999999996
0.05130130130130085 	300.0000000000003 	1.557239240003509e-12 	101324.999999996
0.05380380380380335 	300.0000000000088 	1.2064318021246e-12 	101324.999999996
0.05630630630630584 	299.9999999999949 	1.502122504079937e-12 	101324.9999999961
0.05880880880880836 	299.9999999999761 	1.504541516323016e-12 	101324.9999999959
0.06131131131131085 	299.9999999999919 	1.800119243563613e-12 	101324.999999996
0.06381381381381336 	299.9999999999843 	1.481590558248365e-12 	101324.9999999959
0.06631631631631586 	299.9999999999608 	1.212079016192922e-12 	101324.999999996
0.06881881881881835 	299.999999999981 	1.750931109452716e-12 	101324.9999999959
0.07132132132132088 	300.0000000000008 	1.516797049959096e-12 	101324.9999999958
0.07382382382382337 	299.9999999999671 	1.622519534740935e-12 	101324.9999999959
0.07632632632632587 	299.9999999999874 	1.995134174934624e-12 	101324.999999996
0.07882882882882837 	299.9999999999765 	1.605121034907797e-12 	101324.9999999959
0.08133133133133086 	299.9999999999978 	1.941491994379765e-12 	101324.9999999959
0.08383383383383337 	299.9999999999987 	1.62754149000072e-12 	101324.9999999961
0.08633633633633589 	299.9999999999684 	2.038395486948963e-12 	101324.9999999966
0.08883883883883838 	300.0000000000045 	2.733867870310349e-12 	101324.9999999966
0.09134134134134086 	299.9999999999973 	2.279925328738574e-12 	101324.9999999966
0.09384384384384339 	299.9999999999671 	3.008612771808187e-12 	101324.9999999964
0.09634634634634588 	299.9999999999878 	3.083066116764168e-12 	101324.9999999962
0.09884884884884838 	299.9999999999895 	3.173067854702323e-12 	101324.9999999962
0.1013513513513509 	300.000000000011 	3.008231612508301e-12 	101324.999999996
0.1038538538538534 	299.9999999999779 	2.882713646822077e-12 	101324.9999999962
0.1063563563563559 	300.0000000000032 	3.139746934253584e-12 	101324.9999999962
0.1088588588588584 	300.0000000000038 	2.429631951753306e-12 	101324.9999999961
0.1113613613613609 	299.9999999999845 	2.439343237691026e-12 	101324.9999999962
0.1138638638638634 	299.999999999987 	2.106631287573181e-12 	101324.9999999963
0.1163663663663659 	299.9999999999793 	2.966053916803471e-12 	101324.9999999963
0.1188688688688684 	299.9999999999873 	3.381073552793223e-12 	101324.9999999964
0.1213713713713709 	299.9999999999952 	3.293375049733613e-12 	101324.9999999966
0.1238738738738734 	299.9999999999711 	3.544758612480736e-12 	101324.9999999968
0.1263763763763759 	299.999999999997 	3.685663300760104e-12 	101324.9999999966
0.1288788788788784 	299.999999999998 	2.842854088391686e-12 	101324.9999999966
0.1313813813813809 	299.9999999999972 	3.22866982858595e-12 	101324.9999999966
0.1338838838838834 	299.9999999999871 	2.806931506571387e-12 	101324.9999999967
0.1363863863863859 	300.0000000000095 	2.482126448482063e-12 	101324.999999997
0.1388888888888884 	300.0000000000105 	2.459092717008267e-12 	101324.999999997
0.1413913913913909 	299.9999999999979 	2.725791551861268e-12 	101324.9999999968
0.1438938938938934 	299.9999999999957 	2.923355455160976e-12 	101324.9999999969
0.1463963963963959 	299.9999999999887 	3.19026548258677e-12 	101324.9999999968
0.1488988988988985 	299.9999999999713 	3.697582649504463e-12 	101324.999999997
0.1514014014014009 	299.9999999999889 	4.207033952636511e-12 	101324.9999999969
0.1539039039039035 	299.9999999999842 	5.175726218359974e-12 	101324.9999999969
0.1564064064064059 	299.9999999999875 	3.755380856809794e-12 	101324.9999999968
0.1589089089089084 	299.9999999999904 	5.545329110438454e-12 	101324.9999999969
0.1614114114114109 	299.9999999999892 	3.608758657697348e-12 	101324.9999999969
0.1639139139139134 	299.9999999999752 	4.314139132365882e-12 	101324.9999999972
0.166416416416416 	299.9999999999982 	3.645757411940114e-12 	101324.9999999972
0.1689189189189185 	300.0000000000102 	2.950771718799791e-12 	101324.999999997
0.1714214214214209 	299.999999999995 	3.151932910666905e-12 	101324.9999999969
0.1739239239239235 	299.9999999999985 	2.69686824937578e-12 	101324.9999999969
0.1764264264264259 	299.9999999999841 	3.581007100917006e-12 	101324.999999997
0.1789289289289284 	300.0000000000039 	1.758802561671472e-12 	101324.999999997
0.181431431431431 	299.9999999999926 	3.622106569891386e-12 	101324.9999999972
0.1839339339339334 	299.9999999999937 	2.460120664540382e-12 	101324.9999999974
0.186436436436436 	299.9999999999812 	3.460645378777314e-12 	101324.9999999972
0.1889389389389385 	299.999999999993 	3.200360434312072e-12 	101324.999999997
0.191441441441441 	299.9999999999916 	3.172881327902004e-12 	101324.999999997
0.1939439439439434 	299.999999999975 	3.820038808540171e-12 	101324.9999999968
0.196446446446446 	299.9999999999869 	2.516932183542551e-12 	101324.9999999967
0.1989489489489485 	299.9999999999906 	3.45547561896268e-12 	101324.9999999969
0.2014514514514509 	299.9999999999935 	1.727897384192061e-12 	101324.9999999973
0.2039539539539535 	299.9999999999953 	2.628935547187515e-12 	101324.9999999973
0.2064564564564559 	299.9999999999854 	1.986185601569158e-12 	101324.9999999974
0.2089589589589585 	299.9999999999932 	2.443623706299382e-12 	101324.9999999974
0.211461461461461 	299.9999999999842 	2.590217913423337e-12 	101324.999999997
0.2139639639639635 	299.999999999999 	3.014172743675807e-12 	101324.9999999975
0.2164664664664659 	300.0000000000036 	3.733554582699639e-12 	101324.9999999975
0.2189689689689684 	300.0000000000021 	2.916722981318473e-12 	101324.9999999974
0.221471471471471 	300.000000000002 	4.715573520923938e-12 	101324.9999999973
0.2239739739739735 	299.9999999999844 	3.305411821265405e-12 	101324.999999997
0.226476476476476 	299.9999999999969 	4.171828699755958e-12 	101324.9999999968
0.2289789789789785 	300.0000000000014 	3.062745011308674e-12 	101324.9999999969
0.231481481481481 	299.999999999995 	2.390113159115408e-12 	101324.999999997
0.2339839839839835 	299.9999999999936 	2.299820528758441e-12 	101324.9999999972
0.236486486486486 	300.0000000000071 	1.74596344784075e-12 	101324.9999999974
0.2389889889889885 	299.9999999999994 	2.817384805640576e-12 	101324.9999999975
0.241491491491491 	299.9999999999749 	1.773682680641369e-12 	101324.9999999974
0.2439939939939935 	299.9999999999973 	3.726078205467261e-12 	101324.9999999974
0.246496496496496 	299.9999999999955 	2.182682547944063e-12 	101324.9999999972
0.2489989989989985 	300.0000000000061 	2.791415046117352e-12 	101324.9999999972
0.251501501501501 	300.0000000000051 	1.837073243534994e-12 	101324.9999999973
0.2540040040040035 	299.999999999996 	1.643650359079506e-12 	101324.9999999974
0.256506506506506 	300.0000000000057 	1.790388648640904e-12 	101324.9999999974
0.2590090090090086 	299.9999999999734 	8.563008618006248e-13 	101324.9999999974
0.261511511511511 	300.0000000000065 	2.868289341441183e-12 	101324.9999999976
0.2640140140140135 	299.9999999999939 	1.555875416144008e-12 	101324.9999999976
0.2665165165165161 	299.9999999999819 	3.053087200394697e-12 	101324.9999999977
0.2690190190190185 	300.0000000000095 	1.844249171219403e-12 	101324.9999999978
0.271521521521521 	300.000000000001 	1.867497108890837e-12 	101324.9999999977
0.2740240240240235 	300.0000000000026 	1.782251448643367e-12 	101324.9999999975
0.276526526526526 	299.9999999999989 	1.057142641706674e-12 	101324.9999999976
0.2790290290290286 	299.9999999999835 	1.699213884222931e-12 	101324.9999999974
0.281531531531531 	299.9999999999734 	8.586491578176523e-13 	101324.9999999975
0.2840340340340335 	299.9999999999936 	2.626683474445736e-12 	101324.9999999977
0.2865365365365361 	299.999999999988 	1.969946768507217e-12 	101324.9999999978
0.2890390390390385 	299.9999999999971 	2.386424338919088e-12 	101324.9999999975
0.291541541541541 	299.9999999999974 	1.256634329938928e-12 	101324.9999999975
0.2940440440440436 	299.9999999999976 	1.231664219527807e-12 	101324.9999999975
0.296546546546546 	299.9999999999945 	1.065745384984582e-12 	101324.9999999974
0.2990490490490486 	299.9999999999761 	5.015492075765357e-13 	101324.9999999976
0.3015515515515511 	300.0000000000092 	2.038420176623383e-12 	101324.9999999977
0.3040540540540535 	299.9999999999941 	1.383873703878725e-12 	101324.9999999978
0.3065565565565562 	299.9999999999976 	2.057906918865694e-12 	101324.9999999979
0.3090590590590585 	299.9999999999956 	1.207175812337717e-12 	101324.9999999978
0.3115615615615611 	299.9999999999771 	1.72582685675917e-12 	101324.999999998
0.3140640640640635 	300.0000000000001 	6.841457560224044e-13 	101324.9999999979
0.316566566566566 	299.9999999999962 	8.563231796630355e-13 	101324.9999999977
0.3190690690690687 	299.9999999999842 	3.00318805862609e-13 	101324.9999999977
0.3215715715715711 	300.000000000002 	5.79535998201589e-13 	101324.9999999974
0.3240740740740735 	299.9999999999964 	8.985692754709003e-13 	101324.9999999973
0.326576576576576 	299.9999999999665 	6.065139467976272e-13 	101324.9999999974
0.3290790790790786 	299.9999999999993 	7.096314043290422e-13 	101324.9999999975
0.3315815815815811 	300.000000000013 	7.163021734484601e-13 	101324.9999999973
0.3340840840840836 	299.9999999999994 	6.064371235314562e-13 	101324.9999999973
0.3365865865865861 	300.0000000000202 	2.532349639530271e-13 	101324.9999999974
0.3390890890890886 	300.0000000000138 	3.778921324172888e-13 	101324.9999999975
0.3415915915915911 	299.9999999999996 	5.094986501925899e-13 	101324.9999999975
0.3440940940940935 	299.9999999999836 	1.045092018258602e-12 	101324.9999999976
0.3465965965965962 	300.0000000000117 	6.204837846534701e-13 	101324.9999999975
0.3490990990990985 	300.0000000000086 	1.581457106013971e-12 	101324.9999999977
0.3516016016016011 	299.9999999999944 	1.512799108768592e-12 	101324.9999999978
0.3541041041041035 	300.0000000000026 	2.032455267136867e-12 	101324.9999999977
0.3566066066066061 	299.9999999999873 	2.014969923459064e-12 	101324.9999999975
0.3591091091091085 	299.999999999975 	1.524833564949435e-12 	101324.9999999973
0.3616116116116112 	299.9999999999814 	2.196285730054291e-12 	101324.9999999975
0.3641141141141137 	299.9999999999775 	1.105901414350429e-12 	101324.9999999975
0.3666166166166161 	299.9999999999745 	2.322615143605497e-12 	101324.9999999976
0.3691191191191185 	300.0000000000089 	1.002795054617818e-12 	101324.9999999975
0.371621621621621 	300.0000000000053 	1.606464652342974e-12 	101324.9999999974
0.3741241241241237 	300.0000000000158 	2.882240652622561e-13 	101324.9999999974
0.3766266266266261 	300.0000000000067 	1.347498186746389e-12 	101324.9999999974
0.3791291291291286 	299.9999999999946 	1.027072135533141e-12 	101324.9999999974
0.3816316316316311 	299.9999999999756 	1.486021301080918e-12 	101324.9999999978
0.3841341341341336 	300.0000000000017 	6.101268440081772e-13 	101324.9999999979
0.3866366366366362 	299.9999999999986 	4.310254772130151e-13 	101324.9999999979
0.3891391391391387 	299.9999999999862 	1.580808949550642e-13 	101324.9999999978
0.391641641641641 	299.9999999999986 	5.371571318695172e-13 	101324.9999999978
0.3941441441441436 	300.0000000000018 	6.926772695437429e-13 	101324.9999999975
0.3966466466466462 	299.9999999999992 	1.061012201285316e-12 	101324.9999999973
0.3991491491491486 	299.9999999999841 	1.313104545799188e-12 	101324.9999999973
0.4016516516516512 	299.9999999999741 	1.633517137783368e-12 	101324.9999999975
0.4041541541541536 	299.9999999999866 	1.230184509509416e-12 	101324.9999999977
0.4066566566566561 	299.9999999999854 	2.889421805113035e-12 	101324.9999999979
0.4091591591591587 	299.9999999999997 	1.104056092526652e-12 	101324.9999999981
0.4116616616616612 	300.0000000000035 	2.234898832315727e-12 	101324.9999999983
0.4141641641641635 	300.0000000000122 	1.091158263774642e-12 	101324.9999999983
0.4166666666666662 	299.9999999999989 	1.634631817290218e-12 	101324.9999999981
0.4191691691691687 	299.9999999999824 	1.571978937701153e-12 	101324.9999999982
0.421671671671671 	300.0000000000053 	1.325527389346804e-12 	101324.999999998
0.4241741741741737 	299.9999999999931 	2.694237603009278e-12 	101324.9999999979
0.4266766766766761 	299.9999999999857 	8.555594374402161e-13 	101324.9999999977
0.4291791791791785 	300.0000000000069 	3.084506906600907e-12 	101324.9999999978
0.4316816816816812 	300.0000000000003 	7.438158764671195e-13 	101324.9999999978
0.4341841841841836 	299.9999999999941 	2.651016801588269e-12 	101324.9999999978
0.4366866866866862 	299.9999999999772 	7.704007039526933e-13 	101324.9999999978
0.4391891891891885 	299.9999999999985 	1.66566566750107e-12 	101324.9999999979
0.4416916916916913 	299.999999999997 	1.434615592353091e-12 	101324.9999999978
0.4441941941941936 	299.9999999999942 	1.872723343571169e-12 	101324.9999999979
0.4466966966966961 	299.9999999999761 	1.998346775905765e-12 	101324.999999998
0.4491991991991987 	299.999999999996 	1.877679074221715e-12 	101324.9999999979
0.4517017017017012 	299.9999999999955 	2.149087197285911e-12 	101324.999999998
0.4542042042042035 	299.9999999999948 	1.50889309976675e-12 	101324.9999999978
0.4567067067067062 	299.999999999996 	2.16123414018458e-12 	101324.9999999977
0.4592092092092087 	299.9999999999764 	1.494222157249718e-12 	101324.9999999975
0.4617117117117112 	300.0000000000043 	1.670931446080878e-12 	101324.9999999977
0.4642142142142137 	299.9999999999881 	1.651639835784203e-12 	101324.9999999976
0.4667167167167162 	299.9999999999949 	1.955340157497085e-12 	101324.9999999975
0.4692192192192187 	299.999999999985 	2.43117844451883e-12 	101324.9999999975
0.4717217217217212 	300.0000000000055 	2.311942634454008e-12 	101324.9999999977
0.4742242242242236 	299.9999999999858 	2.259245506799464e-12 	101324.9999999977
0.4767267267267262 	299.999999999996 	1.739055495937691e-12 	101324.9999999976
0.4792292292292287 	300.0000000000039 	2.033751854881932e-12 	101324.9999999975
0.4817317317317312 	300.000000000008 	1.865745308875166e-12 	101324.9999999974
0.4842342342342336 	299.9999999999935 	2.221176226469323e-12 	101324.9999999973
0.4867367367367362 	299.999999999984 	2.607799364116959e-12 	101324.9999999973
0.4892392392392387 	300.0000000000047 	2.396938429123179e-12 	101324.9999999972
0.4917417417417412 	299.9999999999992 	3.249241304430093e-12 	101324.9999999971
0.4942442442442437 	299.9999999999695 	2.996548382773055e-12 	101324.9999999973
0.4967467467467462 	299.9999999999756 	3.586613458533251e-12 	101324.9999999972
0.4992492492492487 	299.9999999999749 	1.433510932967708e-12 	101324.999999997
0.5017517517517511 	299.9999999999841 	1.633997522660875e-12 	101324.9999999971
0.5042542542542537 	299.9999999999894 	1.051365312243929e-12 	101324.9999999974
0.5067567567567562 	299.9999999999824 	1.580614097726427e-12 	101324.9999999976
0.5092592592592589 	299.9999999999894 	1.600058517157004e-12 	101324.9999999976
0.5117617617617611 	299.9999999999871 	1.719827306877181e-12 	101324.9999999977
0.5142642642642637 	299.9999999999972 	2.523048114641377e-12 	101324.9999999977
0.5167667667667663 	299.9999999999934 	1.854519528687777e-12 	101324.9999999977
0.5192692692692688 	299.9999999999757 	3.057395431647055e-12 	101324.9999999977
0.5217717717717714 	299.9999999999783 	8.443472292704138e-13 	101324.9999999977
0.5242742742742736 	299.9999999999779 	2.499400124172632e-12 	101324.9999999977
0.5267767767767763 	299.9999999999872 	3.734414652035722e-13 	101324.9999999977
0.5292792792792789 	299.9999999999818 	1.0205924183041e-12 	101324.9999999975
0.5317817817817813 	299.9999999999717 	5.48779244995998e-13 	101324.9999999974
0.5342842842842837 	300.0000000000038 	7.389870706327706e-13 	101324.9999999974
0.5367867867867864 	300.0000000000002 	1.243692411931178e-12 	101324.9999999975
0.5392892892892888 	299.9999999999863 	1.667640795073145e-12 	101324.9999999974
0.5417917917917912 	300.0000000000004 	1.596782896307285e-12 	101324.9999999972
0.5442942942942938 	299.9999999999927 	1.735248916643394e-12 	101324.9999999971
0.5467967967967964 	299.9999999999856 	1.584981956392594e-12 	101324.9999999973
0.5492992992992988 	299.9999999999786 	1.435795836341445e-12 	101324.9999999971
0.5518018018018012 	299.999999999979 	7.976100191605918e-13 	101324.9999999969
0.5543043043043039 	300.0000000000047 	7.455420208665818e-13 	101324.9999999969
0.5568068068068063 	299.9999999999952 	7.317538874606072e-13 	101324.9999999967
0.5593093093093087 	299.9999999999714 	8.960341501700135e-13 	101324.9999999968
0.5618118118118114 	299.999999999988 	4.923828026376401e-13 	101324.999999997
0.5643143143143137 	299.9999999999831 	9.098804258846242e-13 	101324.9999999969
0.5668168168168163 	299.999999999996 	3.661646161054963e-13 	101324.999999997
0.5693193193193188 	300.0000000000099 	4.121688197628571e-13 	101324.9999999969
0.5718218218218213 	300.0000000000093 	8.944236804931205e-13 	101324.999999997
0.5743243243243239 	300.0000000000032 	1.133063364827871e-12 	101324.999999997
0.5768268268268262 	299.9999999999998 	1.795969472364743e-12 	101324.9999999969
0.5793293293293288 	299.9999999999852 	7.193804418211124e-13 	101324.9999999968
0.5818318318318314 	299.999999999978 	2.060291412570387e-12 	101324.9999999968
0.5843343343343338 	299.9999999999949 	1.376700225893827e-12 	101324.9999999969
0.5868368368368363 	299.9999999999899 	1.251890887830568e-12 	101324.9999999968
0.5893393393393387 	299.9999999999798 	1.043644107201031e-12 	101324.9999999967
0.5918418418418413 	299.9999999999804 	7.451426590906197e-13 	101324.9999999968
0.5943443443443439 	300.0000000000038 	1.433172228831202e-12 	101324.999999997
0.5968468468468463 	300.0000000000044 	1.092231334178085e-12 	101324.9999999971
0.5993493493493487 	300.0000000000139 	1.105305955267336e-12 	101324.9999999971
0.6018518518518514 	299.9999999999936 	5.661507625730268e-13 	101324.9999999971
0.6043543543543537 	299.9999999999985 	4.432665980345904e-13 	101324.999999997
0.6068568568568564 	299.9999999999934 	3.884761012266953e-13 	101324.9999999969
0.6093593593593587 	299.9999999999755 	5.186938579799458e-13 	101324.9999999969
0.6118618618618614 	299.9999999999753 	4.716816756964867e-13 	101324.9999999969
0.6143643643643638 	300.0000000000016 	7.699282325478052e-13 	101324.9999999969
0.6168668668668662 	299.9999999999961 	1.175950573792832e-12 	101324.9999999968
0.6193693693693688 	299.9999999999863 	5.394519961160999e-13 	101324.999999997
0.6218718718718714 	299.9999999999899 	1.147687399729269e-12 	101324.9999999969
0.6243743743743737 	299.999999999979 	6.77873952369951e-13 	101324.9999999968
0.6268768768768762 	299.9999999999763 	9.980625933727024e-13 	101324.9999999969
0.629379379379379 	299.9999999999829 	4.735528214712463e-13 	101324.9999999968
0.6318818818818812 	299.9999999999876 	8.967095567450728e-13 	101324.9999999968
0.6343843843843838 	300.0000000000033 	9.125483663690095e-13 	101324.9999999968
0.6368868868868864 	299.9999999999936 	1.172795228257044e-12 	101324.9999999968
0.6393893893893888 	299.9999999999769 	1.623885807446807e-12 	101324.9999999967
0.6418918918918912 	299.9999999999992 	1.080908921360163e-12 	101324.999999997
0.6443943943943939 	299.9999999999949 	2.39615910437866e-12 	101324.9999999972
0.6468968968968963 	299.9999999999915 	1.064068660729637e-12 	101324.9999999973
0.6493993993993988 	299.9999999999894 	2.072485058237181e-12 	101324.9999999974
0.6519019019019012 	299.999999999988 	9.855213880711412e-13 	101324.9999999972
0.6544044044044038 	299.9999999999691 	1.773605233948162e-12 	101324.999999997
0.6569069069069065 	299.9999999999879 	3.933969776641671e-13 	101324.9999999968
0.6594094094094087 	299.9999999999856 	1.01686784931944e-12 	101324.9999999967
0.6619119119119113 	299.9999999999817 	4.621860554666069e-13 	101324.9999999966
0.664414414414414 	299.9999999999961 	4.422949457561577e-13 	101324.9999999965
0.6669169169169162 	300.0000000000026 	4.206142239513636e-13 	101324.9999999965
0.6694194194194188 	299.9999999999951 	4.228461027244526e-13 	101324.9999999966
0.6719219219219214 	299.9999999999801 	7.037179908211347e-14 	101324.9999999966
0.674424424424424 	299.9999999999915 	1.523574659367749e-13 	101324.9999999966
0.6769269269269262 	299.9999999999737 	4.403420469805434e-13 	101324.9999999967
0.679429429429429 	300.0000000000003 	8.230214230627217e-13 	101324.9999999967
0.6819319319319311 	299.9999999999911 	9.4677575187933e-13 	101324.9999999966
0.6844344344344341 	299.9999999999975 	4.997609968351789e-13 	101324.9999999965
0.686936936936936 	299.9999999999964 	8.120961109317241e-13 	101324.9999999963
0.6894394394394392 	299.9999999999953 	2.260981551003116e-13 	101324.9999999964
0.6919419419419413 	299.9999999999951 	2.837770936340842e-13 	101324.9999999965
0.694444444444444 	299.9999999999851 	2.658545352719933e-13 	101324.9999999966
0.6969469469469463 	299.9999999999777 	4.101906748527784e-13 	101324.9999999968
0.6994494494494489 	299.9999999999729 	3.405448807034732e-13 	101324.9999999967
0.7019519519519515 	299.9999999999936 	7.685407217251093e-13 	101324.9999999966
0.7044544544544538 	299.9999999999841 	7.283707632835174e-13 	101324.9999999965
0.7069569569569564 	299.9999999999984 	1.074317692580932e-12 	101324.9999999966
0.7094594594594589 	299.9999999999894 	9.576221174509689e-13 	101324.9999999967
0.7119619619619615 	299.9999999999728 	1.123569331209155e-12 	101324.9999999969
0.7144644644644638 	299.9999999999826 	4.064734293855125e-13 	101324.999999997
0.7169669669669665 	299.9999999999764 	4.418448563970392e-13 	101324.9999999968
0.7194694694694688 	299.9999999999981 	1.422486522057253e-13 	101324.9999999967
0.7219719719719715 	299.9999999999986 	1.515820352692579e-13 	101324.9999999966
0.7244744744744737 	299.9999999999999 	5.240760482307542e-13 	101324.9999999965
0.7269769769769764 	299.9999999999975 	1.230741225543984e-12 	101324.9999999964
0.7294794794794791 	299.9999999999951 	1.392663971620481e-12 	101324.9999999965
0.7319819819819813 	299.999999999994 	1.333785633608368e-12 	101324.9999999965
0.7344844844844839 	299.9999999999764 	1.000991984920581e-12 	101324.9999999964
0.7369869869869864 	299.9999999999867 	6.82811091948466e-13 	101324.9999999965
0.739489489489489 	299.999999999982 	2.975251535776507e-13 	101324.9999999965
0.7419919919919914 	299.9999999999782 	6.376169100421351e-13 	101324.9999999965
0.7444944944944939 	299.9999999999916 	1.286377360943038e-12 	101324.9999999965
0.7469969969969963 	299.9999999999915 	1.709437807325768e-12 	101324.9999999967
0.7494994994994989 	299.9999999999825 	1.89271632902822e-12 	101324.9999999969
0.7520020020020015 	299.9999999999899 	1.86268944453259e-12 	101324.9999999971
0.7545045045045039 	299.9999999999903 	1.703433578155171e-12 	101324.9999999972
0.7570070070070062 	299.9999999999832 	1.384350226011214e-12 	101324.9999999972
0.7595095095095092 	299.9999999999771 	3.445299496893617e-13 	101324.9999999973
0.7620120120120112 	300.0000000000002 	4.290284228132346e-13 	101324.9999999972
0.7645145145145138 	299.9999999999957 	6.970693600530993e-13 	101324.9999999972
0.7670170170170165 	299.9999999999804 	7.779061762865911e-13 	101324.9999999973
0.7695195195195191 	299.999999999975 	1.603541023451769e-12 	101324.9999999971
0.7720220220220213 	299.9999999999826 	1.470100279623892e-12 	101324.9999999969
0.7745245245245239 	299.9999999999843 	1.248917789005172e-12 	101324.9999999967
0.7770270270270263 	299.9999999999898 	9.762760855317711e-13 	101324.9999999968
0.779529529529529 	299.999999999991 	5.126759185512306e-13 	101324.9999999968
0.7820320320320313 	299.9999999999879 	1.104589686151418e-12 	101324.9999999967
0.784534534534534 	299.9999999999966 	9.021806812918527e-13 	101324.9999999968
0.7870370370370364 	299.9999999999957 	6.017242070259756e-13 	101324.9999999969
0.7895395395395389 	299.9999999999919 	1.285062907058768e-12 	101324.9999999968
0.7920420420420413 	299.9999999999946 	1.232451247672326e-12 	101324.9999999968
0.794544544544544 	299.9999999999996 	1.59763233999668e-12 	101324.9999999968
0.7970470470470463 	300.0000000000026 	1.904321204582123e-12 	101324.9999999969
0.799549549549549 	299.999999999995 	1.259064535823673e-12 	101324.9999999969
0.8020520520520515 	299.9999999999947 	1.330746453141425e-12 	101324.9999999969
0.8045545545545539 	299.9999999999837 	4.565169887104988e-13 	101324.9999999969
0.8070570570570563 	299.9999999999989 	2.001479790350844e-13 	101324.999999997
0.8095595595595589 	299.9999999999888 	5.308058934344836e-13 	101324.9999999969
0.8120620620620614 	299.9999999999785 	8.261208672672454e-13 	101324.9999999969
0.8145645645645638 	299.999999999995 	6.962549535972437e-13 	101324.9999999969
0.8170670670670666 	299.9999999999951 	1.431453350845388e-12 	101324.999999997
0.8195695695695689 	299.9999999999907 	1.369645694859049e-12 	101324.9999999971
0.8220720720720714 	299.9999999999804 	1.482994348502152e-12 	101324.9999999972
0.8245745745745739 	299.9999999999988 	5.700756807229148e-13 	101324.9999999972
0.8270770770770765 	299.9999999999919 	6.233908356089271e-13 	101324.9999999972
0.8295795795795788 	299.9999999999847 	3.937044476779597e-13 	101324.9999999972
0.8320820820820815 	300.000000000006 	5.701070609911896e-13 	101324.9999999972
0.834584584584584 	300.0000000000028 	6.537552991027833e-13 	101324.9999999973
0.8370870870870865 	299.9999999999902 	6.471598306246552e-13 	101324.9999999972
0.8395895895895891 	299.9999999999745 	4.608167832324416e-13 	101324.9999999969
0.8420920920920915 	299.9999999999769 	9.632521224322428e-14 	101324.9999999966
0.844594594594594 	299.9999999999765 	1.549050891400777e-13 	101324.9999999966
0.8470970970970964 	299.9999999999815 	1.442770764335203e-13 	101324.9999999965
0.8495995995995991 	299.9999999999943 	4.400289482822897e-13 	101324.9999999966
0.8521021021021015 	299.9999999999928 	6.581370205620707e-13 	101324.9999999967
0.8546046046046039 	299.9999999999919 	9.347630953772853e-13 	101324.9999999966
0.8571071071071066 	299.999999999997 	1.518246959339092e-12 	101324.9999999967
0.8596096096096089 	299.9999999999849 	1.356394736028953e-12 	101324.9999999968
0.8621121121121116 	299.9999999999766 	1.266518908708635e-12 	101324.9999999967
0.8646146146146139 	299.9999999999952 	6.969618439062824e-13 	101324.9999999968
0.8671171171171166 	299.9999999999921 	3.874328575803595e-13 	101324.9999999969
0.8696196196196189 	299.9999999999848 	2.698664902279369e-13 	101324.999999997
0.8721221221221216 	299.9999999999865 	7.541812203768262e-13 	101324.999999997
0.874624624624624 	299.9999999999985 	9.068613683931334e-13 	101324.9999999969
0.8771271271271264 	300.0000000000027 	7.132054819277618e-13 	101324.9999999969
0.879629629629629 	299.9999999999981 	1.288074574158891e-12 	101324.999999997
0.8821321321321317 	299.999999999994 	1.420645029291936e-12 	101324.9999999972
0.8846346346346339 	299.9999999999779 	1.265403595312325e-12 	101324.9999999971
0.8871371371371364 	299.9999999999851 	7.268293181683071e-13 	101324.9999999971
0.8896396396396391 	299.9999999999835 	1.119080221442606e-12 	101324.9999999971
0.8921421421421414 	299.9999999999851 	8.709522746239016e-13 	101324.9999999971
0.8946446446446441 	299.9999999999961 	1.455372019315628e-12 	101324.999999997
0.8971471471471464 	299.9999999999991 	1.375837976010635e-12 	101324.9999999969
0.8996496496496489 	299.9999999999894 	1.035865421934787e-12 	101324.9999999969
0.9021521521521517 	299.9999999999844 	1.14723588614093e-12 	101324.9999999969
0.9046546546546541 	299.9999999999925 	1.375859324004899e-13 	101324.9999999967
0.9071571571571564 	299.9999999999814 	1.790772620169174e-13 	101324.9999999967
0.9096596596596589 	299.9999999999828 	1.604269079298154e-13 	101324.9999999967
0.9121621621621616 	300.0000000000001 	4.894861079650856e-13 	101324.9999999968
0.9146646646646639 	299.9999999999927 	6.564864992609117e-13 	101324.9999999966
0.9171671671671666 	299.999999999984 	1.035478855086272e-12 	101324.9999999966
0.9196696696696689 	299.9999999999998 	1.800151696069664e-12 	101324.9999999968
0.9221721721721714 	300.0000000000002 	1.521877944865288e-12 	101324.999999997
0.9246746746746741 	299.9999999999818 	1.344421585926229e-12 	101324.999999997
0.9271771771771765 	299.9999999999806 	9.689018102017135e-13 	101324.9999999971
0.9296796796796791 	299.9999999999945 	1.600998863079322e-12 	101324.9999999971
0.9321821821821816 	299.9999999999922 	1.313873036945551e-12 	101324.999999997
0.9346846846846838 	299.9999999999852 	1.73366211180744e-12 	101324.9999999971
0.9371871871871866 	300.0000000000016 	1.353296401632908e-12 	101324.9999999971
0.9396896896896891 	300.000000000004 	1.247554892279964e-12 	101324.999999997
0.9421921921921914 	300.0000000000019 	1.747288370689187e-12 	101324.9999999969
0.9446946946946939 	299.9999999999874 	1.252237799720457e-12 	101324.9999999969
0.9471971971971965 	299.999999999976 	1.798484446469414e-12 	101324.999999997
0.9496996996996991 	299.9999999999842 	3.929608022428091e-13 	101324.9999999969
0.9522022022022016 	299.9999999999873 	5.874718547182243e-13 	101324.9999999967
0.9547047047047038 	299.9999999999889 	1.185487748291168e-12 	101324.9999999963
0.9572072072072064 	299.999999999989 	3.092943045369948e-12 	101324.9999999955
0.9597097097097093 	299.9999999999865 	8.819279653953633e-12 	101324.9999999933
0.9622122122122114 	299.9999999999772 	2.463831725957908e-11 	101324.9999999875
0.964714714714714 	299.999999999965 	6.5589382599321e-11 	101324.9999999716
0.9672172172172167 	299.9999999999313 	1.742594573754802e-10 	101324.9999999299
0.969719719719719 	299.9999999998492 	4.538024466864476e-10 	101324.9999998224
0.9722222222222214 	299.9999999996138 	1.164731263598561e-09 	101324.9999995499
0.9747247247247239 	299.9999999990325 	2.941649913512698e-09 	101324.9999988668
0.9772272272272267 	299.9999999976139 	7.322373394493024e-09 	101324.9999971794
0.9797297297297292 	299.9999999941382 	1.796406662454784e-08 	101324.9999930728
0.9822322322322313 	299.9999999858154 	4.342843932749026e-08 	101324.9999832286
0.9847347347347344 	299.9999999661628 	1.034301185683165e-07 	101324.9999599924
0.9872372372372363 	299.9999999204891 	2.425800291450684e-07 	101324.9999060081
0.9897397397397389 	299.9999998161207 	5.600756732943934e-07 	101324.9997826096
0.9922422422422417 	299.9999995814898 	1.272458527316873e-06 	101324.9995052204
0.9947447447447441 	299.9999990630737 	2.843550598504964e-06 	101324.9988923135
0.9972472472472468 	299.999997937754 	6.247397907868792e-06 	101324.9975618737
0.999749749749749 	299.9999955393092 	1.348794718898584e-05 	101324.9947262747
1.002252252252252 	299.9999905232677 	2.86004843920233e-05 	101324.9887959849
1.004754754754754 	299.9999802363717 	5.953021653008086e-05 	101324.9766341757
1.007257257257256 	299.999959564387 	0.0001215556031220738 	101324.952194541
1.009759759759759 	299.9999188914002 	0.000243333360362156 	101324.9041086445
1.012262262262261 	299.9998406074277 	0.0004772095320283616 	101324.8115571592
1.014764764764764 	299.9996933571257 	0.0009161392441902206 	101324.6374705439
1.017267267267267 	299.9994229742751 	0.00172024929315776 	101324.3178117454
1.019769769769769 	299.9989389089504 	0.003156421842684884 	101323.7455308727
1.022272272272272 	299.9980951491134 	0.005653618447873868 	101322.7480127497
1.024774774774774 	299.9966655299945 	0.009873942838797434 	101321.0578936335
1.027277277277277 	299.9943154090925 	0.01679323772738077 	101318.2795912347
1.029779779779779 	299.9905754847977 	0.02777387586471403 	101313.8583895365
1.032282282282282 	299.9848293155951 	0.04459569571772985 	101307.0657586885
1.034784784784784 	299.9763333562597 	0.06939037915526446 	101297.0231746367
1.037287287287286 	299.9642951173819 	0.1044058169805269 	101282.7947138043
1.039789789789789 	299.9480373648139 	0.151521860079934 	101263.5813670771
1.042292292292291 	299.927268029305 	0.2114646584526622 	101239.0401397513
1.044794794794794 	299.9024499344096 	0.2827465530395017 	101209.7206170066
1.047297297297296 	299.8752066529298 	0.3605884486746127 	101177.5433091908
1.049799799799799 	299.8485064634611 	0.4365934465908968 	101146.0149480445
1.052302302302302 	299.8261758458907 	0.5001660359384079 	101119.6521889731
1.054804804804804 	299.8116971433815 	0.5417003706039982 	101102.562238472
1.057307307307306 	299.8068753197253 	0.556211658120835 	101096.8700233924
1.059809809809809 	299.8109609995535 	0.5457966132767269 	101101.6917475998
1.062312312312312 	299.8205901263497 	0.5198485844652998 	101113.0603639477
1.064814814814814 	299.8306791587935 	0.4923972435942661 	101124.9711780532
1.067317317317317 	299.8364126896959 	0.4764388987073326 	101131.7400468265
1.069819819819819 	299.8357943333291 	0.4773935986952917 	101131.0105354817
1.072322322322321 	299.8307348870572 	0.490344310022274 	101125.036933831
1.074824824824824 	299.8256091042362 	0.5037734792017872 	101118.9847725238
1.077327327327327 	299.8241983048334 	0.5077559767412392 	101117.3184793515
1.079829829829829 	299.826930123753 	0.5010443484081487 	101120.543281302
1.082332332332332 	299.8307974968089 	0.4912062998873405 	101125.1102571065
1.084834834834834 	299.8322604320797 	0.4872334968558867 	101126.8378178828
1.087337337337337 	299.8305501954686 	0.4911873819723379 	101124.8187772925
1.089839839839839 	299.8281574417877 	0.4970274067663176 	101121.9932208949
1.092342342342342 	299.8278836418651 	0.4978462553569328 	101121.669359384
1.094844844844844 	299.8297342078725 	0.4934813818908981 	101123.8540161787
1.097347347347347 	299.8312376186755 	0.4897660566803865 	101125.6298951109
1.099849849849849 	299.8307585932465 	0.4906665386329099 	101125.0646725683
1.102352352352352 	299.8294705497143 	0.4935763929301933 	101123.5433742154
1.104854854854854 	299.8294206506026 	0.4937542352417041 	101123.483878965
1.107357357357357 	299.8305702432108 	0.4911524860384014 	101124.8413255257
1.109859859859859 	299.8311497515743 	0.4897054928357355 	101125.5259804537
1.112362362362362 	299.8305700494976 	0.4908319158778243 	101124.8415445521
1.114864864864865 	299.8301574351372 	0.4917055330882459 	101124.3539310368
1.117367367367367 	299.8307124505337 	0.4905138319138191 	101125.0091040704
1.119869869869869 	299.8312626603192 	0.4892401865802231 	101125.6590003463
1.122372372372372 	299.8310360103244 	0.4895681970041808 	101125.3914708269
1.124874874874874 	299.8307980249338 	0.489998259622545 	101125.1102815671
1.127377377377377 	299.831176725574 	0.4891970390123229 	101125.5571316066
1.129879879879879 	299.8315019515539 	0.4884358495862792 	101125.9412729442
1.132382382382382 	299.8313475845404 	0.4886108321731597 	101125.7591547157
1.134884884884884 	299.8313368063875 	0.488566118265337 	101125.7462552319
1.137387387387387 	299.8316629453576 	0.487873059418902 	101126.1312498252
1.139889889889889 	299.8317657760401 	0.4875533913451693 	101126.2527278798
1.142392392392392 	299.8316892583864 	0.4875867106522159 	101126.1622121938
1.144894894894894 	299.8318643191209 	0.4871936359946115 	101126.3687686336
1.147397397397397 	299.8320556464662 	0.4867408731925473 	101126.5947710266
1.149899899899899 	299.8320416459587 	0.4866401081982528 	101126.5781851018
1.152402402402402 	299.8321355958946 	0.4863844365252564 	101126.6890410287
1.154904904904904 	299.8323190049961 	0.4859666117305413 	101126.9055184061
1.157407407407407 	299.8323566263591 	0.4857743541952413 	101126.9498500566
1.159909909909909 	299.83243218501 	0.4855424312682655 	101127.0390454854
1.162412412412412 	299.8325894079888 	0.4851771666032811 	101127.2246683906
1.164914914914914 	299.8326491987941 	0.4849499686602009 	101127.295235275
1.167417417417417 	299.8327314640904 	0.4847052772236861 	101127.3922979233
1.169919919919919 	299.8328666222868 	0.4843793153252609 	101127.5519196247
1.172422422422422 	299.8329336583189 	0.4841436970103929 	101127.6309822877
1.174924924924925 	299.8330287493947 	0.4838811525450642 	101127.7430592564
1.177427427427427 	299.8331452705025 	0.4835839264346335 	101127.8805544161
1.179929929929929 	299.8332174795156 	0.4833436397917664 	101127.965822122
1.182432432432432 	299.8333226189143 	0.4830695095748413 	101128.0899401606
1.184934934934934 	299.8334220908703 	0.4827965640524473 	101128.2072785168
1.187437437437437 	299.8335044255257 	0.4825479773218939 	101128.3043025743
1.189939939939939 	299.8336110839982 	0.4822732316794698 	101128.4302600574
1.192442442442442 	299.8336992260704 	0.4820159558203778 	101128.534490576
1.194944944944944 	299.8337936865768 	0.4817578344738033 	101128.6458177271
1.197447447447447 	299.8338927817347 	0.4814934530272799 	101128.7625334803
1.199949949949949 	299.8339815457583 	0.4812413869161021 	101128.8671172095
1.202452452452452 	299.8340805555842 	0.4809816026351277 	101128.9840261946
1.204954954954955 	299.8341718704953 	0.480728195512675 	101129.0919361223
1.207457457457457 	299.8342670144524 	0.480475796187579 	101129.2041400352
1.20995995995996 	299.8343619748311 	0.4802237689061735 	101129.3160008048
1.212462462462462 	299.8344549717827 	0.4799756105189696 	101129.4255702444
1.214964964964964 	299.8345509215941 	0.479728432080111 	101129.538537516
1.217467467467467 	299.8346438273406 	0.4794829410150724 	101129.6480545439
1.219969969969969 	299.834739050903 	0.4792433418366577 	101129.760534636
1.222472472472472 	299.8348326612783 	0.4789941556002483 	101129.8708552287
1.224974974974975 	299.8349275782705 	0.4787810494057773 	101129.9826306148
1.227477477477477 	299.8350219175254 	0.4784814205961627 	101130.0936201218
1.229979979979979 	299.8351168926924 	0.4784211090232048 	101130.2053893362
1.232482482482482 	299.8352117017473 	0.4775213575492503 	101130.3165549216
1.234984984984984 	299.8353100516877 	0.4788914420870298 	101130.4332284165
1.237487487487487 	299.8354011820643 	0.474577507730379 	101130.5372932289
1.239989989989989 	299.8354908173614 	0.4791330443673981 	101130.647965311
1.242492492492492 	299.835604529865 	0.4754490664096703 	101130.771136058
1.244994994994994 	299.8353704894838 	0.4720959425038206 	101130.8418237073
1.247497497497497 	299.5422408845393 	0.4801781237887963 	101130.9711102243
1.249999999999999 	304.4140078311021 	0.4758881699656193 	101131.0865322321
