-1.25 	300 	0.0002497037183272579 	101325
-1.247497497497497 	299.9931103086398 	0.01322984814892727 	101318.09181076
-1.244994994994995 	299.9887911781371 	0.03426508860455994 	101311.7426707998
-1.242492492492492 	299.9832507565791 	0.04912786316740188 	101305.1984352734
-1.23998998998999 	299.9780695342326 	0.06329032865107057 	101299.0766163723
-1.237487487487487 	299.9732953371689 	0.07718433223732861 	101293.4335728283
-1.234984984984985 	299.9690371452738 	0.08947922498787185 	101288.4007639669
-1.232482482482482 	299.9653347857136 	0.1002255115041812 	101284.0250034465
-1.22997997997998 	299.9622603010838 	0.1091323374232997 	101280.3913622922
-1.227477477477477 	299.9599494467793 	0.1158491761294019 	101277.6602955629
-1.224974974974975 	299.9583651107029 	0.1203705220951228 	101275.7878132408
-1.222472472472472 	299.9575005198554 	0.1228166774467042 	101274.7659676319
-1.21996996996997 	299.9574209278906 	0.1230481056357446 	101274.6719128811
-1.217467467467467 	299.9581386547521 	0.1209704796994314 	101275.520048692
-1.214964964964965 	299.9596541098147 	0.1166007258811725 	101277.3109197832
-1.212462462462462 	299.9619581140719 	0.1098974452448317 	101280.033725786
-1.20995995995996 	299.9649973778917 	0.1011163821831567 	101283.6255520328
-1.207457457457457 	299.9686677734973 	0.09060536461473696 	101287.9634201304
-1.204954954954955 	299.9728464454386 	0.07854632094588597 	101292.9021536269
-1.202452452452452 	299.9775011069013 	0.06506969006991802 	101298.4036700694
-1.19994994994995 	299.9825874306297 	0.05032678961523955 	101304.4156642829
-1.197447447447447 	299.9879872378243 	0.03466538492078411 	101310.7984517206
-1.194944944944945 	299.9935848927505 	0.01847457125076691 	101317.4154397571
-1.192442442442442 	299.9992727435296 	0.008164999231972862 	101324.1393955204
-1.18993993993994 	300.0049777034861 	0.01447118154955297 	101330.8838654985
-1.187437437437437 	300.0106074899778 	0.03068941989970702 	101337.5398162444
-1.184934934934935 	300.0160685542896 	0.04647864671709215 	101343.9965812523
-1.182432432432432 	300.0212727697809 	0.0615220514480531 	101350.1499629061
-1.17992992992993 	300.0260968907155 	0.07546858221221538 	101355.8542029525
-1.177427427427427 	300.0304236719742 	0.08797319960755959 	101360.9705376766
-1.174924924924925 	300.0341721078623 	0.09879068327062865 	101365.4031827619
-1.172422422422422 	300.0372738675804 	0.1077888131648942 	101369.071211109
-1.16991991991992 	300.0396877708598 	0.114805151393914 	101371.9259036497
-1.167417417417417 	300.0414033089007 	0.1197486331137985 	101373.9547887635
-1.164914914914915 	300.0423844168477 	0.1225119688504221 	101375.1150996072
-1.162412412412412 	300.0425752233634 	0.12300722388249 	101375.3407840987
-1.15990990990991 	300.0419520044146 	0.1212167033659183 	101374.6038166768
-1.157407407407407 	300.0405206789802 	0.1170999776695968 	101372.9112617936
-1.154904904904904 	300.0383129080471 	0.1107448012936385 	101370.3005202214
-1.152402402402403 	300.0353955471148 	0.1023002015158113 	101366.8506132483
-1.1498998998999 	300.0318394474335 	0.0920099748208093 	101362.6455030891
-1.147397397397397 	300.0277146339764 	0.08014093031928615 	101357.7680172256
-1.144894894894895 	300.0230978963697 	0.06679870306215759 	101352.3090265989
-1.142392392392392 	300.0180649068765 	0.05221252320367484 	101346.358107429
-1.13988988988989 	300.012704978372 	0.03667467921650464 	101340.0208289369
-1.137387387387387 	300.0071291790607 	0.02051170754793302 	101333.4286439822
-1.134884884884885 	300.0014356294375 	0.007779816902087977 	101326.6975338981
-1.132382382382382 	299.9957116768896 	0.01243538567430779 	101319.9307942884
-1.12987987987988 	299.9900342551233 	0.02886781180500895 	101313.2194034962
-1.127377377377377 	299.9844949834796 	0.04487585662179061 	101306.6715660846
-1.124874874874875 	299.9792236741697 	0.06008629671356286 	101300.440781738
-1.122372372372372 	299.9743606780605 	0.0741039197967993 	101294.6928407454
-1.11986986986987 	299.9699964270349 	0.08670928765881561 	101289.5345989708
-1.117367367367367 	299.9662062804985 	0.09770747735138635 	101285.0550733865
-1.114864864864865 	299.9630349876505 	0.1069368838107394 	101281.3070146116
-1.112362362362362 	299.9605132251015 	0.1142235199354765 	101278.326695351
-1.10985985985986 	299.9587010917868 	0.1193825020437468 	101276.1849876832
-1.107357357357357 	299.9576703288319 	0.1223533135011496 	101274.9667450852
-1.104854854854855 	299.9574403949341 	0.123002990006619 	101274.6949974066
-1.102352352352353 	299.9580289006443 	0.1213089453731831 	101275.3904201321
-1.09984984984985 	299.9594100199959 	0.1173324398889921 	101277.0225372955
-1.097347347347347 	299.9615342901882 	0.1111339521421975 	101279.5329215264
-1.094844844844845 	299.9643569954062 	0.1029672627782088 	101282.8688029633
-1.092342342342342 	299.9678330458244 	0.09298238082394875 	101286.9769478506
-1.08983983983984 	299.971878979084 	0.08129136896030884 	101291.7587555286
-1.087337337337337 	299.9764525930586 	0.06808668894318087 	101297.1644438688
-1.084834834834835 	299.9814631254355 	0.05357382594136313 	101303.0867768852
-1.082332332332332 	299.9867955395263 	0.03813355892569238 	101309.3898532668
-1.07982982982983 	299.992331817276 	0.02213271400251543 	101315.934227492
-1.077327327327327 	299.9979571613116 	0.007227684797983236 	101322.5841927529
-1.074824824824825 	300.0036291508749 	0.01056368774484444 	101329.2896229828
-1.072322322322323 	300.0092778616935 	0.02685635345325797 	101335.9678658529
-1.06981981981982 	300.0147756148369 	0.04275848018720648 	101342.4679385865
-1.067317317317317 	300.0200042424872 	0.05788279802354637 	101348.6501279024
-1.064814814814815 	300.0248622531148 	0.07192907001149998 	101354.3943590195
-1.062312312312312 	300.0292693710223 	0.08465381040367476 	101359.6056421482
-1.05980980980981 	300.0331584140097 	0.09587583842152669 	101364.2045089655
-1.057307307307307 	300.0364546612452 	0.1054179439723227 	101368.102498233
-1.054804804804805 	300.039089687703 	0.1130482861410044 	101371.2186678864
-1.052302302302302 	300.0410098140927 	0.1185659156964824 	101373.4894750086
-1.0497997997998 	300.0421572905778 	0.1218371187106357 	101374.8465463031
-1.047297297297297 	300.0425035468396 	0.1228319516656661 	101375.2560788847
-1.044794794794795 	300.0420546236605 	0.1215528122479089 	101374.7252156941
-1.042292292292292 	300.0408231527097 	0.1180017721383675 	101373.2689988946
-1.03978978978979 	300.0388330072969 	0.1122459338223542 	101370.9156027493
-1.037287287287287 	300.0361235835319 	0.1043667621843001 	101367.7115931115
-1.034784784784785 	300.032731067438 	0.09456229365179473 	101363.6998982501
-1.032282282282283 	300.0287303425508 	0.08304537842852851 	101358.9691043377
-1.02977977977978 	300.0242164328981 	0.06998076841413742 	101353.6316654491
-1.027277277277277 	300.0192706181074 	0.0556505689734778 	101347.7837402231
-1.024774774774775 	300.013975077383 	0.04031512815581639 	101341.5225413342
-1.022272272272272 	300.0084323620016 	0.02427872433960443 	101334.9693943256
-1.01976976976977 	300.002732827592 	0.007863851286837756 	101328.2311265063
-1.017267267267267 	299.9969883331791 	0.009661141508775553 	101321.4400421956
-1.014764764764765 	299.9912838261863 	0.02525959781732422 	101314.6965443172
-1.012262262262262 	299.9857224932345 	0.04133621019242802 	101308.1225780304
-1.00975975975976 	299.980428716477 	0.05663075821832147 	101301.865178516
-1.007257257257257 	299.9755100077379 	0.07083890149994629 	101296.0513304131
-1.004754754754755 	299.9710363871699 	0.08377055569414533 	101290.763784403
-1.002252252252252 	299.9670920584133 	0.09520612603713144 	101286.1019830892
-0.9997497497497498 	299.9637403873849 	0.1049119146768274 	101282.1407360753
-0.9972472472472473 	299.961055179547 	0.1126358146468279 	101278.9672420499
-0.9947447447447449 	299.9591090743061 	0.1182038635879791 	101276.6672133575
-0.9922422422422421 	299.9579453545833 	0.1215744500068088 	101275.2918202485
-0.9897397397397399 	299.9575594221088 	0.1226715968365407 	101274.8356989477
-0.9872372372372376 	299.9579689044155 	0.1215160787550966 	101275.3195852198
-0.9847347347347346 	299.9591569767927 	0.1180913227397143 	101276.7235541778
-0.9822322322322323 	299.9611044580245 	0.1124346074837456 	101279.0250136674
-0.9797297297297296 	299.963767964565 	0.1047470099043044 	101282.1727239683
-0.9772272272272275 	299.9670879607146 	0.09516260926189518 	101286.0963983672
-0.9747247247247248 	299.9709881353563 	0.08386653190236261 	101290.705923535
-0.9722222222222224 	299.9754245760508 	0.071036852303914 	101295.9494258197
-0.9697197197197196 	299.9803133742814 	0.05686957614466741 	101301.7278293187
-0.9672172172172175 	299.9855634669158 	0.04167801462532029 	101307.933529476
-0.9647147147147147 	299.9910571662646 	0.02580575812050009 	101314.4274829904
-0.9622122122122124 	299.9966693682484 	0.009579978571847801 	101321.0618622275
-0.9597097097097099 	300.0023246236988 	0.009284055728952391 	101327.747430798
-0.9572072072072073 	300.0079427330637 	0.02295417376769054 	101334.3894267781
-0.9547047047047047 	300.013423594087 	0.03882373249067882 	101340.8694568247
-0.9522022022022023 	300.0186768333864 	0.05403601906094018 	101347.0806471502
-0.9496996996996998 	300.0236095731265 	0.06830896346400056 	101352.9131898832
-0.9471971971971973 	300.0281402048331 	0.08140791380118589 	101358.2704695552
-0.9446946946946947 	300.0321784977932 	0.09305639515279573 	101363.0457749107
-0.9421921921921923 	300.0356275537757 	0.1030448268221813 	101367.1244456589
-0.93968968968969 	300.0384172893581 	0.1111230849591172 	101370.4235281532
-0.9371871871871872 	300.0405032034502 	0.1170932374854785 	101372.8903915942
-0.9346846846846848 	300.0418338114466 	0.1209028874255821 	101374.4640369521
-0.9321821821821823 	300.0423873264076 	0.1224769350236058 	101375.1186810311
-0.9296796796796799 	300.0421503096011 	0.1217989877790272 	101374.838410301
-0.9271771771771771 	300.0411191244871 	0.1188508769870706 	101373.619020053
-0.9246746746746748 	300.0393175186084 	0.1136413422417345 	101371.4885970014
-0.9221721721721724 	300.0367899564036 	0.1063075961567862 	101368.4996513755
-0.9196696696696698 	300.0335660654473 	0.09700951316944702 	101364.687328415
-0.9171671671671672 	300.0297211249757 	0.08592747307903863 	101360.1407335709
-0.9146646646646649 	300.0253276482144 	0.07321044273865474 	101354.9456312701
-0.9121621621621623 	300.020460645403 	0.05909380293271461 	101349.1908542804
-0.9096596596596597 	300.01521140806 	0.04389023097140635 	101342.9843528693
-0.9071571571571573 	300.0096972614792 	0.02792198231556507 	101336.4648997904
-0.9046546546546547 	300.0040109323006 	0.01156819972287426 	101329.7421895814
-0.9021521521521524 	299.9982935427168 	0.009020704171911503 	101322.9830549482
-0.8996496496496498 	299.9926064651833 	0.02144280614649047 	101316.2600973469
-0.8971471471471473 	299.9870262120706 	0.03756317317138213 	101309.6637055437
-0.894644644644645 	299.9816680340946 	0.05305572387908873 	101303.330103058
-0.892142142142142 	299.9766405961906 	0.06756732036259548 	101297.387701481
-0.8896396396396397 	299.9720379088273 	0.08084742599255879 	101291.9475475443
-0.8871371371371374 	299.9679655799757 	0.09265958467314526 	101287.1344302091
-0.8846346346346349 	299.9644865430105 	0.1027312518810037 	101283.0226366393
-0.8821321321321324 	299.961669088597 	0.1108624029243207 	101279.6928152818
-0.8796296296296297 	299.9595738883901 	0.1168855490224513 	101277.2166035198
-0.8771271271271271 	299.9582398373597 	0.1207271552788452 	101275.6398920849
-0.8746246246246248 	299.9576825493977 	0.1223214080852094 	101274.9812582334
-0.8721221221221224 	299.957925098286 	0.1216396783090419 	101275.2678772451
-0.8696196196196196 	299.9589438166961 	0.1186920160963583 	101276.4716917719
-0.8671171171171175 	299.9607171192033 	0.1135440081230162 	101278.5673098405
-0.8646146146146148 	299.9632072262903 	0.1063527691378137 	101281.5100886013
-0.8621121121121121 	299.966359384644 	0.09724752353971614 	101285.2353811799
-0.8596096096096097 	299.9701198399426 	0.08635923518406761 	101289.6797388285
-0.857107107107107 	299.9744491218635 	0.07385649341721216 	101294.7965318645
-0.8546046046046049 	299.9792509836348 	0.05995766554390709 	101300.4721361765
-0.8521021021021022 	299.9844252617221 	0.0449800004852508 	101306.5881717005
-0.8495995995995997 	299.9898520360737 	0.02931462249972466 	101313.0029519516
-0.8470970970970974 	299.9954053247101 	0.0132559741607582 	101319.5676164662
-0.8445945945945946 	300.001005174458 	0.008196951821941476 	101326.1875961353
-0.8420920920920922 	300.0065899821308 	0.01906874192680394 	101332.7901575385
-0.8395895895895897 	300.0120775662398 	0.0349710901717844 	101339.2780581997
-0.8370870870870872 	300.0173751993512 	0.05028685574374328 	101345.5416774855
-0.8345845845845846 	300.0223838981415 	0.06476314989124828 	101351.4639590635
-0.8320820820820823 	300.0270108513559 	0.07812996783978983 	101356.9350660023
-0.8295795795795798 	300.0311622019132 	0.0901118831088643 	101361.8440299032
-0.8270770770770772 	300.0347503238355 	0.1005077504537599 	101366.0871065475
-0.8245745745745746 	300.0377064735611 	0.1090368749371102 	101369.5829702676
-0.8220720720720721 	300.0399716779709 	0.1155413574918328 	101372.2618393015
-0.8195695695695699 	300.0414876313968 	0.1198949385204651 	101374.054654296
-0.817067067067067 	300.0422261386786 	0.1220272109509231 	101374.9280996076
-0.8145645645645651 	300.0421768344731 	0.1219145065980073 	101374.8697984372
-0.8120620620620621 	300.0413456066292 	0.1195206837166471 	101373.8868719832
-0.8095595595595597 	300.0397522361089 	0.1149038473290111 	101372.002706429
-0.8070570570570572 	300.0374188457314 	0.1081327890988977 	101369.243361206
-0.8045545545545546 	300.0343709147766 	0.09934891959129664 	101365.6391160109
-0.8020520520520523 	300.030676699198 	0.08869185336441886 	101361.2707120319
-0.7995495495495494 	300.0264068943526 	0.07631266640849775 	101356.2218201996
-0.7970470470470474 	300.0216425299184 	0.06250576754769835 	101350.5883489498
-0.7945445445445446 	300.0164782062112 	0.04754584753620163 	101344.4821696164
-0.7920420420420423 	300.0110188314321 	0.03177806298096023 	101338.0274238472
-0.7895395395395397 	300.0053694369739 	0.01551824647948722 	101331.3483016833
-0.7870370370370371 	299.9996602596696 	0.00754420307163461 	101324.5988092556
-0.7845345345345348 	299.9939477428136 	0.01756506468621123 	101317.8457023469
-0.7820320320320323 	299.9883169585271 	0.03381743797437785 	101311.1894962916
-0.7795295295295296 	299.982891055092 	0.0494944241793721 	101304.7757936151
-0.7770270270270272 	299.9777798498128 	0.06424519278259276 	101298.7343030271
-0.7745245245245247 	299.9730838653252 	0.07783409348739925 	101293.1838422879
-0.7720220220220222 	299.9688983800323 	0.08997893995977228 	101288.2369488176
-0.7695195195195199 	299.9652833775885 	0.1004325774537327 	101283.9644162905
-0.767017017017017 	299.9623204092008 	0.1089688754231716 	101280.4626297257
-0.7645145145145147 	299.960078832731 	0.1154184841387211 	101277.8134052588
-0.7620120120120122 	299.958586940585 	0.1197362832687137 	101276.05016229
-0.7595095095095097 	299.9578585359409 	0.1218167242396224 	101275.189290353
-0.7570070070070072 	299.9579135048469 	0.1216718397533988 	101275.2542205754
-0.7545045045045048 	299.9587393175483 	0.119261819757671 	101276.2300947173
-0.7520020020020022 	299.9603370125868 	0.1146091847026626 	101278.1181516128
-0.7494994994994997 	299.9626788212851 	0.1078967497127379 	101280.8856588888
-0.7469969969969972 	299.9656955984977 	0.09917405491283129 	101284.4509391665
-0.7444944944944945 	299.9693284418346 	0.088669656462699 	101288.7444348858
-0.7419919919919924 	299.9735215535424 	0.07657310803942979 	101293.7002795217
-0.7394894894894897 	299.9781812181279 	0.06304715589470668 	101299.2077379825
-0.7369869869869872 	299.9832302194785 	0.04844617720598855 	101305.1756330815
-0.7344844844844846 	299.9885689372213 	0.0330226773195706 	101311.4862708238
-0.7319819819819822 	299.9940654018168 	0.01711084190557602 	101317.9836683066
-0.7294794794794797 	299.9996378905375 	0.006230429895329234 	101324.5712577685
-0.7269769769769773 	300.005206398178 	0.01509234491627514 	101331.1544473854
-0.7244744744744747 	300.0107043632153 	0.03099826158056269 	101337.6545444817
-0.721971971971972 	300.0160456935373 	0.04643397168458695 	101343.9697648208
-0.7194694694694695 	300.0211261814563 	0.06113177769179251 	101349.976847064
-0.7169669669669674 	300.0258503924416 	0.07477393693993313 	101355.5629140687
-0.7144644644644647 	300.0301188507893 	0.08710299824377886 	101360.6102969036
-0.711961961961962 	300.0338375064641 	0.09785538025225728 	101365.0076995372
-0.7094594594594597 	300.0369368896806 	0.1068100437288563 	101368.6729217673
-0.7069569569569573 	300.0393641436239 	0.1138048514081735 	101371.5433951034
-0.7044544544544545 	300.0410620953762 	0.1186928208721115 	101373.5514436424
-0.7019519519519523 	300.0420020125133 	0.1214071584447692 	101374.6630754941
-0.6994494494494495 	300.0421655973513 	0.1218757909255964 	101374.8565519883
-0.6969469469469471 	300.0415483426025 	0.1200973635956365 	101374.1266418336
-0.6944444444444446 	300.0401624885988 	0.116093750275631 	101372.4878731709
-0.6919419419419421 	300.0380233611405 	0.109874636995325 	101369.9582702662
-0.6894394394394396 	300.0351366094396 	0.1015540655550004 	101366.5446074832
-0.6869369369369374 	300.0315592620187 	0.09121772981480158 	101362.3143734814
-0.6844344344344344 	300.0273664833901 	0.0790833346380307 	101357.3565257749
-0.6819319319319321 	300.0226652686326 	0.06550067808327713 	101351.7976742472
-0.6794294294294296 	300.0175768687934 	0.05076973670740869 	101345.7812209119
-0.6769269269269272 	300.0122098756088 	0.03524569375157604 	101339.4356366509
-0.6744244244244245 	300.006633194675 	0.01916102591234191 	101332.842423146
-0.6719219219219222 	300.0009586412161 	0.005235530589462658 	101326.1337917672
-0.6694194194194195 	299.9952336813315 	0.01384370485122394 	101319.3658981361
-0.6669169169169172 	299.989548249236 	0.03024962025455876 	101312.6450316938
-0.6644144144144146 	299.9840501360239 	0.04612734108988498 	101306.1458855059
-0.661911911911912 	299.9788743123568 	0.06109965614822919 	101300.0279827181
-0.6594094094094097 	299.9741163418244 	0.07484953667829182 	101294.4042001688
-0.656906906906907 	299.9698449877849 	0.087194111195218 	101289.3557709468
-0.6544044044044046 	299.9661178890447 	0.09798658533138782 	101284.9507558404
-0.6519019019019021 	299.9629897196755 	0.1070231967733948 	101281.2536804802
-0.6493993993993996 	299.9605408198036 	0.1140951937281812 	101278.3594673951
-0.6468968968968971 	299.9588479967047 	0.1189542875346903 	101276.358737513
-0.6443943943943946 	299.9579680663375 	0.1214645805292155 	101275.3187738961
-0.6418918918918921 	299.9579185275429 	0.1216186326618152 	101275.2602085462
-0.6393893893893897 	299.9586672206331 	0.1194900128591679 	101276.1449308331
-0.6368868868868871 	299.960130400924 	0.1152670567200606 	101277.8740392788
-0.6343843843843846 	299.9622485260554 	0.1091224925262351 	101280.3771899234
-0.6318818818818821 	299.9649777708717 	0.1012058511766289 	101283.6026357245
-0.6293793793793795 	299.9683168949248 	0.0915454418396075 	101287.5489750154
-0.6268768768768773 	299.9722737611605 	0.08009349795104453 	101292.2255314952
-0.6243743743743745 	299.9768339080075 	0.06691981862675352 	101297.6155792132
-0.6218718718718721 	299.9819030598279 	0.05223118116846333 	101303.6072698365
-0.6193693693693696 	299.9873535386629 	0.03649707721497198 	101310.0496922804
-0.6168668668668671 	299.9929863495423 	0.02026965352682212 	101316.7081453047
-0.6143643643643645 	299.998612462639 	0.0040371199668149 	101323.3590724869
-0.6118618618618621 	300.004071295346 	0.01177575819462592 	101329.8125608608
-0.6093593593593596 	300.009285812552 	0.02685820498599057 	101335.9775012317
-0.6068568568568571 	300.014271030664 	0.04132162664006046 	101341.8715832833
-0.6043543543543546 	300.0190847128924 	0.05528160841086541 	101347.5630947666
-0.6018518518518521 	300.0237668755391 	0.06883639448530481 	101353.0993180538
-0.5993493493493496 	300.0282926196518 	0.08190621584198338 	101358.450800796
-0.5968468468468471 	300.032551960026 	0.09417519832056294 	101363.4874896192
-0.5943443443443446 	300.0363589910756 	0.1051152857340598 	101367.9894824329
-0.591841841841842 	300.039483677618 	0.1140752622965388 	101371.6847176285
-0.5893393393393397 	300.0416962127534 	0.120405700564184 	101374.3013529331
-0.5868368368368371 	300.0428127866275 	0.1235884561732601 	101375.6219185541
-0.5843343343343346 	300.0427331803425 	0.1233427591534186 	101375.5277726512
-0.5818318318318321 	300.0414625029708 	0.1196879058343357 	101374.0252122919
-0.5793293293293297 	300.0391155943211 	0.1129523516898014 	101371.2499396048
-0.5768268268268271 	300.0359003718902 	0.1037277127337051 	101367.447816808
-0.5743243243243245 	300.0320858028063 	0.09277840437793337 	101362.9370226938
-0.5718218218218221 	300.0279615789941 	0.0809276103797609 	101358.0601905304
-0.5693193193193196 	300.0237975024398 	0.06894381300646678 	101353.1363822209
-0.5668168168168171 	300.0198119295258 	0.05745393151182369 	101348.4237895076
-0.5643143143143147 	300.0161578460278 	0.04690264316087713 	101344.103279347
-0.5618118118118121 	300.0129255910192 	0.03755576745922419 	101340.2816301414
-0.5593093093093094 	300.0101532089618 	0.02952799629549577 	101337.0037853341
-0.5568068068068072 	300.0078389571069 	0.0228184382554835 	101334.2676497502
-0.5543043043043046 	300.0059536342176 	0.01734601801421223 	101332.0386707842
-0.551801801801802 	300.0044514413711 	0.0129808110857412 	101330.2626806585
-0.5492992992992995 	300.0032787251341 	0.009569376414357586 	101328.8762322241
-0.5467967967967969 	300.0023804389677 	0.006953564332300231 	101327.8142373436
-0.5442942942942947 	300.001704486697 	0.004983225589852138 	101327.0150998239
-0.5417917917917919 	300.0012042871426 	0.003523777975769508 	101326.4237462511
-0.5392892892892895 	300.0008399688281 	0.002459792886902242 	101325.9930372602
-0.536786786786787 	300.0005785937132 	0.001695748788884103 	101325.6840314226
-0.5342842842842846 	300.0003937569502 	0.001154952969263869 	101325.4655117911
-0.531781781781782 	300.0002648383879 	0.0007774300851162525 	101325.3131004189
-0.5292792792792794 	300.0001761064177 	0.0005173639038524031 	101325.2081987985
-0.526776776776777 	300.0001158095785 	0.0003404884719007322 	101325.1369140336
-0.5242742742742745 	300.0000753380208 	0.0002216691412627423 	101325.0890671964
-0.521771771771772 	300.0000484954729 	0.0001427979272430453 	101325.0573330144
-0.5192692692692695 	300.0000308968631 	9.10463506552202e-05 	101325.0365274224
-0.516766766766767 	300.0000194876787 	5.746866532897231e-05 	101325.0230390322
-0.5142642642642645 	300.0000121711769 	3.591909965208322e-05 	101325.0143892544
-0.511761761761762 	300.0000075288058 	2.223507144738388e-05 	101325.0089008972
-0.5092592592592596 	300.0000046134994 	1.363508308794531e-05 	101325.0054542924
-0.506756756756757 	300.0000028010471 	8.284518300415408e-06 	101325.003311581
-0.5042542542542544 	300.0000016853822 	4.988216361168163e-06 	101325.001992525
-0.5017517517517521 	300.0000010051473 	2.976931709319474e-06 	101325.0011882801
-0.4992492492492494 	300.0000005942592 	1.761197351946971e-06 	101325.0007025095
-0.496746746746747 	300.000000348303 	1.033082401173255e-06 	101325.0004117861
-0.4942442442442445 	300.0000002024013 	6.009117866665593e-07 	101325.0002393547
-0.4917417417417421 	300.0000001166518 	3.466632851512263e-07 	101325.0001379825
-0.4892392392392395 	300.0000000666961 	1.983688676014563e-07 	101325.0000788998
-0.486736736736737 	300.0000000378189 	1.126141650541049e-07 	101325.0000447558
-0.4842342342342345 	300.0000000212301 	6.342769871690536e-08 	101325.0000251876
-0.481731731731732 	300.0000000119422 	3.545491798518615e-08 	101325.0000140642
-0.4792292292292296 	300.0000000066231 	1.966510208995483e-08 	101325.000007792
-0.4767267267267268 	300.0000000035785 	1.08320245993903e-08 	101325.0000042832
-0.4742242242242246 	300.0000000019772 	5.917650605473305e-09 	101325.0000023352
-0.471721721721722 	300.0000000010248 	3.215769245471082e-09 	101325.000001262
-0.4692192192192195 	300.0000000005489 	1.730760999712243e-09 	101325.0000006752
-0.4667167167167169 	300.0000000002091 	9.296531313050264e-10 	101325.0000003564
-0.4642142142142145 	300.0000000001585 	4.921306935960367e-10 	101325.0000001846
-0.461711711711712 	300.0000000001018 	2.625021608362874e-10 	101325.0000000927
-0.4592092092092094 	300.0000000000562 	1.365543779131537e-10 	101325.0000000438
-0.456706706706707 	300.0000000000778 	7.40154786124259e-11 	101325.000000018
-0.4542042042042045 	299.9999999999478 	3.810746918702897e-11 	101325.0000000046
-0.451701701701702 	299.9999999999567 	2.179993287657859e-11 	101324.9999999977
-0.4491991991991995 	299.9999999999523 	1.052743634091487e-11 	101324.9999999942
-0.4466966966966969 	299.9999999999429 	8.332278053762043e-12 	101324.9999999923
-0.4441941941941945 	299.9999999999928 	2.990392845347626e-12 	101324.9999999915
-0.441691691691692 	299.9999999999509 	5.505625739569609e-12 	101324.9999999911
-0.4391891891891895 	299.999999999991 	1.422218914242827e-12 	101324.9999999908
-0.436686686686687 	299.9999999999683 	5.602393210871939e-12 	101324.9999999909
-0.4341841841841846 	299.9999999999989 	2.437910614572041e-12 	101324.9999999909
-0.431681681681682 	299.9999999999409 	5.671951428034446e-12 	101324.9999999908
-0.4291791791791794 	299.9999999999253 	1.127125141483277e-12 	101324.999999991
-0.426676676676677 	299.9999999999012 	4.566759003470874e-12 	101324.999999991
-0.4241741741741744 	299.9999999999624 	1.244710337543425e-12 	101324.9999999908
-0.421671671671672 	300.0000000000085 	3.207169181215055e-12 	101324.9999999906
-0.4191691691691694 	300.0000000000536 	7.586555521951776e-13 	101324.9999999905
-0.4166666666666669 	300.0000000000621 	2.737063113823007e-12 	101324.9999999902
-0.4141641641641645 	299.9999999999304 	1.198931428123368e-12 	101324.9999999901
-0.411661661661662 	300.000000000002 	2.902273673626526e-12 	101324.9999999899
-0.4091591591591594 	300.0000000000011 	2.41736252240954e-12 	101324.9999999901
-0.406656656656657 	299.999999999937 	4.728342607485009e-12 	101324.9999999905
-0.4041541541541545 	300.0000000000225 	2.895924339022445e-12 	101324.9999999904
-0.401651651651652 	299.9999999999192 	5.950247693830049e-12 	101324.9999999906
-0.3991491491491494 	300.0000000000044 	1.918088669699751e-12 	101324.9999999908
-0.396646646646647 	299.9999999999529 	6.745603908287126e-12 	101324.9999999911
-0.3941441441441444 	299.9999999999825 	1.539344304867431e-12 	101324.9999999911
-0.3916416416416419 	299.9999999999301 	5.023540443869016e-12 	101324.9999999913
-0.3891391391391395 	299.999999999956 	1.334979284989263e-12 	101324.9999999913
-0.3866366366366368 	299.9999999999551 	2.884150386727365e-12 	101324.9999999911
-0.3841341341341344 	299.9999999999945 	1.008439973951718e-12 	101324.999999991
-0.381631631631632 	299.9999999999432 	1.732729330016173e-12 	101324.9999999907
-0.3791291291291294 	300.0000000000044 	5.253897268738741e-13 	101324.9999999903
-0.3766266266266269 	300.0000000000214 	1.799323134782245e-13 	101324.99999999
-0.3741241241241244 	300.0000000000238 	9.989152246648396e-13 	101324.9999999902
-0.371621621621622 	300.0000000000148 	1.094851025143974e-12 	101324.9999999902
-0.3691191191191194 	300.0000000000055 	2.43732841923165e-12 	101324.9999999901
-0.366616616616617 	300.0000000000093 	1.528704855858069e-12 	101324.9999999901
-0.3641141141141143 	299.9999999999584 	2.806037241794397e-12 	101324.9999999901
-0.3616116116116119 	299.9999999999425 	1.043100279738476e-12 	101324.9999999902
-0.3591091091091095 	299.9999999999832 	2.107666564479181e-12 	101324.9999999903
-0.356606606606607 	299.9999999999714 	1.66072562558342e-12 	101324.9999999906
-0.3541041041041044 	299.9999999999907 	1.991077870600956e-12 	101324.9999999907
-0.3516016016016019 	300.0000000000052 	3.092285613310475e-12 	101324.999999991
-0.3490990990990994 	299.9999999999911 	2.074305715641284e-12 	101324.9999999912
-0.346596596596597 	300.0000000000458 	4.251916082353665e-12 	101324.9999999911
-0.3440940940940944 	300.0000000000546 	1.532440035724376e-12 	101324.9999999911
-0.3415915915915919 	300.0000000000192 	3.82019849027541e-12 	101324.9999999911
-0.3390890890890895 	299.9999999999799 	1.603922685138631e-12 	101324.9999999912
-0.3365865865865869 	300.000000000019 	2.96256939935181e-12 	101324.9999999913
-0.3340840840840844 	300.0000000000019 	1.610496918537045e-12 	101324.9999999913
-0.3315815815815819 	300.0000000000216 	2.619693753719e-12 	101324.9999999911
-0.3290790790790794 	300.00000000001 	1.856051937112494e-12 	101324.999999991
-0.3265765765765769 	299.9999999999177 	3.337308137269109e-12 	101324.9999999909
-0.3240740740740744 	299.999999999996 	1.789618822601983e-12 	101324.9999999909
-0.3215715715715718 	300.0000000000065 	4.075678024659684e-12 	101324.9999999908
-0.3190690690690695 	299.9999999999284 	1.520116006076185e-12 	101324.999999991
-0.3165665665665668 	299.9999999999927 	3.958029926821424e-12 	101324.9999999909
-0.3140640640640644 	300.0000000000065 	1.429876137751952e-12 	101324.999999991
-0.311561561561562 	299.9999999999219 	5.110300012009967e-12 	101324.9999999907
-0.3090590590590593 	299.9999999999941 	7.774698027754634e-13 	101324.9999999904
-0.3065565565565568 	300.0000000000042 	6.243848073444418e-12 	101324.9999999903
-0.3040540540540545 	300.0000000000008 	1.698202416619545e-12 	101324.9999999906
-0.3015515515515518 	300.0000000000342 	5.155270927353583e-12 	101324.9999999905
-0.2990490490490494 	299.999999999941 	9.131057363045912e-13 	101324.9999999905
-0.2965465465465469 	299.9999999999842 	3.099427016004537e-12 	101324.9999999906
-0.2940440440440444 	300.0000000000017 	1.456064966607763e-12 	101324.9999999905
-0.2915415415415418 	300.0000000000031 	2.339692367579716e-12 	101324.9999999904
-0.2890390390390395 	300.0000000000037 	2.801681156375388e-12 	101324.9999999904
-0.2865365365365368 	299.9999999999795 	1.282417448174843e-12 	101324.9999999905
-0.2840340340340343 	299.9999999999993 	3.391767378271746e-12 	101324.9999999908
-0.2815315315315318 	299.9999999999248 	1.3733925316268e-12 	101324.999999991
-0.2790290290290295 	299.9999999999576 	3.445269564349992e-12 	101324.999999991
-0.2765265265265269 	300.000000000007 	1.855049854840146e-12 	101324.9999999913
-0.2740240240240244 	300.0000000000299 	3.430617344777735e-12 	101324.9999999915
-0.2715215215215219 	300.0000000000168 	3.82840898393223e-12 	101324.9999999916
-0.2690190190190194 	299.9999999999398 	3.625671749554273e-12 	101324.9999999917
-0.2665165165165169 	299.9999999999994 	4.134491213227933e-12 	101324.9999999917
-0.2640140140140144 	299.9999999999664 	2.865661167553965e-12 	101324.9999999914
-0.2615115115115119 	300.0000000000028 	4.652534257301872e-12 	101324.9999999913
-0.2590090090090094 	299.9999999999278 	2.26853179834738e-12 	101324.9999999914
-0.2565065065065068 	299.9999999999917 	2.63688186904185e-12 	101324.9999999913
-0.2540040040040044 	299.9999999999938 	3.031549524244871e-12 	101324.9999999912
-0.2515015015015019 	300.0000000000391 	2.609980536788493e-12 	101324.9999999912
-0.2489989989989994 	300.000000000045 	4.743762399562627e-12 	101324.9999999911
-0.2464964964964968 	299.9999999999895 	2.42484432836056e-12 	101324.999999991
-0.2439939939939944 	299.9999999999947 	6.828765218192411e-12 	101324.9999999911
-0.2414914914914919 	299.9999999999669 	2.879751144895339e-12 	101324.9999999911
-0.2389889889889893 	300.0000000000001 	7.899679959940192e-12 	101324.9999999908
-0.2364864864864869 	300.0000000000213 	4.156198823166065e-12 	101324.9999999906
-0.2339839839839843 	299.9999999999278 	8.219978920955061e-12 	101324.9999999906
-0.2314814814814819 	299.9999999999782 	3.296948347637818e-12 	101324.9999999906
-0.2289789789789792 	299.9999999999092 	6.006606753725107e-12 	101324.9999999907
-0.2264764764764769 	299.9999999999436 	2.819443453498324e-12 	101324.9999999908
-0.2239739739739743 	299.999999999957 	4.373365371948977e-12 	101324.9999999907
-0.2214714714714718 	299.999999999935 	3.315595956670148e-12 	101324.9999999907
-0.2189689689689693 	299.9999999999646 	2.824629324010095e-12 	101324.9999999907
-0.2164664664664669 	299.9999999999823 	3.86130449215984e-12 	101324.9999999909
-0.2139639639639643 	299.9999999999279 	1.88755201976871e-12 	101324.999999991
-0.2114614614614618 	299.9999999999666 	2.231711180171201e-12 	101324.999999991
-0.2089589589589593 	299.9999999999883 	2.219640388733045e-12 	101324.9999999909
-0.2064564564564568 	299.9999999999867 	1.610272057202722e-12 	101324.9999999908
-0.2039539539539543 	299.9999999999026 	3.243979913425662e-12 	101324.9999999908
-0.2014514514514518 	299.9999999999403 	2.046170905210779e-12 	101324.9999999909
-0.1989489489489494 	299.9999999999698 	5.239407449513363e-12 	101324.9999999906
-0.1964464464464468 	299.999999999996 	1.814447049527724e-12 	101324.9999999905
-0.1939439439439443 	299.9999999999821 	5.051855599656259e-12 	101324.9999999907
-0.1914414414414418 	299.9999999999128 	2.453383919846031e-12 	101324.9999999907
-0.1889389389389393 	300.0000000000071 	3.73681263110042e-12 	101324.9999999909
-0.1864364364364368 	300.0000000000436 	2.276821923361283e-12 	101324.9999999907
-0.1839339339339343 	299.9999999999715 	3.44042404591777e-12 	101324.9999999909
-0.1814314314314318 	299.9999999999926 	1.565998439730009e-12 	101324.9999999909
-0.1789289289289293 	299.9999999998932 	3.249329262614375e-12 	101324.9999999909
-0.1764264264264268 	299.9999999999748 	4.783303176458295e-13 	101324.9999999906
-0.1739239239239243 	299.9999999998913 	2.791328111957612e-12 	101324.9999999906
-0.1714214214214218 	299.9999999999842 	1.811445533046809e-12 	101324.9999999903
-0.1689189189189193 	299.9999999999478 	4.339948095108939e-12 	101324.9999999903
-0.1664164164164168 	299.9999999999982 	2.320336402928024e-12 	101324.9999999903
-0.1639139139139143 	299.9999999999828 	6.217093106177588e-12 	101324.9999999904
-0.1614114114114118 	300.0000000000252 	2.974081948891214e-12 	101324.9999999904
-0.1589089089089093 	299.9999999999949 	8.466240840327316e-12 	101324.9999999904
-0.1564064064064068 	299.9999999999818 	4.105130599788413e-12 	101324.9999999899
-0.1539039039039043 	299.9999999999869 	8.633789653969584e-12 	101324.9999999897
-0.1514014014014018 	300.0000000000235 	3.78581416276254e-12 	101324.9999999894
-0.1488988988988993 	299.9999999999806 	8.400916883097618e-12 	101324.9999999894
-0.1463963963963968 	300.0000000000002 	2.313424106017808e-12 	101324.9999999894
-0.1438938938938943 	299.9999999999487 	6.849557244505974e-12 	101324.9999999891
-0.1413913913913918 	299.9999999999204 	7.409081718182527e-13 	101324.9999999892
-0.1388888888888893 	299.9999999999741 	5.871098982736504e-12 	101324.9999999892
-0.1363863863863868 	299.9999999998839 	2.267065059872791e-12 	101324.9999999891
-0.1338838838838843 	299.9999999999088 	5.824610911645151e-12 	101324.9999999893
-0.1313813813813818 	299.9999999999943 	2.661863983447557e-12 	101324.9999999895
-0.1288788788788793 	299.9999999999553 	4.898253882982626e-12 	101324.9999999896
-0.1263763763763768 	299.9999999999655 	1.744833913069896e-12 	101324.9999999901
-0.1238738738738743 	299.9999999999218 	4.802710839520423e-12 	101324.9999999902
-0.1213713713713717 	299.9999999999815 	2.618112678239021e-13 	101324.9999999905
-0.1188688688688693 	300.0000000000051 	4.349111240567448e-12 	101324.9999999907
-0.1163663663663668 	299.9999999998988 	7.203954927231281e-13 	101324.9999999907
-0.1138638638638643 	299.9999999999855 	4.862815271128816e-12 	101324.9999999909
-0.1113613613613618 	299.9999999999831 	1.069324872760354e-12 	101324.9999999909
-0.1088588588588592 	299.9999999999731 	6.022036500251503e-12 	101324.9999999912
-0.1063563563563568 	299.9999999999517 	3.243674404101096e-13 	101324.9999999912
-0.1038538538538543 	299.9999999999706 	5.319938870673636e-12 	101324.9999999909
-0.1013513513513517 	300.0000000000129 	1.613142339143978e-12 	101324.9999999908
-0.09884884884884926 	299.9999999999457 	5.026688060818763e-12 	101324.9999999909
-0.09634634634634676 	299.9999999998865 	2.20886739274145e-12 	101324.9999999911
-0.09384384384384425 	299.9999999999231 	4.393034089202748e-12 	101324.9999999913
-0.09134134134134177 	300.0000000000246 	2.609682950675611e-12 	101324.9999999913
-0.08883883883883925 	300.0000000000099 	3.795676101080549e-12 	101324.999999991
-0.08633633633633674 	299.9999999999428 	2.39854559687037e-12 	101324.9999999913
-0.08383383383383426 	300.0000000000102 	1.920872024078913e-12 	101324.999999991
-0.08133133133133173 	299.9999999999671 	1.719175045397649e-12 	101324.9999999906
-0.07882882882882926 	299.9999999998728 	1.180891971254058e-12 	101324.9999999904
-0.07632632632632676 	299.9999999999594 	9.168205095660673e-13 	101324.9999999905
-0.07382382382382424 	299.9999999998918 	3.477088190189304e-13 	101324.9999999904
-0.07132132132132173 	300.0000000000101 	7.724758394896667e-14 	101324.9999999903
-0.06881881881881925 	299.9999999999586 	3.27165356031597e-13 	101324.9999999903
-0.06631631631631671 	299.9999999998871 	1.390593999485699e-13 	101324.9999999905
-0.06381381381381425 	299.9999999999519 	3.446912812210648e-13 	101324.9999999905
-0.06131131131131173 	299.9999999999528 	5.098963333978255e-13 	101324.9999999906
-0.05880880880880923 	299.9999999999157 	4.131753755909026e-13 	101324.9999999906
-0.05630630630630672 	299.9999999999632 	2.475032089168992e-13 	101324.9999999909
-0.05380380380380424 	300.0000000000137 	6.41731261371893e-13 	101324.9999999909
-0.05130130130130173 	300.0000000000134 	1.074593375200873e-12 	101324.9999999911
-0.04879879879879922 	299.999999999944 	1.996833085120386e-12 	101324.9999999913
-0.04629629629629672 	299.9999999999336 	1.877885751876733e-12 	101324.9999999916
-0.04379379379379422 	299.9999999999142 	1.813612145144841e-12 	101324.9999999916
-0.04129129129129173 	299.9999999999794 	1.270073519342421e-12 	101324.9999999917
-0.03878878878878922 	299.999999999982 	1.295333895588696e-12 	101324.9999999914
-0.03628628628628671 	299.9999999999775 	2.072894625881792e-13 	101324.9999999912
-0.03378378378378422 	299.9999999999242 	3.553578516815244e-13 	101324.9999999914
-0.03128128128128172 	299.9999999999655 	9.100386995441896e-13 	101324.9999999911
-0.02877877877877922 	299.9999999999627 	6.275073578545841e-13 	101324.999999991
-0.0262762762762767 	299.9999999998941 	5.366795178906219e-13 	101324.999999991
-0.02377377377377422 	300.0000000000188 	8.72380429157564e-13 	101324.9999999911
-0.0212712712712717 	299.9999999999012 	8.290052165384371e-13 	101324.9999999909
-0.01876876876876921 	299.9999999999707 	1.376650547590411e-12 	101324.999999991
-0.01626626626626671 	300.0000000000145 	5.389609338034615e-13 	101324.999999991
-0.0137637637637642 	299.9999999999606 	9.978709410470454e-13 	101324.9999999911
-0.0112612612612617 	300.0000000000163 	5.747820301975254e-13 	101324.9999999913
-0.008758758758759198 	299.9999999999969 	3.261595637475048e-13 	101324.9999999915
-0.006256256256256697 	299.9999999998826 	3.207604673151624e-13 	101324.9999999914
-0.003753753753754195 	299.9999999999533 	3.063857478731068e-13 	101324.9999999911
-0.001251251251251693 	299.9999999999216 	1.326974107246218e-13 	101324.999999991
0.00125125125125081 	299.9999999999558 	1.277994921228427e-13 	101324.9999999908
0.003753753753753312 	299.9999999999612 	4.667748729521034e-13 	101324.9999999906
0.006256256256255817 	299.999999999883 	4.931169263942777e-13 	101324.9999999906
0.008758758758758317 	299.9999999999921 	3.083465664220452e-13 	101324.9999999906
0.01126126126126082 	300.000000000009 	2.038697843319675e-13 	101324.9999999905
0.01376376376376332 	299.9999999999669 	1.204740540908422e-13 	101324.9999999905
0.01626626626626582 	300.0000000000094 	2.494863599934865e-13 	101324.9999999908
0.01876876876876833 	299.99999999995 	9.338214348245845e-14 	101324.9999999907
0.02127127127127083 	299.9999999999662 	9.297949268611372e-14 	101324.9999999908
0.02377377377377332 	299.9999999999943 	1.838331405720193e-13 	101324.9999999908
0.02627627627627583 	299.9999999999011 	4.111288433793168e-13 	101324.9999999907
0.02877877877877833 	300.0000000000053 	1.416766436680065e-12 	101324.9999999909
0.03128128128128083 	299.9999999999413 	1.112050038981734e-12 	101324.9999999909
0.03378378378378333 	299.9999999998978 	1.81156177140621e-12 	101324.9999999907
0.03628628628628584 	299.9999999999711 	1.599056315477066e-12 	101324.9999999909
0.03878878878878834 	299.999999999979 	1.243587222188342e-12 	101324.9999999909
0.04129129129129084 	299.9999999999762 	5.919607032695719e-13 	101324.9999999908
0.04379379379379333 	299.9999999999386 	3.582917731505586e-13 	101324.999999991
0.04629629629629585 	299.9999999998839 	4.824299186054448e-13 	101324.9999999911
0.04879879879879834 	299.9999999999523 	1.109775558741274e-12 	101324.999999991
0.05130130130130085 	300.0000000000169 	1.109912607739564e-12 	101324.9999999909
0.05380380380380335 	300.0000000000181 	1.184850692240304e-12 	101324.9999999909
0.05630630630630584 	299.9999999999881 	9.674599765617994e-13 	101324.9999999909
0.05880880880880836 	299.9999999999175 	1.15893013643149e-12 	101324.9999999908
0.06131131131131085 	299.9999999999694 	1.255253100044219e-12 	101324.9999999907
0.06381381381381336 	299.9999999999634 	1.574846980412825e-12 	101324.9999999907
0.06631631631631586 	299.9999999998844 	1.25463233576237e-12 	101324.9999999905
0.06881881881881835 	299.9999999999427 	1.236524331367777e-12 	101324.9999999905
0.07132132132132088 	299.9999999999856 	3.800747795691283e-13 	101324.9999999903
0.07382382382382337 	299.999999999897 	4.680787239370803e-13 	101324.9999999902
0.07632632632632587 	299.9999999999705 	2.047711182975743e-13 	101324.9999999905
0.07882882882882837 	299.9999999999343 	2.960796662471519e-13 	101324.9999999904
0.08133133133133086 	299.9999999999829 	8.046637045828242e-13 	101324.9999999903
0.08383383383383337 	299.9999999999815 	1.122278614462014e-12 	101324.9999999904
0.08633633633633589 	299.9999999999028 	1.550313235126768e-12 	101324.9999999904
0.08883883883883838 	300.0000000000122 	2.434178356125517e-12 	101324.9999999904
0.09134134134134086 	299.9999999999921 	1.519220993446621e-12 	101324.9999999905
0.09384384384384339 	299.9999999998916 	2.357156903874255e-12 	101324.9999999907
0.09634634634634588 	299.9999999999647 	2.081165933575964e-12 	101324.9999999908
0.09884884884884838 	299.9999999999697 	2.14927806111054e-12 	101324.9999999911
0.1013513513513509 	300.0000000000168 	1.908161662856812e-12 	101324.9999999911
0.1038538538538534 	299.9999999999488 	1.704569371733126e-12 	101324.9999999909
0.1063563563563559 	300.0000000000188 	2.016061312422299e-12 	101324.999999991
0.1088588588588584 	300.0000000000272 	1.269957044131698e-12 	101324.9999999913
0.1113613613613609 	299.999999999909 	1.879259794319596e-12 	101324.999999991
0.1138638638638634 	299.9999999999442 	2.400780822027889e-12 	101324.9999999913
0.1163663663663659 	299.9999999999432 	3.513822998987361e-12 	101324.9999999913
0.1188688688688684 	299.9999999999707 	4.242698892144991e-12 	101324.9999999909
0.1213713713713709 	299.999999999991 	4.531136334586715e-12 	101324.9999999907
0.1238738738738734 	299.9999999999226 	4.294074603218062e-12 	101324.9999999908
0.1263763763763759 	299.9999999999853 	4.559889449225983e-12 	101324.9999999907
0.1288788788788784 	299.9999999999902 	4.773592317280544e-12 	101324.9999999907
0.1313813813813809 	299.9999999999885 	4.483424573485865e-12 	101324.9999999908
0.1338838838838834 	299.9999999999758 	4.175908294275234e-12 	101324.9999999904
0.1363863863863859 	300.0000000000293 	3.86223772812097e-12 	101324.99999999
0.1388888888888884 	300.0000000000489 	4.228659321449023e-12 	101324.99999999
0.1413913913913909 	300.0000000000005 	3.466981713071831e-12 	101324.9999999901
0.1438938938938934 	299.9999999999891 	3.50931026599907e-12 	101324.9999999901
0.1463963963963959 	299.9999999999586 	1.876273308941583e-12 	101324.99999999
0.1488988988988985 	299.9999999999075 	3.39713181678511e-12 	101324.9999999903
0.1514014014014009 	299.9999999999724 	2.428771568120446e-12 	101324.9999999904
0.1539039039039035 	299.9999999999628 	4.430371794836197e-12 	101324.9999999906
0.1564064064064059 	299.9999999999327 	1.856307368060118e-12 	101324.9999999905
0.1589089089089084 	299.9999999999787 	4.974686554180139e-12 	101324.9999999906
0.1614114114114109 	299.999999999974 	1.80789335475365e-12 	101324.9999999904
0.1639139139139134 	299.9999999999088 	3.841374050216329e-12 	101324.9999999904
0.166416416416416 	300.0000000000048 	2.470606808337626e-12 	101324.9999999903
0.1689189189189185 	300.0000000000325 	2.170351162812341e-12 	101324.9999999903
0.1714214214214209 	299.9999999999929 	2.340162533488266e-12 	101324.9999999903
0.1739239239239235 	299.9999999999854 	1.21200134138424e-12 	101324.9999999904
0.1764264264264259 	299.9999999999642 	2.949939946852679e-12 	101324.9999999904
0.1789289289289284 	300.0000000000091 	7.193593371390082e-13 	101324.9999999906
0.181431431431431 	299.999999999965 	3.078215786474354e-12 	101324.9999999907
0.1839339339339334 	299.9999999999688 	1.316719197533328e-12 	101324.9999999909
0.186436436436436 	299.9999999999228 	2.668290634148448e-12 	101324.9999999911
0.1889389389389385 	299.9999999999862 	2.748735948373837e-12 	101324.9999999911
0.191441441441441 	299.9999999999786 	2.468170674556649e-12 	101324.9999999911
0.1939439439439434 	299.9999999999133 	4.028690836304955e-12 	101324.9999999909
0.196446446446446 	299.9999999999453 	2.510703475705877e-12 	101324.9999999907
0.1989489489489485 	299.9999999999604 	4.290547850778666e-12 	101324.9999999905
0.2014514514514509 	299.9999999999814 	1.517832464601301e-12 	101324.9999999903
0.2039539539539535 	299.9999999999946 	2.962780822894274e-12 	101324.9999999901
0.2064564564564559 	299.9999999999574 	2.264528119422151e-12 	101324.9999999902
0.2089589589589585 	299.9999999999801 	2.126301900584786e-12 	101324.9999999901
0.211461461461461 	299.9999999999303 	2.030098266612727e-12 	101324.99999999
0.2139639639639635 	299.9999999999841 	9.986927102170766e-13 	101324.9999999903
0.2164664664664659 	299.9999999999928 	2.12710976285655e-12 	101324.9999999903
0.2189689689689684 	299.9999999999941 	5.321829661453735e-13 	101324.9999999904
0.221471471471471 	299.9999999999939 	2.558929361977915e-12 	101324.9999999906
0.2239739739739735 	299.9999999999538 	9.388486366220748e-13 	101324.9999999907
0.226476476476476 	299.9999999999776 	2.577979830699029e-12 	101324.9999999909
0.2289789789789785 	299.9999999999929 	1.903091174301343e-12 	101324.999999991
0.231481481481481 	299.9999999999866 	2.489176842384493e-12 	101324.9999999912
0.2339839839839835 	299.999999999986 	3.337003068533691e-12 	101324.9999999911
0.236486486486486 	300.0000000000209 	2.300204749562259e-12 	101324.999999991
0.2389889889889885 	300.0000000000021 	3.618910091199638e-12 	101324.999999991
0.241491491491491 	299.9999999999199 	1.720216840696513e-12 	101324.999999991
0.2439939939939935 	299.9999999999818 	4.92314803654017e-12 	101324.999999991
0.246496496496496 	299.9999999999898 	2.378655282451402e-12 	101324.9999999907
0.2489989989989985 	300.0000000000389 	3.538149604795488e-12 	101324.9999999909
0.251501501501501 	300.0000000000318 	2.042121292440799e-12 	101324.9999999908
0.2540040040040035 	299.9999999999865 	2.261121088488006e-12 	101324.9999999909
0.256506506506506 	300.0000000000255 	2.756901180429333e-12 	101324.9999999907
0.2590090090090086 	299.9999999999002 	1.161564091270914e-12 	101324.9999999905
0.261511511511511 	299.9999999999976 	2.848032079158604e-12 	101324.9999999906
0.2640140140140135 	299.9999999999886 	8.528886276486388e-13 	101324.9999999908
0.2665165165165161 	299.9999999999247 	1.749132075440385e-12 	101324.9999999908
0.2690190190190185 	300.0000000000048 	9.492878711369374e-13 	101324.999999991
0.271521521521521 	300.0000000000088 	9.544581601123223e-13 	101324.9999999911
0.2740240240240235 	300.0000000000145 	1.201888433751891e-12 	101324.9999999908
0.276526526526526 	300.0000000000059 	8.532466595240329e-13 	101324.9999999906
0.2790290290290286 	299.9999999999357 	2.854924791804601e-12 	101324.9999999906
0.281531531531531 	299.9999999999235 	1.356823602262182e-12 	101324.9999999906
0.2840340340340335 	299.9999999999766 	3.369872521645352e-12 	101324.9999999907
0.2865365365365361 	299.9999999999549 	2.053339737879492e-12 	101324.9999999907
0.2890390390390385 	299.9999999999988 	2.102603238297788e-12 	101324.9999999909
0.291541541541541 	299.9999999999979 	9.542021508064186e-13 	101324.9999999908
0.2940440440440436 	299.9999999999862 	4.127146443252811e-13 	101324.9999999909
0.296546546546546 	299.9999999999925 	2.129769887223888e-12 	101324.9999999909
0.2990490490490486 	299.9999999999321 	1.502730610581004e-12 	101324.9999999911
0.3015515515515511 	300.0000000000404 	3.866311592932222e-12 	101324.9999999909
0.3040540540540535 	300.0000000000022 	3.228446602176033e-12 	101324.9999999908
0.3065565565565562 	299.9999999999941 	3.881378827580231e-12 	101324.9999999907
0.3090590590590585 	299.9999999999889 	2.69245436517373e-12 	101324.9999999906
0.3115615615615611 	299.9999999999369 	2.877446301708859e-12 	101324.9999999904
0.3140640640640635 	300.0000000000107 	2.24975501317669e-12 	101324.9999999901
0.316566566566566 	299.9999999999962 	1.282102862552749e-12 	101324.9999999903
0.3190690690690687 	299.9999999999536 	2.479268389046963e-12 	101324.9999999901
0.3215715715715711 	300.0000000000174 	8.153218711162227e-13 	101324.9999999902
0.3240740740740735 	299.9999999999994 	2.22975331246148e-12 	101324.9999999902
0.326576576576576 	299.9999999999047 	4.596636378692494e-13 	101324.9999999903
0.3290790790790786 	300.000000000008 	6.978396536556542e-13 	101324.9999999904
0.3315815815815811 	300.0000000000299 	1.194273560590459e-12 	101324.9999999903
0.3340840840840836 	299.9999999999876 	3.02108958053696e-13 	101324.9999999903
0.3365865865865861 	300.0000000000536 	1.709006652009211e-12 	101324.9999999903
0.3390890890890886 	300.0000000000483 	3.929726269817463e-13 	101324.9999999902
0.3415915915915911 	299.9999999999995 	2.02986811219074e-12 	101324.9999999903
0.3440940940940935 	299.9999999999476 	4.891726085464843e-13 	101324.9999999904
0.3465965965965962 	300.0000000000342 	2.06229573700529e-12 	101324.9999999906
0.3490990990990985 	300.0000000000263 	1.514365723312339e-13 	101324.9999999905
0.3516016016016011 	299.9999999999875 	3.993405915163534e-13 	101324.9999999904
0.3541041041041035 	300.0000000000053 	2.462762274021173e-13 	101324.9999999904
0.3566066066066061 	299.999999999953 	9.598961408367852e-13 	101324.9999999905
0.3591091091091085 	299.9999999999177 	9.539372110154556e-13 	101324.9999999903
0.3616116116116112 	299.9999999999421 	2.379837295227988e-12 	101324.9999999902
0.3641141141141137 	299.9999999999339 	1.199797478599612e-12 	101324.9999999902
0.3666166166166161 	299.999999999925 	3.510167497825293e-12 	101324.99999999
0.3691191191191185 	300.0000000000425 	2.197086444177238e-12 	101324.99999999
0.371621621621621 	300.0000000000139 	2.929795631555364e-12 	101324.99999999
0.3741241241241237 	300.0000000000501 	2.442867085399e-12 	101324.9999999901
0.3766266266266261 	300.0000000000314 	1.401795339902696e-12 	101324.9999999901
0.3791291291291286 	299.9999999999821 	1.771658933602802e-12 	101324.9999999901
0.3816316316316311 	299.9999999999177 	1.839458185557011e-12 	101324.99999999
0.3841341341341336 	300.0000000000124 	1.075574465782194e-12 	101324.9999999901
0.3866366366366362 	299.9999999999965 	1.497747285695541e-12 	101324.9999999903
0.3891391391391387 	299.999999999955 	9.99375647193871e-13 	101324.9999999904
0.391641641641641 	299.9999999999917 	7.729588570101539e-13 	101324.9999999903
0.3941441441441436 	300.0000000000076 	4.029412521251361e-13 	101324.9999999903
0.3966466466466462 	299.9999999999976 	1.152672062325571e-12 	101324.9999999901
0.3991491491491486 	299.9999999999431 	7.688519756519789e-13 	101324.9999999903
0.4016516516516512 	299.9999999999137 	9.282228343811642e-13 	101324.9999999902
0.4041541541541536 	299.9999999999479 	1.294198076010314e-12 	101324.9999999903
0.4066566566566561 	299.9999999999462 	1.180232418661125e-12 	101324.9999999901
0.4091591591591587 	299.9999999999957 	1.169129629423809e-12 	101324.9999999902
0.4116616616616612 	300.0000000000066 	2.84668583288715e-13 	101324.9999999901
0.4141641641641635 	300.0000000000435 	4.006503500145937e-13 	101324.9999999899
0.4166666666666662 	299.9999999999913 	4.179865236540299e-13 	101324.9999999897
0.4191691691691687 	299.9999999999375 	1.669323179589569e-12 	101324.9999999897
0.421671671671671 	300.0000000000081 	1.418917458597307e-12 	101324.9999999895
0.4241741741741737 	299.9999999999756 	2.82725389028058e-12 	101324.9999999896
0.4266766766766761 	299.99999999995 	1.698893802222682e-12 	101324.9999999895
0.4291791791791785 	300.0000000000181 	4.173497045594115e-12 	101324.9999999893
0.4316816816816812 	300.0000000000097 	1.595343696012369e-12 	101324.999999989
0.4341841841841836 	299.9999999999803 	7.703900984255004e-12 	101324.999999988
0.4366866866866862 	299.9999999999139 	8.053687658928495e-12 	101324.9999999863
0.4391891891891885 	299.9999999999798 	1.897121154288242e-11 	101324.9999999831
0.4416916916916913 	299.9999999999674 	3.28261691855406e-11 	101324.9999999765
0.4441941941941936 	299.999999999964 	6.681420694123257e-11 	101324.9999999636
0.4466966966966961 	299.9999999998708 	1.289390275819885e-10 	101324.9999999384
0.4491991991991987 	299.9999999998982 	2.528681556992564e-10 	101324.9999998897
0.4517017017017012 	299.9999999998169 	4.903792863176946e-10 	101324.9999997958
0.4542042042042035 	299.9999999996672 	9.450549102367152e-10 	101324.9999996163
0.4567067067067062 	299.9999999993935 	1.807172730418479e-09 	101324.999999276
0.4592092092092087 	299.9999999987808 	3.429691202868666e-09 	101324.9999986343
0.4617117117117112 	299.9999999978569 	6.462762499028673e-09 	101324.9999974342
0.4642142142142137 	299.9999999959177 	1.208906294858811e-08 	101324.9999952063
0.4667167167167162 	299.9999999924737 	2.244944010431854e-08 	101324.9999911008
0.4692192192192187 	299.9999999860888 	4.138274736684204e-08 	101324.9999835931
0.4717217217217212 	299.9999999746186 	7.57191157322428e-08 	101324.9999699685
0.4742242242242236 	299.9999999538088 	1.37504918889789e-07 	101324.999945435
0.4767267267267262 	299.9999999167616 	2.478052487500105e-07 	101324.9999016068
0.4792292292292287 	299.9999998511032 	4.431347617994094e-07 	101324.9998239379
0.4817317317317312 	299.9999997356496 	7.862126058386883e-07 	101324.9996874242
0.4842342342342336 	299.9999995343366 	1.3837786837203e-06 	101324.9994494785
0.4867367367367362 	299.9999991864691 	2.415773401358525e-06 	101324.9990382523
0.4892392392392387 	299.9999985906015 	4.182596838313849e-06 	101324.9983337029
0.4917417417417412 	299.9999975785699 	7.180771436395459e-06 	101324.9971372574
0.4942442442442437 	299.999995875381 	1.222256837623775e-05 	101324.9951237961
0.4967467467467462 	299.999993035713 	2.062283672616531e-05 	101324.9917666046
0.4992492492492487 	299.9999883454761 	3.448680864742432e-05 	101324.9862216272
0.5017517517517511 	299.9999806734568 	5.714742867338037e-05 	101324.977151426
0.5042542542542537 	299.999968247826 	9.381998822069037e-05 	101324.9624613605
0.5067567567567562 	299.9999483270875 	0.0001525669019725522 	101324.9389103566
0.5092592592592589 	299.9999167224247 	0.0002456957716977327 	101324.9015461894
0.5117617617617611 	299.9998671168221 	0.0003917490493592423 	101324.842900793
0.5142642642642637 	299.9997901142741 	0.0006182804283374247 	101324.7518658856
0.5167667667667663 	299.9996719388753 	0.0009656459748340887 	101324.6121554151
0.5192692692692688 	299.999492698821 	0.001492057171023912 	101324.4002529879
0.5217717717717714 	299.9992241310725 	0.002280132849432754 	101324.0827457233
0.5242742742742736 	299.9988267633138 	0.00344512621910297 	101323.6129697768
0.5267767767767763 	299.9982464781888 	0.005144862413549773 	101322.9269487602
0.5292792792792789 	299.9974105487609 	0.007591168688113616 	101321.9387083733
0.5317817817817813 	299.9962233540049 	0.01106217708847327 	101320.5352133221
0.5342842842842837 	299.9945621802639 	0.01591430194129857 	101318.5714078635
0.5367867867867864 	299.9922737781346 	0.02259193219949368 	101315.8661530547
0.5392892892892888 	299.989172665126 	0.03163196307660199 	101312.2002305255
0.5417917917917912 	299.9850425033894 	0.04365931035807594 	101307.3179887085
0.5442942942942938 	299.9796421963316 	0.05936867389418431 	101300.9345745201
0.5467967967967964 	299.972718536465 	0.07948730327510586 	101292.7509149185
0.5492992992992988 	299.9640271807 	0.1047137146883746 	101282.4785460986
0.5518018018018012 	299.9533632975671 	0.1356286100031356 	101269.8758685313
0.5543043043043039 	299.940602279144 	0.1725770390854172 	101254.7962748868
0.5568068068068063 	299.9257493475282 	0.215525392658803 	101237.2467432693
0.5593093093093087 	299.9089946933979 	0.2639031730572741 	101217.4528904878
0.5618118118118114 	299.8907680149568 	0.3164484957950304 	101195.92321794
0.5643143143143137 	299.8717810453856 	0.3710966704805156 	101173.4990664809
0.5668168168168163 	299.853030470755 	0.424991864749915 	101151.3577299244
0.5693193193193188 	299.8357211759013 	0.4747064535000449 	101130.9215482244
0.5718218218218213 	299.821112488544 	0.5166669946052739 	101113.6763159822
0.5743243243243239 	299.8103234784457 	0.547701943850042 	101100.9416829474
0.5768268268268262 	299.8041333007981 	0.5656075064410898 	101093.6358142652
0.5793293293293288 	299.8028114351221 	0.5696321269342062 	101092.075126148
0.5818318318318314 	299.8060064893979 	0.5607859401879167 	101095.8454262573
0.5843343343343338 	299.8127282027622 	0.5418903595489553 	101103.781465268
0.5868368368368363 	299.8214450064355 	0.5173339011848936 	101114.0709749845
0.5893393393393387 	299.8302590629792 	0.4924924489953798 	101124.4757925047
0.5918418418418413 	299.8372577363106 	0.4727261529142041 	101132.7378860959
0.5943443443443439 	299.8409959575694 	0.4620589258840061 	101137.1511527226
0.5968468468468463 	299.8409270534146 	0.4620318604001493 	101137.0704241699
0.5993493493493487 	299.8375538350367 	0.4712711460323502 	101133.0876227711
0.6018518518518514 	299.8322591936015 	0.485916656450163 	101126.8357036896
0.6043543543543537 	299.8269139875568 	0.5007416602064877 	101120.5257875041
0.6068568568568564 	299.8233206220465 	0.510765564432877 	101116.2839808686
0.6093593593593587 	299.822573581228 	0.5129618409265964 	101115.4017534025
0.6118618618618614 	299.8246639104422 	0.5073215258418325 	101117.8691024824
0.6143643643643638 	299.8285298905475 	0.4967463692607932 	101122.434115565
0.6168668668668662 	299.8325003325855 	0.4858433265197734 	101127.1213080437
0.6193693693693688 	299.8349546091084 	0.4790429842771535 	101130.018738831
0.6218718718718714 	299.8350298242291 	0.4787066569801996 	101130.1080342603
0.6243743743743737 	299.8329977452149 	0.4841259412880183 	101127.7091841751
0.6268768768768762 	299.8300851212495 	0.4919809081367048 	101124.2699549044
0.629379379379379 	299.8278544440824 	0.4980343927688162 	101121.6363011892
0.6318818818818812 	299.8274181535435 	0.4992795518555891 	101121.1210033046
0.6343843843843838 	299.8288634775352 	0.4954525340850244 	101122.8269017705
0.6368868868868864 	299.831260184012 	0.4890288543382496 	101125.6570441709
0.6393893893893888 	299.8332277476488 	0.4837148875630644 	101127.9799237093
0.6418918918918912 	299.8337305680475 	0.4822824064819928 	101128.5735661452
0.6443943943943939 	299.8326841269719 	0.4849802698851409 	101127.3382991536
0.6468968968968963 	299.8309568127618 	0.4895224254968196 	101125.2986531843
0.6493993993993988 	299.829772626118 	0.4926638882016056 	101123.9006597306
0.6519019019019012 	299.8299076085799 	0.4923447672184059 	101124.0598005678
0.6544044044044038 	299.8311920205467 	0.488983009035704 	101125.5762228441
0.6569069069069065 	299.8326889230335 	0.4850273911352465 	101127.3437653457
0.6594094094094087 	299.8333920424614 	0.4831203882724726 	101128.1740044127
0.6619119119119113 	299.8329495103992 	0.4841990922145756 	101127.6515371137
0.664414414414414 	299.8318853672652 	0.486921586362883 	101126.3948541654
0.6669169169169162 	299.83114535335 	0.488834092307218 	101125.5212613332
0.6694194194194188 	299.8313427965809 	0.4883386475580787 	101125.7539242923
0.6719219219219214 	299.8322913538746 	0.4858890686554094 	101126.8740176997
0.674424424424424 	299.8332166416603 	0.4834695011348806 	101127.9667615334
0.6769269269269262 	299.8334340553242 	0.4828461581161824 	101128.2234245203
0.679429429429429 	299.8329194105725 	0.4841004626700665 	101127.6158584095
0.6819319319319311 	299.8322830160831 	0.4856911116615373 	101126.8644086164
0.6844344344344341 	299.8321842768702 	0.485936886368482 	101126.7475989869
0.686936936936936 	299.832735598181 	0.4845329993879585 	101127.3984242603
0.6894394394394392 	299.8334425316095 	0.4827125900098035 	101128.2333052718
0.6919419419419413 	299.8337148259988 	0.4819681439538669 	101128.5547292092
0.694444444444444 	299.833433161244 	0.4826152444519998 	101128.2222982544
0.6969469469469463 	299.8330285151841 	0.4835907213992868 	101127.7444768228
0.6994494494494489 	299.833009215405 	0.4836222220356284 	101127.7215723502
0.7019519519519515 	299.8334436879791 	0.4825223032618842 	101128.2344408026
0.7044544544544538 	299.8339286554508 	0.4812781695869205 	101128.807111681
0.7069569569569564 	299.8340507750042 	0.480917284038486 	101128.9513924639
0.7094594594594589 	299.8338243177901 	0.4814205034305797 	101128.6840273976
0.7119619619619615 	299.8336377644606 	0.4818436176225353 	101128.4635669545
0.7144644644644638 	299.8337934811319 	0.4814378850136733 	101128.64743994
0.7169669669669665 	299.8341799751566 	0.4804600854292596 	101129.1038288687
0.7194694694694688 	299.8344374448449 	0.4797812994231553 	101129.407742988
0.7219719719719715 	299.8343937244135 	0.4798283464485857 	101129.356269388
0.7244744744744737 	299.8342476374947 	0.4801346489084406 	101129.1836471448
0.7269769769769764 	299.834296148269 	0.4799841245198369 	101129.2407737594
0.7294794794794791 	299.8345680977579 	0.4792944926065957 	101129.5619963247
0.7319819819819813 	299.8348169235556 	0.4786481929585248 	101129.8558478846
0.7344844844844839 	299.834853407945 	0.4785025207618677 	101129.8987809945
0.7369869869869864 	299.8347766257647 	0.4786325817461499 	101129.8081995152
0.739489489489489 	299.8348182865156 	0.4784927436136954 	101129.8572851748
0.7419919919919914 	299.8350288708023 	0.4779537135528303 	101130.1059167421
0.7444944944944939 	299.8352320785967 	0.4774225232450887 	101130.3459140121
0.7469969969969963 	299.8352830919565 	0.4772433705412751 	101130.406028101
0.7494994994994989 	299.8352589505255 	0.4772452164835395 	101130.377517937
0.7520020020020015 	299.8353292952148 	0.4770347099110216 	101130.4606977573
0.7545045045045039 	299.8355122401987 	0.4765623570430478 	101130.6765474099
0.7570070070070062 	299.8356662704744 	0.4761491672468626 	101130.8583563796
0.7595095095095092 	299.8357087716833 	0.4759897660405514 	101130.9087381602
0.7620120120120112 	299.8357274806095 	0.475891184010837 	101130.9307365644
0.7645145145145138 	299.8358328569052 	0.4755995448830429 	101131.0549317778
0.7670170170170165 	299.8359935914964 	0.4751779927531826 	101131.244873158
0.7695195195195191 	299.8361007613746 	0.4748728563312514 	101131.3714502006
0.7720220220220213 	299.836140013527 	0.4747221753411812 	101131.4177067655
0.7745245245245239 	299.8362019224955 	0.4745254873320586 	101131.4907733012
0.7770270270270263 	299.8363299375928 	0.4741816144727777 	101131.6419490941
0.779529529529529 	299.8364588306018 	0.4738316827146815 	101131.7941511377
0.7820320320320313 	299.8365309828654 	0.4736059860427104 	101131.8792179567
0.784534534534534 	299.8365865626176 	0.473419753501958 	101131.9449079635
0.7870370370370364 	299.8366867776207 	0.4731379394382817 	101132.0633030766
0.7895395395395389 	299.836811749633 	0.4728001297589927 	101132.2106860705
0.7920420420420413 	299.8369035360973 	0.4725317315105446 	101132.3190705513
0.794544544544544 	299.8369674285417 	0.472325102443415 	101132.3946890475
0.7970470470470463 	299.8370548142676 	0.472070999524949 	101132.4976254135
0.799549549549549 	299.8371694723729 	0.471757049441512 	101132.6329487332
0.8020520520520515 	299.8372679580937 	0.4714748918932698 	101132.7495039614
0.8045545545545539 	299.8373413237464 	0.4712477053114956 	101132.8359138241
0.8070570570570563 	299.8374252454684 	0.47100000654757 	101132.9349349761
0.8095595595595589 	299.837531610283 	0.4707043084112371 	101133.0606685163
0.8120620620620614 	299.8376306158867 	0.4704226565140915 	101133.1774904467
0.8145645645645638 	299.8377098391422 	0.4701825232644395 	101133.2709735847
0.8170670670670666 	299.8377945372245 	0.4699324354649858 	101133.3710350502
0.8195695695695689 	299.8378961371827 	0.4696475394104442 	101133.4909222167
0.8220720720720714 	299.8379928696075 	0.4693712397040259 	101133.6051241414
0.8245745745745739 	299.8380753156954 	0.4691243583881292 	101133.7024954536
0.8270770770770765 	299.8381623163815 	0.4688695976136344 	101133.8051413079
0.8295795795795788 	299.8382609402921 	0.4685908830047168 	101133.9216301846
0.8320820820820815 	299.8383548811062 	0.4683207280601854 	101134.0325581268
0.834584584584584 	299.838439259998 	0.4680701711620075 	101134.1321386626
0.8370870870870865 	299.8385284992272 	0.4678107707944626 	101134.2374797791
0.8395895895895891 	299.8386250905832 	0.467536409189679 	101134.3515625262
0.8420920920920915 	299.8387164840676 	0.4672718230834569 	101134.4594206939
0.844594594594594 	299.8388023341518 	0.4670185534893456 	101134.5607534194
0.8470970970970964 	299.8388934959698 	0.4667555134648347 	101134.6683406176
0.8495995995995991 	299.8389880805213 	0.4664852124789575 	101134.780080626
0.8521021021021015 	299.8390773173593 	0.4662248980287538 	101134.8855423172
0.8546046046046039 	299.8391649906736 	0.4659687794368055 	101134.9887937702
0.8571071071071066 	299.83925721425 	0.465703712858352 	101135.0977206522
0.8596096096096089 	299.8393494604138 	0.4654378156335058 	101135.2068753596
0.8621121121121116 	299.8394378703467 	0.4651799391019538 	101135.311043863
0.8646146146146139 	299.8395271580154 	0.464920751384198 	101135.4163381404
0.8671171171171166 	299.839619241307 	0.4646556624221924 	101135.5253124579
0.8696196196196189 	299.8397096850832 	0.4643940072628628 	101135.63198014
0.8721221221221216 	299.8397980649248 	0.464136478809608 	101135.7362197782
0.874624624624624 	299.8398884752175 	0.4638749751427731 	101135.8431370491
0.8771271271271264 	299.8399798376096 	0.4636119234158749 	101135.9509270986
0.879629629629629 	299.8400689172651 	0.4633531278893404 	101136.0559736332
0.8821321321321317 	299.8401579627193 	0.4630942091787939 	101136.1612603411
0.8846346346346339 	299.8402488983351 	0.4628321920505438 	101136.2685779049
0.8871371371371364 	299.8403387618029 	0.4625720171172203 	101136.3746337379
0.8896396396396391 	299.8404274749877 	0.4623139440753927 	101136.4794313816
0.8921421421421414 	299.8405176465992 	0.4620537717993438 	101136.5857520066
0.8946446446446441 	299.840607760227 	0.4617933075109097 	101136.6922240482
0.8971471471471464 	299.8406966121401 	0.4615350989504992 	101136.7971831341
0.8996496496496489 	299.8407860546797 	0.4612762871722963 	101136.9026461216
0.9021521521521517 	299.8408760187023 	0.4610162945859291 	101137.0089338355
0.9046546546546541 	299.8409651219629 	0.4607578768399159 	101137.1141841093
0.9071571571571564 	299.8410541762252 	0.4604999648986472 	101137.2191968497
0.9096596596596589 	299.8411437810294 	0.4602408637673705 	101137.3250666458
0.9121621621621616 	299.8412330303539 	0.4599823922094695 	101137.4304541986
0.9146646646646639 	299.8413219180563 	0.4597248392618965 	101137.5352610929
0.9171671671671666 	299.8414111173317 	0.45946664569864 	101137.6406775573
0.9196696696696689 	299.8415002713463 	0.4592085876841402 	101137.746021457
0.9221721721721714 	299.8415892276213 	0.4589513502925561 	101137.8507533113
0.9246746746746741 	299.8416780760276 	0.4586937999333561 	101137.955811356
0.9271771771771765 	299.8417670232478 	0.4584362072574188 	101138.0609862068
0.9296796796796791 	299.8418558446356 	0.4581793498068281 	101138.1656325375
0.9321821821821816 	299.8419445824106 	0.4579223693396909 	101138.2703976974
0.9346846846846838 	299.8420333494953 	0.4576652380335026 	101138.375351045
0.9371871871871866 	299.8421219944196 	0.4574087647894149 	101138.4799051002
0.9396896896896891 	299.8422105936128 	0.457152353591897 	101138.5844573744
0.9421921921921914 	299.8422992578888 	0.4568957576764641 	101138.6891806762
0.9446946946946939 	299.8423877209124 	0.4566396679043027 	101138.7935953857
0.9471971971971965 	299.842476058956 	0.4563837324245602 	101138.8979468344
0.9496996996996991 	299.8425645564956 	0.4561276958007466 	101139.00243633
0.9522022022022016 	299.8426529718004 	0.4558720822811685 	101139.1066949709
0.9547047047047038 	299.8427411128347 	0.4556166272188891 	101139.2108771542
0.9572072072072064 	299.8428294287503 	0.455361073953834 	101139.3151538229
0.9597097097097093 	299.8429176914734 	0.4551058286878161 	101139.4192354537
0.9622122122122114 	299.8430057317563 	0.4548507913357445 	101139.5232361977
0.964714714714714 	299.8430938011324 	0.454595803581316 	101139.6272975754
0.9672172172172167 	299.8431819430818 	0.4543411232804737 	101139.7312019643
0.969719719719719 	299.8432698555916 	0.4540866060559459 	101139.8350421872
0.9722222222222214 	299.8433577378551 	0.453832093858429 	101139.93890614
0.9747247247247239 	299.8434457388462 	0.4535778342606251 	101140.0426212881
0.9772272272272267 	299.8435335217845 	0.4533237301621469 	101140.1462820248
0.9797297297297292 	299.8436211777812 	0.4530696600778741 	101140.2499423026
0.9822322322322313 	299.8437089708638 	0.4528158871660422 	101140.3534743071
0.9847347347347344 	299.8437967103251 	0.4525623558117602 	101140.4569676726
0.9872372372372363 	299.8438842064875 	0.4523088492367815 	101140.5604333192
0.9897397397397389 	299.8439718081371 	0.4520554427934835 	101140.6637805981
0.9922422422422417 	299.8440593747329 	0.45180225814363 	101140.767094619
0.9947447447447441 	299.844146772752 	0.451549306110431 	101140.8703599631
0.9972472472472468 	299.8442342132435 	0.4512964923511334 	101140.9735285185
0.999749749749749 	299.8443215488219 	0.4510437710392715 	101141.0766698536
1.002252252252252 	299.8444087452075 	0.4507912446563521 	101141.1797427631
1.004754754754754 	299.8444961395304 	0.4505389048809113 	101141.2827327952
1.007257257257256 	299.8445833727459 	0.4502866866888681 	101141.385692386
1.009759759759759 	299.8446703178493 	0.4500346922832891 	101141.4885761659
1.012262262262261 	299.8447575401157 	0.4497828687195317 	101141.5913936586
1.014764764764764 	299.8448447089991 	0.4495310925556413 	101141.6941675074
1.017267267267267 	299.8449315257298 	0.4492795138252682 	101141.7968608529
1.019769769769769 	299.8450184864948 	0.4490281336771594 	101141.89950096
1.022272272272272 	299.845105492155 	0.4487769041579062 	101142.0020866805
1.024774774774774 	299.8451921683921 	0.4485259239480184 	101142.1045980607
1.027277277277277 	299.8452789602811 	0.4482750688307466 	101142.2070609036
1.029779779779779 	299.8453658218615 	0.4480242652070515 	101142.3094571064
1.032282282282282 	299.8454524447313 	0.4477736113662951 	101142.4117875287
1.034784784784784 	299.8455390421997 	0.4475232325124214 	101142.5140695708
1.037287287287286 	299.8456256796653 	0.4472731041923387 	101142.6162850355
1.039789789789789 	299.8457121965066 	0.4470230144530116 	101142.7184453339
1.042292292292291 	299.8457986190461 	0.4467730448368613 	101142.8205480039
1.044794794794794 	299.8458851237228 	0.4465234105791275 	101142.9225812175
1.047297297297296 	299.8459715312505 	0.4462739548786945 	101143.0245568305
1.049799799799799 	299.846057731767 	0.4460245161062949 	101143.1264671516
1.052302302302302 	299.8461441138426 	0.4457752285171438 	101143.2283191644
1.054804804804804 	299.8462304150522 	0.4455261708740852 	101143.3301190988
1.057307307307306 	299.846316380134 	0.4452773160157505 	101143.4318565915
1.059809809809809 	299.8464025859582 	0.4450286090216182 	101143.5335363541
1.062312312312312 	299.8464887798858 	0.4447800873088733 	101143.6351526698
1.064814814814814 	299.8465746959764 	0.4445317998979634 	101143.7367070173
1.067317317317317 	299.8466606513067 	0.4442836316300487 	101143.8382056456
1.069819819819819 	299.8467466407136 	0.4440355929648716 	101143.9396428707
1.072322322322321 	299.8468324841542 	0.4437877835515747 	101144.0410210267
1.074824824824824 	299.8469182382443 	0.4435401144758203 	101144.1423356571
1.077327327327327 	299.8470040804691 	0.4432925901504312 	101144.2435880187
1.079829829829829 	299.8470898484142 	0.4430454060382735 	101144.3447844784
1.082332332332332 	299.8471753960524 	0.4427985052487442 	101144.4459243009
1.084834834834834 	299.8472611228 	0.4425516709325557 	101144.5470106381
1.087337337337337 	299.8473468023893 	0.4423048418916342 	101144.6480373079
1.089839839839839 	299.8474321550795 	0.442058254244677 	101144.7489993122
1.092342342342342 	299.8475176356719 	0.441812075168888 	101144.8498968255
1.094844844844844 	299.8476031211336 	0.4415660107703592 	101144.9507324015
1.097347347347347 	299.8476884385977 	0.4413199696883267 	101145.0515133059
1.099849849849849 	299.8477736303402 	0.4410741939140939 	101145.1522381607
1.102352352352352 	299.8478590306114 	0.44082870663621 	101145.2529058501
1.104854854854854 	299.8479443729764 	0.4405834247551313 	101145.3535154421
1.107357357357357 	299.8480293884172 	0.4403382814099367 	101145.4540662823
1.109859859859859 	299.8481145188565 	0.4400933185906105 	101145.554559052
1.112362362362362 	299.8481997008257 	0.4398486359259136 	101145.6549907223
1.114864864864865 	299.8482847038339 	0.4396040805484958 	101145.7553618466
1.117367367367367 	299.8483696021285 	0.4393596436353789 	101145.8556733988
1.119869869869869 	299.8484545799824 	0.4391155833261084 	101145.9559280795
1.122372372372372 	299.8485394970861 	0.4388718257170681 	101146.0561277178
1.124874874874874 	299.8486242169817 	0.4386281554375014 	101146.1562710574
1.127377377377377 	299.8487090755206 	0.4383845494822608 	101146.2563564649
1.129879879879879 	299.8487939011782 	0.4381411036188357 	101146.3563820516
1.132382382382382 	299.8488785066816 	0.4378980437936323 	101146.4563491397
1.134884884884884 	299.8489630542146 	0.4376553381026296 	101146.5562574338
1.137387387387387 	299.8490476480067 	0.4374126869453008 	101146.6561061395
1.139889889889889 	299.8491322508376 	0.4371701901514776 	101146.7558964521
1.142392392392392 	299.849216777731 	0.436928025295974 	101146.855632574
1.144894894894894 	299.8493012371306 	0.4366861408598345 	101146.9553185411
1.147397397397397 	299.8493856441313 	0.4364444799014322 	101147.0549530146
1.149899899899899 	299.8494699975053 	0.4362029031227637 	101147.1545311152
1.152402402402402 	299.8495542561914 	0.4359616021456804 	101147.2540471872
1.154904904904904 	299.8496385692137 	0.435720778992346 	101147.3534994067
1.157407407407407 	299.8497228319327 	0.4354801755236735 	101147.4528907642
1.159909909909909 	299.8498069383776 	0.4352396259250275 	101147.5522289985
1.162412412412412 	299.8498910480572 	0.4349992438168531 	101147.6515209014
1.164914914914914 	299.8499751205815 	0.4347591675881311 	101147.7507665244
1.167417417417417 	299.8500591610161 	0.4345194718949915 	101147.8499592447
1.169919919919919 	299.8501430995605 	0.4342801795035906 	101147.9490911209
1.172422422422422 	299.8502270474786 	0.4340410810301595 	101148.0481600109
1.174924924924925 	299.8503110461857 	0.4338020973787882 	101148.1471714286
1.177427427427427 	299.8503949600744 	0.4335634431854635 	101148.2461348677
1.179929929929929 	299.8504787298177 	0.4333250323062731 	101148.3450550141
1.182432432432432 	299.8505624613018 	0.433086949403461 	101148.4439276131
1.184934934934934 	299.8506462227435 	0.4328493485631766 	101148.5427439205
1.187437437437437 	299.8507300226435 	0.4326118757051386 	101148.6414996572
1.189939939939939 	299.8508136201466 	0.4323745206858165 	101148.7401986554
1.192442442442442 	299.850897008084 	0.4321375444334777 	101148.8388493495
1.194944944944944 	299.8509806338004 	0.4319008780598214 	101148.9374573358
1.197447447447447 	299.8510643342831 	0.431664564727835 	101149.0360216375
1.199949949949949 	299.8511479752369 	0.4314287287719742 	101149.1345375954
1.202452452452452 	299.8512313870371 	0.4311930449644167 	101149.2330016655
1.204954954954955 	299.8513146362952 	0.4309575551231523 	101149.3314142135
1.207457457457457 	299.8513980084616 	0.4307225110961154 	101149.4297790706
1.20995995995996 	299.8514814749166 	0.4304878755360283 	101149.5281000023
1.212462462462462 	299.8515648880804 	0.4302529253845191 	101149.6263767937
1.214964964964964 	299.8516483470529 	0.4300195055264944 	101149.7246084968
1.217467467467467 	299.8517316823685 	0.4297837888475063 	101149.822794287
1.219969969969969 	299.8518147582945 	0.4295542562405013 	101149.9209406355
1.222472472472472 	299.8518979663209 	0.4293085797887719 	101150.0190395199
1.224974974974975 	299.851981260811 	0.4291074442082855 	101150.117123564
1.227477477477477 	299.8520645342584 	0.4287642956601121 	101150.2150977968
1.229979979979979 	299.8521481151259 	0.428837114803939 	101150.3133955519
1.232482482482482 	299.8522309018563 	0.4275342517217207 	101150.4105046155
1.234984984984984 	299.8523139399524 	0.4288175584107417 	101150.5089796616
1.237487487487487 	299.8523993989703 	0.4268225647681812 	101150.6066258939
1.239989989989989 	299.8524766347741 	0.4278913960456099 	101150.7023161391
1.242492492492492 	299.8525667386691 	0.4284416668454039 	101150.8039241497
1.244994994994994 	299.850387393783 	0.4252879448578669 	101150.8982704297
1.247497497497497 	299.1913944884964 	0.4274327135186313 	101150.9968112325
1.249999999999999 	301.7262065268634 	0.426735107957503 	101151.0956988645
