-1.25 	318.4062276342339 	0.04400085115010304 	101343.4062276342
-1.247497497497497 	300.0325380714817 	0.04325826646800821 	101342.79262143
-1.244994994994995 	300.0145196282385 	0.04194749221742178 	101342.1538239604
-1.242492492492492 	300.0139690022989 	0.04049160070434114 	101341.5150518506
-1.23998998998999 	300.0134260006697 	0.03884542450781087 	101340.8730509174
-1.237487487487487 	300.0128804978617 	0.03728350382007993 	101340.2280914061
-1.234984984984985 	300.0123325516228 	0.03569223721750833 	101339.5802460616
-1.232482482482482 	300.0117822794361 	0.03410222208943357 	101338.9296534978
-1.22997997997998 	300.0112314437598 	0.03250550599513688 	101338.2783978021
-1.227477477477477 	300.0106770412652 	0.03090111411799224 	101337.6229281165
-1.224974974974975 	300.0101197930783 	0.0292884315594845 	101336.9640968768
-1.222472472472472 	300.0095612762172 	0.02766948319416688 	101336.3037688788
-1.21996996996997 	300.0089979430626 	0.02604017114565883 	101335.6377495816
-1.217467467467467 	300.0084346720292 	0.02441261762824624 	101334.9718062408
-1.214964964964965 	300.0078798330294 	0.02280391974712745 	101334.31583506
-1.212462462462462 	300.0073279589994 	0.02119778413201756 	101333.6633735733
-1.20995995995996 	300.0067589759465 	0.01954446890738138 	101332.9906889922
-1.207457457457457 	300.0061609449077 	0.01782186282049016 	101332.2836643872
-1.204954954954955 	300.0055596031693 	0.01609904912393489 	101331.5727257942
-1.202452452452452 	300.0050022067516 	0.01448787453522678 	101330.9137429934
-1.19994994994995 	300.0044954837196 	0.01299742846371871 	101330.3146743168
-1.197447447447447 	300.0039815671686 	0.01147983933583045 	101329.7071095257
-1.194944944944945 	300.0033905481841 	0.009760470527863422 	101329.00839762
-1.192442442442442 	300.002711464791 	0.007816168926352587 	101328.2055742356
-1.18993993993994 	300.0020097200766 	0.005818267048703392 	101327.3759573289
-1.187437437437437 	300.0013780128176 	0.004012674880333717 	101326.6291372788
-1.184934934934935 	300.0008777099797 	0.002571486903479948 	101326.0376646357
-1.182432432432432 	300.0005220777819 	0.001538880111939783 	101325.6172242042
-1.17992992992993 	300.0002914897163 	0.0008643123747816383 	101325.3446139919
-1.177427427427427 	300.0001534706387 	0.0004576950007448888 	101325.1814416688
-1.174924924924925 	300.0000765115517 	0.0002294572968173205 	101325.090456723
-1.172422422422422 	300.0000362498122 	0.0001093013490315275 	101325.0428569915
-1.16991991991992 	300.0000163740463 	4.963000835664632e-05 	101325.019358607
-1.167417417417417 	300.0000070715573 	2.154266792236874e-05 	101325.008360565
-1.164914914914915 	300.0000029274297 	8.961862449705832e-06 	101325.0034610641
-1.162412412412412 	300.0000011642834 	3.581242286320337e-06 	101325.0013765281
-1.15990990990991 	300.0000004457801 	1.377527558745906e-06 	101325.0005270513
-1.157407407407407 	300.0000001646222 	5.109853898042294e-07 	101325.0001946343
-1.154904904904904 	300.0000000587354 	1.831028006181046e-07 	101325.0000694415
-1.152402402402403 	300.0000000202707 	6.34797386842717e-08 	101325.0000239728
-1.1498998998999 	300.0000000067778 	2.132295133186153e-08 	101325.0000080192
-1.147397397397397 	300.0000000022017 	6.948693365445962e-09 	101325.0000026024
-1.144894894894895 	300.0000000006943 	2.199571265154958e-09 	101325.0000008201
-1.142392392392392 	300.0000000002079 	6.765945632635863e-10 	101325.0000002511
-1.13988988988989 	300.0000000000602 	2.021182924526303e-10 	101325.0000000748
-1.137387387387387 	300.0000000000205 	5.814484172959147e-11 	101325.0000000215
-1.134884884884885 	300.0000000000056 	1.592814594669139e-11 	101325.0000000057
-1.132382382382382 	300.0000000000024 	3.869047741500474e-12 	101325.0000000013
-1.12987987987988 	300.0000000000007 	1.212180488616836e-12 	101325
-1.127377377377377 	299.9999999999986 	6.781365784737416e-13 	101324.9999999996
-1.124874874874875 	299.9999999999984 	6.172129091318946e-13 	101324.9999999996
-1.122372372372372 	299.9999999999974 	4.834551527727573e-13 	101324.9999999995
-1.11986986986987 	299.9999999999942 	3.259739538796238e-13 	101324.9999999993
-1.117367367367367 	299.9999999999945 	2.818830530145178e-13 	101324.9999999992
-1.114864864864865 	299.9999999999972 	4.329179091464511e-13 	101324.9999999993
-1.112362362362362 	299.9999999999978 	4.187486475134484e-13 	101324.9999999994
-1.10985985985986 	299.9999999999928 	5.452318618741563e-13 	101324.9999999995
-1.107357357357357 	299.9999999999951 	8.099591127980888e-13 	101324.9999999996
-1.104854854854855 	299.9999999999992 	7.867857260633439e-13 	101324.9999999997
-1.102352352352353 	299.9999999999948 	8.023380604036193e-13 	101324.9999999997
-1.09984984984985 	299.9999999999955 	6.715184355412595e-13 	101324.9999999997
-1.097347347347347 	299.9999999999984 	4.046020242153098e-13 	101324.9999999997
-1.094844844844845 	299.9999999999968 	3.336352560324122e-13 	101324.9999999998
-1.092342342342342 	299.9999999999955 	3.058153650653879e-13 	101324.9999999997
-1.08983983983984 	299.9999999999923 	3.034327580070574e-13 	101324.9999999994
-1.087337337337337 	299.9999999999929 	2.781746814509496e-13 	101324.9999999993
-1.084834834834835 	299.9999999999945 	4.933011072123055e-13 	101324.9999999992
-1.082332332332332 	299.9999999999984 	5.835321222180255e-13 	101324.9999999992
-1.07982982982983 	300.0000000000036 	7.493642720244445e-13 	101324.9999999994
-1.077327327327327 	300.0000000000045 	9.621206560786786e-13 	101324.9999999994
-1.074824824824825 	300.0000000000003 	1.32200693748387e-12 	101324.9999999994
-1.072322322322323 	299.9999999999998 	1.388985161002063e-12 	101324.9999999993
-1.06981981981982 	300.0000000000045 	1.06108839527407e-12 	101324.9999999994
-1.067317317317317 	300.0000000000002 	9.03515609767602e-13 	101324.9999999993
-1.064814814814815 	299.9999999999969 	5.027492556661021e-13 	101324.9999999992
-1.062312312312312 	299.9999999999982 	3.711577375018407e-13 	101324.9999999993
-1.05980980980981 	299.9999999999972 	4.592361835771423e-13 	101324.9999999994
-1.057307307307307 	299.9999999999907 	3.331118710873689e-13 	101324.9999999992
-1.054804804804805 	299.999999999992 	1.613619477392231e-13 	101324.9999999992
-1.052302302302302 	299.9999999999965 	6.073597347719561e-14 	101324.9999999991
-1.0497997997998 	299.9999999999993 	6.398478922144795e-14 	101324.9999999992
-1.047297297297297 	300.0000000000041 	4.874330318371316e-13 	101324.9999999994
-1.044794794794795 	300.0000000000026 	9.533783883385396e-13 	101324.9999999993
-1.042292292292292 	300.0000000000017 	1.291882763760341e-12 	101324.9999999992
-1.03978978978979 	299.999999999998 	1.584713648812507e-12 	101324.9999999992
-1.037287287287287 	299.9999999999961 	1.58307586104532e-12 	101324.9999999991
-1.034784784784785 	299.9999999999989 	1.724405223048336e-12 	101324.9999999991
-1.032282282282283 	300 	1.772875990302287e-12 	101324.9999999992
-1.02977977977978 	299.9999999999994 	1.608615502204491e-12 	101324.9999999992
-1.027277277277277 	299.9999999999924 	1.53581690190877e-12 	101324.9999999993
-1.024774774774775 	299.9999999999914 	1.219075824113161e-12 	101324.9999999993
-1.022272272272272 	299.9999999999941 	9.883051793730146e-13 	101324.9999999992
-1.01976976976977 	299.9999999999944 	1.236728389046687e-12 	101324.9999999993
-1.017267267267267 	299.9999999999919 	1.229794054039069e-12 	101324.9999999992
-1.014764764764765 	299.9999999999923 	1.190894545960765e-12 	101324.9999999993
-1.012262262262262 	299.999999999994 	6.58917972786964e-13 	101324.9999999994
-1.00975975975976 	299.9999999999953 	8.661969607552084e-13 	101324.9999999993
-1.007257257257257 	299.9999999999958 	8.193082509950091e-13 	101324.9999999993
-1.004754754754755 	300.0000000000004 	6.063374206779308e-13 	101324.9999999993
-1.002252252252252 	299.9999999999988 	3.239596230896725e-13 	101324.9999999993
-0.9997497497497498 	299.9999999999974 	1.98767197292117e-13 	101324.9999999992
-0.9972472472472473 	299.9999999999986 	4.347556581244111e-13 	101324.9999999991
-0.9947447447447449 	299.9999999999948 	3.688060210175929e-13 	101324.9999999991
-0.9922422422422421 	299.9999999999961 	5.938932221706259e-13 	101324.9999999991
-0.9897397397397399 	299.9999999999964 	4.805826376796421e-13 	101324.999999999
-0.9872372372372376 	299.9999999999968 	8.964310127237185e-13 	101324.9999999991
-0.9847347347347346 	299.9999999999937 	7.439102642614856e-13 	101324.999999999
-0.9822322322322323 	299.9999999999927 	5.9452920875623e-13 	101324.999999999
-0.9797297297297296 	299.999999999996 	5.364086997487383e-13 	101324.9999999989
-0.9772272272272275 	299.9999999999986 	4.654233517511766e-13 	101324.9999999989
-0.9747247247247248 	300.0000000000001 	5.61769945989581e-13 	101324.9999999991
-0.9722222222222224 	299.9999999999932 	8.06819807502227e-13 	101324.9999999992
-0.9697197197197196 	299.9999999999919 	1.037999633336169e-12 	101324.9999999992
-0.9672172172172175 	299.9999999999937 	8.433874490188683e-13 	101324.9999999992
-0.9647147147147147 	299.9999999999957 	5.223582687862741e-13 	101324.9999999992
-0.9622122122122124 	299.9999999999971 	8.790713158396962e-13 	101324.9999999992
-0.9597097097097099 	299.999999999998 	7.75425507769004e-13 	101324.9999999992
-0.9572072072072073 	299.9999999999965 	9.25297384225322e-13 	101324.9999999993
-0.9547047047047047 	300.0000000000002 	8.857285129571199e-13 	101324.9999999994
-0.9522022022022023 	299.999999999998 	4.175367509579954e-13 	101324.9999999994
-0.9496996996996998 	299.9999999999966 	1.090809453912015e-12 	101324.9999999992
-0.9471971971971973 	299.9999999999985 	8.095836386411582e-13 	101324.9999999991
-0.9446946946946947 	299.9999999999932 	1.191252346618822e-12 	101324.999999999
-0.9421921921921923 	299.9999999999966 	1.059583052570812e-12 	101324.9999999989
-0.93968968968969 	299.9999999999984 	1.070407538179599e-12 	101324.9999999989
-0.9371871871871872 	299.9999999999969 	1.150143650640037e-12 	101324.9999999989
-0.9346846846846848 	299.9999999999937 	9.820268755879568e-13 	101324.999999999
-0.9321821821821823 	299.9999999999962 	9.223521717023531e-13 	101324.999999999
-0.9296796796796799 	300.0000000000002 	5.012105907857936e-13 	101324.9999999991
-0.9271771771771771 	299.9999999999986 	7.423242078108583e-13 	101324.9999999992
-0.9246746746746748 	299.9999999999959 	5.515464860892853e-13 	101324.9999999992
-0.9221721721721724 	299.9999999999981 	7.856431143290242e-13 	101324.9999999992
-0.9196696696696698 	299.999999999998 	8.80440282871622e-13 	101324.9999999991
-0.9171671671671672 	299.9999999999943 	6.524607691832998e-13 	101324.999999999
-0.9146646646646649 	299.9999999999977 	2.228243276872582e-13 	101324.999999999
-0.9121621621621623 	300.0000000000007 	3.034959747533045e-13 	101324.9999999992
-0.9096596596596597 	299.9999999999972 	3.352907865422772e-13 	101324.9999999991
-0.9071571571571573 	299.9999999999984 	3.258214066766398e-13 	101324.9999999991
-0.9046546546546547 	300.0000000000005 	3.835784348761228e-13 	101324.999999999
-0.9021521521521524 	299.9999999999968 	4.023877512839401e-13 	101324.9999999991
-0.8996496496496498 	299.9999999999986 	7.231778042353147e-13 	101324.9999999993
-0.8971471471471473 	300.0000000000006 	5.813450100862876e-13 	101324.9999999992
-0.894644644644645 	299.9999999999999 	4.926897514516101e-13 	101324.9999999991
-0.892142142142142 	300.0000000000002 	5.876813548153697e-13 	101324.9999999992
-0.8896396396396397 	300.0000000000006 	1.022531419596072e-12 	101324.9999999992
-0.8871371371371374 	299.9999999999951 	5.709051795694979e-13 	101324.9999999991
-0.8846346346346349 	299.9999999999931 	1.222895355992356e-12 	101324.9999999992
-0.8821321321321324 	299.999999999993 	7.485416074852663e-13 	101324.9999999992
-0.8796296296296297 	299.9999999999948 	1.574733891737128e-12 	101324.9999999991
-0.8771271271271271 	299.9999999999953 	8.230815635981112e-13 	101324.999999999
-0.8746246246246248 	299.9999999999991 	8.876872793700505e-13 	101324.9999999991
-0.8721221221221224 	300.0000000000002 	6.783684556977836e-13 	101324.9999999992
-0.8696196196196196 	299.999999999997 	6.581508340853054e-13 	101324.9999999993
-0.8671171171171175 	299.9999999999988 	6.266424240350254e-13 	101324.9999999992
-0.8646146146146148 	299.9999999999943 	8.24138037680838e-13 	101324.9999999992
-0.8621121121121121 	299.9999999999973 	6.263419788890878e-13 	101324.9999999992
-0.8596096096096097 	300.0000000000022 	4.158036812090584e-13 	101324.9999999992
-0.857107107107107 	299.9999999999958 	8.656280419387276e-13 	101324.9999999991
-0.8546046046046049 	299.9999999999983 	9.289382361313393e-13 	101324.9999999991
-0.8521021021021022 	300.0000000000005 	9.263773509508754e-13 	101324.9999999992
-0.8495995995995997 	299.9999999999989 	1.075986048144937e-12 	101324.9999999993
-0.8470970970970974 	299.9999999999933 	7.492621284604745e-13 	101324.9999999992
-0.8445945945945946 	299.9999999999952 	4.400775727125252e-13 	101324.9999999991
-0.8420920920920922 	300.0000000000001 	5.540465815227669e-13 	101324.999999999
-0.8395895895895897 	299.9999999999983 	1.33721702686899e-12 	101324.999999999
-0.8370870870870872 	299.9999999999992 	9.448563061576108e-13 	101324.9999999989
-0.8345845845845846 	300.0000000000005 	1.5582461548695e-12 	101324.9999999988
-0.8320820820820823 	299.9999999999936 	1.466758061524528e-12 	101324.9999999989
-0.8295795795795798 	299.9999999999911 	1.241878408218012e-12 	101324.9999999991
-0.8270770770770772 	299.9999999999942 	1.300573396420552e-12 	101324.9999999991
-0.8245745745745746 	299.999999999991 	8.167440572166114e-13 	101324.999999999
-0.8220720720720721 	299.9999999999939 	4.71294350769855e-13 	101324.999999999
-0.8195695695695699 	299.9999999999982 	5.06839970477921e-13 	101324.9999999989
-0.817067067067067 	299.9999999999962 	1.002435729799185e-12 	101324.999999999
-0.8145645645645651 	299.9999999999914 	9.606720882765449e-13 	101324.9999999989
-0.8120620620620621 	299.999999999997 	8.371462449295077e-13 	101324.9999999988
-0.8095595595595597 	299.9999999999998 	7.094523784802047e-13 	101324.9999999987
-0.8070570570570572 	299.9999999999924 	5.44791692834843e-13 	101324.9999999986
-0.8045545545545546 	299.9999999999922 	2.698939280817372e-13 	101324.9999999986
-0.8020520520520523 	299.999999999997 	5.723011202416996e-13 	101324.9999999985
-0.7995495495495494 	300.0000000000007 	1.158317761061237e-12 	101324.9999999987
-0.7970470470470474 	299.9999999999989 	1.421539801554633e-12 	101324.9999999986
-0.7945445445445446 	299.9999999999995 	8.585974119940606e-13 	101324.9999999984
-0.7920420420420423 	300.0000000000005 	1.223685089492718e-12 	101324.9999999985
-0.7895395395395397 	300.0000000000007 	1.232220422505975e-12 	101324.9999999987
-0.7870370370370371 	299.9999999999993 	6.485877278973518e-13 	101324.9999999988
-0.7845345345345348 	299.999999999996 	1.325919391068319e-12 	101324.9999999988
-0.7820320320320323 	299.9999999999965 	9.656895922270105e-13 	101324.9999999985
-0.7795295295295296 	299.9999999999901 	1.477463607964219e-12 	101324.9999999983
-0.7770270270270272 	299.9999999999887 	1.219611292017503e-12 	101324.9999999982
-0.7745245245245247 	299.9999999999889 	6.300865601976484e-13 	101324.9999999983
-0.7720220220220222 	299.9999999999935 	7.778234897042862e-13 	101324.9999999985
-0.7695195195195199 	299.9999999999941 	4.588617802755085e-13 	101324.9999999986
-0.767017017017017 	299.9999999999973 	5.185932026424395e-13 	101324.9999999987
-0.7645145145145147 	300.000000000001 	5.612291304393028e-13 	101324.9999999988
-0.7620120120120122 	300.000000000001 	1.208516920736792e-12 	101324.9999999988
-0.7595095095095097 	299.9999999999905 	1.190339035217302e-12 	101324.9999999987
-0.7570070070070072 	299.9999999999901 	2.199992273558247e-12 	101324.9999999987
-0.7545045045045048 	299.9999999999969 	1.737641396324475e-12 	101324.9999999987
-0.7520020020020022 	299.9999999999942 	1.841286941035886e-12 	101324.9999999988
-0.7494994994994997 	299.9999999999944 	8.16649966982859e-13 	101324.999999999
-0.7469969969969972 	299.9999999999981 	1.23765756951331e-12 	101324.999999999
-0.7444944944944945 	299.9999999999971 	9.339870256607522e-13 	101324.999999999
-0.7419919919919924 	299.9999999999972 	7.057060904987315e-13 	101324.9999999991
-0.7394894894894897 	299.9999999999944 	6.675861687276504e-13 	101324.9999999991
-0.7369869869869872 	299.9999999999982 	5.894281452223146e-13 	101324.9999999994
-0.7344844844844846 	299.9999999999965 	1.011174721001058e-12 	101324.9999999994
-0.7319819819819822 	300.0000000000001 	5.53502086159105e-13 	101324.9999999991
-0.7294794794794797 	299.9999999999985 	1.14881030006397e-12 	101324.999999999
-0.7269769769769773 	299.9999999999998 	5.619019994658133e-13 	101324.9999999989
-0.7244744744744747 	300.0000000000005 	1.960959871323634e-13 	101324.9999999989
-0.721971971971972 	299.9999999999942 	5.749510369192085e-13 	101324.999999999
-0.7194694694694695 	299.9999999999966 	9.734335432051231e-13 	101324.9999999989
-0.7169669669669674 	299.9999999999908 	1.532616755964955e-12 	101324.9999999989
-0.7144644644644647 	299.9999999999957 	1.622403510047953e-12 	101324.9999999991
-0.711961961961962 	300.0000000000016 	1.303976323755737e-12 	101324.999999999
-0.7094594594594597 	300.000000000003 	6.579832495369422e-13 	101324.9999999988
-0.7069569569569573 	300.0000000000019 	8.623931967326842e-13 	101324.9999999988
-0.7044544544544545 	300.0000000000018 	4.966095416521525e-13 	101324.9999999988
-0.7019519519519523 	300.000000000001 	1.447316947445096e-13 	101324.9999999989
-0.6994494494494495 	299.9999999999909 	1.686068353124202e-13 	101324.9999999989
-0.6969469469469471 	299.9999999999922 	4.691414688136658e-13 	101324.9999999989
-0.6944444444444446 	299.9999999999948 	8.023873662732608e-13 	101324.9999999992
-0.6919419419419421 	300.0000000000014 	7.623770629788446e-13 	101324.9999999992
-0.6894394394394396 	299.9999999999984 	5.677091364053825e-13 	101324.9999999991
-0.6869369369369374 	300.0000000000007 	7.251359310576338e-13 	101324.9999999991
-0.6844344344344344 	300.0000000000016 	4.291414021275676e-13 	101324.9999999992
-0.6819319319319321 	299.9999999999959 	4.704409419213488e-13 	101324.9999999992
-0.6794294294294296 	299.9999999999933 	4.187103414187196e-13 	101324.9999999992
-0.6769269269269272 	299.9999999999907 	6.91961719693594e-13 	101324.9999999993
-0.6744244244244245 	299.9999999999971 	6.442742103793462e-13 	101324.9999999994
-0.6719219219219222 	299.9999999999968 	5.925848247858558e-13 	101324.9999999995
-0.6694194194194195 	300.0000000000008 	7.473751202097011e-13 	101324.9999999995
-0.6669169169169172 	300.0000000000019 	5.232961572057864e-13 	101324.9999999995
-0.6644144144144146 	299.9999999999947 	5.758746519024109e-13 	101324.9999999994
-0.661911911911912 	299.999999999996 	7.870505670824871e-13 	101324.9999999995
-0.6594094094094097 	299.999999999998 	5.455637466647244e-13 	101324.9999999995
-0.656906906906907 	299.999999999993 	5.452107533792624e-13 	101324.9999999993
-0.6544044044044046 	299.9999999999936 	9.942678016471453e-13 	101324.9999999993
-0.6519019019019021 	299.9999999999993 	1.000705294590537e-12 	101324.9999999994
-0.6493993993993996 	300.0000000000031 	1.256633438898109e-12 	101324.9999999992
-0.6468968968968971 	300.0000000000035 	7.713116498734591e-13 	101324.9999999992
-0.6443943943943946 	299.9999999999989 	1.166854023437826e-12 	101324.9999999993
-0.6418918918918921 	299.9999999999995 	3.55655888973826e-13 	101324.9999999992
-0.6393893893893897 	299.9999999999999 	2.438170520511044e-13 	101324.9999999993
-0.6368868868868871 	299.9999999999973 	5.770111992892304e-13 	101324.9999999995
-0.6343843843843846 	300.0000000000009 	7.835292034183117e-13 	101324.9999999994
-0.6318818818818821 	299.9999999999962 	4.881139123987091e-13 	101324.9999999994
-0.6293793793793795 	300.0000000000009 	4.018758280237299e-13 	101324.9999999995
-0.6268768768768773 	300.0000000000026 	3.668841807393289e-13 	101324.9999999995
-0.6243743743743745 	299.9999999999983 	5.887614146029381e-13 	101324.9999999994
-0.6218718718718721 	300.0000000000019 	5.201665880314804e-13 	101324.9999999994
-0.6193693693693696 	299.999999999994 	4.749241900614159e-13 	101324.9999999993
-0.6168668668668671 	299.9999999999986 	1.076070269667589e-12 	101324.9999999994
-0.6143643643643645 	300.0000000000014 	7.028745787912259e-13 	101324.9999999993
-0.6118618618618621 	299.9999999999974 	3.565038602895761e-13 	101324.9999999995
-0.6093593593593596 	299.9999999999978 	4.752669793011912e-13 	101324.9999999997
-0.6068568568568571 	299.9999999999976 	6.014390815438422e-13 	101324.9999999997
-0.6043543543543546 	299.9999999999964 	3.459167484699634e-13 	101324.9999999997
-0.6018518518518521 	299.9999999999968 	2.257245761384969e-13 	101324.9999999995
-0.5993493493493496 	299.9999999999916 	2.491316224093513e-13 	101324.9999999995
-0.5968468468468471 	299.9999999999942 	4.526977844205872e-13 	101324.9999999994
-0.5943443443443446 	299.9999999999978 	7.279648312782318e-13 	101324.9999999995
-0.591841841841842 	299.9999999999948 	5.762400328010212e-13 	101324.9999999996
-0.5893393393393397 	299.9999999999956 	5.731294906927421e-13 	101324.9999999996
-0.5868368368368371 	299.9999999999993 	4.014896686372819e-13 	101324.9999999995
-0.5843343343343346 	299.9999999999993 	1.148147113768748e-12 	101324.9999999994
-0.5818318318318321 	300.0000000000026 	6.448970437622471e-13 	101324.9999999994
-0.5793293293293297 	299.9999999999983 	9.946877595094701e-13 	101324.9999999993
-0.5768268268268271 	300.0000000000001 	6.863338142045394e-13 	101324.9999999992
-0.5743243243243245 	300.000000000003 	8.100893524830321e-13 	101324.9999999993
-0.5718218218218221 	300.0000000000028 	8.712010447560998e-13 	101324.9999999992
-0.5693193193193196 	300.0000000000039 	7.516446065933742e-13 	101324.9999999993
-0.5668168168168171 	299.9999999999981 	1.11920814871105e-12 	101324.9999999993
-0.5643143143143147 	299.999999999993 	5.05832645357346e-13 	101324.9999999993
-0.5618118118118121 	300.000000000001 	5.953058641742498e-13 	101324.9999999992
-0.5593093093093094 	300.0000000000034 	3.858057278605406e-13 	101324.9999999993
-0.5568068068068072 	300.000000000002 	9.148734366020745e-13 	101324.9999999992
-0.5543043043043046 	300.0000000000024 	1.120637080312487e-12 	101324.9999999991
-0.551801801801802 	299.9999999999955 	1.156351310101081e-12 	101324.999999999
-0.5492992992992995 	300.0000000000006 	1.140485843821505e-12 	101324.9999999992
-0.5467967967967969 	300.0000000000022 	1.28839616866828e-12 	101324.9999999992
-0.5442942942942947 	299.9999999999998 	1.405245481700529e-12 	101324.9999999991
-0.5417917917917919 	299.9999999999938 	1.53753213547697e-12 	101324.999999999
-0.5392892892892895 	299.999999999993 	1.011701110126793e-12 	101324.9999999991
-0.536786786786787 	299.9999999999944 	6.334590037731448e-13 	101324.9999999992
-0.5342842842842846 	299.9999999999948 	5.064013346732719e-13 	101324.999999999
-0.531781781781782 	299.999999999991 	6.743214874790853e-13 	101324.9999999988
-0.5292792792792794 	299.9999999999909 	9.989294609351778e-13 	101324.999999999
-0.526776776776777 	299.9999999999906 	1.179203993779532e-12 	101324.9999999991
-0.5242742742742745 	299.9999999999968 	4.436292501843715e-13 	101324.9999999989
-0.521771771771772 	300.0000000000013 	1.332764171919837e-12 	101324.999999999
-0.5192692692692695 	299.9999999999948 	1.100001517314572e-12 	101324.9999999992
-0.516766766766767 	300 	1.040582580518339e-12 	101324.9999999994
-0.5142642642642645 	299.9999999999959 	9.975541812496976e-13 	101324.9999999994
-0.511761761761762 	299.9999999999936 	6.676628787733771e-13 	101324.9999999992
-0.5092592592592596 	299.9999999999974 	4.050960297085549e-13 	101324.999999999
-0.506756756756757 	299.9999999999942 	6.059820107493498e-13 	101324.999999999
-0.5042542542542544 	299.9999999999989 	4.226422710653293e-13 	101324.9999999989
-0.5017517517517521 	300.0000000000022 	5.057767259637572e-13 	101324.9999999988
-0.4992492492492494 	300.0000000000024 	2.707541675482045e-13 	101324.9999999987
-0.496746746746747 	299.9999999999986 	1.493113504827128e-13 	101324.9999999988
-0.4942442442442445 	299.9999999999916 	7.960446425315054e-14 	101324.9999999989
-0.4917417417417421 	299.9999999999926 	1.951160654747634e-13 	101324.9999999988
-0.4892392392392395 	299.999999999994 	2.564125166879251e-13 	101324.9999999988
-0.486736736736737 	299.9999999999943 	3.451797779430481e-13 	101324.9999999989
-0.4842342342342345 	299.9999999999907 	7.630243283488743e-13 	101324.9999999989
-0.481731731731732 	300.000000000003 	7.025267756857175e-13 	101324.9999999991
-0.4792292292292296 	300.0000000000024 	6.653437410100445e-13 	101324.9999999989
-0.4767267267267268 	299.9999999999959 	6.443717786667459e-13 	101324.9999999989
-0.4742242242242246 	299.9999999999998 	1.079679826836239e-12 	101324.999999999
-0.471721721721722 	299.9999999999947 	4.400045488224124e-13 	101324.999999999
-0.4692192192192195 	299.9999999999971 	5.521989265681993e-13 	101324.999999999
-0.4667167167167169 	299.9999999999897 	1.609310864606378e-13 	101324.9999999989
-0.4642142142142145 	300.0000000000009 	4.540131353791814e-13 	101324.9999999989
-0.461711711711712 	300.0000000000022 	2.090668367035949e-13 	101324.9999999988
-0.4592092092092094 	300.0000000000006 	4.994149690792173e-14 	101324.9999999989
-0.456706706706707 	300.0000000000051 	5.122901914281294e-13 	101324.9999999991
-0.4542042042042045 	299.9999999999933 	5.516404367229952e-13 	101324.9999999992
-0.451701701701702 	299.9999999999947 	3.005617738623733e-13 	101324.9999999991
-0.4491991991991995 	299.9999999999959 	2.277686072440246e-13 	101324.9999999992
-0.4466966966966969 	299.9999999999953 	2.367916156765356e-13 	101324.9999999992
-0.4441941941941945 	299.9999999999981 	4.231046990744593e-13 	101324.9999999992
-0.441691691691692 	299.9999999999952 	2.859505646128082e-13 	101324.999999999
-0.4391891891891895 	299.9999999999976 	6.662635041252046e-13 	101324.9999999989
-0.436686686686687 	299.9999999999962 	8.499979280503945e-13 	101324.999999999
-0.4341841841841846 	299.9999999999987 	8.597374607721978e-13 	101324.999999999
-0.431681681681682 	299.9999999999955 	5.880920833063846e-13 	101324.9999999988
-0.4291791791791794 	299.999999999991 	6.056562363174563e-13 	101324.9999999986
-0.426676676676677 	299.9999999999919 	6.547155333138338e-13 	101324.9999999986
-0.4241741741741744 	299.9999999999959 	1.087670302985278e-12 	101324.9999999988
-0.421671671671672 	300 	8.199293870494677e-13 	101324.999999999
-0.4191691691691694 	300.0000000000046 	1.018983999607083e-12 	101324.9999999992
-0.4166666666666669 	300.0000000000055 	1.09748814575484e-12 	101324.9999999994
-0.4141641641641645 	299.9999999999965 	9.964933607102387e-13 	101324.9999999992
-0.411661661661662 	300.0000000000003 	1.116904715285209e-12 	101324.9999999992
-0.4091591591591594 	300.0000000000004 	7.063821843124001e-13 	101324.9999999992
-0.406656656656657 	299.9999999999942 	1.063639189819729e-12 	101324.9999999992
-0.4041541541541545 	300.0000000000015 	9.526816547400415e-13 	101324.9999999992
-0.401651651651652 	299.9999999999927 	8.434083081367359e-13 	101324.9999999994
-0.3991491491491494 	299.9999999999994 	1.70874891096118e-12 	101324.9999999996
-0.396646646646647 	299.9999999999944 	5.535421695491821e-13 	101324.9999999996
-0.3941441441441444 	299.9999999999977 	1.895502488081681e-12 	101324.9999999995
-0.3916416416416419 	299.9999999999918 	9.078416019629139e-13 	101324.9999999993
-0.3891391391391395 	299.9999999999958 	1.396977223291561e-12 	101324.9999999992
-0.3866366366366368 	299.9999999999961 	9.107053024998474e-13 	101324.9999999992
-0.3841341341341344 	300.000000000001 	1.202444630686739e-12 	101324.9999999993
-0.381631631631632 	299.9999999999955 	1.441170270067785e-12 	101324.9999999994
-0.3791291291291294 	300.0000000000005 	1.080280545418627e-12 	101324.9999999994
-0.3766266266266269 	300.0000000000017 	5.308721655682918e-13 	101324.9999999993
-0.3741241241241244 	300.0000000000015 	3.064134534032762e-13 	101324.9999999993
-0.371621621621622 	300.0000000000015 	9.135221712208551e-13 	101324.9999999993
-0.3691191191191194 	300.0000000000004 	3.301106884576092e-13 	101324.9999999993
-0.366616616616617 	300.0000000000006 	8.046143110622721e-13 	101324.9999999994
-0.3641141141141143 	299.9999999999953 	8.94393627083687e-13 	101324.9999999995
-0.3616116116116119 	299.9999999999927 	7.45048453748501e-13 	101324.9999999993
-0.3591091091091095 	299.9999999999976 	3.842479804178356e-13 	101324.9999999993
-0.356606606606607 	299.9999999999977 	3.517023721817688e-13 	101324.9999999995
-0.3541041041041044 	300.0000000000002 	4.264917201732467e-13 	101324.9999999997
-0.3516016016016019 	300.0000000000023 	4.278862432544657e-13 	101324.9999999997
-0.3490990990990994 	300.0000000000009 	4.409963141121022e-13 	101324.9999999994
-0.346596596596597 	300.0000000000038 	2.948489324146907e-13 	101324.9999999995
-0.3440940940940944 	300.0000000000039 	4.646291006199146e-13 	101324.9999999995
-0.3415915915915919 	300.0000000000018 	5.429723083584623e-13 	101324.9999999995
-0.3390890890890895 	299.9999999999981 	4.808922802883028e-13 	101324.9999999995
-0.3365865865865869 	300.0000000000022 	4.747312117775648e-13 	101324.9999999997
-0.3340840840840844 	299.9999999999993 	5.753794333210044e-13 	101325
-0.3315815815815819 	300.0000000000036 	8.248744771727853e-13 	101324.9999999999
-0.3290790790790794 	300.0000000000043 	4.331070678376701e-13 	101324.9999999997
-0.3265765765765769 	299.999999999994 	6.665334707014245e-13 	101324.9999999995
-0.3240740740740744 	300.0000000000007 	5.568355172877195e-13 	101324.9999999994
-0.3215715715715718 	300.0000000000026 	8.118674801154428e-13 	101324.9999999995
-0.3190690690690695 	299.9999999999956 	8.16898123627162e-13 	101324.9999999996
-0.3165665665665668 	299.9999999999987 	8.685537395274641e-13 	101324.9999999997
-0.3140640640640644 	299.9999999999991 	1.125798747900921e-12 	101324.9999999998
-0.311561561561562 	299.9999999999942 	1.116771339680305e-12 	101324.9999999997
-0.3090590590590593 	300.0000000000006 	5.34944872190646e-13 	101324.9999999997
-0.3065565565565568 	300.0000000000011 	7.377220511854528e-13 	101324.9999999998
-0.3040540540540545 	299.9999999999995 	1.181030094043619e-12 	101324.9999999997
-0.3015515515515518 	300.0000000000019 	9.075465961008632e-13 	101324.9999999995
-0.2990490490490494 	299.999999999992 	3.394777219612703e-13 	101324.9999999993
-0.2965465465465469 	299.9999999999997 	1.220831051402922e-13 	101324.9999999993
-0.2940440440440444 	300.0000000000018 	2.764083891844401e-13 	101324.9999999992
-0.2915415415415418 	300.0000000000022 	3.339928439592629e-13 	101324.9999999991
-0.2890390390390395 	300.0000000000019 	8.583006091484554e-13 	101324.9999999992
-0.2865365365365368 	299.9999999999965 	7.085842176528073e-13 	101324.9999999995
-0.2840340340340343 	299.9999999999982 	1.159030580668198e-12 	101324.9999999997
-0.2815315315315318 	299.9999999999924 	3.000026997614366e-13 	101324.9999999995
-0.2790290290290295 	299.9999999999965 	8.082507146769293e-13 	101324.9999999995
-0.2765265265265269 	300.0000000000006 	5.166423782348601e-13 	101324.9999999993
-0.2740240240240244 	300.0000000000015 	4.876059944515733e-13 	101324.9999999992
-0.2715215215215219 	300.0000000000025 	4.208825680671498e-13 	101324.9999999991
-0.2690190190190194 	299.9999999999928 	4.823699651883631e-13 	101324.9999999993
-0.2665165165165169 	299.9999999999978 	9.579880089949973e-13 	101324.9999999994
-0.2640140140140144 	299.9999999999993 	1.079063850358041e-12 	101324.9999999994
-0.2615115115115119 	299.9999999999993 	1.463441834741085e-12 	101324.9999999992
-0.2590090090090094 	299.9999999999916 	1.001330841943156e-12 	101324.9999999992
-0.2565065065065068 	299.999999999997 	9.860883279145036e-13 	101324.999999999
-0.2540040040040044 	299.9999999999961 	4.222591517295467e-13 	101324.9999999992
-0.2515015015015019 	300.0000000000021 	3.569628028841423e-13 	101324.999999999
-0.2489989989989994 	300.0000000000042 	8.072223549649519e-13 	101324.9999999991
-0.2464964964964968 	299.9999999999968 	7.058402462456188e-13 	101324.9999999992
-0.2439939939939944 	299.9999999999978 	1.490618905799366e-12 	101324.9999999994
-0.2414914914914919 	299.9999999999954 	6.705064161741968e-13 	101324.9999999992
-0.2389889889889893 	299.9999999999981 	1.509884736560675e-12 	101324.9999999991
-0.2364864864864869 	300.0000000000048 	1.355267073137929e-12 	101324.9999999989
-0.2339839839839843 	299.9999999999952 	2.066187443495262e-12 	101324.9999999992
-0.2314814814814819 	299.999999999997 	7.650683936195025e-13 	101324.9999999992
-0.2289789789789792 	299.99999999999 	1.346900658342175e-12 	101324.9999999991
-0.2264764764764769 	299.9999999999941 	8.488020596755294e-13 	101324.9999999989
-0.2239739739739743 	299.9999999999987 	7.442764747437079e-13 	101324.9999999989
-0.2214714714714718 	299.9999999999925 	5.597953553771365e-13 	101324.9999999992
-0.2189689689689693 	299.999999999997 	6.350026127183371e-14 	101324.9999999995
-0.2164664664664669 	299.999999999999 	6.429546688048452e-13 	101324.9999999995
-0.2139639639639643 	299.9999999999924 	6.264659050685027e-13 	101324.9999999994
-0.2114614614614618 	299.9999999999969 	5.399692172727615e-14 	101324.9999999993
-0.2089589589589593 	300 	5.361335797173545e-14 	101324.999999999
-0.2064564564564568 	299.9999999999991 	3.662250785853031e-13 	101324.999999999
-0.2039539539539543 	299.9999999999923 	4.533998472512131e-13 	101324.999999999
-0.2014514514514518 	299.999999999989 	6.130445470663806e-13 	101324.999999999
-0.1989489489489494 	299.999999999997 	4.783086435981287e-13 	101324.999999999
-0.1964464464464468 	300.0000000000013 	4.157795125575611e-13 	101324.999999999
-0.1939439439439443 	300.0000000000009 	6.789846289306032e-13 	101324.9999999988
-0.1914414414414418 	299.9999999999941 	4.049260922184269e-13 	101324.9999999989
-0.1889389389389393 	299.9999999999977 	5.45022574538565e-13 	101324.9999999991
-0.1864364364364368 	300.0000000000006 	7.681229856585786e-14 	101324.999999999
-0.1839339339339343 	299.9999999999991 	6.350373422856768e-14 	101324.999999999
-0.1814314314314318 	299.9999999999977 	9.418219942142184e-14 	101324.999999999
-0.1789289289289293 	299.9999999999908 	3.371225341250259e-13 	101324.9999999989
-0.1764264264264268 	299.9999999999957 	3.918341021538451e-13 	101324.9999999989
-0.1739239239239243 	299.999999999988 	4.853349233869438e-13 	101324.9999999989
-0.1714214214214218 	299.9999999999978 	8.484788263916043e-13 	101324.9999999987
-0.1689189189189193 	299.9999999999923 	6.641682790552651e-13 	101324.9999999987
-0.1664164164164168 	299.9999999999994 	9.726291558397681e-13 	101324.9999999987
-0.1639139139139143 	299.9999999999993 	6.54181839741814e-13 	101324.9999999985
-0.1614114114114118 	299.9999999999995 	1.118881575765189e-12 	101324.9999999983
-0.1589089089089093 	299.9999999999986 	1.139029716599956e-12 	101324.9999999984
-0.1564064064064068 	299.9999999999947 	1.438620128230811e-12 	101324.9999999985
-0.1539039039039043 	300.0000000000014 	6.341645453949533e-13 	101324.9999999985
-0.1514014014014018 	300.0000000000028 	1.336290699164636e-12 	101324.9999999988
-0.1488988988988993 	300.0000000000031 	6.913642574089835e-13 	101324.999999999
-0.1463963963963968 	300.0000000000014 	5.54295284151268e-13 	101324.999999999
-0.1438938938938943 	299.999999999998 	1.399331380661997e-12 	101324.9999999989
-0.1413913913913918 	299.9999999999916 	4.425497535577922e-13 	101324.9999999989
-0.1388888888888893 	299.9999999999954 	8.610446146799481e-13 	101324.9999999989
-0.1363863863863868 	299.9999999999874 	5.802348661602007e-13 	101324.999999999
-0.1338838838838843 	299.9999999999948 	2.779626749439296e-13 	101324.9999999989
-0.1313813813813818 	299.9999999999987 	6.198017389458391e-13 	101324.9999999989
-0.1288788788788793 	299.9999999999945 	7.978188866264843e-13 	101324.999999999
-0.1263763763763768 	299.9999999999974 	6.212796331508814e-13 	101324.999999999
-0.1238738738738743 	299.9999999999939 	8.808528455369692e-13 	101324.9999999988
-0.1213713713713717 	299.9999999999989 	5.56487065389689e-13 	101324.9999999989
-0.1188688688688693 	300.0000000000043 	1.173475347299975e-12 	101324.9999999989
-0.1163663663663668 	299.9999999999882 	4.120050141959721e-13 	101324.9999999988
-0.1138638638638643 	299.999999999999 	4.890314040371574e-13 	101324.9999999987
-0.1113613613613618 	300.0000000000001 	4.705428062650566e-13 	101324.9999999987
-0.1088588588588592 	299.9999999999997 	9.646192414038764e-13 	101324.9999999987
-0.1063563563563568 	299.9999999999953 	1.470963310743418e-13 	101324.9999999991
-0.1038538538538543 	300.0000000000001 	8.743602291070805e-13 	101324.9999999991
-0.1013513513513517 	299.9999999999998 	6.787847158591302e-13 	101324.9999999991
-0.09884884884884926 	299.9999999999958 	1.02819403299e-12 	101324.999999999
-0.09634634634634676 	299.9999999999922 	5.58845440392778e-13 	101324.9999999988
-0.09384384384384425 	299.9999999999901 	3.739759059267673e-13 	101324.9999999988
-0.09134134134134177 	300.0000000000005 	4.176820796874978e-13 	101324.9999999987
-0.08883883883883925 	300.0000000000003 	8.624169165723435e-13 	101324.9999999986
-0.08633633633633674 	299.9999999999934 	4.12049414944052e-13 	101324.9999999985
-0.08383383383383426 	299.999999999998 	1.48952936798097e-13 	101324.9999999986
-0.08133133133133173 	299.9999999999943 	7.25361258980237e-13 	101324.9999999984
-0.07882882882882926 	299.999999999989 	2.58765680933009e-13 	101324.9999999984
-0.07632632632632676 	299.9999999999962 	1.92242101501923e-13 	101324.9999999982
-0.07382382382382424 	299.9999999999872 	3.569769433484587e-13 	101324.9999999981
-0.07132132132132173 	299.9999999999993 	2.594667392963747e-13 	101324.9999999982
-0.06881881881881925 	299.9999999999935 	3.859511207200624e-13 	101324.9999999983
-0.06631631631631671 	299.9999999999868 	2.541096026231728e-13 	101324.9999999983
-0.06381381381381425 	299.9999999999934 	1.029565315676772e-13 	101324.9999999983
-0.06131131131131173 	299.999999999993 	5.02513422966283e-13 	101324.9999999983
-0.05880880880880923 	299.9999999999924 	3.128960452447705e-13 	101324.9999999982
-0.05630630630630672 	299.9999999999948 	8.119556171383345e-15 	101324.9999999983
-0.05380380380380424 	300.0000000000035 	4.330133026763641e-13 	101324.9999999984
-0.05130130130130173 	300 	1.054442338495112e-12 	101324.9999999985
-0.04879879879879922 	299.9999999999937 	8.728203258421184e-13 	101324.9999999983
-0.04629629629629672 	299.9999999999936 	4.794328694233581e-13 	101324.9999999983
-0.04379379379379422 	299.9999999999903 	4.930533280018589e-13 	101324.9999999984
-0.04129129129129173 	299.9999999999962 	6.714265313954211e-13 	101324.9999999985
-0.03878878878878922 	299.9999999999993 	7.106773397771514e-13 	101324.9999999984
-0.03628628628628671 	299.9999999999974 	5.413623521655301e-13 	101324.9999999984
-0.03378378378378422 	299.9999999999933 	4.357454756542156e-13 	101324.9999999984
-0.03128128128128172 	299.9999999999959 	1.209656265597118e-14 	101324.9999999983
-0.02877877877877922 	299.9999999999948 	3.185903710727918e-14 	101324.9999999982
-0.0262762762762767 	299.9999999999882 	2.587553828222716e-13 	101324.9999999984
-0.02377377377377422 	300.0000000000015 	3.582511420067739e-13 	101324.9999999984
-0.0212712712712717 	299.9999999999888 	2.862126118627989e-13 	101324.9999999983
-0.01876876876876921 	299.9999999999956 	4.275135256863311e-13 	101324.9999999981
-0.01626626626626671 	299.9999999999977 	6.318950596804578e-14 	101324.9999999982
-0.0137637637637642 	299.9999999999942 	2.146427817458081e-13 	101324.9999999983
-0.0112612612612617 	300.0000000000009 	2.879872247268526e-13 	101324.9999999982
-0.008758758758759198 	299.9999999999993 	2.089595591745656e-13 	101324.9999999983
-0.006256256256256697 	299.9999999999861 	2.193595020434905e-13 	101324.9999999982
-0.003753753753754195 	299.9999999999933 	3.358928998795096e-15 	101324.9999999985
-0.001251251251251693 	299.9999999999923 	5.24423910183151e-13 	101324.9999999985
0.00125125125125081 	299.9999999999939 	2.528823191207344e-13 	101324.9999999986
0.003753753753753312 	299.9999999999952 	4.731110112913454e-13 	101324.9999999987
0.006256256256255817 	299.9999999999869 	5.079801186414997e-13 	101324.9999999986
0.008758758758758317 	299.9999999999961 	6.623872505539141e-13 	101324.9999999984
0.01126126126126082 	299.9999999999984 	8.04463668454506e-13 	101324.9999999983
0.01376376376376332 	299.9999999999957 	4.653076096871409e-13 	101324.9999999981
0.01626626626626582 	300.0000000000006 	1.535690595584547e-14 	101324.9999999981
0.01876876876876833 	299.999999999993 	1.227420534251397e-13 	101324.9999999983
0.02127127127127083 	299.999999999996 	7.871699275285067e-13 	101324.9999999983
0.02377377377377332 	299.999999999998 	7.941780576955336e-13 	101324.9999999983
0.02627627627627583 	299.9999999999912 	4.928224406968444e-13 	101324.9999999986
0.02877877877877833 	299.9999999999984 	2.833546389238829e-13 	101324.9999999983
0.03128128128128083 	299.999999999994 	4.308425440334403e-15 	101324.9999999983
0.03378378378378333 	299.9999999999878 	2.973608899795961e-14 	101324.9999999983
0.03628628628628584 	299.9999999999983 	1.591639050303647e-13 	101324.9999999983
0.03878878878878834 	299.9999999999989 	1.193537309082016e-13 	101324.9999999982
0.04129129129129084 	299.9999999999956 	2.516457758407022e-13 	101324.9999999984
0.04379379379379333 	299.999999999992 	1.10960514435901e-13 	101324.9999999983
0.04629629629629585 	299.9999999999864 	1.723270169925886e-13 	101324.9999999982
0.04879879879879834 	299.9999999999953 	8.603324993520607e-14 	101324.9999999982
0.05130130130130085 	299.9999999999986 	2.543816814590095e-13 	101324.9999999982
0.05380380380380335 	300.0000000000037 	2.439975659004656e-13 	101324.9999999984
0.05630630630630584 	299.9999999999983 	4.481546939639081e-13 	101324.9999999983
0.05880880880880836 	299.9999999999936 	2.785926884374744e-13 	101324.9999999982
0.06131131131131085 	299.9999999999972 	7.473957013241032e-14 	101324.9999999984
0.06381381381381336 	299.999999999993 	2.216909028848596e-13 	101324.9999999983
0.06631631631631586 	299.9999999999868 	2.919407656037382e-13 	101324.9999999983
0.06881881881881835 	299.9999999999939 	3.283647059420636e-13 	101324.9999999984
0.07132132132132088 	300.0000000000022 	1.710192079316082e-13 	101324.9999999987
0.07382382382382337 	299.9999999999889 	1.47522460832756e-13 	101324.9999999985
0.07632632632632587 	299.9999999999955 	3.123068105952051e-14 	101324.9999999985
0.07882882882882837 	299.9999999999904 	1.964967476311441e-13 	101324.9999999983
0.08133133133133086 	299.9999999999985 	7.371299732638585e-13 	101324.9999999982
0.08383383383383337 	300.0000000000028 	2.06775142580776e-13 	101324.999999998
0.08633633633633589 	299.9999999999878 	7.955308753848928e-13 	101324.9999999983
0.08883883883883838 	300.000000000001 	1.339903964661189e-12 	101324.9999999984
0.09134134134134086 	299.9999999999978 	8.438794228394967e-13 	101324.9999999985
0.09384384384384339 	299.9999999999922 	8.957702956380999e-13 	101324.9999999984
0.09634634634634588 	299.999999999999 	8.562335786928339e-13 	101324.9999999982
0.09884884884884838 	299.9999999999987 	7.026207888284339e-13 	101324.9999999984
0.1013513513513509 	300.0000000000034 	4.091120431459458e-13 	101324.9999999984
0.1038538538538534 	299.9999999999908 	2.157659171517788e-13 	101324.9999999982
0.1063563563563559 	299.999999999999 	9.949476986159732e-13 	101324.9999999982
0.1088588588588584 	299.9999999999993 	1.176842989702678e-12 	101324.9999999984
0.1113613613613609 	299.9999999999944 	1.626962686942848e-12 	101324.9999999989
0.1138638638638634 	299.9999999999939 	1.677956615140434e-12 	101324.9999999988
0.1163663663663659 	299.9999999999922 	1.787565457319177e-12 	101324.9999999987
0.1188688688688684 	299.9999999999968 	1.152682592062083e-12 	101324.9999999988
0.1213713713713709 	299.9999999999978 	3.776050875398896e-13 	101324.9999999988
0.1238738738738734 	299.9999999999898 	3.459674178563388e-13 	101324.9999999987
0.1263763763763759 	300.0000000000002 	8.035293720769938e-13 	101324.9999999988
0.1288788788788784 	299.9999999999988 	5.034528628034461e-13 	101324.9999999988
0.1313813813813809 	299.9999999999972 	3.208852107152259e-13 	101324.9999999988
0.1338838838838834 	299.9999999999937 	1.045729632749625e-13 	101324.9999999988
0.1363863863863859 	300.0000000000005 	4.634877666798508e-14 	101324.9999999988
0.1388888888888884 	300.0000000000019 	4.850337880284795e-13 	101324.9999999988
0.1413913913913909 	299.9999999999999 	8.460878190210562e-13 	101324.9999999986
0.1438938938938934 	299.9999999999979 	6.911997014510914e-13 	101324.9999999987
0.1463963963963959 	299.9999999999944 	7.554633579144022e-14 	101324.9999999987
0.1488988988988985 	299.9999999999908 	8.399456023655561e-13 	101324.9999999986
0.1514014014014009 	299.9999999999957 	8.808846330961471e-13 	101324.9999999986
0.1539039039039035 	299.9999999999941 	3.897249842547959e-13 	101324.9999999986
0.1564064064064059 	299.9999999999959 	5.415900991307924e-13 	101324.9999999991
0.1589089089089084 	299.9999999999962 	5.302507530306801e-13 	101324.9999999989
0.1614114114114109 	299.9999999999947 	2.268303200154582e-13 	101324.9999999988
0.1639139139139134 	299.9999999999906 	4.832657982282736e-13 	101324.9999999986
0.166416416416416 	299.9999999999974 	5.175663618236687e-13 	101324.9999999988
0.1689189189189185 	300.0000000000019 	2.937198032099656e-13 	101324.9999999987
0.1714214214214209 	300.0000000000007 	6.195693497706164e-13 	101324.9999999989
0.1739239239239235 	300 	4.714759567374906e-13 	101324.999999999
0.1764264264264259 	299.9999999999948 	5.99601977012363e-13 	101324.9999999991
0.1789289289289284 	300.0000000000013 	4.376186957676049e-13 	101324.999999999
0.181431431431431 	299.9999999999977 	2.402912549425904e-13 	101324.9999999989
0.1839339339339334 	299.9999999999972 	8.696024724845051e-14 	101324.9999999989
0.186436436436436 	299.9999999999955 	3.902998407250175e-13 	101324.9999999991
0.1889389389389385 	299.9999999999967 	1.673059974608342e-13 	101324.999999999
0.191441441441441 	299.9999999999964 	2.197150943096295e-13 	101324.9999999988
0.1939439439439434 	299.9999999999926 	6.832531328553615e-13 	101324.9999999989
0.196446446446446 	299.9999999999962 	4.48905659863807e-13 	101324.9999999991
0.1989489489489485 	299.999999999996 	1.311008728140425e-12 	101324.999999999
0.2014514514514509 	299.9999999999989 	4.537205742084644e-13 	101324.9999999989
0.2039539539539535 	299.9999999999971 	6.831991205271046e-13 	101324.9999999991
0.2064564564564559 	299.9999999999944 	9.622756651373973e-13 	101324.9999999991
0.2089589589589585 	299.9999999999991 	7.613651895664863e-13 	101324.9999999992
0.211461461461461 	299.999999999993 	6.689841599984993e-13 	101324.999999999
0.2139639639639635 	299.9999999999981 	7.977400723007154e-13 	101324.999999999
0.2164664664664659 	300.0000000000038 	8.618609943715955e-13 	101324.999999999
0.2189689689689684 	300.0000000000032 	5.427175488279462e-13 	101324.9999999991
0.221471471471471 	299.9999999999994 	1.371318989965922e-12 	101324.9999999991
0.2239739739739735 	299.9999999999975 	9.661597602507607e-13 	101324.9999999994
0.226476476476476 	299.9999999999998 	1.417243322952084e-12 	101324.9999999994
0.2289789789789785 	299.9999999999997 	9.445755659374093e-13 	101324.9999999993
0.231481481481481 	299.999999999999 	1.025017792354394e-12 	101324.9999999993
0.2339839839839835 	299.9999999999967 	1.567805811113804e-12 	101324.9999999992
0.236486486486486 	300.0000000000052 	1.079628050853144e-12 	101324.9999999992
0.2389889889889885 	300.0000000000002 	6.211357605320766e-13 	101324.9999999993
0.241491491491491 	299.9999999999935 	5.047555305461075e-13 	101324.9999999993
0.2439939939939935 	299.9999999999981 	4.079771922863593e-13 	101324.9999999994
0.246496496496496 	299.9999999999994 	3.102062834595111e-13 	101324.9999999996
0.2489989989989985 	300.0000000000021 	4.746530098577309e-13 	101324.9999999994
0.251501501501501 	300.0000000000026 	2.378379726329673e-13 	101324.9999999994
0.2540040040040035 	300 	3.965829757365397e-13 	101324.9999999994
0.256506506506506 	300.000000000001 	3.038603693614849e-13 	101324.9999999995
0.2590090090090086 	299.9999999999926 	3.832564800473227e-13 	101324.9999999994
0.261511511511511 	300.0000000000023 	1.147124467890172e-12 	101324.9999999995
0.2640140140140135 	299.9999999999981 	6.728967761196662e-13 	101324.9999999992
0.2665165165165161 	299.9999999999977 	7.291168696079041e-13 	101324.9999999993
0.2690190190190185 	300.0000000000034 	2.377275119231277e-13 	101324.9999999994
0.271521521521521 	300.0000000000018 	2.089922965712809e-13 	101324.9999999995
0.2740240240240235 	300.0000000000026 	2.301829973348931e-13 	101324.9999999995
0.276526526526526 	299.999999999998 	7.441771214546359e-14 	101324.9999999997
0.2790290290290286 	299.9999999999956 	5.589644285990029e-13 	101324.9999999999
0.281531531531531 	299.9999999999906 	5.820093903242995e-13 	101324.9999999997
0.2840340340340335 	299.9999999999991 	1.15060236541319e-12 	101324.9999999997
0.2865365365365361 	299.9999999999986 	5.862318715169123e-13 	101324.9999999998
0.2890390390390385 	300 	8.429444698218087e-13 	101324.9999999997
0.291541541541541 	299.999999999999 	2.664508164177141e-13 	101324.9999999996
0.2940440440440436 	299.9999999999989 	2.568240069728595e-13 	101324.9999999993
0.296546546546546 	299.9999999999976 	1.253158542334815e-13 	101324.9999999992
0.2990490490490486 	299.999999999992 	4.886743681517258e-13 	101324.9999999995
0.3015515515515511 	300.000000000003 	1.078851268300776e-12 	101324.9999999995
0.3040540540540535 	299.9999999999984 	8.251325331900364e-13 	101324.9999999996
0.3065565565565562 	300.0000000000002 	1.383514202953016e-12 	101324.9999999997
0.3090590590590585 	299.999999999999 	4.91632491521908e-13 	101324.9999999996
0.3115615615615611 	299.9999999999935 	2.518329883687295e-14 	101324.9999999997
0.3140640640640635 	300.0000000000012 	2.172369966300061e-13 	101324.9999999996
0.316566566566566 	299.9999999999987 	4.337796379081053e-13 	101324.9999999996
0.3190690690690687 	299.9999999999945 	3.671476830960625e-13 	101324.9999999996
0.3215715715715711 	300.0000000000004 	5.407795631702274e-13 	101324.9999999995
0.3240740740740735 	299.9999999999981 	6.756964141509981e-13 	101324.9999999997
0.326576576576576 	299.999999999989 	2.784020704600293e-13 	101324.9999999996
0.3290790790790786 	300.0000000000004 	3.752550000901198e-13 	101324.9999999996
0.3315815815815811 	300.000000000004 	1.362864922125507e-13 	101324.9999999995
0.3340840840840836 	300.0000000000018 	4.716641927949141e-14 	101324.9999999994
0.3365865865865861 	300.0000000000068 	4.208005973163322e-13 	101324.9999999993
0.3390890890890886 	300.0000000000039 	1.081248483687301e-12 	101324.9999999994
0.3415915915915911 	300.0000000000002 	1.118012408409096e-12 	101324.9999999991
0.3440940940940935 	299.9999999999949 	1.31561189210305e-12 	101324.9999999994
0.3465965965965962 	300.0000000000051 	2.759916647204233e-13 	101324.9999999994
0.3490990990990985 	300.0000000000039 	7.950174615839757e-13 	101324.9999999993
0.3516016016016011 	299.9999999999991 	2.9102557827234e-13 	101324.9999999993
0.3541041041041035 	300.0000000000013 	3.122459126876611e-13 	101324.9999999993
0.3566066066066061 	299.9999999999962 	1.271732635597736e-13 	101324.9999999994
0.3591091091091085 	299.9999999999924 	4.534146543028256e-13 	101324.9999999993
0.3616116116116112 	299.9999999999936 	6.849272463243985e-13 	101324.9999999992
0.3641141141141137 	299.9999999999931 	5.690986858346172e-13 	101324.9999999994
0.3666166166166161 	299.9999999999927 	5.44877698030921e-13 	101324.9999999996
0.3691191191191185 	300.0000000000036 	1.225055540416042e-12 	101324.9999999994
0.371621621621621 	300.0000000000016 	2.410972291371286e-13 	101324.9999999992
0.3741241241241237 	300.0000000000054 	2.055404316258397e-13 	101324.9999999993
0.3766266266266261 	299.9999999999999 	8.388077044272678e-13 	101324.9999999995
0.3791291291291286 	299.9999999999981 	1.192888967722867e-12 	101324.9999999997
0.3816316316316311 	299.9999999999941 	9.470113093073558e-13 	101324.9999999996
0.3841341341341336 	300.0000000000013 	6.043522720039714e-13 	101324.9999999998
0.3866366366366362 	299.9999999999995 	3.971779754800015e-13 	101324.9999999998
0.3891391391391387 	299.9999999999949 	9.717478600984167e-14 	101324.9999999997
0.391641641641641 	300.0000000000002 	3.384862118193484e-13 	101324.9999999996
0.3941441441441436 	300.0000000000007 	4.047239679170229e-13 	101324.9999999998
0.3966466466466462 	299.9999999999986 	2.75370526946849e-13 	101324.9999999997
0.3991491491491486 	299.9999999999938 	5.226615320277086e-13 	101324.9999999996
0.4016516516516512 	299.9999999999899 	6.91359737771226e-13 	101324.9999999995
0.4041541541541536 	299.9999999999953 	2.84845046330929e-13 	101324.9999999994
0.4066566566566561 	299.9999999999958 	7.323524488998565e-13 	101324.9999999992
0.4091591591591587 	299.9999999999998 	3.957944008075748e-13 	101324.9999999993
0.4116616616616612 	300.0000000000027 	4.149117829268966e-13 	101324.9999999994
0.4141641641641635 	300.0000000000041 	5.051915168223887e-14 	101324.9999999994
0.4166666666666662 	300 	2.43334748775909e-13 	101324.9999999992
0.4191691691691687 	299.9999999999944 	2.854054052969425e-13 	101324.9999999991
0.421671671671671 	300.0000000000026 	7.833920633564218e-13 	101324.9999999991
0.4241741741741737 	299.9999999999977 	8.115581715066538e-13 	101324.999999999
0.4266766766766761 	299.9999999999974 	7.890491947986344e-13 	101324.999999999
0.4291791791791785 	300.0000000000014 	1.213971722227959e-12 	101324.9999999992
0.4316816816816812 	299.9999999999978 	4.589746582588657e-13 	101324.9999999991
0.4341841841841836 	299.9999999999983 	7.539848820809634e-13 	101324.9999999993
0.4366866866866862 	299.9999999999951 	1.222897814264479e-13 	101324.9999999992
0.4391891891891885 	299.999999999998 	4.782743217134912e-13 	101324.9999999991
0.4416916916916913 	299.999999999998 	7.540037693893514e-13 	101324.9999999992
0.4441941941941936 	299.999999999997 	5.38924062704997e-13 	101324.999999999
0.4466966966966961 	299.9999999999917 	3.753046777526617e-13 	101324.9999999989
0.4491991991991987 	300.0000000000005 	6.935032859144343e-13 	101324.999999999
0.4517017017017012 	299.9999999999981 	2.222226787602652e-13 	101324.999999999
0.4542042042042035 	299.9999999999969 	1.880440784171298e-13 	101324.9999999992
0.4567067067067062 	299.9999999999966 	1.046768958577156e-12 	101324.9999999992
0.4592092092092087 	299.9999999999918 	1.448583240958874e-12 	101324.9999999992
0.4617117117117112 	299.9999999999995 	1.756412320922466e-12 	101324.999999999
0.4642142142142137 	299.9999999999947 	1.608001344125664e-12 	101324.9999999989
0.4667167167167162 	299.9999999999968 	1.382817456148435e-12 	101324.9999999988
0.4692192192192187 	299.9999999999933 	1.323586757716779e-12 	101324.9999999989
0.4717217217217212 	300.0000000000011 	1.504547849767267e-12 	101324.999999999
0.4742242242242236 	299.999999999994 	1.412875589075233e-12 	101324.9999999989
0.4767267267267262 	299.9999999999976 	6.404661716714905e-13 	101324.9999999989
0.4792292292292287 	300.0000000000008 	5.811251207769021e-13 	101324.999999999
0.4817317317317312 	300.0000000000014 	8.963216080262683e-13 	101324.9999999988
0.4842342342342336 	299.9999999999974 	9.74230137335526e-13 	101324.9999999987
0.4867367367367362 	299.9999999999942 	8.075138696494344e-13 	101324.9999999989
0.4892392392392387 	300.0000000000003 	8.555064257610072e-13 	101324.9999999987
0.4917417417417412 	299.9999999999999 	1.409591119755685e-12 	101324.9999999987
0.4942442442442437 	299.9999999999893 	1.268014479283968e-12 	101324.9999999988
0.4967467467467462 	299.9999999999919 	1.435288378012258e-12 	101324.9999999988
0.4992492492492487 	299.9999999999914 	6.755982054291525e-13 	101324.9999999988
0.5017517517517511 	299.9999999999947 	1.148063219406057e-12 	101324.9999999989
0.5042542542542537 	299.9999999999957 	1.30148880252716e-12 	101324.999999999
0.5067567567567562 	299.999999999992 	1.170355600159377e-12 	101324.999999999
0.5092592592592589 	299.9999999999951 	7.27210682875907e-13 	101324.999999999
0.5117617617617611 	299.9999999999952 	6.161716909669917e-13 	101324.9999999989
0.5142642642642637 	299.9999999999999 	8.003746311825452e-13 	101324.999999999
0.5167667667667663 	299.9999999999981 	7.197563338664537e-13 	101324.999999999
0.5192692692692688 	299.9999999999906 	1.158536981628544e-12 	101324.9999999989
0.5217717717717714 	299.9999999999917 	8.195621004208684e-13 	101324.999999999
0.5242742742742736 	299.9999999999909 	6.291915507198605e-13 	101324.9999999987
0.5267767767767763 	299.999999999995 	2.884353754556767e-13 	101324.9999999985
0.5292792792792789 	299.9999999999939 	3.287807984540882e-13 	101324.9999999985
0.5317817817817813 	299.9999999999887 	5.953969095525134e-13 	101324.9999999986
0.5342842842842837 	299.9999999999997 	7.104778382672865e-13 	101324.9999999987
0.5367867867867864 	299.9999999999991 	7.430024819640082e-13 	101324.9999999988
0.5392892892892888 	299.9999999999959 	9.130933366642849e-13 	101324.9999999991
0.5417917917917912 	299.9999999999994 	1.200308444710589e-12 	101324.9999999992
0.5442942942942938 	299.9999999999959 	1.025504325268708e-12 	101324.9999999991
0.5467967967967964 	299.9999999999939 	1.07725012435685e-12 	101324.9999999989
0.5492992992992988 	299.9999999999934 	1.18195052227864e-12 	101324.9999999988
0.5518018018018012 	299.9999999999942 	1.532654369371207e-12 	101324.9999999987
0.5543043043043039 	300.0000000000014 	1.616051263910803e-12 	101324.9999999986
0.5568068068068063 	299.9999999999986 	1.652919593957918e-12 	101324.9999999987
0.5593093093093087 	299.9999999999915 	1.830579259952451e-12 	101324.9999999989
0.5618118118118114 	299.9999999999965 	2.763261241770882e-12 	101324.999999999
0.5643143143143137 	299.9999999999947 	2.193010879790646e-12 	101324.9999999989
0.5668168168168163 	299.999999999999 	2.06322221419374e-12 	101324.9999999989
0.5693193193193188 	300.000000000003 	1.662715817989163e-12 	101324.999999999
0.5718218218218213 	300.0000000000026 	1.294433361025802e-12 	101324.9999999991
0.5743243243243239 	300.0000000000014 	8.271688649886414e-13 	101324.9999999989
0.5768268268268262 	299.9999999999997 	5.811501279444016e-13 	101324.999999999
0.5793293293293288 	299.999999999994 	5.519494066795097e-13 	101324.999999999
0.5818318318318314 	299.9999999999915 	7.349471900282225e-13 	101324.9999999991
0.5843343343343338 	299.9999999999969 	9.621282869397369e-13 	101324.9999999988
0.5868368368368363 	299.9999999999957 	5.157059363613557e-13 	101324.9999999987
0.5893393393393387 	299.9999999999918 	4.763708258527443e-13 	101324.9999999988
0.5918418418418413 	299.9999999999949 	1.01801208021586e-12 	101324.9999999988
0.5943443443443439 	300.0000000000026 	1.306970248033216e-12 	101324.9999999988
0.5968468468468463 	300.0000000000016 	1.00554392236931e-12 	101324.9999999989
0.5993493493493487 	300.0000000000049 	5.201004834481669e-13 	101324.999999999
0.6018518518518514 	299.9999999999967 	5.167472108747515e-13 	101324.9999999992
0.6043543543543537 	299.9999999999997 	6.509316002614155e-13 	101324.9999999992
0.6068568568568564 	299.9999999999974 	7.34402276968411e-13 	101324.9999999991
0.6093593593593587 	299.9999999999916 	6.278214657726528e-13 	101324.9999999992
0.6118618618618614 	299.9999999999929 	1.783545385065102e-13 	101324.9999999993
0.6143643643643638 	300.0000000000018 	5.822677964913808e-13 	101324.9999999991
0.6168668668668662 	299.9999999999993 	5.593004255904686e-13 	101324.9999999989
0.6193693693693688 	299.9999999999944 	6.977125579197511e-13 	101324.9999999989
0.6218718718718714 	299.999999999997 	1.485390721701176e-12 	101324.9999999989
0.6243743743743737 	299.999999999994 	8.515373184221849e-13 	101324.999999999
0.6268768768768762 	299.9999999999925 	1.000192432973384e-12 	101324.9999999991
0.629379379379379 	299.9999999999953 	6.11154629596305e-13 	101324.999999999
0.6318818818818812 	299.999999999996 	7.668541126726426e-13 	101324.999999999
0.6343843843843838 	300.0000000000017 	7.367193753180366e-13 	101324.9999999989
0.6368868868868864 	299.9999999999978 	9.321640603183986e-13 	101324.9999999989
0.6393893893893888 	299.9999999999922 	9.193004379870543e-13 	101324.9999999991
0.6418918918918912 	299.9999999999999 	5.835929165603006e-13 	101324.9999999991
0.6443943943943939 	299.9999999999977 	1.201474980151369e-12 	101324.9999999992
0.6468968968968963 	299.9999999999964 	5.80187427582648e-13 	101324.999999999
0.6493993993993988 	299.9999999999961 	9.599228814328153e-13 	101324.9999999987
0.6519019019019012 	299.9999999999955 	5.883225803884781e-13 	101324.9999999986
0.6544044044044038 	299.9999999999888 	5.914771061792308e-13 	101324.9999999985
0.6569069069069065 	299.9999999999955 	8.558933890448542e-14 	101324.9999999987
0.6594094094094087 	299.9999999999953 	3.085526975201766e-13 	101324.999999999
0.6619119119119113 	299.9999999999935 	3.31498288749701e-13 	101324.9999999991
0.664414414414414 	299.9999999999984 	5.027174693519394e-13 	101324.9999999992
0.6669169169169162 	299.9999999999998 	5.50449520301196e-13 	101324.9999999993
0.6694194194194188 	299.9999999999974 	5.546948815626836e-13 	101324.999999999
0.6719219219219214 	299.9999999999946 	1.465530132604074e-13 	101324.9999999989
0.674424424424424 	299.9999999999968 	4.442526277502042e-13 	101324.9999999988
0.6769269269269262 	299.9999999999905 	7.595954161294817e-13 	101324.9999999987
0.679429429429429 	300.0000000000006 	4.85019909735455e-13 	101324.9999999989
0.6819319319319311 	299.9999999999966 	2.721361754835365e-13 	101324.9999999989
0.6844344344344341 	299.9999999999985 	3.976010848004943e-13 	101324.9999999989
0.686936936936936 	299.9999999999988 	5.813992948155822e-13 	101324.9999999987
0.6894394394394392 	300.0000000000003 	3.143052740800564e-13 	101324.9999999986
0.6919419419419413 	299.9999999999985 	3.636720393708028e-13 	101324.9999999985
0.694444444444444 	299.9999999999949 	5.367633361880356e-13 	101324.9999999986
0.6969469469469463 	299.9999999999922 	2.300638942749103e-13 	101324.9999999987
0.6994494494494489 	299.999999999991 	2.735943561046189e-13 	101324.9999999988
0.7019519519519515 	299.9999999999982 	3.068422096400766e-13 	101324.9999999989
0.7044544544544538 	299.9999999999939 	5.696137595571767e-13 	101324.9999999988
0.7069569569569564 	299.9999999999989 	8.207925909686195e-13 	101324.9999999988
0.7094594594594589 	299.9999999999963 	4.37255481611924e-13 	101324.9999999987
0.7119619619619615 	299.9999999999907 	4.607826837129968e-13 	101324.9999999986
0.7144644644644638 	299.9999999999928 	1.173035799944133e-13 	101324.9999999985
0.7169669669669665 	299.9999999999909 	1.176990766234326e-13 	101324.9999999984
0.7194694694694688 	299.999999999998 	3.75281245929608e-13 	101324.9999999985
0.7219719719719715 	299.9999999999989 	4.067653826634503e-13 	101324.9999999986
0.7244744744744737 	299.9999999999995 	5.714565554345737e-13 	101324.9999999989
0.7269769769769764 	299.9999999999991 	6.035651953047122e-13 	101324.999999999
0.7294794794794791 	299.9999999999983 	1.078015111624103e-12 	101324.9999999989
0.7319819819819813 	299.9999999999976 	6.074982958927355e-13 	101324.999999999
0.7344844844844839 	299.9999999999922 	5.932970471475494e-13 	101324.999999999
0.7369869869869864 	299.9999999999957 	5.330304080906405e-13 	101324.9999999991
0.739489489489489 	299.9999999999945 	2.887528353055049e-13 	101324.999999999
0.7419919919919914 	299.9999999999936 	4.150524590011102e-13 	101324.9999999988
0.7444944944944939 	299.9999999999966 	7.14301241814269e-13 	101324.9999999989
0.7469969969969963 	299.9999999999971 	1.033891723668506e-12 	101324.999999999
0.7494994994994989 	299.9999999999934 	1.066740515847196e-12 	101324.9999999989
0.7520020020020015 	299.999999999996 	9.840956531895492e-13 	101324.9999999988
0.7545045045045039 	299.9999999999962 	9.385586099852708e-13 	101324.9999999987
0.7570070070070062 	299.9999999999944 	6.110036313223943e-13 	101324.9999999988
0.7595095095095092 	299.9999999999927 	9.288405823368546e-13 	101324.9999999987
0.7620120120120112 	299.9999999999999 	8.369464749081215e-13 	101324.9999999987
0.7645145145145138 	299.9999999999984 	6.839877716523469e-13 	101324.9999999988
0.7670170170170165 	299.9999999999935 	7.747766343451114e-13 	101324.9999999989
0.7695195195195191 	299.9999999999926 	6.384489850023417e-13 	101324.9999999989
0.7720220220220213 	299.9999999999945 	6.459646099275951e-13 	101324.9999999988
0.7745245245245239 	299.9999999999959 	5.594721346729833e-13 	101324.9999999989
0.7770270270270263 	299.9999999999978 	3.900919796164287e-13 	101324.999999999
0.779529529529529 	299.9999999999966 	3.289781205516051e-13 	101324.999999999
0.7820320320320313 	299.9999999999942 	3.492889753888546e-13 	101324.999999999
0.784534534534534 	299.9999999999976 	5.149470119208005e-13 	101324.9999999991
0.7870370370370364 	299.9999999999986 	3.289409050415561e-13 	101324.999999999
0.7895395395395389 	299.9999999999966 	3.739145882385367e-13 	101324.9999999989
0.7920420420420413 	299.9999999999974 	3.392206150370638e-13 	101324.9999999989
0.794544544544544 	299.9999999999992 	7.823075024523043e-13 	101324.9999999988
0.7970470470470463 	300.0000000000012 	9.706205789248897e-13 	101324.9999999989
0.799549549549549 	299.9999999999993 	8.239736878365767e-13 	101324.9999999987
0.8020520520520515 	299.9999999999987 	5.196695675993613e-13 	101324.9999999986
0.8045545545545539 	299.9999999999945 	4.488450337535294e-13 	101324.9999999987
0.8070570570570563 	299.9999999999995 	3.575348570847774e-13 	101324.9999999988
0.8095595595595589 	299.999999999996 	3.910026448866651e-13 	101324.9999999988
0.8120620620620614 	299.9999999999924 	4.9378410284755e-13 	101324.9999999989
0.8145645645645638 	299.9999999999979 	5.466020202667457e-13 	101324.999999999
0.8170670670670666 	299.9999999999986 	9.09388703744281e-13 	101324.9999999989
0.8195695695695689 	299.9999999999977 	8.293604754163598e-13 	101324.9999999988
0.8220720720720714 	299.9999999999938 	7.10282135420695e-13 	101324.9999999986
0.8245745745745739 	299.9999999999988 	3.611421844027174e-13 	101324.9999999984
0.8270770770770765 	299.9999999999964 	4.677373449995759e-13 	101324.9999999985
0.8295795795795788 	299.9999999999941 	1.480055897144941e-13 	101324.9999999984
0.8320820820820815 	300.0000000000018 	3.173099718790372e-13 	101324.9999999985
0.834584584584584 	300.0000000000003 	4.657263707090256e-13 	101324.9999999986
0.8370870870870865 	299.9999999999961 	5.822044184076574e-13 	101324.9999999987
0.8395895895895891 	299.9999999999927 	4.313694071515261e-13 	101324.9999999988
0.8420920920920915 	299.9999999999927 	3.974799234163438e-13 	101324.9999999988
0.844594594594594 	299.9999999999912 	1.289126144692581e-13 	101324.9999999988
0.8470970970970964 	299.9999999999933 	2.216125496464952e-13 	101324.9999999989
0.8495995995995991 	299.9999999999973 	2.90327244303372e-13 	101324.9999999989
0.8521021021021015 	299.9999999999973 	4.125490124823109e-13 	101324.9999999989
0.8546046046046039 	299.9999999999956 	5.798687886192867e-13 	101324.999999999
0.8571071071071066 	299.9999999999985 	8.547717676322153e-13 	101324.999999999
0.8596096096096089 	299.999999999995 	9.281778514440568e-13 	101324.999999999
0.8621121121121116 	299.9999999999927 	6.922465432731877e-13 	101324.9999999991
0.8646146146146139 	299.9999999999987 	9.112535379774444e-13 	101324.999999999
0.8671171171171166 	299.9999999999973 	2.559669293899376e-13 	101324.9999999989
0.8696196196196189 	299.9999999999952 	2.140981861935888e-13 	101324.9999999988
0.8721221221221216 	299.9999999999953 	4.444911442065064e-13 	101324.9999999987
0.874624624624624 	299.9999999999989 	3.574972603965954e-13 	101324.9999999988
0.8771271271271264 	300.0000000000002 	5.111461875157761e-13 	101324.9999999986
0.879629629629629 	299.9999999999989 	7.241482058517839e-13 	101324.9999999985
0.8821321321321317 	299.9999999999985 	1.128564917705116e-12 	101324.9999999987
0.8846346346346339 	299.999999999993 	5.618699674284521e-13 	101324.9999999988
0.8871371371371364 	299.9999999999956 	7.535968721893838e-13 	101324.9999999989
0.8896396396396391 	299.9999999999946 	1.744065055315564e-13 	101324.999999999
0.8921421421421414 	299.9999999999951 	1.767599779149912e-13 	101324.999999999
0.8946446446446441 	299.9999999999991 	3.446997948027564e-13 	101324.999999999
0.8971471471471464 	299.9999999999994 	5.251859039218694e-13 	101324.9999999989
0.8996496496496489 	299.9999999999964 	5.052229825583011e-13 	101324.9999999988
0.9021521521521517 	299.9999999999943 	3.432257312036388e-13 	101324.9999999988
0.9046546546546541 	299.9999999999969 	2.047266730789503e-13 	101324.9999999988
0.9071571571571564 	299.999999999993 	1.810657273921978e-13 	101324.9999999987
0.9096596596596589 	299.9999999999943 	3.461524985847869e-13 	101324.9999999987
0.9121621621621616 	300.0000000000006 	4.740773299058593e-13 	101324.9999999988
0.9146646646646639 	299.9999999999976 	5.787506784313085e-13 	101324.9999999989
0.9171671671671666 	299.9999999999937 	6.238149729458632e-13 	101324.9999999989
0.9196696696696689 	299.9999999999984 	9.884941969846126e-13 	101324.9999999989
0.9221721721721714 	299.9999999999997 	9.127122555749834e-13 	101324.9999999988
0.9246746746746741 	299.999999999994 	5.363942722512773e-13 	101324.9999999989
0.9271771771771765 	299.9999999999926 	6.045602229384206e-13 	101324.9999999991
0.9296796796796791 	299.9999999999974 	5.095972789588279e-13 	101324.9999999991
0.9321821821821816 	299.9999999999986 	3.287211393958127e-13 	101324.9999999988
0.9346846846846838 	299.9999999999962 	3.278885855442914e-13 	101324.9999999986
0.9371871871871866 	300.0000000000006 	3.619103818229638e-13 	101324.9999999986
0.9396896896896891 	300.0000000000014 	3.858727712073399e-13 	101324.9999999987
0.9421921921921914 	300.0000000000003 	9.052897560757793e-13 	101324.9999999988
0.9446946946946939 	299.9999999999956 	1.018420681751567e-12 	101324.9999999988
0.9471971971971965 	299.999999999992 	6.0026380741701e-13 	101324.9999999986
0.9496996996996991 	299.9999999999935 	7.073096228661573e-13 	101324.9999999985
0.9522022022022016 	299.9999999999945 	2.682515774548876e-13 	101324.9999999986
0.9547047047047038 	299.9999999999967 	3.535500698691707e-13 	101324.9999999986
0.9572072072072064 	299.9999999999964 	5.067536045798427e-13 	101324.9999999986
0.9597097097097093 	299.9999999999954 	4.999463404144109e-13 	101324.9999999989
0.9622122122122114 	299.9999999999947 	5.782799514837906e-13 	101324.999999999
0.964714714714714 	299.9999999999952 	5.612089905127579e-13 	101324.999999999
0.9672172172172167 	299.9999999999957 	3.015828327381532e-13 	101324.9999999991
0.969719719719719 	299.9999999999982 	3.239996410665764e-13 	101324.9999999991
0.9722222222222214 	299.9999999999965 	6.521321736532238e-13 	101324.9999999992
0.9747247247247239 	299.9999999999952 	1.190523938330645e-12 	101324.9999999992
0.9772272272272267 	299.9999999999989 	1.058039190918828e-12 	101324.999999999
0.9797297297297292 	299.9999999999985 	6.111550685745504e-13 	101324.9999999989
0.9822322322322313 	299.9999999999998 	7.370354452602257e-13 	101324.9999999989
0.9847347347347344 	299.9999999999998 	8.89083804946634e-13 	101324.999999999
0.9872372372372363 	299.9999999999955 	1.112244920799438e-12 	101324.9999999991
0.9897397397397389 	299.9999999999968 	7.21003913720768e-13 	101324.9999999992
0.9922422422422417 	299.9999999999941 	1.224140371603262e-12 	101324.9999999991
0.9947447447447441 	299.999999999994 	1.442518407913762e-12 	101324.999999999
0.9972472472472468 	299.999999999997 	1.558388170431795e-12 	101324.999999999
0.999749749749749 	299.9999999999961 	9.704800039410759e-13 	101324.9999999989
1.002252252252252 	299.9999999999961 	5.498546065240428e-13 	101324.9999999989
1.004754754754754 	299.999999999997 	6.974226644178494e-13 	101324.999999999
1.007257257257256 	299.9999999999945 	8.214331307706495e-13 	101324.999999999
1.009759759759759 	299.9999999999929 	6.009398229992568e-13 	101324.999999999
1.012262262262261 	299.9999999999928 	3.541780545245209e-13 	101324.9999999992
1.014764764764764 	299.9999999999924 	6.886765870455446e-13 	101324.9999999993
1.017267267267267 	299.9999999999908 	8.843045715303439e-13 	101324.9999999994
1.019769769769769 	299.9999999999949 	1.024238242705247e-12 	101324.9999999994
1.022272272272272 	299.9999999999969 	6.880706748846099e-13 	101324.9999999992
1.024774774774774 	299.9999999999964 	7.579738152639305e-13 	101324.9999999992
1.027277277277277 	299.9999999999964 	1.377444528103624e-12 	101324.9999999991
1.029779779779779 	299.9999999999982 	1.169374515883629e-12 	101324.9999999991
1.032282282282282 	299.9999999999984 	9.003322790299831e-13 	101324.9999999992
1.034784784784784 	299.9999999999987 	4.150528269651787e-13 	101324.9999999991
1.037287287287286 	299.9999999999957 	2.798625016734858e-13 	101324.9999999991
1.039789789789789 	299.9999999999962 	2.83187440779849e-13 	101324.9999999992
1.042292292292291 	300.0000000000011 	1.823470851476251e-13 	101324.9999999991
1.044794794794794 	300.0000000000021 	6.847862332816041e-13 	101324.9999999992
1.047297297297296 	300.0000000000026 	8.23396796125332e-13 	101324.9999999992
1.049799799799799 	299.9999999999988 	3.772935966684303e-13 	101324.9999999992
1.052302302302302 	299.999999999996 	5.917785818598003e-13 	101324.9999999991
1.054804804804804 	299.9999999999943 	2.520191112414479e-13 	101324.999999999
1.057307307307306 	299.9999999999919 	6.043011441622854e-14 	101324.999999999
1.059809809809809 	299.9999999999946 	7.281423630687694e-14 	101324.9999999992
1.062312312312312 	299.9999999999934 	1.744066803992082e-13 	101324.9999999993
1.064814814814814 	299.9999999999935 	5.325977742633053e-13 	101324.9999999992
1.067317317317317 	299.9999999999924 	6.424070672417856e-13 	101324.9999999993
1.069819819819819 	299.999999999991 	8.776335829892719e-13 	101324.9999999993
1.072322322322321 	299.999999999998 	1.070585777957379e-12 	101324.9999999992
1.074824824824824 	300.0000000000016 	2.400263588999348e-13 	101324.9999999992
1.077327327327327 	300.0000000000028 	4.829964484332411e-13 	101324.9999999994
1.079829829829829 	300.000000000002 	1.009752273722029e-12 	101324.9999999994
1.082332332332332 	299.9999999999995 	6.287214772713091e-13 	101324.9999999994
1.084834834834834 	299.9999999999977 	7.283293925369263e-13 	101324.9999999994
1.087337337337337 	299.9999999999939 	1.050185262211474e-12 	101324.9999999994
1.089839839839839 	299.9999999999932 	8.968956933117642e-13 	101324.9999999993
1.092342342342342 	299.9999999999967 	1.282470864347748e-12 	101324.9999999993
1.094844844844844 	299.9999999999975 	1.456264441370195e-12 	101324.9999999993
1.097347347347347 	299.9999999999951 	1.385544080940582e-12 	101324.9999999993
1.099849849849849 	299.9999999999939 	5.001944370704193e-13 	101324.9999999996
1.102352352352352 	299.9999999999959 	6.913996898570926e-13 	101324.9999999996
1.104854854854854 	299.9999999999982 	2.770385296945467e-13 	101324.9999999996
1.107357357357357 	299.9999999999972 	2.431515809627682e-13 	101324.9999999996
1.109859859859859 	299.9999999999953 	4.363950088817219e-13 	101324.9999999994
1.112362362362362 	300.0000000000019 	7.013212270635454e-13 	101324.9999999995
1.114864864864865 	300.000000000002 	8.62669769242032e-13 	101324.9999999996
1.117367367367367 	299.9999999999967 	8.562343247576031e-13 	101324.9999999994
1.119869869869869 	299.9999999999934 	6.778625982564897e-13 	101324.9999999993
1.122372372372372 	299.9999999999953 	1.387664815809816e-12 	101324.9999999991
1.124874874874874 	299.9999999999944 	1.373912854775944e-12 	101324.9999999988
1.127377377377377 	299.9999999999976 	1.186168493295576e-12 	101324.9999999989
1.129879879879879 	300.0000000000041 	5.375411183629494e-13 	101324.9999999991
1.132382382382382 	300.0000000000025 	1.593497776099501e-13 	101324.9999999992
1.134884884884884 	299.999999999999 	3.677942909172751e-13 	101324.9999999992
1.137387387387387 	300.0000000000003 	4.800683464443551e-13 	101324.9999999993
1.139889889889889 	299.9999999999953 	5.344845970447024e-13 	101324.9999999994
1.142392392392392 	299.9999999999946 	5.34466170814966e-13 	101324.9999999994
1.144894894894894 	299.9999999999998 	2.929586480587059e-13 	101324.9999999994
1.147397397397397 	299.9999999999987 	1.237414830118996e-13 	101324.9999999994
1.149899899899899 	299.9999999999928 	2.212629987448331e-13 	101324.9999999993
1.152402402402402 	299.9999999999918 	1.413403247764966e-13 	101324.9999999993
1.154904904904904 	299.9999999999971 	4.168460135791405e-13 	101324.9999999993
1.157407407407407 	299.9999999999978 	6.11483217099785e-13 	101324.9999999994
1.159909909909909 	299.9999999999956 	8.474228882172885e-13 	101324.9999999994
1.162412412412412 	299.9999999999936 	8.269072573829648e-13 	101324.9999999992
1.164914914914914 	299.9999999999937 	4.020506580269398e-13 	101324.9999999991
1.167417417417417 	299.9999999999935 	8.642366179306148e-13 	101324.9999999992
1.169919919919919 	299.9999999999992 	7.616356387658253e-13 	101324.9999999992
1.172422422422422 	300.000000000002 	5.412787785200652e-13 	101324.9999999992
1.174924924924925 	299.9999999999972 	6.315801968438416e-13 	101324.9999999992
1.177427427427427 	299.9999999999941 	1.058675672826497e-12 	101324.9999999995
1.179929929929929 	299.9999999999984 	8.091991736720114e-13 	101324.9999999997
1.182432432432432 	300.0000000000009 	1.320213033694295e-13 	101324.9999999997
1.184934934934934 	299.9999999999993 	2.543392657646025e-13 	101324.9999999996
1.187437437437437 	299.9999999999984 	3.395135795313572e-13 	101324.9999999996
1.189939939939939 	299.9999999999959 	4.365562154526915e-13 	101324.9999999997
1.192442442442442 	299.9999999999926 	3.67291200250029e-13 	101324.9999999997
1.194944944944944 	299.9999999999937 	5.870422298960644e-13 	101324.9999999996
1.197447447447447 	299.9999999999975 	7.749637154103302e-13 	101324.9999999995
1.199949949949949 	299.999999999998 	7.372094506648254e-13 	101324.9999999996
1.202452452452452 	299.9999999999937 	6.260052306545077e-13 	101324.9999999996
1.204954954954955 	299.9999999999937 	6.360996422241909e-13 	101324.9999999996
1.207457457457457 	299.9999999999969 	7.217440944354784e-13 	101324.9999999997
1.20995995995996 	299.9999999999962 	4.961727593227634e-13 	101324.9999999996
1.212462462462462 	299.9999999999975 	5.978585939285565e-13 	101324.9999999995
1.214964964964964 	299.9999999999974 	6.419784363391523e-13 	101324.9999999994
1.217467467467467 	299.9999999999967 	1.068782298253798e-12 	101324.9999999995
1.219969969969969 	299.9999999999978 	9.40020660246925e-13 	101324.9999999996
1.222472472472472 	300.000000000002 	1.097389234890211e-12 	101324.9999999997
1.224974974974975 	300.000000000002 	9.507631070985016e-13 	101324.9999999997
1.227477477477477 	299.9999999999995 	4.656107138217452e-13 	101324.9999999997
1.229979979979979 	299.9999999999988 	6.87900734229976e-13 	101324.9999999998
1.232482482482482 	299.9999999999947 	3.716080209461977e-13 	101324.9999999999
1.234984984984984 	299.9999999999943 	8.827860306986452e-13 	101324.9999999999
1.237487487487487 	299.9999999999956 	7.888429311966847e-13 	101324.9999999997
1.239989989989989 	299.999999999996 	1.090900232434652e-12 	101324.9999999997
1.242492492492492 	299.9999999999995 	1.227156920617418e-12 	101324.9999999997
1.244994994994994 	299.9999999999962 	7.614140242617035e-13 	101324.9999999997
1.247497497497497 	299.9999999999969 	9.416692591957826e-13 	101324.9999999997
1.249999999999999 	300.000000000003 	6.959786812215863e-13 	101324.9999999997
