-1.25 	300 	0.1165305860791107 	101372.5528258148
-1.247497497497497 	300.0396910230307 	0.1167203639812033 	101372.7625282396
-1.244994994994995 	300.0405547715113 	0.1174175081495941 	101372.9580246462
-1.242492492492492 	300.0407194915331 	0.1180165278835661 	101373.1455897943
-1.23998998998999 	300.0408699272346 	0.1183513577167818 	101373.3243809059
-1.237487487487487 	300.0410135466712 	0.1187851594907455 	101373.4942394895
-1.234984984984985 	300.0411496356672 	0.1191750894257023 	101373.6551779885
-1.232482482482482 	300.0412781542816 	0.1195498348890279 	101373.8071645188
-1.22997997997998 	300.0413990795787 	0.11990014655788 	101373.9501711386
-1.227477477477477 	300.0415123890597 	0.1202292822308133 	101374.0841714736
-1.224974974974975 	300.0416180618055 	0.120535840906943 	101374.2091406067
-1.222472472472472 	300.0417160784067 	0.1208203483728481 	101374.3250557118
-1.21996996996997 	300.0418064204529 	0.121082507806442 	101374.4318949558
-1.217467467467467 	300.0418890716375 	0.1213223861196575 	101374.5296389227
-1.214964964964965 	300.041964016879 	0.1215398989452192 	101374.6182698638
-1.212462462462462 	300.0420312425933 	0.1217350312551878 	101374.6977716804
-1.20995995995996 	300.0420907354745 	0.1219077377829398 	101374.7681286692
-1.207457457457457 	300.0421424854775 	0.1220579931821208 	101374.8293288539
-1.204954954954955 	300.0421864832647 	0.1221857698514784 	101374.8813611756
-1.202452452452452 	300.0422227199398 	0.1222910477624271 	101374.9242152089
-1.19994994994995 	300.042251188488 	0.1223738086278574 	101374.9578825124
-1.197447447447447 	300.0422718832505 	0.1224340377919171 	101374.9823565529
-1.194944944944945 	300.0422848023377 	0.1224717260870647 	101374.9976350202
-1.192442442442442 	300.0422899432231 	0.1224868698506607 	101375.0037145386
-1.18993993993994 	300.0422873054218 	0.1224794691843531 	101375.0005947049
-1.187437437437437 	300.0422768857628 	0.1224495212848304 	101374.9882727521
-1.184934934934935 	300.0422586876926 	0.1223970301428687 	101374.9667520857
-1.182432432432432 	300.0422327159017 	0.1223220081621555 	101374.9360375297
-1.17992992992993 	300.0421989737938 	0.1222244730682804 	101374.8961338874
-1.177427427427427 	300.0421574686617 	0.1221044432928663 	101374.8470502669
-1.174924924924925 	300.0421082058862 	0.1219619362958849 	101374.7887924765
-1.172422422422422 	300.0420511981556 	0.1217969809300606 	101374.7213741764
-1.16991991991992 	300.0419864535417 	0.1216096077836369 	101374.6448049598
-1.167417417417417 	300.0419139827625 	0.1213998518563738 	101374.5590997961
-1.164914914914915 	300.0418337990236 	0.1211677513725196 	101374.4642763327
-1.162412412412412 	300.041745914999 	0.1209133479916605 	101374.3603480191
-1.15990990990991 	300.0416503547985 	0.1206366937469755 	101374.2473392076
-1.157407407407407 	300.0415471330218 	0.1203378326893039 	101374.1252651057
-1.154904904904904 	300.0414362674068 	0.1200168195844756 	101373.9941495889
-1.152402402402403 	300.0413177752087 	0.1196737148135682 	101373.8540183364
-1.1498998998999 	300.0411916698613 	0.1193085761632627 	101373.704890062
-1.147397397397397 	300.041057984008 	0.1189214775598874 	101373.5468014881
-1.144894894894895 	300.0409167411578 	0.1185124851288232 	101373.3797753621
-1.142392392392392 	300.0407679716084 	0.1180816778447126 	101373.203842702
-1.13988988988989 	300.0406117113486 	0.1176291407475062 	101373.0190442587
-1.137387387387387 	300.0404479765752 	0.1171549435897779 	101372.8254008669
-1.134884884884885 	300.0402768034164 	0.1166591852562796 	101372.622958497
-1.132382382382382 	300.0400982200067 	0.1161419539430777 	101372.4117533352
-1.12987987987988 	300.0399122467037 	0.1156033316733215 	101372.1918113714
-1.127377377377377 	300.0397189330301 	0.1150434372865772 	101371.9631919105
-1.124874874874875 	300.0395183040411 	0.114462359685101 	101371.7259245827
-1.122372372372372 	300.0393103918681 	0.1138601991407118 	101371.4800469641
-1.11986986986987 	300.0390952539872 	0.1132370889908083 	101371.2256264772
-1.117367367367367 	300.03887291033 	0.1125931180109012 	101370.9626862157
-1.114864864864865 	300.0386434047529 	0.1119284097680027 	101370.691277694
-1.112362362362362 	300.0384067995025 	0.1112431103388929 	101370.4114742789
-1.10985985985986 	300.038163110248 	0.1105373067508892 	101370.1232943749
-1.107357357357357 	300.0379123909881 	0.1098111440066731 	101369.82680174
-1.104854854854855 	300.0376547095633 	0.1090647836937657 	101369.5220766006
-1.102352352352353 	300.037390078176 	0.1082983111969932 	101369.2091334134
-1.09984984984985 	300.0371185565391 	0.1075118866537595 	101368.8880427754
-1.097347347347347 	300.0368402227251 	0.1067056943471072 	101368.5588971071
-1.094844844844845 	300.0365550878639 	0.1058798196426392 	101368.2217096497
-1.092342342342342 	300.0362632089987 	0.1050344246182258 	101367.8765478654
-1.08983983983984 	300.0359646798085 	0.1041697271842931 	101367.5235225952
-1.087337337337337 	300.0356595179035 	0.1032858241926227 	101367.1626547352
-1.084834834834835 	300.0353477637742 	0.1023828537628194 	101366.79399222
-1.082332332332332 	300.035029523724 	0.1014610647431541 	101366.41766079
-1.07982982982983 	300.0347048421595 	0.1005206014320328 	101366.0337130427
-1.077327327327327 	300.0343737364906 	0.09956156023815815 	101365.6421696722
-1.074824824824825 	300.0340362990831 	0.09858417509575319 	101365.2431399486
-1.072322322322323 	300.0336926226113 	0.09758868575017936 	101364.8367334811
-1.06981981981982 	300.033342732284 	0.09657519803004051 	101364.4229801446
-1.067317317317317 	300.0329866620451 	0.09554383778894016 	101364.0019202208
-1.064814814814815 	300.0326245213977 	0.09449489256873331 	101363.5736831997
-1.062312312312312 	300.0322564210549 	0.09342863543878396 	101363.1384000413
-1.05980980980981 	300.0318823618361 	0.09234511118443753 	101362.6960718265
-1.057307307307307 	300.0315023437237 	0.09124440215007985 	101362.2466985846
-1.054804804804805 	300.0311165525634 	0.09012696377723212 	101361.7905001207
-1.052302302302302 	300.0307251527341 	0.0889931506870219 	101361.3276709146
-1.0497997997998 	300.0303280165182 	0.08784274818171232 	101360.8580600002
-1.047297297297297 	300.0299251031288 	0.08667579632767818 	101360.3816191703
-1.044794794794795 	300.029516806646 	0.08549317728665738 	101359.8988145404
-1.042292292292292 	300.0291033318313 	0.08429529110500701 	101359.409888334
-1.03978978978979 	300.028684271818 	0.08308135243126785 	101358.9143595074
-1.037287287287287 	300.0282595486719 	0.0818513726640622 	101358.4121358441
-1.034784784784785 	300.0278299344741 	0.08060703430819705 	101357.9041303784
-1.032282282282283 	300.02739572424 	0.07934887555696962 	101357.3906921752
-1.02977977977978 	300.0269560317214 	0.07807506736758235 	101356.8707733824
-1.027277277277277 	300.0265105697584 	0.0767852499288756 	101356.3440343362
-1.024774774774775 	300.0260607217151 	0.07548250084523168 	101355.8121107337
-1.022272272272272 	300.025607275659 	0.07416833883538809 	101355.2759347437
-1.01976976976977 	300.0251486504664 	0.07283925570341579 	101354.7336370457
-1.017267267267267 	300.0246835468825 	0.07149274961025284 	101354.18368114
-1.014764764764765 	300.0242139406471 	0.07013351560706688 	101353.6284028837
-1.012262262262262 	300.0237424843122 	0.06876725319463278 	101353.0709390248
-1.00975975975976 	300.023267706892 	0.0673902466676848 	101352.5095509099
-1.007257257257257 	300.0227854825444 	0.06599331360502986 	101351.9393601373
-1.004754754754755 	300.0222958500833 	0.06457723231466549 	101351.3604118908
-1.002252252252252 	300.0218045128011 	0.06315542502609171 	101350.7794493632
-0.9997497497497498 	300.0213150724401 	0.06173569932962525 	101350.2007319139
-0.9972472472472473 	300.0208226042665 	0.06030591036321289 	101349.6184377294
-0.9947447447447449 	300.0203191135964 	0.05884748176099257 	101349.0231141122
-0.9922422422422421 	300.0198050020138 	0.05736231982557961 	101348.4152346015
-0.9897397397397399 	300.0192907623013 	0.05587601275622611 	101347.8072045727
-0.9872372372372376 	300.0187847557581 	0.0544081540321236 	101347.2089107847
-0.9847347347347346 	300.0182815858973 	0.05294474692507654 	101346.6139744858
-0.9822322322322323 	300.0177664163147 	0.05144939538654272 	101346.0048548152
-0.9797297297297296 	300.0172317890112 	0.04990458387869988 	101345.3727328195
-0.9772272272272275 	300.0166879419041 	0.04833654708573124 	101344.7297111795
-0.9747247247247248 	300.0161539118973 	0.04679278030382373 	101344.0982969546
-0.9722222222222224 	300.0156378800764 	0.04529311658041799 	101343.4881641531
-0.9697197197197196 	300.0151272848358 	0.04380517608473471 	101342.8844632086
-0.9672172172172175 	300.0145992868415 	0.04227096362883127 	101342.2601921558
-0.9647147147147147 	300.0140419681493 	0.04066069726443781 	101341.6012594436
-0.9622122122122124 	300.0134665388627 	0.03900377148751064 	101340.9209165871
-0.9597097097097099 	300.0128992309261 	0.03736797227572902 	101340.2501757776
-0.9572072072072073 	300.0123599259013 	0.03580461885556112 	101339.612542925
-0.9547047047047047 	300.0118457474114 	0.03430590834932786 	101339.0046191067
-0.9522022022022023 	300.011332444916 	0.03280805907115149 	101338.3977357225
-0.9496996996996998 	300.0107915165707 	0.03123603054620022 	101337.7581968663
-0.9471971971971973 	300.010210101709 	0.0295560854776217 	101337.0707972301
-0.9446946946946947 	300.0096001167384 	0.02780011877820488 	101336.3496235361
-0.9421921921921923 	300.0089911831118 	0.02604719733604543 	101335.6296941191
-0.93968968968969 	300.0084128325609 	0.0243765599655881 	101334.9459220021
-0.9371871871871872 	300.007877785323 	0.02282268399670506 	101334.3133458208
-0.9346846846846848 	300.0073755714635 	0.02135737082481107 	101333.7195885884
-0.9321821821821823 	300.0068782167781 	0.01990431039074 	101333.1315794746
-0.9296796796796799 	300.0063531577787 	0.01837405075300479 	101332.510822142
-0.9271771771771771 	300.0057766481884 	0.01670112918782279 	101331.8292439716
-0.9246746746746748 	300.0051426344151 	0.01486892692684335 	101331.079688617
-0.9221721721721724 	300.0044647413965 	0.01291534163281638 	101330.2782636615
-0.9196696696696698 	300.003771558673 	0.01091985940768821 	101329.4587677976
-0.9171671671671672 	300.0030976075655 	0.008978962540100204 	101328.6620118845
-0.9146646646646649 	300.0024740485114 	0.007180889386355198 	101327.9248331248
-0.9121621621621623 	300.0019229783118 	0.005589241817478365 	101327.2733535455
-0.9096596596596597 	300.0014558882012 	0.00423776917433833 	101326.7211571844
-0.9071571571571573 	300.0010747565015 	0.00313301028921354 	101326.2705819207
-0.9046546546546547 	300.0007744030967 	0.002260820334066061 	101325.9155032945
-0.9021521521521524 	300.0005451719874 	0.001593969329831796 	101325.644505711
-0.8996496496496498 	300.0003753384768 	0.001099041720977738 	101325.4437279944
-0.8971471471471473 	300.0002529440791 	0.0007417465683586862 	101325.2990328013
-0.894644644644645 	300.0001669939127 	0.0004904172059474135 	101325.1974220293
-0.892142142142142 	300.0001080908532 	0.0003178932714784001 	101325.1277863933
-0.8896396396396397 	300.0000686440329 	0.0002021693746640223 	101325.0811519879
-0.8871371371371374 	300.0000427989145 	0.0001262288031043305 	101325.0505976276
-0.8846346346346349 	300.0000262149698 	7.742492821106726e-05 	101325.0309918733
-0.8821321321321324 	300.0000157835245 	4.668031183295694e-05 	101325.0186596518
-0.8796296296296297 	300.0000093461049 	2.767907454487381e-05 	101325.0110492144
-0.8771271271271271 	300.0000054456228 	1.614926560367683e-05 	101325.0064379843
-0.8746246246246248 	300.0000031236412 	9.275599386113424e-06 	101325.003692864
-0.8721221221221224 	300.0000017646599 	5.246992218659186e-06 	101325.0020862332
-0.8696196196196196 	300.0000009822462 	2.924410088675092e-06 	101325.0011612561
-0.8671171171171175 	300.0000005389177 	1.606549305366093e-06 	101325.0006371292
-0.8646146146146148 	300.0000002915259 	8.702380846476899e-07 	101325.000344683
-0.8621121121121121 	300.0000001555699 	4.649641971325299e-07 	101325.0001839308
-0.8596096096096097 	300.0000000819306 	2.451225083536873e-07 	101325.0000968439
-0.857107107107107 	300.0000000425562 	1.275449200815939e-07 	101325.0000503275
-0.8546046046046049 	300.0000000218355 	6.552218769954463e-08 	101325.0000258211
-0.8521021021021022 	300.0000000110696 	3.324144001944019e-08 	101325.0000130823
-0.8495995995995997 	300.0000000055351 	1.666036970872739e-08 	101325.0000065466
-0.8470970970970974 	300.0000000027052 	8.250280921745529e-09 	101325.0000032361
-0.8445945945945946 	300.0000000013186 	4.038828197932065e-09 	101325.00000158
-0.8420920920920922 	300.0000000006548 	1.953605011197275e-09 	101325.0000007615
-0.8395895895895897 	300.000000000306 	9.360628072942956e-10 	101325.0000003618
-0.8370870870870872 	300.0000000001407 	4.423122994663551e-10 	101325.0000001689
-0.8345845845845846 	300.0000000000672 	2.081128026442205e-10 	101325.0000000768
-0.8320820820820823 	300.0000000000058 	9.669535513363783e-11 	101325.0000000334
-0.8295795795795798 	299.9999999999642 	4.475692471280799e-11 	101325.0000000131
-0.8270770770770772 	299.9999999999781 	2.075505018930289e-11 	101325.0000000038
-0.8245745745745746 	299.9999999999602 	9.403567761084e-12 	101324.9999999995
-0.8220720720720721 	299.9999999999733 	5.335125961100285e-12 	101324.9999999974
-0.8195695695695699 	299.9999999999929 	2.620956742963752e-12 	101324.9999999965
-0.817067067067067 	299.9999999999758 	2.670603673783345e-12 	101324.9999999962
-0.8145645645645651 	299.9999999999575 	1.401956872796692e-12 	101324.9999999959
-0.8120620620620621 	299.9999999999883 	9.798290608941453e-13 	101324.9999999957
-0.8095595595595597 	300.0000000000012 	8.328958254053006e-13 	101324.9999999956
-0.8070570570570572 	299.9999999999652 	6.564802638215074e-13 	101324.9999999955
-0.8045545545545546 	299.9999999999633 	8.081919320752055e-13 	101324.9999999954
-0.8020520520520523 	299.9999999999926 	1.942273719875425e-12 	101324.9999999955
-0.7995495495495494 	300.0000000000099 	2.706174913506688e-12 	101324.9999999957
-0.7970470470470474 	299.999999999997 	2.958893936833336e-12 	101324.9999999958
-0.7945445445445446 	300.0000000000036 	3.799127283644181e-12 	101324.9999999959
-0.7920420420420423 	300.0000000000102 	3.60311590635442e-12 	101324.9999999958
-0.7895395395395397 	300.0000000000088 	4.318180349241516e-12 	101324.9999999954
-0.7870370370370371 	300.000000000005 	3.379272372415871e-12 	101324.9999999953
-0.7845345345345348 	299.9999999999804 	3.61785088325564e-12 	101324.9999999954
-0.7820320320320323 	299.9999999999813 	3.445659510632282e-12 	101324.9999999956
-0.7795295295295296 	299.999999999955 	3.875887937923018e-12 	101324.9999999957
-0.7770270270270272 	299.9999999999454 	3.617943543854435e-12 	101324.9999999958
-0.7745245245245247 	299.9999999999458 	3.901975803436151e-12 	101324.9999999959
-0.7720220220220222 	299.9999999999661 	3.106083995909233e-12 	101324.999999996
-0.7695195195195199 	299.9999999999698 	3.449239202916508e-12 	101324.9999999959
-0.767017017017017 	299.9999999999893 	3.32873579005821e-12 	101324.9999999959
-0.7645145145145147 	300.0000000000082 	4.30877449259161e-12 	101324.9999999959
-0.7620120120120122 	300.0000000000091 	4.015406883484835e-12 	101324.9999999958
-0.7595095095095097 	299.9999999999586 	4.795273201166236e-12 	101324.9999999959
-0.7570070070070072 	299.9999999999594 	5.72092616977438e-12 	101324.999999996
-0.7545045045045048 	299.9999999999904 	5.311861383401404e-12 	101324.9999999959
-0.7520020020020022 	299.9999999999775 	4.468434280390985e-12 	101324.9999999958
-0.7494994994994997 	299.9999999999767 	3.877852540202421e-12 	101324.9999999957
-0.7469969969969972 	299.9999999999971 	2.960301523588792e-12 	101324.9999999957
-0.7444944944944945 	299.9999999999911 	2.510054636882109e-12 	101324.9999999955
-0.7419919919919924 	299.9999999999935 	1.597161934121301e-12 	101324.9999999956
-0.7394894894894897 	299.9999999999737 	6.573089082508545e-13 	101324.9999999956
-0.7369869869869872 	299.9999999999925 	6.60989170591442e-13 	101324.9999999956
-0.7344844844844846 	299.9999999999768 	1.182058940458413e-12 	101324.9999999956
-0.7319819819819822 	300.0000000000032 	5.808021916703561e-13 	101324.9999999958
-0.7294794794794797 	299.9999999999972 	2.14564745630852e-12 	101324.999999996
-0.7269769769769773 	300.0000000000057 	9.231663404305992e-13 	101324.9999999959
-0.7244744744744747 	300.0000000000113 	1.132108667108531e-12 	101324.9999999959
-0.721971971971972 	299.9999999999734 	8.75500128066388e-13 	101324.9999999959
-0.7194694694694695 	299.9999999999881 	1.280487261899723e-12 	101324.9999999959
-0.7169669669669674 	299.9999999999609 	1.36990507040779e-12 	101324.9999999957
-0.7144644644644647 	299.9999999999847 	1.464164500522012e-12 	101324.9999999957
-0.711961961961962 	300.0000000000033 	1.701561062058125e-12 	101324.9999999956
-0.7094594594594597 	300.0000000000089 	6.85614661511844e-13 	101324.9999999954
-0.7069569569569573 	300.0000000000127 	1.273354730331712e-12 	101324.9999999955
-0.7044544544544545 	300.0000000000144 	6.950407781836299e-13 	101324.9999999956
-0.7019519519519523 	300.000000000005 	7.517056449897054e-13 	101324.9999999956
-0.6994494494494495 	299.9999999999584 	7.175240249807277e-13 	101324.9999999957
-0.6969469469469471 	299.9999999999672 	1.647058143038051e-12 	101324.9999999958
-0.6944444444444446 	299.9999999999778 	1.320094133107085e-12 	101324.9999999961
-0.6919419419419421 	300.0000000000161 	1.335191747007211e-12 	101324.9999999962
-0.6894394394394396 	299.999999999999 	6.10117810565665e-13 	101324.9999999963
-0.6869369369369374 	300.0000000000057 	1.035216645726163e-12 	101324.9999999963
-0.6844344344344344 	300.0000000000111 	6.219142008386574e-13 	101324.9999999962
-0.6819319319319321 	299.9999999999761 	1.174511813713038e-12 	101324.9999999962
-0.6794294294294296 	299.9999999999668 	1.559183000978553e-12 	101324.9999999961
-0.6769269269269272 	299.9999999999511 	2.781488586155287e-12 	101324.9999999959
-0.6744244244244245 	299.9999999999822 	3.131132940683665e-12 	101324.9999999958
-0.6719219219219222 	299.9999999999768 	3.289155524346465e-12 	101324.9999999959
-0.6694194194194195 	299.9999999999982 	3.876548329684418e-12 	101324.9999999956
-0.6669169169169172 	300.0000000000099 	3.473406749073088e-12 	101324.9999999958
-0.6644144144144146 	299.9999999999787 	3.614730634585437e-12 	101324.9999999958
-0.661911911911912 	299.9999999999805 	2.687293339092653e-12 	101324.9999999959
-0.6594094094094097 	299.9999999999868 	2.456776721998463e-12 	101324.9999999961
-0.656906906906907 	299.9999999999669 	1.50458665798257e-12 	101324.9999999963
-0.6544044044044046 	299.999999999969 	2.609753411680071e-12 	101324.9999999963
-0.6519019019019021 	299.9999999999953 	1.622955966685987e-12 	101324.9999999963
-0.6493993993993996 	300.0000000000131 	3.088300395104803e-12 	101324.9999999962
-0.6468968968968971 	300.0000000000161 	1.418550324514048e-12 	101324.9999999963
-0.6443943943943946 	299.9999999999965 	2.610123115145549e-12 	101324.9999999964
-0.6418918918918921 	299.999999999999 	8.723249882714144e-13 	101324.9999999965
-0.6393893893893897 	299.9999999999997 	1.380818386457462e-12 	101324.9999999966
-0.6368868868868871 	299.9999999999854 	8.613519903895479e-13 	101324.9999999967
-0.6343843843843846 	299.9999999999967 	8.229947369065397e-13 	101324.9999999966
-0.6318818818818821 	299.9999999999728 	7.009168142635664e-13 	101324.9999999966
-0.6293793793793795 	300.0000000000047 	4.921295470095626e-13 	101324.9999999967
-0.6268768768768773 	300.0000000000126 	7.821545623358025e-13 	101324.9999999966
-0.6243743743743745 	299.9999999999907 	5.352549870013222e-13 	101324.9999999964
-0.6218718718718721 	300.0000000000031 	1.052108436190001e-12 	101324.9999999963
-0.6193693693693696 	299.9999999999609 	1.088661407740579e-12 	101324.9999999962
-0.6168668668668671 	299.9999999999878 	8.979996793730183e-13 	101324.9999999963
-0.6143643643643645 	300.0000000000084 	1.155848410996233e-12 	101324.9999999964
-0.6118618618618621 	299.999999999992 	8.868143772478802e-13 	101324.9999999966
-0.6093593593593596 	299.9999999999939 	2.331847054451807e-13 	101324.9999999968
-0.6068568568568571 	299.9999999999944 	8.006562740777258e-13 	101324.9999999968
-0.6043543543543546 	299.9999999999769 	1.002632947055256e-12 	101324.9999999967
-0.6018518518518521 	299.9999999999806 	1.719624480161141e-12 	101324.9999999966
-0.5993493493493496 	299.9999999999687 	1.719705117265414e-12 	101324.9999999967
-0.5968468468468471 	299.9999999999748 	2.662061456800077e-12 	101324.999999997
-0.5943443443443446 	299.9999999999971 	1.689927856702901e-12 	101324.9999999969
-0.591841841841842 	299.9999999999758 	2.527928449642801e-12 	101324.9999999968
-0.5893393393393397 	299.9999999999704 	1.155241276421479e-12 	101324.9999999968
-0.5868368368368371 	299.9999999999979 	2.986680043115677e-12 	101324.9999999967
-0.5843343343343346 	300.0000000000077 	1.268065862295952e-12 	101324.9999999968
-0.5818318318318321 	300.0000000000169 	3.242072126195153e-12 	101324.9999999967
-0.5793293293293297 	299.9999999999925 	1.252943425094026e-12 	101324.9999999968
-0.5768268268268271 	300.0000000000055 	2.304313209976887e-12 	101324.9999999966
-0.5743243243243245 	300.0000000000128 	1.489221199728091e-12 	101324.9999999966
-0.5718218218218221 	300.0000000000102 	1.758748468962909e-12 	101324.9999999966
-0.5693193193193196 	300.000000000023 	1.82901910982531e-12 	101324.9999999965
-0.5668168168168171 	299.9999999999909 	6.588443884912455e-13 	101324.9999999965
-0.5643143143143147 	299.9999999999703 	1.549670790850557e-12 	101324.9999999963
-0.5618118118118121 	300.0000000000101 	7.546138621248112e-13 	101324.9999999963
-0.5593093093093094 	300.0000000000218 	8.201117144113597e-13 	101324.9999999961
-0.5568068068068072 	300.0000000000108 	9.135129732323363e-13 	101324.999999996
-0.5543043043043046 	300.000000000014 	7.241813752274014e-13 	101324.999999996
-0.551801801801802 	299.9999999999747 	8.472607298969964e-13 	101324.9999999959
-0.5492992992992995 	299.9999999999979 	4.38341238697331e-13 	101324.9999999958
-0.5467967967967969 	300.0000000000076 	6.565155202623175e-13 	101324.9999999959
-0.5442942942942947 	300.0000000000027 	4.682237727896733e-13 	101324.9999999961
-0.5417917917917919 	299.9999999999751 	8.895924882454479e-13 	101324.9999999961
-0.5392892892892895 	299.9999999999632 	8.799298058465969e-13 	101324.9999999962
-0.536786786786787 	299.9999999999718 	4.838847456191422e-13 	101324.9999999961
-0.5342842842842846 	299.9999999999746 	2.301612859927177e-12 	101324.999999996
-0.531781781781782 	299.9999999999606 	1.649895377419096e-12 	101324.999999996
-0.5292792792792794 	299.9999999999579 	3.793274281227163e-12 	101324.9999999959
-0.526776776776777 	299.9999999999497 	9.863502825267647e-13 	101324.999999996
-0.5242742742742745 	299.9999999999855 	4.178509985016762e-12 	101324.999999996
-0.521771771771772 	300.00000000001 	2.51842204140564e-12 	101324.9999999961
-0.5192692692692695 	299.999999999977 	4.926620746040032e-12 	101324.999999996
-0.516766766766767 	299.9999999999998 	2.876262888529361e-12 	101324.9999999958
-0.5142642642642645 	299.9999999999881 	4.262194284275074e-12 	101324.9999999959
-0.511761761761762 	299.9999999999746 	1.834054779420422e-12 	101324.9999999959
-0.5092592592592596 	299.9999999999849 	3.77078367098917e-12 	101324.9999999961
-0.506756756756757 	299.9999999999674 	1.1181651784308e-12 	101324.9999999959
-0.5042542542542544 	299.9999999999953 	2.58261846401918e-12 	101324.9999999961
-0.5017517517517521 	300.000000000016 	1.09300207878829e-12 	101324.9999999961
-0.4992492492492494 	300.0000000000192 	1.593710842077058e-12 	101324.999999996
-0.496746746746747 	299.9999999999931 	6.191752988646215e-13 	101324.999999996
-0.4942442442442445 	299.9999999999678 	1.516199848364233e-12 	101324.999999996
-0.4917417417417421 	299.9999999999674 	8.007931500505306e-13 	101324.999999996
-0.4892392392392395 	299.9999999999742 	1.588024082856365e-12 	101324.9999999959
-0.486736736736737 	299.999999999974 	5.190741816427053e-13 	101324.9999999958
-0.4842342342342345 	299.9999999999542 	1.756486084936553e-12 	101324.9999999959
-0.481731731731732 	300.0000000000184 	6.639295760177225e-13 	101324.9999999958
-0.4792292292292296 	300.0000000000121 	1.927639319143327e-12 	101324.9999999956
-0.4767267267267268 	299.9999999999754 	1.636698969675142e-12 	101324.9999999956
-0.4742242242242246 	299.9999999999982 	2.742358572575041e-12 	101324.9999999956
-0.471721721721722 	299.9999999999752 	1.616118774562804e-12 	101324.9999999957
-0.4692192192192195 	299.9999999999866 	2.11399440027396e-12 	101324.9999999958
-0.4667167167167169 	299.9999999999511 	7.266636758172966e-13 	101324.9999999958
-0.4642142142142145 	299.9999999999972 	1.580133863299314e-12 	101324.9999999958
-0.461711711711712 	300.0000000000118 	6.225298227860596e-13 	101324.9999999958
-0.4592092092092094 	300.0000000000069 	1.08270808547563e-12 	101324.9999999958
-0.456706706706707 	300.0000000000326 	4.600720214379962e-13 	101324.999999996
-0.4542042042042045 	299.9999999999671 	2.955325999583371e-13 	101324.9999999961
-0.451701701701702 	299.9999999999725 	3.156505901662962e-13 	101324.9999999961
-0.4491991991991995 	299.9999999999776 	3.495456195126775e-13 	101324.9999999961
-0.4466966966966969 	299.9999999999761 	7.053212147394356e-13 	101324.9999999963
-0.4441941941941945 	299.9999999999948 	1.040812133957727e-12 	101324.999999996
-0.441691691691692 	299.9999999999756 	1.311211633658297e-12 	101324.9999999958
-0.4391891891891895 	299.9999999999916 	1.631244654964192e-12 	101324.9999999955
-0.436686686686687 	299.999999999981 	2.59595959084071e-12 	101324.9999999955
-0.4341841841841846 	300.0000000000003 	2.446790078853992e-12 	101324.9999999955
-0.431681681681682 	299.9999999999725 	2.160003336769471e-12 	101324.9999999958
-0.4291791791791794 	299.999999999952 	1.81781527444162e-12 	101324.9999999957
-0.426676676676677 	299.9999999999531 	1.082552044462462e-12 	101324.9999999956
-0.4241741741741744 	299.999999999982 	1.282634037130549e-12 	101324.9999999955
-0.421671671671672 	300.0000000000006 	8.890796595580501e-13 	101324.9999999956
-0.4191691691691694 	300.0000000000252 	3.931229264696812e-13 	101324.9999999957
-0.4166666666666669 	300.000000000029 	7.972037053128968e-13 	101324.9999999957
-0.4141641641641645 	299.9999999999644 	5.008151876947672e-13 	101324.9999999956
-0.411661661661662 	300.0000000000031 	2.588795806166134e-13 	101324.9999999956
-0.4091591591591594 	300.0000000000077 	2.658555774968081e-13 	101324.9999999956
-0.406656656656657 	299.999999999971 	3.584429413705393e-13 	101324.9999999957
-0.4041541541541545 	300.00000000001 	8.421755415761464e-13 	101324.9999999958
-0.401651651651652 	299.9999999999592 	9.124965747184929e-13 	101324.9999999957
-0.3991491491491494 	299.9999999999993 	2.244887816170213e-12 	101324.9999999957
-0.396646646646647 	299.999999999974 	1.981163962875392e-12 	101324.9999999959
-0.3941441441441444 	299.9999999999866 	2.793617180213114e-12 	101324.9999999959
-0.3916416416416419 	299.99999999996 	1.647410841999927e-12 	101324.999999996
-0.3891391391391395 	299.9999999999762 	2.254628886982812e-12 	101324.9999999961
-0.3866366366366368 	299.9999999999778 	7.705208500214888e-13 	101324.9999999963
-0.3841341341341344 	299.9999999999984 	1.384350639824683e-12 	101324.9999999964
-0.381631631631632 	299.9999999999764 	7.367591875353493e-13 	101324.9999999962
-0.3791291291291294 	300.0000000000011 	1.063752227002858e-12 	101324.9999999962
-0.3766266266266269 	300.000000000012 	1.366137340787314e-12 	101324.9999999961
-0.3741241241241244 	300.0000000000127 	5.937543367361965e-13 	101324.9999999959
-0.371621621621622 	300.0000000000127 	2.274309969282518e-12 	101324.9999999958
-0.3691191191191194 	300.0000000000034 	1.17135802702653e-12 	101324.9999999959
-0.366616616616617 	300.0000000000051 	2.119219210754177e-12 	101324.9999999958
-0.3641141141141143 	299.9999999999897 	1.675930147307921e-12 	101324.9999999958
-0.3616116116116119 	299.999999999967 	9.062461724196878e-13 	101324.9999999958
-0.3591091091091095 	299.9999999999899 	1.531690860969733e-12 	101324.9999999955
-0.356606606606607 	299.9999999999944 	1.316054263718297e-12 	101324.9999999955
-0.3541041041041044 	299.9999999999935 	1.834479156784645e-12 	101324.9999999955
-0.3516016016016019 	300.0000000000077 	2.702142676495279e-12 	101324.9999999953
-0.3490990990990994 	299.9999999999945 	2.14244858657779e-12 	101324.9999999954
-0.346596596596597 	300.0000000000176 	3.897318264827732e-12 	101324.9999999958
-0.3440940940940944 	300.0000000000214 	2.051318334763099e-12 	101324.9999999959
-0.3415915915915919 	300.0000000000192 	3.724154094121662e-12 	101324.999999996
-0.3390890890890895 	299.9999999999912 	2.722236286188838e-12 	101324.999999996
-0.3365865865865869 	300.0000000000094 	3.790828166127175e-12 	101324.9999999957
-0.3340840840840844 	299.9999999999954 	2.973188410455502e-12 	101324.9999999955
-0.3315815815815819 	300.000000000014 	3.418325387564946e-12 	101324.9999999954
-0.3290790790790794 	300.0000000000151 	3.157899344387508e-12 	101324.9999999954
-0.3265765765765769 	299.999999999965 	3.604593260193032e-12 	101324.9999999955
-0.3240740740740744 	300.0000000000041 	3.083733407790187e-12 	101324.9999999955
-0.3215715715715718 	300.0000000000099 	4.135226854072048e-12 	101324.9999999957
-0.3190690690690695 	299.9999999999636 	3.167119737055709e-12 	101324.9999999958
-0.3165665665665668 	299.9999999999931 	3.703334301762421e-12 	101324.9999999957
-0.3140640640640644 	299.9999999999968 	2.135675933328344e-12 	101324.9999999955
-0.311561561561562 	299.9999999999588 	4.029245323487188e-12 	101324.9999999954
-0.3090590590590593 	299.9999999999956 	1.046594699551601e-12 	101324.9999999954
-0.3065565565565568 	299.9999999999999 	5.542017011696731e-12 	101324.9999999952
-0.3040540540540545 	299.9999999999987 	1.816904014275713e-12 	101324.9999999952
-0.3015515515515518 	300.0000000000085 	5.275389731393583e-12 	101324.999999995
-0.2990490490490494 	299.9999999999637 	2.855087865617275e-12 	101324.9999999952
-0.2965465465465469 	299.9999999999952 	4.433991190168784e-12 	101324.9999999953
-0.2940440440440444 	299.999999999992 	3.397646018984892e-12 	101324.9999999953
-0.2915415415415418 	300.0000000000047 	3.318901312238383e-12 	101324.9999999953
-0.2890390390390395 	300.0000000000069 	4.241715777888206e-12 	101324.9999999954
-0.2865365365365368 	299.9999999999829 	3.347853010469944e-12 	101324.999999995
-0.2840340340340343 	299.9999999999974 	4.835981119722127e-12 	101324.999999995
-0.2815315315315318 	299.9999999999554 	2.537323649400438e-12 	101324.9999999951
-0.2790290290290295 	299.9999999999842 	3.194569248652985e-12 	101324.9999999949
-0.2765265265265269 	300.0000000000085 	2.090856661834726e-12 	101324.9999999952
-0.2740240240240244 	300.0000000000135 	2.347644658195654e-12 	101324.9999999948
-0.2715215215215219 	300.0000000000047 	2.748315499529061e-12 	101324.9999999948
-0.2690190190190194 	299.9999999999683 	2.341244079212089e-12 	101324.9999999949
-0.2665165165165169 	299.999999999996 	2.989746989939493e-12 	101324.999999995
-0.2640140140140144 	299.9999999999843 	2.225196058319146e-12 	101324.9999999951
-0.2615115115115119 	299.9999999999959 	4.555586951911698e-12 	101324.9999999951
-0.2590090090090094 	299.9999999999608 	2.838417213924035e-12 	101324.9999999953
-0.2565065065065068 	299.9999999999935 	4.080557888809663e-12 	101324.9999999954
-0.2540040040040044 	299.9999999999954 	3.634937354402039e-12 	101324.9999999953
-0.2515015015015019 	300.0000000000153 	3.383103538765844e-12 	101324.9999999953
-0.2489989989989994 	300.0000000000248 	4.52203941975393e-12 	101324.9999999953
-0.2464964964964968 	299.999999999992 	3.466924258099539e-12 	101324.9999999954
-0.2439939939939944 	299.9999999999941 	6.417793650617925e-12 	101324.9999999953
-0.2414914914914919 	299.9999999999828 	3.723372328600425e-12 	101324.999999995
-0.2389889889889893 	299.999999999998 	6.599065293258691e-12 	101324.9999999951
-0.2364864864864869 	300.0000000000119 	3.848363728402818e-12 	101324.999999995
-0.2339839839839843 	299.9999999999618 	6.581146835089577e-12 	101324.9999999947
-0.2314814814814819 	299.9999999999827 	3.393862662130423e-12 	101324.9999999944
-0.2289789789789792 	299.999999999958 	5.738637039445153e-12 	101324.9999999945
-0.2264764764764769 	299.9999999999667 	3.59999046320351e-12 	101324.9999999946
-0.2239739739739743 	299.9999999999791 	4.506231191730392e-12 	101324.9999999945
-0.2214714714714718 	299.9999999999673 	4.649092282142599e-12 	101324.9999999946
-0.2189689689689693 	299.9999999999816 	4.505847866878841e-12 	101324.9999999946
-0.2164664664664669 	299.9999999999859 	5.68772523834079e-12 	101324.9999999945
-0.2139639639639643 	299.9999999999618 	4.046756834272773e-12 	101324.9999999944
-0.2114614614614618 	299.9999999999827 	5.410681220004514e-12 	101324.9999999946
-0.2089589589589593 	299.9999999999991 	4.81107558371776e-12 	101324.9999999945
-0.2064564564564568 	299.9999999999999 	4.258813170324068e-12 	101324.9999999946
-0.2039539539539543 	299.9999999999532 	4.515259774592658e-12 	101324.9999999947
-0.2014514514514518 	299.9999999999644 	2.534954481382976e-12 	101324.9999999945
-0.1989489489489494 	299.9999999999897 	5.310387228721671e-12 	101324.9999999948
-0.1964464464464468 	300.0000000000005 	2.216269664505663e-12 	101324.999999995
-0.1939439439439443 	299.9999999999948 	4.817159660521759e-12 	101324.9999999946
-0.1914414414414418 	299.9999999999613 	3.343455187883423e-12 	101324.9999999944
-0.1889389389389393 	299.9999999999963 	4.371056013271794e-12 	101324.9999999945
-0.1864364364364368 	300.0000000000143 	4.423978105826768e-12 	101324.9999999945
-0.1839339339339343 	299.9999999999861 	4.727719139672706e-12 	101324.9999999945
-0.1814314314314318 	299.9999999999945 	4.162629888281729e-12 	101324.9999999946
-0.1789289289289293 	299.9999999999478 	3.932069360570316e-12 	101324.9999999946
-0.1764264264264268 	299.9999999999842 	2.710845435160523e-12 	101324.9999999946
-0.1739239239239243 	299.9999999999463 	3.338922029739562e-12 	101324.9999999948
-0.1714214214214218 	299.9999999999932 	1.908008287982133e-12 	101324.9999999946
-0.1689189189189193 	299.9999999999727 	3.912664800402341e-12 	101324.9999999945
-0.1664164164164168 	299.9999999999994 	1.553466188680841e-12 	101324.9999999946
-0.1639139139139143 	299.9999999999928 	5.643875261404264e-12 	101324.9999999946
-0.1614114114114118 	300.000000000014 	1.622667186363388e-12 	101324.9999999948
-0.1589089089089093 	299.9999999999985 	8.417718998335108e-12 	101324.999999995
-0.1564064064064068 	299.9999999999917 	9.47347771198482e-13 	101324.9999999947
-0.1539039039039043 	299.9999999999992 	8.576962448168173e-12 	101324.9999999948
-0.1514014014014018 	300.0000000000124 	1.56732580522242e-12 	101324.9999999948
-0.1488988988988993 	300.000000000005 	7.613911089708764e-12 	101324.9999999951
-0.1463963963963968 	300.0000000000047 	2.030602588501067e-12 	101324.9999999952
-0.1438938938938943 	299.9999999999787 	6.357781421632976e-12 	101324.9999999951
-0.1413913913913918 	299.9999999999589 	3.005348064557606e-12 	101324.9999999952
-0.1388888888888893 	299.9999999999863 	4.966919189113341e-12 	101324.9999999952
-0.1363863863863868 	299.9999999999417 	3.266857201326063e-12 	101324.9999999952
-0.1338838838838843 	299.9999999999642 	3.91844682973535e-12 	101324.9999999949
-0.1313813813813818 	299.9999999999948 	2.853079066760579e-12 	101324.9999999947
-0.1288788788788793 	299.9999999999812 	2.955143597124496e-12 	101324.9999999946
-0.1263763763763768 	299.9999999999843 	1.970065214540362e-12 	101324.9999999945
-0.1238738738738743 	299.9999999999672 	3.400152538408168e-12 	101324.9999999946
-0.1213713713713717 	299.9999999999927 	1.73805552646047e-12 	101324.9999999944
-0.1188688688688693 	300.0000000000046 	4.294209522272184e-12 	101324.9999999942
-0.1163663663663668 	299.9999999999496 	1.727462169593483e-12 	101324.9999999943
-0.1138638638638643 	299.999999999995 	4.996907974957274e-12 	101324.9999999945
-0.1113613613613618 	299.9999999999937 	1.242563076814062e-12 	101324.9999999946
-0.1088588588588592 	299.9999999999897 	5.182431097447954e-12 	101324.9999999945
-0.1063563563563568 	299.9999999999776 	6.536080906437135e-13 	101324.9999999943
-0.1038538538538543 	299.9999999999901 	4.060988413616745e-12 	101324.9999999945
-0.1013513513513517 	300.0000000000064 	2.044519992275024e-12 	101324.9999999947
-0.09884884884884926 	299.9999999999665 	3.677057347556422e-12 	101324.9999999949
-0.09634634634634676 	299.9999999999511 	2.360189337709737e-12 	101324.9999999952
-0.09384384384384425 	299.9999999999593 	3.101786868346556e-12 	101324.999999995
-0.09134134134134177 	300.0000000000087 	2.671450794268528e-12 	101324.9999999951
-0.08883883883883925 	300.0000000000058 	3.752129280108311e-12 	101324.9999999952
-0.08633633633633674 	299.9999999999757 	3.332603012583028e-12 	101324.9999999952
-0.08383383383383426 	300.0000000000009 	3.257512319652893e-12 	101324.9999999951
-0.08133133133133173 	299.9999999999804 	3.98261171644217e-12 	101324.9999999952
-0.07882882882882926 	299.9999999999436 	3.310988504073778e-12 	101324.999999995
-0.07632632632632676 	299.9999999999785 	3.269624012864264e-12 	101324.9999999949
-0.07382382382382424 	299.9999999999436 	3.132354756157471e-12 	101324.9999999948
-0.07132132132132173 	300.0000000000063 	2.340692969334502e-12 	101324.999999995
-0.06881881881881925 	299.999999999982 	2.504095995499509e-12 	101324.999999995
-0.06631631631631671 	299.9999999999453 	2.46213474981226e-12 	101324.999999995
-0.06381381381381425 	299.9999999999765 	2.260748152467022e-12 	101324.9999999948
-0.06131131131131173 	299.9999999999785 	2.13867495206658e-12 	101324.9999999948
-0.05880880880880923 	299.9999999999554 	2.085412355201349e-12 	101324.9999999949
-0.05630630630630672 	299.9999999999849 	2.426585121496659e-12 	101324.9999999949
-0.05380380380380424 	300.0000000000063 	2.381822799138141e-12 	101324.9999999947
-0.05130130130130173 	300.0000000000075 	2.721144885179742e-12 	101324.9999999947
-0.04879879879879922 	299.9999999999706 	2.687017837291134e-12 	101324.9999999948
-0.04629629629629672 	299.9999999999657 	2.708431783080727e-12 	101324.9999999951
-0.04379379379379422 	299.999999999956 	2.863488923282812e-12 	101324.9999999951
-0.04129129129129173 	299.9999999999913 	2.161923753514016e-12 	101324.999999995
-0.03878878878878922 	299.9999999999933 	2.178269233408278e-12 	101324.9999999951
-0.03628628628628671 	299.9999999999928 	2.315391452579965e-12 	101324.9999999948
-0.03378378378378422 	299.9999999999583 	2.956220975416497e-12 	101324.9999999946
-0.03128128128128172 	299.9999999999784 	2.328543598575893e-12 	101324.9999999948
-0.02877877877877922 	299.9999999999794 	2.606763966614868e-12 	101324.9999999948
-0.0262762762762767 	299.9999999999466 	1.967254826136959e-12 	101324.9999999948
-0.02377377377377422 	300.0000000000136 	1.955701192641662e-12 	101324.9999999951
-0.0212712712712717 	299.9999999999508 	1.837525871402647e-12 	101324.9999999952
-0.01876876876876921 	299.999999999982 	7.963387912752862e-13 	101324.9999999951
-0.01626626626626671 	300.0000000000035 	8.943762050013635e-13 	101324.999999995
-0.0137637637637642 	299.99999999998 	6.736545405982347e-13 	101324.9999999951
-0.0112612612612617 	300.0000000000102 	7.524076158328434e-13 	101324.9999999952
-0.008758758758759198 	299.9999999999969 	3.372526105900502e-13 	101324.9999999953
-0.006256256256256697 	299.9999999999396 	5.399310478250729e-13 	101324.9999999951
-0.003753753753754195 	299.9999999999752 	2.666810382068991e-13 	101324.9999999952
-0.001251251251251693 	299.9999999999622 	3.586193279589415e-14 	101324.9999999951
0.00125125125125081 	299.999999999974 	7.742888120696063e-13 	101324.9999999953
0.003753753753753312 	299.9999999999794 	2.368166981922155e-13 	101324.9999999954
0.006256256256255817 	299.9999999999419 	6.706523548060901e-13 	101324.9999999953
0.008758758758758317 	299.9999999999919 	2.936479359678945e-13 	101324.9999999952
0.01126126126126082 	300.0000000000006 	1.499883226777417e-14 	101324.9999999954
0.01376376376376332 	299.9999999999853 	1.094817687294499e-13 	101324.9999999953
0.01626626626626582 	300.0000000000049 	2.984269155441304e-13 	101324.9999999952
0.01876876876876833 	299.9999999999728 	3.123345704988718e-13 	101324.999999995
0.02127127127127083 	299.9999999999842 	4.356805771537941e-14 	101324.9999999948
0.02377377377377332 	299.9999999999955 	2.119989437181029e-13 	101324.9999999948
0.02627627627627583 	299.9999999999453 	7.595033871803294e-13 	101324.9999999947
0.02877877877877833 	300.0000000000018 	1.938441185617875e-12 	101324.9999999947
0.03128128128128083 	299.9999999999731 	1.406921365316154e-12 	101324.999999995
0.03378378378378333 	299.9999999999461 	2.177525603464607e-12 	101324.9999999949
0.03628628628628584 	299.9999999999862 	1.956090255080287e-12 	101324.9999999948
0.03878878878878834 	299.9999999999899 	2.235075822391962e-12 	101324.999999995
0.04129129129129084 	299.9999999999903 	2.430641706568265e-12 	101324.9999999952
0.04379379379379333 	299.9999999999714 	2.780252566953472e-12 	101324.9999999951
0.04629629629629585 	299.9999999999403 	2.567127901621046e-12 	101324.999999995
0.04879879879879834 	299.9999999999756 	2.870358705949461e-12 	101324.9999999948
0.05130130130130085 	300.000000000006 	2.115757738630527e-12 	101324.999999995
0.05380380380380335 	300.0000000000115 	1.648509114929098e-12 	101324.999999995
0.05630630630630584 	299.9999999999959 	1.364767166416251e-12 	101324.9999999949
0.05880880880880836 	299.9999999999576 	1.851837358009219e-12 	101324.9999999948
0.06131131131131085 	299.9999999999847 	1.277031571321872e-12 	101324.9999999951
0.06381381381381336 	299.9999999999768 	1.050245444693967e-12 	101324.9999999952
0.06631631631631586 	299.9999999999409 	1.464639148665216e-12 	101324.9999999953
0.06881881881881835 	299.9999999999742 	2.199225334241041e-12 	101324.9999999952
0.07132132132132088 	299.9999999999967 	1.756201578480993e-12 	101324.9999999951
0.07382382382382337 	299.9999999999457 	2.478829352753027e-12 	101324.9999999948
0.07632632632632587 	299.999999999983 	2.724695119730776e-12 	101324.9999999947
0.07882882882882837 	299.9999999999624 	2.983517665425143e-12 	101324.9999999951
0.08133133133133086 	299.9999999999937 	3.665460367895106e-12 	101324.9999999952
0.08383383383383337 	299.9999999999942 	3.561226805491045e-12 	101324.9999999951
0.08633633633633589 	299.999999999948 	3.530200420859379e-12 	101324.9999999948
0.08883883883883838 	300.0000000000042 	4.105916009322599e-12 	101324.9999999949
0.09134134134134086 	299.9999999999904 	3.884524968463773e-12 	101324.999999995
0.09384384384384339 	299.9999999999477 	4.027159776101333e-12 	101324.9999999951
0.09634634634634588 	299.9999999999797 	3.592246205346959e-12 	101324.999999995
0.09884884884884838 	299.9999999999849 	3.105269989362907e-12 	101324.9999999948
0.1013513513513509 	300.0000000000134 	3.154849598821466e-12 	101324.9999999948
0.1038538538538534 	299.9999999999739 	3.249266421938636e-12 	101324.9999999945
0.1063563563563559 	300.0000000000004 	3.763581385485103e-12 	101324.9999999945
0.1088588588588584 	300.0000000000105 	4.255472425818529e-12 	101324.9999999945
0.1113613613613609 	299.9999999999683 	5.494439850440301e-12 	101324.9999999945
0.1138638638638634 	299.9999999999698 	5.897123520086704e-12 	101324.9999999945
0.1163663663663659 	299.9999999999699 	6.516611438383017e-12 	101324.9999999946
0.1188688688688684 	299.9999999999866 	6.598150126987241e-12 	101324.9999999948
0.1213713713713709 	299.9999999999978 	6.316008454229438e-12 	101324.9999999949
0.1238738738738734 	299.9999999999603 	6.746202931889325e-12 	101324.9999999952
0.1263763763763759 	299.9999999999957 	7.07020462998126e-12 	101324.9999999952
0.1288788788788784 	299.9999999999921 	6.5386905366953e-12 	101324.9999999952
0.1313813813813809 	299.999999999991 	5.992571401807379e-12 	101324.9999999955
0.1338838838838834 	299.9999999999854 	5.841101536855425e-12 	101324.9999999953
0.1363863863863859 	300.0000000000077 	5.766662723887945e-12 	101324.9999999956
0.1388888888888884 	300.0000000000202 	5.78802333387909e-12 	101324.9999999958
0.1413913913913909 	300.0000000000012 	5.794507044909789e-12 	101324.9999999958
0.1438938938938934 	299.9999999999946 	5.289690976280893e-12 	101324.9999999958
0.1463963963963959 	299.9999999999763 	4.607568747665618e-12 	101324.9999999956
0.1488988988988985 	299.9999999999538 	5.217170213615018e-12 	101324.9999999956
0.1514014014014009 	299.9999999999823 	4.409600520978128e-12 	101324.9999999954
0.1539039039039035 	299.9999999999795 	5.276233177860235e-12 	101324.9999999954
0.1564064064064059 	299.9999999999673 	3.060780463182438e-12 	101324.9999999953
0.1589089089089084 	299.999999999986 	5.372567364078849e-12 	101324.9999999951
0.1614114114114109 	299.9999999999837 	3.219290090032559e-12 	101324.9999999949
0.1639139139139134 	299.9999999999553 	5.310919719070109e-12 	101324.9999999949
0.166416416416416 	299.9999999999989 	4.996993320989656e-12 	101324.9999999949
0.1689189189189185 	300.0000000000156 	5.05281759807996e-12 	101324.9999999952
0.1714214214214209 	299.9999999999987 	5.799353899723442e-12 	101324.9999999955
0.1739239239239235 	299.9999999999915 	4.36612265107071e-12 	101324.9999999952
0.1764264264264259 	299.9999999999833 	6.034573539570258e-12 	101324.9999999952
0.1789289289289284 	300.0000000000015 	3.21318535333271e-12 	101324.999999995
0.181431431431431 	299.9999999999828 	5.61022153184731e-12 	101324.999999995
0.1839339339339334 	299.9999999999856 	3.127263635082241e-12 	101324.9999999948
0.186436436436436 	299.9999999999645 	4.563274937095651e-12 	101324.9999999948
0.1889389389389385 	299.9999999999864 	4.420484093369046e-12 	101324.9999999948
0.191441441441441 	299.9999999999849 	4.541552419770145e-12 	101324.9999999946
0.1939439439439434 	299.9999999999593 	5.020461711381459e-12 	101324.9999999948
0.196446446446446 	299.9999999999762 	3.037554050477551e-12 	101324.9999999948
0.1989489489489485 	299.9999999999793 	4.946392343024276e-12 	101324.9999999947
0.2014514514514509 	299.9999999999927 	3.353883681535539e-12 	101324.9999999946
0.2039539539539535 	299.9999999999955 	4.61285020083895e-12 	101324.9999999949
0.2064564564564559 	299.9999999999722 	4.249542571810235e-12 	101324.9999999949
0.2089589589589585 	299.9999999999912 	4.912300447543948e-12 	101324.9999999948
0.211461461461461 	299.999999999968 	5.228732131516463e-12 	101324.999999995
0.2139639639639635 	299.999999999989 	5.235082921188757e-12 	101324.9999999948
0.2164664664664659 	300.0000000000015 	6.001812939421026e-12 	101324.9999999947
0.2189689689689684 	300.0000000000013 	3.930069401224239e-12 	101324.9999999948
0.221471471471471 	299.9999999999985 	5.429907629285031e-12 	101324.999999995
0.2239739739739735 	299.9999999999739 	3.45582781020435e-12 	101324.9999999951
0.226476476476476 	299.9999999999897 	4.548914566966974e-12 	101324.9999999952
0.2289789789789785 	300.0000000000003 	3.529387445310737e-12 	101324.9999999951
0.231481481481481 	299.9999999999931 	3.480013271981688e-12 	101324.9999999951
0.2339839839839835 	299.9999999999908 	3.730969872059399e-12 	101324.9999999951
0.236486486486486 	300.0000000000142 	3.094525883956868e-12 	101324.9999999953
0.2389889889889885 	300.0000000000009 	4.17843705111955e-12 	101324.9999999952
0.241491491491491 	299.9999999999573 	2.169868758218126e-12 	101324.9999999951
0.2439939939939935 	299.9999999999882 	4.650860514186634e-12 	101324.9999999952
0.246496496496496 	299.9999999999918 	2.514611505628632e-12 	101324.9999999951
0.2489989989989985 	300.0000000000145 	3.546869437843739e-12 	101324.9999999949
0.251501501501501 	300.0000000000128 	2.468772805357327e-12 	101324.9999999949
0.2540040040040035 	299.9999999999951 	2.445683099885382e-12 	101324.9999999949
0.256506506506506 	300.0000000000122 	2.615626645422679e-12 	101324.9999999951
0.2590090090090086 	299.9999999999581 	1.907414535724948e-12 	101324.999999995
0.261511511511511 	300.0000000000015 	4.58082193541891e-12 	101324.9999999948
0.2640140140140135 	299.9999999999938 	2.465681341597666e-12 	101324.999999995
0.2665165165165161 	299.999999999965 	3.706970472546071e-12 	101324.9999999954
0.2690190190190185 	300.0000000000053 	2.285717907387215e-12 	101324.9999999955
0.271521521521521 	300.0000000000056 	2.945679396924011e-12 	101324.9999999954
0.2740240240240235 	300.0000000000079 	3.039241879798926e-12 	101324.9999999953
0.276526526526526 	300.0000000000036 	2.15959817270362e-12 	101324.9999999952
0.2790290290290286 	299.9999999999719 	3.255867324530288e-12 	101324.9999999954
0.281531531531531 	299.9999999999599 	2.678878042089354e-12 	101324.9999999954
0.2840340340340335 	299.9999999999948 	4.715707011520725e-12 	101324.9999999956
0.2865365365365361 	299.9999999999795 	3.149974211178204e-12 	101324.9999999958
0.2890390390390385 	299.9999999999962 	3.991204552846822e-12 	101324.9999999957
0.291541541541541 	299.9999999999957 	3.382033596334108e-12 	101324.9999999955
0.2940440440440436 	299.9999999999933 	2.944088949593808e-12 	101324.9999999957
0.296546546546546 	299.9999999999936 	3.407687930792925e-12 	101324.9999999956
0.2990490490490486 	299.9999999999681 	1.972432167853029e-12 	101324.9999999956
0.3015515515515511 	300.0000000000141 	4.275072043987579e-12 	101324.9999999956
0.3040540540540535 	299.9999999999925 	1.107704261719327e-12 	101324.9999999954
0.3065565565565562 	299.9999999999961 	4.653978079473804e-12 	101324.9999999955
0.3090590590590585 	299.9999999999918 	6.835600635610942e-13 	101324.9999999954
0.3115615615615611 	299.999999999969 	3.568378026622452e-12 	101324.9999999953
0.3140640640640635 	300.0000000000017 	1.404002912656948e-12 	101324.9999999953
0.316566566566566 	299.9999999999942 	2.420347501114353e-12 	101324.9999999953
0.3190690690690687 	299.9999999999756 	1.027441862732953e-12 	101324.9999999953
0.3215715715715711 	300.0000000000032 	1.936507986192607e-12 	101324.9999999952
0.3240740740740735 	299.9999999999944 	7.009513230887288e-13 	101324.9999999953
0.326576576576576 	299.9999999999436 	1.052361726894583e-12 	101324.9999999954
0.3290790790790786 	300.0000000000022 	5.664444971159995e-13 	101324.9999999954
0.3315815815815811 	300.0000000000217 	1.0139523965896e-12 	101324.9999999954
0.3340840840840836 	299.9999999999943 	7.271835290039485e-13 	101324.9999999952
0.3365865865865861 	300.0000000000288 	1.12208665218974e-12 	101324.9999999955
0.3390890890890886 	300.0000000000254 	2.117771589019083e-13 	101324.9999999956
0.3415915915915911 	299.9999999999978 	9.525507611692389e-13 	101324.9999999955
0.3440940940940935 	299.9999999999765 	8.993119479893341e-13 	101324.9999999955
0.3465965965965962 	300.000000000022 	1.047648030703456e-12 	101324.9999999954
0.3490990990990985 	300.0000000000164 	1.021057687413117e-12 	101324.9999999954
0.3516016016016011 	299.9999999999907 	2.782198280039473e-13 	101324.9999999952
0.3541041041041035 	300.0000000000016 	5.331941274825503e-13 	101324.9999999952
0.3566066066066061 	299.9999999999804 	7.050925460093358e-13 	101324.9999999952
0.3591091091091085 	299.9999999999592 	9.254096898175608e-13 	101324.9999999952
0.3616116116116112 	299.9999999999712 	9.956863407665704e-13 	101324.9999999953
0.3641141141141137 	299.9999999999657 	1.634612910364466e-12 	101324.9999999953
0.3666166166166161 	299.9999999999575 	1.766045879666635e-12 	101324.9999999954
0.3691191191191185 	300.0000000000143 	2.004463870345562e-12 	101324.9999999954
0.371621621621621 	300.0000000000073 	2.221855879870974e-12 	101324.9999999952
0.3741241241241237 	300.0000000000234 	1.058675601691321e-12 	101324.9999999951
0.3766266266266261 	300.0000000000137 	8.966150505931064e-13 	101324.9999999952
0.3791291291291286 	299.9999999999944 	1.205793557448727e-12 	101324.9999999951
0.3816316316316311 	299.9999999999573 	6.216282928864327e-13 	101324.9999999951
0.3841341341341336 	300.0000000000039 	1.065258409648201e-12 	101324.9999999951
0.3866366366366362 	299.9999999999974 	2.886826029308732e-13 	101324.9999999951
0.3891391391391387 	299.9999999999782 	3.65251289992597e-13 	101324.9999999953
0.391641641641641 	299.9999999999948 	4.230921614233973e-13 	101324.9999999955
0.3941441441441436 	300.000000000004 	7.982688638577591e-13 	101324.9999999956
0.3966466466466462 	299.9999999999998 	1.849081346049467e-12 	101324.9999999956
0.3991491491491486 	299.9999999999729 	1.742482078757344e-12 	101324.9999999955
0.4016516516516512 	299.999999999956 	2.380677200341964e-12 	101324.9999999953
0.4041541541541536 	299.9999999999791 	8.542462999930054e-13 	101324.9999999952
0.4066566566566561 	299.9999999999753 	1.993502927025833e-12 	101324.9999999952
0.4091591591591587 	299.9999999999951 	7.278554579965224e-13 	101324.9999999952
0.4116616616616612 	299.999999999997 	1.976370708544963e-12 	101324.9999999953
0.4141641641641635 	300.000000000018 	8.941315754701611e-13 	101324.9999999955
0.4166666666666662 	300.0000000000003 	1.202826059244097e-12 	101324.9999999958
0.4191691691691687 	299.9999999999701 	1.168458299764656e-12 	101324.9999999958
0.421671671671671 	300.0000000000013 	1.086340979750123e-12 	101324.9999999959
0.4241741741741737 	299.9999999999907 	2.331658811603881e-12 	101324.999999996
0.4266766766766761 	299.9999999999723 	1.751071833524367e-12 	101324.9999999958
0.4291791791791785 	300.0000000000123 	3.292370060878654e-12 	101324.9999999958
0.4316816816816812 	300.0000000000047 	1.897550891956379e-12 	101324.9999999957
0.4341841841841836 	299.9999999999937 	2.927101605915793e-12 	101324.9999999956
0.4366866866866862 	299.9999999999613 	4.430850280763468e-13 	101324.9999999956
0.4391891891891885 	299.9999999999985 	2.101507738222607e-12 	101324.9999999958
0.4416916916916913 	299.9999999999955 	7.679555315554502e-13 	101324.9999999959
0.4441941941941936 	299.9999999999953 	1.442359126322664e-12 	101324.9999999961
0.4466966966966961 	299.9999999999599 	9.320567211831662e-13 	101324.999999996
0.4491991991991987 	299.9999999999922 	7.771178731086687e-13 	101324.9999999961
0.4517017017017012 	299.9999999999916 	1.492249451688829e-12 	101324.9999999959
0.4542042042042035 	299.9999999999949 	1.327233472348908e-12 	101324.9999999958
0.4567067067067062 	299.9999999999963 	2.147172024596016e-12 	101324.9999999959
0.4592092092092087 	299.9999999999625 	1.883459191259713e-12 	101324.999999996
0.4617117117117112 	300.0000000000114 	2.324239972922499e-12 	101324.9999999958
0.4642142142142137 	299.99999999998 	2.165591634208831e-12 	101324.9999999959
0.4667167167167162 	299.9999999999952 	2.103400779416529e-12 	101324.9999999961
0.4692192192192187 	299.9999999999789 	2.104855168721524e-12 	101324.9999999964
0.4717217217217212 	300.0000000000056 	1.768913600587809e-12 	101324.9999999966
0.4742242242242236 	299.9999999999798 	2.24594285161201e-12 	101324.9999999965
0.4767267267267262 	299.999999999988 	1.817170649713802e-12 	101324.9999999964
0.4792292292292287 	300.000000000011 	2.106827518699469e-12 	101324.9999999963
0.4817317317317312 	300.0000000000158 	2.173414906403753e-12 	101324.9999999962
0.4842342342342336 	299.9999999999938 	2.221410077679902e-12 	101324.9999999961
0.4867367367367362 	299.9999999999781 	2.414313355111985e-12 	101324.9999999961
0.4892392392392387 	300.0000000000146 	2.069905071821911e-12 	101324.9999999962
0.4917417417417412 	300.000000000002 	3.3084871571684e-12 	101324.9999999964
0.4942442442442437 	299.9999999999542 	2.697710299012904e-12 	101324.9999999963
0.4967467467467462 	299.9999999999646 	3.706875031597952e-12 	101324.9999999961
0.4992492492492487 	299.9999999999592 	1.864982838110562e-12 	101324.9999999962
0.5017517517517511 	299.999999999977 	2.956173029692391e-12 	101324.9999999963
0.5042542542542537 	299.9999999999831 	2.553084810715476e-12 	101324.9999999964
0.5067567567567562 	299.9999999999716 	3.25675858845408e-12 	101324.9999999962
0.5092592592592589 	299.9999999999833 	3.320366162241189e-12 	101324.9999999964
0.5117617617617611 	299.9999999999788 	3.10512112869779e-12 	101324.9999999961
0.5142642642642637 	299.9999999999935 	4.148030790623148e-12 	101324.999999996
0.5167667667667663 	299.999999999986 	3.081504118460483e-12 	101324.9999999958
0.5192692692692688 	299.9999999999609 	5.569086548044743e-12 	101324.9999999958
0.5217717717717714 	299.9999999999695 	2.423269580338174e-12 	101324.9999999955
0.5242742742742736 	299.9999999999695 	5.336917759485113e-12 	101324.9999999954
0.5267767767767763 	299.9999999999808 	2.215417914097274e-12 	101324.9999999954
0.5292792792792789 	299.9999999999683 	3.745018425426634e-12 	101324.9999999953
0.5317817817817813 	299.9999999999522 	2.042607485624556e-12 	101324.9999999954
0.5342842842842837 	300.0000000000082 	2.671229332502441e-12 	101324.9999999953
0.5367867867867864 	300.0000000000011 	2.027209866062422e-12 	101324.9999999955
0.5392892892892888 	299.9999999999795 	2.290247458872869e-12 	101324.9999999958
0.5417917917917912 	300.0000000000011 	1.661403298071266e-12 	101324.999999996
0.5442942942942938 	299.999999999992 	1.950525199102498e-12 	101324.9999999959
0.5467967967967964 	299.9999999999765 	1.392301633281432e-12 	101324.9999999957
0.5492992992992988 	299.9999999999706 	1.847318174455818e-12 	101324.9999999956
0.5518018018018012 	299.9999999999707 	1.969708420513777e-12 	101324.9999999956
0.5543043043043039 	300.0000000000088 	2.725069646628137e-12 	101324.9999999958
0.5568068068068063 	299.9999999999942 	2.434145463922842e-12 	101324.999999996
0.5593093093093087 	299.9999999999573 	2.973639293418924e-12 	101324.9999999961
0.5618118118118114 	299.9999999999797 	1.715421809406471e-12 	101324.9999999961
0.5643143143143137 	299.9999999999742 	2.952490496684194e-12 	101324.9999999956
0.5668168168168163 	299.9999999999961 	1.910426189511781e-12 	101324.9999999957
0.5693193193193188 	300.0000000000175 	2.489949507197392e-12 	101324.9999999956
0.5718218218218213 	300.0000000000156 	2.620539042595597e-12 	101324.9999999958
0.5743243243243239 	300.0000000000103 	2.310193291599927e-12 	101324.9999999958
0.5768268268268262 	300.0000000000029 	3.163578809602038e-12 	101324.9999999958
0.5793293293293288 	299.9999999999708 	1.799969810896331e-12 	101324.999999996
0.5818318318318314 	299.9999999999594 	3.853949008861398e-12 	101324.9999999961
0.5843343343343338 	299.9999999999901 	1.454317154596328e-12 	101324.9999999963
0.5868368368368363 	299.9999999999868 	4.405785932210684e-12 	101324.999999996
0.5893393393393387 	299.9999999999732 	2.437904783784387e-12 	101324.9999999958
0.5918418418418413 	299.9999999999694 	3.691850106416762e-12 	101324.9999999956
0.5943443443443439 	300.000000000006 	2.34090426697283e-12 	101324.9999999956
0.5968468468468463 	300.0000000000067 	3.244949619260201e-12 	101324.9999999957
0.5993493493493487 	300.0000000000182 	2.843633090220045e-12 	101324.9999999958
0.6018518518518514 	299.9999999999865 	3.005481259875921e-12 	101324.9999999959
0.6043543543543537 	299.999999999998 	2.695166801139437e-12 	101324.9999999958
0.6068568568568564 	299.9999999999905 	3.254443160835231e-12 	101324.9999999957
0.6093593593593587 	299.9999999999645 	3.36683551659346e-12 	101324.9999999958
0.6118618618618614 	299.9999999999622 	3.433619872015703e-12 	101324.9999999959
0.6143643643643638 	300.00000000001 	2.990537925282395e-12 	101324.9999999956
0.6168668668668662 	299.999999999996 	3.797665752524777e-12 	101324.9999999954
0.6193693693693688 	299.9999999999763 	2.457741035199911e-12 	101324.9999999952
0.6218718718718714 	299.9999999999825 	3.086065326341916e-12 	101324.9999999953
0.6243743743743737 	299.9999999999677 	1.160402149874545e-12 	101324.9999999953
0.6268768768768762 	299.9999999999645 	2.529364112356998e-12 	101324.9999999955
0.629379379379379 	299.9999999999752 	1.472697848277749e-12 	101324.9999999957
0.6318818818818812 	299.9999999999862 	2.346051015367831e-12 	101324.9999999958
0.6343843843843838 	300.0000000000081 	2.399185968572627e-12 	101324.9999999958
0.6368868868868864 	299.9999999999924 	2.579353616119612e-12 	101324.9999999956
0.6393893893893888 	299.9999999999641 	2.974505485990323e-12 	101324.9999999953
0.6418918918918912 	300.0000000000014 	1.739703476683024e-12 	101324.9999999953
0.6443943943943939 	299.999999999991 	3.908402439503945e-12 	101324.9999999955
0.6468968968968963 	299.9999999999897 	1.499275796862976e-12 	101324.9999999958
0.6493993993993988 	299.999999999986 	3.93254888951079e-12 	101324.9999999959
0.6519019019019012 	299.999999999985 	2.329134534888301e-12 	101324.9999999959
0.6544044044044038 	299.9999999999512 	3.698336095466e-12 	101324.9999999958
0.6569069069069065 	299.9999999999805 	1.9233968253258e-12 	101324.9999999957
0.6594094094094087 	299.9999999999785 	3.353270595329925e-12 	101324.9999999957
0.6619119119119113 	299.9999999999744 	2.324324215627952e-12 	101324.9999999958
0.664414414414414 	299.999999999999 	3.201677860540825e-12 	101324.9999999959
0.6669169169169162 	300.0000000000073 	2.674491668403799e-12 	101324.9999999958
0.6694194194194188 	299.9999999999917 	3.031879981055759e-12 	101324.9999999957
0.6719219219219214 	299.9999999999648 	2.345102018607266e-12 	101324.9999999956
0.674424424424424 	299.9999999999908 	2.60443638365704e-12 	101324.9999999955
0.6769269269269262 	299.9999999999603 	2.249445192526403e-12 	101324.9999999955
0.679429429429429 	300.0000000000031 	2.353908608838602e-12 	101324.9999999955
0.6819319319319311 	299.9999999999872 	1.507496577604493e-12 	101324.9999999957
0.6844344344344341 	299.9999999999969 	1.499167532867996e-12 	101324.9999999957
0.686936936936936 	299.9999999999965 	4.918340271819285e-13 	101324.9999999958
0.6894394394394392 	299.9999999999946 	6.763513897847575e-13 	101324.9999999957
0.6919419419419413 	299.9999999999925 	3.436606591943134e-13 	101324.9999999955
0.694444444444444 	299.999999999976 	5.272128681781881e-13 	101324.9999999952
0.6969469469469463 	299.9999999999641 	7.616226940727447e-13 	101324.999999995
0.6994494494494489 	299.9999999999561 	7.268226070228436e-13 	101324.9999999948
0.7019519519519515 	299.999999999989 	1.253990295280386e-12 	101324.9999999948
0.7044544544544538 	299.9999999999741 	1.02867501749111e-12 	101324.9999999948
0.7069569569569564 	299.9999999999928 	2.008169506765129e-12 	101324.9999999949
0.7094594594594589 	299.9999999999773 	9.472189148848658e-13 	101324.9999999948
0.7119619619619615 	299.9999999999524 	1.58184758847781e-12 	101324.9999999947
0.7144644644644638 	299.9999999999702 	3.720416400443746e-13 	101324.9999999948
0.7169669669669665 	299.9999999999571 	7.996238341805275e-13 	101324.9999999948
0.7194694694694688 	299.9999999999951 	1.975652178203008e-13 	101324.9999999949
0.7219719719719715 	299.9999999999948 	3.307420167583055e-13 	101324.999999995
0.7244744744744737 	299.9999999999994 	3.995427537259522e-13 	101324.9999999951
0.7269769769769764 	299.9999999999947 	1.095309024350306e-12 	101324.9999999952
0.7294794794794791 	299.9999999999905 	1.962774279368116e-12 	101324.9999999954
0.7319819819819813 	299.9999999999892 	8.671631026935308e-13 	101324.9999999954
0.7344844844844839 	299.9999999999595 	1.482723730987013e-12 	101324.9999999954
0.7369869869869864 	299.999999999974 	1.656457297601295e-13 	101324.9999999955
0.739489489489489 	299.99999999997 	4.447391599934971e-13 	101324.9999999955
0.7419919919919914 	299.999999999967 	1.080542533249756e-12 	101324.9999999955
0.7444944944944939 	299.9999999999898 	1.312153217796207e-12 	101324.9999999954
0.7469969969969963 	299.9999999999853 	2.387178819113799e-12 	101324.9999999952
0.7494994994994989 	299.9999999999739 	2.006547230511923e-12 	101324.9999999949
0.7520020020020015 	299.9999999999865 	2.142954458114638e-12 	101324.9999999948
0.7545045045045039 	299.9999999999852 	1.732090268121133e-12 	101324.9999999947
0.7570070070070062 	299.9999999999697 	1.222528333322948e-12 	101324.9999999946
0.7595095095095092 	299.9999999999608 	1.218033507610235e-12 	101324.9999999947
0.7620120120120112 	299.9999999999972 	7.572658699736041e-13 	101324.9999999946
0.7645145145145138 	299.9999999999905 	1.13143220738726e-12 	101324.9999999947
0.7670170170170165 	299.9999999999653 	1.610057345465026e-12 	101324.9999999948
0.7695195195195191 	299.9999999999613 	1.035290314567014e-12 	101324.999999995
0.7720220220220213 	299.9999999999671 	2.407862264384954e-12 	101324.999999995
0.7745245245245239 	299.9999999999681 	1.116576490770412e-12 	101324.9999999949
0.7770270270270263 	299.9999999999848 	2.392181137084452e-12 	101324.9999999951
0.779529529529529 	299.9999999999877 	1.449898997516674e-12 	101324.9999999953
0.7820320320320313 	299.9999999999831 	2.134066695158709e-12 	101324.9999999954
0.784534534534534 	299.9999999999941 	1.70894074646963e-12 	101324.9999999954
0.7870370370370364 	299.9999999999937 	1.621280789829468e-12 	101324.9999999952
0.7895395395395389 	299.9999999999884 	2.31200883698986e-12 	101324.9999999951
0.7920420420420413 	299.9999999999911 	1.470177082945389e-12 	101324.9999999953
0.794544544544544 	299.9999999999961 	2.759107892666505e-12 	101324.9999999954
0.7970470470470463 	300.0000000000031 	1.778575202869131e-12 	101324.9999999953
0.799549549549549 	299.9999999999918 	2.924499043851447e-12 	101324.9999999951
0.8020520520520515 	299.9999999999961 	1.061038580682187e-12 	101324.9999999949
0.8045545545545539 	299.9999999999758 	2.163179070131233e-12 	101324.9999999948
0.8070570570570563 	299.9999999999923 	1.379915930195307e-12 	101324.9999999947
0.8095595595595589 	299.9999999999791 	2.15598101620497e-12 	101324.9999999947
0.8120620620620614 	299.9999999999642 	2.308694082466023e-12 	101324.9999999947
0.8145645645645638 	299.999999999991 	2.245566293770496e-12 	101324.9999999949
0.8170670670670666 	299.9999999999885 	2.515771623164834e-12 	101324.999999995
0.8195695695695689 	299.9999999999835 	1.284147621459144e-12 	101324.9999999949
0.8220720720720714 	299.9999999999718 	2.28023470237084e-12 	101324.9999999948
0.8245745745745739 	300.0000000000013 	6.567461242533219e-13 	101324.9999999949
0.8270770770770765 	299.9999999999886 	1.462727897883992e-12 	101324.999999995
0.8295795795795788 	299.9999999999756 	7.566795013196926e-13 	101324.999999995
0.8320820820820815 	300.0000000000122 	1.011078668840933e-12 	101324.9999999951
0.834584584584584 	300.0000000000034 	6.583011024270928e-13 	101324.9999999951
0.8370870870870865 	299.9999999999831 	8.061795919421266e-13 	101324.9999999953
0.8395895895895891 	299.9999999999615 	1.586865983510141e-12 	101324.9999999955
0.8420920920920915 	299.9999999999656 	1.136521049708951e-12 	101324.9999999955
0.844594594594594 	299.9999999999646 	1.684683138480497e-12 	101324.9999999954
0.8470970970970964 	299.9999999999763 	2.154663454154633e-12 	101324.9999999955
0.8495995995995991 	299.9999999999903 	2.632684637244791e-12 	101324.9999999955
0.8521021021021015 	299.9999999999869 	3.007865696000009e-12 	101324.9999999957
0.8546046046046039 	299.9999999999883 	2.346853166622804e-12 	101324.9999999956
0.8571071071071066 	299.9999999999969 	2.843055397787743e-12 	101324.9999999955
0.8596096096096089 	299.999999999976 	1.453769880528537e-12 	101324.9999999955
0.8621121121121116 	299.9999999999636 	2.647788089375349e-12 	101324.9999999953
0.8646146146146139 	299.9999999999915 	9.758357540697351e-13 	101324.9999999952
0.8671171171171166 	299.9999999999841 	1.741848068647368e-12 	101324.9999999952
0.8696196196196189 	299.9999999999749 	1.339959515688785e-12 	101324.9999999952
0.8721221221221216 	299.9999999999854 	1.281340670419944e-12 	101324.9999999954
0.874624624624624 	299.9999999999983 	9.92644575468506e-13 	101324.9999999952
0.8771271271271264 	300.0000000000009 	1.094876047066622e-12 	101324.9999999951
0.879629629629629 	300.000000000001 	1.882552488108897e-12 	101324.999999995
0.8821321321321317 	299.9999999999913 	1.871355851361554e-12 	101324.9999999951
0.8846346346346339 	299.9999999999586 	1.642818689632715e-12 	101324.9999999951
0.8871371371371364 	299.9999999999776 	9.351264068881573e-13 	101324.9999999951
0.8896396396396391 	299.9999999999765 	1.596865640703823e-12 	101324.9999999953
0.8921421421421414 	299.999999999976 	1.207616638544423e-12 	101324.9999999955
0.8946446446446441 	299.999999999989 	1.655274516104889e-12 	101324.9999999958
0.8971471471471464 	299.9999999999969 	1.553740497091174e-12 	101324.9999999959
0.8996496496496489 	299.9999999999812 	1.35849312728381e-12 	101324.9999999963
0.9021521521521517 	299.9999999999781 	2.093100743235198e-12 	101324.9999999964
0.9046546546546541 	299.9999999999942 	1.67363801274446e-12 	101324.9999999963
0.9071571571571564 	299.9999999999728 	2.464237830676358e-12 	101324.9999999961
0.9096596596596589 	299.9999999999714 	2.518542682039576e-12 	101324.999999996
0.9121621621621616 	299.9999999999999 	2.309238212715385e-12 	101324.9999999958
0.9146646646646639 	299.999999999992 	1.916712419480066e-12 	101324.9999999956
0.9171671671671666 	299.9999999999757 	2.107857266194213e-12 	101324.9999999958
0.9196696696696689 	300.0000000000011 	2.662864978214852e-12 	101324.9999999959
0.9221721721721714 	300.0000000000037 	1.794415281403752e-12 	101324.9999999957
0.9246746746746741 	299.9999999999748 	3.074948251956307e-12 	101324.9999999957
0.9271771771771765 	299.99999999997 	1.982416622750268e-12 	101324.9999999958
0.9296796796796791 	299.9999999999949 	3.430936026935532e-12 	101324.999999996
0.9321821821821816 	299.999999999989 	2.7455889416531e-12 	101324.999999996
0.9346846846846838 	299.9999999999751 	3.032545570127551e-12 	101324.9999999961
0.9371871871871866 	300.0000000000037 	2.578433300003595e-12 	101324.9999999962
0.9396896896896891 	300.0000000000048 	2.637061421235074e-12 	101324.9999999962
0.9421921921921914 	300.0000000000018 	2.910169571170956e-12 	101324.9999999961
0.9446946946946939 	299.9999999999796 	2.331648238610511e-12 	101324.9999999962
0.9471971971971965 	299.9999999999593 	3.735106513224606e-12 	101324.9999999961
0.9496996996996991 	299.999999999977 	2.908941021218215e-12 	101324.999999996
0.9522022022022016 	299.9999999999857 	3.778922884072825e-12 	101324.999999996
0.9547047047047038 	299.9999999999849 	3.070587260653244e-12 	101324.9999999961
0.9572072072072064 	299.9999999999831 	3.548837402322925e-12 	101324.9999999961
0.9597097097097093 	299.9999999999839 	3.802354186820405e-12 	101324.9999999962
0.9622122122122114 	299.9999999999806 	3.841422143006278e-12 	101324.9999999964
0.964714714714714 	299.9999999999816 	4.572254788302014e-12 	101324.9999999964
0.9672172172172167 	299.9999999999825 	4.364573182428294e-12 	101324.9999999965
0.969719719719719 	299.9999999999947 	5.224599327500916e-12 	101324.9999999967
0.9722222222222214 	299.9999999999889 	4.690271896809423e-12 	101324.9999999968
0.9747247247247239 	299.9999999999842 	4.832141358486291e-12 	101324.9999999967
0.9772272272272267 	299.9999999999992 	4.799765873869785e-12 	101324.9999999966
0.9797297297297292 	299.9999999999943 	4.790837198968364e-12 	101324.9999999966
0.9822322322322313 	300.0000000000001 	5.294539632400901e-12 	101324.9999999966
0.9847347347347344 	299.9999999999972 	4.535123006239228e-12 	101324.9999999967
0.9872372372372363 	299.9999999999756 	6.014904137519972e-12 	101324.9999999967
0.9897397397397389 	299.9999999999894 	4.721693651069691e-12 	101324.9999999968
0.9922422422422417 	299.9999999999797 	5.75810524133601e-12 	101324.9999999968
0.9947447447447441 	299.9999999999779 	5.245653861741732e-12 	101324.9999999967
0.9972472472472468 	299.9999999999819 	6.133354956802589e-12 	101324.9999999966
0.999749749749749 	299.9999999999777 	6.246934381528204e-12 	101324.9999999966
1.002252252252252 	299.9999999999902 	6.416116607308381e-12 	101324.9999999966
1.004754754754754 	299.999999999994 	6.061875276963472e-12 	101324.9999999966
1.007257257257256 	299.9999999999836 	5.150973198916808e-12 	101324.9999999967
1.009759759759759 	299.9999999999773 	6.110033816743917e-12 	101324.9999999968
1.012262262262261 	299.999999999976 	4.599778222538092e-12 	101324.9999999968
1.014764764764764 	299.9999999999628 	5.765726419235413e-12 	101324.9999999969
1.017267267267267 	299.9999999999597 	5.351723379069766e-12 	101324.999999997
1.019769769769769 	299.9999999999861 	5.838163563365393e-12 	101324.9999999971
1.022272272272272 	299.9999999999876 	5.64161895340257e-12 	101324.9999999971
1.024774774774774 	299.9999999999848 	5.82144694279002e-12 	101324.9999999972
1.027277277277277 	299.9999999999873 	6.716689612046405e-12 	101324.9999999972
1.029779779779779 	300.0000000000006 	6.612083443250899e-12 	101324.9999999971
1.032282282282282 	300.0000000000007 	7.065640344404023e-12 	101324.9999999971
1.034784784784784 	299.9999999999967 	6.154957063269731e-12 	101324.999999997
1.037287287287286 	299.9999999999845 	6.040046788193406e-12 	101324.9999999971
1.039789789789789 	299.9999999999879 	5.571402310344323e-12 	101324.9999999972
1.042292292292291 	300.0000000000048 	4.913447100108123e-12 	101324.9999999973
1.044794794794794 	300.0000000000135 	4.391943166520545e-12 	101324.9999999973
1.047297297297296 	300.0000000000207 	3.56759272300007e-12 	101324.9999999974
1.049799799799799 	299.9999999999953 	4.572770530202593e-12 	101324.9999999974
1.052302302302302 	299.9999999999773 	3.272514736891057e-12 	101324.9999999974
1.054804804804804 	299.9999999999673 	4.603401543408924e-12 	101324.9999999976
1.057307307307306 	299.9999999999613 	4.531552859293618e-12 	101324.9999999977
1.059809809809809 	299.9999999999826 	5.770404000763779e-12 	101324.9999999977
1.062312312312312 	299.9999999999771 	5.739547659953442e-12 	101324.9999999975
1.064814814814814 	299.9999999999714 	6.220345608323379e-12 	101324.9999999974
1.067317317317317 	299.9999999999619 	6.016072734466657e-12 	101324.9999999974
1.069819819819819 	299.9999999999653 	5.762488985135654e-12 	101324.9999999976
1.072322322322321 	299.9999999999981 	6.877977890631566e-12 	101324.9999999978
1.074824824824824 	300.0000000000101 	5.884565813404036e-12 	101324.999999998
1.077327327327327 	300.0000000000178 	7.063601985094045e-12 	101324.9999999982
1.079829829829829 	300.0000000000182 	6.128554377921069e-12 	101324.9999999981
1.082332332332332 	300.0000000000012 	6.348260614899275e-12 	101324.9999999981
1.084834834834834 	299.999999999989 	5.730857478937164e-12 	101324.999999998
1.087337337337337 	299.9999999999714 	5.980808100015228e-12 	101324.9999999979
1.089839839839839 	299.999999999968 	7.240009207392802e-12 	101324.9999999977
1.092342342342342 	299.9999999999861 	6.673017728525844e-12 	101324.9999999976
1.094844844844844 	299.9999999999856 	7.364723420623715e-12 	101324.9999999976
1.097347347347347 	299.999999999972 	6.536861825850518e-12 	101324.9999999976
1.099849849849849 	299.9999999999679 	7.973256159649049e-12 	101324.9999999977
1.102352352352352 	299.9999999999809 	6.543933492552807e-12 	101324.9999999978
1.104854854854854 	299.9999999999882 	8.111124990010662e-12 	101324.9999999977
1.107357357357357 	299.9999999999807 	7.328942050278743e-12 	101324.9999999978
1.109859859859859 	299.9999999999769 	7.945890424425325e-12 	101324.9999999978
1.112362362362362 	300.0000000000103 	6.7291891497618e-12 	101324.9999999977
1.114864864864865 	300.0000000000104 	6.215184585540686e-12 	101324.9999999979
1.117367367367367 	299.9999999999834 	6.510126833816876e-12 	101324.9999999981
1.119869869869869 	299.9999999999646 	5.63241594702768e-12 	101324.9999999981
1.122372372372372 	299.9999999999812 	6.933114927674347e-12 	101324.9999999982
1.124874874874874 	299.9999999999806 	6.482202868671806e-12 	101324.9999999983
1.127377377377377 	299.999999999987 	7.362020860032382e-12 	101324.9999999983
1.129879879879879 	300.0000000000079 	6.939606972160619e-12 	101324.9999999983
1.132382382382382 	300.0000000000127 	7.07416837618805e-12 	101324.9999999984
1.134884884884884 	300.0000000000027 	6.459948007474023e-12 	101324.9999999986
1.137387387387387 	300.0000000000059 	6.194755669320204e-12 	101324.9999999986
1.139889889889889 	299.9999999999824 	6.807032305066595e-12 	101324.9999999985
1.142392392392392 	299.9999999999757 	6.25908443007985e-12 	101324.9999999985
1.144894894894894 	300.0000000000038 	7.107308994796731e-12 	101324.9999999985
1.147397397397397 	299.9999999999987 	6.273859280603261e-12 	101324.9999999986
1.149899899899899 	299.9999999999725 	6.962004876067699e-12 	101324.9999999986
1.152402402402402 	299.9999999999687 	6.529548374429259e-12 	101324.9999999983
1.154904904904904 	299.9999999999878 	7.277081127240608e-12 	101324.9999999983
1.157407407407407 	299.9999999999876 	7.084709719993301e-12 	101324.9999999983
1.159909909909909 	299.9999999999719 	7.465818641652236e-12 	101324.9999999982
1.162412412412412 	299.9999999999659 	8.728183439011864e-12 	101324.999999998
1.164914914914914 	299.9999999999787 	7.775966093787795e-12 	101324.999999998
1.167417417417417 	299.999999999982 	8.660475465069234e-12 	101324.9999999978
1.169919919919919 	300.0000000000052 	7.924570698446331e-12 	101324.9999999977
1.172422422422422 	300.0000000000193 	8.597256030161345e-12 	101324.9999999977
1.174924924924925 	299.9999999999959 	7.602341994388002e-12 	101324.9999999978
1.177427427427427 	299.9999999999827 	7.695637094682406e-12 	101324.9999999981
1.179929929929929 	300.0000000000043 	7.757407493960348e-12 	101324.9999999983
1.182432432432432 	300.0000000000155 	6.065147208102677e-12 	101324.9999999983
1.184934934934934 	299.9999999999964 	6.546035468960432e-12 	101324.9999999983
1.187437437437437 	299.999999999984 	6.032748752727616e-12 	101324.9999999983
1.189939939939939 	299.9999999999851 	6.791219666657406e-12 	101324.9999999981
1.192442442442442 	299.999999999966 	6.175066294628518e-12 	101324.9999999983
1.194944944944944 	299.9999999999684 	6.839205927841444e-12 	101324.9999999983
1.197447447447447 	300.0000000000003 	6.274717645973678e-12 	101324.9999999982
1.199949949949949 	300.0000000000056 	6.304354179355731e-12 	101324.9999999981
1.202452452452452 	299.9999999999775 	7.039692246254648e-12 	101324.9999999982
1.204954954954955 	299.9999999999758 	6.328881405141984e-12 	101324.9999999983
1.207457457457457 	299.9999999999947 	7.188957506066944e-12 	101324.9999999984
1.20995995995996 	299.9999999999943 	6.669111804435606e-12 	101324.9999999983
1.212462462462462 	299.9999999999945 	7.356494609637094e-12 	101324.9999999982
1.214964964964964 	299.9999999999957 	6.471452912756547e-12 	101324.9999999981
1.217467467467467 	299.9999999999933 	6.712150195500091e-12 	101324.9999999982
1.219969969969969 	299.9999999999836 	5.743069633182711e-12 	101324.9999999983
1.222472472472472 	300.0000000000066 	5.779832885001575e-12 	101324.9999999983
1.224974974974975 	300.0000000000189 	5.711725328907988e-12 	101324.9999999985
1.227477477477477 	299.9999999999969 	4.146575846109662e-12 	101324.9999999985
1.229979979979979 	299.9999999999928 	4.830120329944309e-12 	101324.9999999983
1.232482482482482 	299.9999999999811 	3.842853602329285e-12 	101324.9999999983
1.234984984984984 	299.9999999999796 	4.803554623894765e-12 	101324.9999999983
1.237487487487487 	299.9999999999894 	3.976081018208169e-12 	101324.9999999983
1.239989989989989 	299.9999999999917 	4.713683462678697e-12 	101324.9999999983
1.242492492492492 	300.0000000000084 	5.31098043913604e-12 	101324.9999999983
1.244994994994994 	299.9999999999933 	4.793295553621723e-12 	101324.9999999982
1.247497497497497 	299.9999999999951 	6.041347857353432e-12 	101324.9999999979
1.249999999999999 	300.0000000000654 	5.499950744952071e-12 	101324.9999999979
