-1.25 	300 	0.07208746087775834 	101295.6107373854
-1.247497497497497 	299.979344843269 	0.0597088962861546 	101301.3288282308
-1.244994994994995 	299.9853192551948 	0.04188543979176427 	101307.6393330051
-1.242492492492492 	299.9906798801647 	0.02747639345204914 	101313.9804922566
-1.23998998998999 	299.9963044449096 	0.01042076487128532 	101320.630514674
-1.237487487487487 	300.0020533980654 	0.00832605658874544 	101327.426737445
-1.234984984984985 	300.0077588576935 	0.02249521830053825 	101334.1719992852
-1.232482482482482 	300.0133466826401 	0.03863957749254273 	101340.7784853114
-1.22997997997998 	300.0187285677515 	0.0541246979699096 	101347.1417764646
-1.227477477477477 	300.0237499701041 	0.06862294735807978 	101353.079136029
-1.224974974974975 	300.0283162746185 	0.08186157029712941 	101358.4786081237
-1.222472472472472 	300.0324116272172 	0.09366681066124409 	101363.3213887819
-1.21996996996997 	300.0358933749174 	0.1037169493802918 	101367.4387491615
-1.217467467467467 	300.0386464075279 	0.1117087860952898 	101370.6944440225
-1.214964964964965 	300.0406823670913 	0.1176171047854848 	101373.102208159
-1.212462462462462 	300.042003140385 	0.121484783196929 	101374.6642270121
-1.20995995995996 	300.0425767504377 	0.1231332364147789 	101375.3426322928
-1.207457457457457 	300.0423742283559 	0.1224913207026244 	101375.103163194
-1.204954954954955 	300.0413728193053 	0.1195595765154064 	101373.9189774548
-1.202452452452452 	300.0395731902202 	0.1143258123809521 	101371.7908780391
-1.19994994994995 	300.0369949646741 	0.106903471790922 	101368.742028762
-1.197447447447447 	300.0337244082659 	0.09746126293605059 	101364.8745055166
-1.194944944944945 	300.0298651047663 	0.08627382337780141 	101360.310908833
-1.192442442442442 	300.0254826553781 	0.07359967763897979 	101355.128867869
-1.18993993993994 	300.0206395247527 	0.05967034627632739 	101349.4022893222
-1.187437437437437 	300.0154409790894 	0.04467984736363935 	101343.2557148703
-1.184934934934935 	300.0099565460507 	0.02878890727904482 	101336.7713872613
-1.182432432432432 	300.0042880359412 	0.01237870972944214 	101330.0697320779
-1.17992992992993 	299.9985759425269 	0.008484591143313807 	101323.3168683575
-1.177427427427427 	299.9928842629424 	0.02067515750675347 	101316.588439932
-1.174924924924925 	299.9872810451208 	0.03686616300067787 	101309.9648977099
-1.172422422422422 	299.9818735734823 	0.05244794155762862 	101303.5730144677
-1.16991991991992 	299.9767823526547 	0.06712403300127054 	101297.555221053
-1.167417417417417 	299.9721297400169 	0.08056266325405309 	101292.0560758689
-1.164914914914915 	299.9680190069818 	0.09247472256341294 	101287.1975526172
-1.162412412412412 	299.964520021283 	0.1025942031951865 	101283.0621890974
-1.15990990990991 	299.9616754451953 	0.1107972250286281 	101279.7003165728
-1.157407407407407 	299.9595150325849 	0.117057354355725 	101277.1470518676
-1.154904904904904 	299.9580779363996 	0.1212214651855033 	101275.448591543
-1.152402402402403 	299.9574237170708 	0.1231264319417207 	101274.675379261
-1.1498998998999 	299.9575844691453 	0.1226435836771588 	101274.8653390099
-1.147397397397397 	299.9585547052274 	0.1197717532315554 	101276.011865511
-1.144894894894895 	299.960311913193 	0.1146823867356818 	101278.0884454205
-1.142392392392392 	299.9628043234903 	0.1075065032295828 	101281.0339607284
-1.13988988988989 	299.9659588948016 	0.09839260890547274 	101284.7620930588
-1.137387387387387 	299.9697228556784 	0.08749494846141985 	101289.210585109
-1.134884884884885 	299.974042650111 	0.07498079872221944 	101294.3161591393
-1.132382382382382 	299.9788439564049 	0.06112172838873128 	101299.9910669189
-1.12987987987988 	299.9840322175621 	0.04617574565976856 	101306.1236248601
-1.127377377377377 	299.9894863022877 	0.03044137653243344 	101312.5706552419
-1.124874874874875 	299.9950803610744 	0.01421776532898258 	101319.1834815889
-1.122372372372372 	300.0007343201326 	0.008366653368380141 	101325.8674209949
-1.11986986986987 	300.006405398279 	0.01861158232116976 	101332.5719296309
-1.117367367367367 	300.0120144002242 	0.03479465438218651 	101339.2033916892
-1.114864864864865 	300.0174263921637 	0.05042736941383381 	101345.602204645
-1.112362362362362 	300.0225160501792 	0.06513660651513548 	101351.6202097008
-1.10985985985986 	300.0271874860952 	0.07863220189314131 	101357.1439342667
-1.107357357357357 	300.0313489553612 	0.09061644418541823 	101362.0648464383
-1.104854854854855 	300.0349244009223 	0.1009587122074164 	101366.2929576599
-1.102352352352353 	300.0378717357974 	0.1094894065281159 	101369.7783817595
-1.09984984984985 	300.0401432366697 	0.1160677705296995 	101372.4646842076
-1.097347347347347 	300.041690479241 	0.1205722171422752 	101374.29451489
-1.094844844844845 	300.0424663422334 	0.1227777330130345 	101375.2121185964
-1.092342342342342 	300.042429201323 	0.122661887247956 	101375.1682266183
-1.08983983983984 	300.0415745381703 	0.120208146008961 	101374.1575657488
-1.087337337337337 	300.0399467922059 	0.1154808528689953 	101372.2327364167
-1.084834834834835 	300.0375840303572 	0.1086469192556024 	101369.4386696012
-1.082332332332332 	300.0345317039248 	0.09977767949281743 	101365.8292033078
-1.07982982982983 	300.0308421002801 	0.08908972452549366 	101361.4662609217
-1.077327327327327 	300.0265779366549 	0.07677196053325322 	101356.4240253631
-1.074824824824825 	300.0218228414906 	0.06307566111011945 	101350.8014988052
-1.072322322322323 	300.0166897879826 	0.04827665996877969 	101344.7322990962
-1.06981981981982 	300.0112607963439 	0.03256433161677225 	101338.313454343
-1.067317317317317 	300.0056378790417 	0.01631202972680905 	101331.6656393131
-1.064814814814815 	299.9999268289758 	0.008175308829743887 	101324.9139202353
-1.062312312312312 	299.9941906371669 	0.01685271746523181 	101318.1328051511
-1.05980980980981 	299.988529037343 	0.03320179902997335 	101311.4401772651
-1.057307307307307 	299.9830710937475 	0.04898396806805023 	101304.9885763975
-1.054804804804805 	299.9779348866766 	0.06382141128171065 	101298.9175511783
-1.052302302302302 	299.9732211154303 	0.07744767221852536 	101293.3460559613
-1.0497997997998 	299.969002678402 	0.08964568322745192 	101288.3602062084
-1.047297297297297 	299.9653420511434 	0.100188023586982 	101284.0337732832
-1.044794794794795 	299.9623086431089 	0.1089453705349097 	101280.4487188409
-1.042292292292292 	299.9599685972416 	0.1156974852621133 	101277.6831573117
-1.03978978978979 	299.9583852421179 	0.1202708808429365 	101275.8118242094
-1.037287287287287 	299.9576008259477 	0.1225731476157857 	101274.8847524968
-1.034784784784785 	299.9576159007062 	0.122526941264434 	101274.9025436436
-1.032282282282283 	299.9584153121776 	0.1202055124658095 	101275.8472065967
-1.02977977977978 	299.9599785028465 	0.1156831309783812 	101277.6945013181
-1.027277277277277 	299.9622700186317 	0.109037659045708 	101280.4025604805
-1.024774774774775 	299.9652558842884 	0.1004012983048614 	101283.9313017047
-1.022272272272272 	299.9688869530659 	0.08989092336478524 	101288.222682472
-1.01976976976977 	299.9730850776256 	0.07773240538511983 	101293.1844140414
-1.017267267267267 	299.9777723832854 	0.06418889718806532 	101298.724541147
-1.014764764764765 	299.982858240275 	0.04951868838611732 	101304.7359787321
-1.012262262262262 	299.9882330649004 	0.03400246152931972 	101311.0892687894
-1.00975975975976 	299.9937977918807 	0.01790563742432468 	101317.6673457058
-1.007257257257257 	299.9994485210506 	0.007586469451013895 	101324.3473942521
-1.004754754754755 	300.0051004757676 	0.01482000802944462 	101331.0292339663
-1.002252252252252 	300.0106844079864 	0.03095466552197366 	101337.6309625247
-0.9997497497497498 	300.0160835769627 	0.046550827496345 	101344.0145573287
-0.9972472472472473 	300.0211958730372 	0.06138267958309557 	101350.0592612857
-0.9947447447447449 	300.0259505235137 	0.07510982685153751 	101355.6813158476
-0.9922422422422421 	300.0302513883528 	0.08747910953467519 	101360.7670104558
-0.9897397397397399 	300.0340014177125 	0.09833962712710469 	101365.2015128369
-0.9872372372372376 	300.0371445239879 	0.1073667507837273 	101368.9184386891
-0.9847347347347346 	300.0395905930028 	0.1144598084697848 	101371.8111723033
-0.9822322322322323 	300.0412902178502 	0.1194110315383064 	101373.8212034546
-0.9797297297297296 	300.0422332153665 	0.1220632716165629 	101374.9364635564
-0.9772272272272275 	300.042389931767 	0.1225232745569799 	101375.1218128804
-0.9747247247247248 	300.0417474197314 	0.1206994536465791 	101374.3620314659
-0.9722222222222224 	300.0403440753881 	0.1166463240005291 	101372.7025891957
-0.9697197197197196 	300.0381685229993 	0.1103599602096754 	101370.1299033895
-0.9672172172172175 	300.0352654011857 	0.1019286582030964 	101366.6968679105
-0.9647147147147147 	300.0317248838727 	0.09165220906314203 	101362.5101739341
-0.9622122122122124 	300.0276043490403 	0.07971735542380749 	101357.6377490317
-0.9597097097097099 	300.0229682101002 	0.0664067503755639 	101352.1558507291
-0.9572072072072073 	300.0179177184851 	0.05175765462788939 	101346.1842013603
-0.9547047047047047 	300.0124975586946 	0.03604966375557365 	101339.7757504555
-0.9522022022022023 	300.0068530705806 	0.01980879918817684 	101333.1023388197
-0.9496996996996998 	300.0011582568014 	0.007029517527287605 	101326.3697556379
-0.9471971971971973 	299.9954500401851 	0.01323267161295453 	101319.6216584573
-0.9446946946946947 	299.9897843572482 	0.02959379913906512 	101312.9241194403
-0.9421921921921923 	299.9842902994222 	0.04546739524275705 	101306.4297884059
-0.93968968968969 	299.9790888697267 	0.06044712445761393 	101300.2815865257
-0.9371871871871872 	299.9742975512858 	0.07434280996295853 	101294.6183921254
-0.9346846846846848 	299.9699917794725 	0.08687163403079796 	101289.5292967977
-0.9321821821821823 	299.9661867847826 	0.0978899214922149 	101285.0321907974
-0.9296796796796799 	299.9629598874464 	0.1071618670728299 	101281.2184726273
-0.9271771771771771 	299.9604383283609 	0.1144000384790681 	101278.2383536424
-0.9246746746746748 	299.9586974484433 	0.1194206274422912 	101276.1808517956
-0.9221721721721724 	299.9577869528715 	0.1220298553255598 	101275.1047769252
-0.9196696696696698 	299.9576880868893 	0.1223704199997293 	101274.9879203527
-0.9171671671671672 	299.9583200797403 	0.1205238222499316 	101275.7347558231
-0.9146646646646649 	299.9596638309262 	0.1165783932328586 	101277.3227027354
-0.9121621621621623 	299.9617369105417 	0.1106646241662226 	101279.7726016663
-0.9096596596596597 	299.9645185005998 	0.1025894592764829 	101283.059895384
-0.9071571571571573 	299.9680162251588 	0.09249964145950393 	101287.1936488731
-0.9046546546546547 	299.9721487288357 	0.08062423257151446 	101292.0777966813
-0.9021521521521524 	299.9767428758133 	0.06727853490519026 	101297.5077611063
-0.8996496496496498 	299.9816669218234 	0.05303617808930537 	101303.3278846091
-0.8971471471471473 	299.986845326079 	0.03806055020618265 	101309.4489298012
-0.894644644644645 	299.9922181252848 	0.02245000610514635 	101315.8000333417
-0.892142142142142 	299.9978007560675 	0.006302421799427686 	101322.3994851212
-0.8896396396396397 	300.0035570721798 	0.01069341589085224 	101329.2045910702
-0.8871371371371374 	300.0093840739792 	0.02715706241332087 	101336.0936051854
-0.8846346346346349 	300.0150287811003 	0.0434036681994461 	101342.7674531518
-0.8821321321321324 	300.0202139560161 	0.05836628279774878 	101348.8982898321
-0.8796296296296297 	300.0247960092071 	0.07164257214919496 	101354.316229238
-0.8771271271271271 	300.0287936324976 	0.08326732166708861 	101359.0432988109
-0.8746246246246248 	300.0323312408976 	0.09355858285291717 	101363.2265384694
-0.8721221221221224 	300.0355268348704 	0.1028196615274701 	101367.0054451958
-0.8696196196196196 	300.0383919932141 	0.1110691930667335 	101370.393706076
-0.8671171171171175 	300.0407948551755 	0.117935852689758 	101373.2353484269
-0.8646146146146148 	300.0424930560482 	0.1227447251446112 	101375.243730579
-0.8621121121121121 	300.0432122292235 	0.1247331231735328 	101376.0943024496
-0.8596096096096097 	300.0427360284876 	0.123302207292958 	101375.5311545285
-0.857107107107107 	300.0409788916663 	0.1182217778524701 	101373.4533422797
-0.8546046046046049 	300.0380237014368 	0.1097324466727014 	101369.9587539453
-0.8521021021021022 	300.0341129872098 	0.09852143344761061 	101365.3342200016
-0.8495995995995997 	300.0295998546423 	0.0855844878727903 	101359.9974470917
-0.8470970970970974 	300.024873430884 	0.07201826243196721 	101354.4086394911
-0.8445945945945946 	300.0202817216602 	0.05880986926086251 	101348.9793116849
-0.8420920920920922 	300.0160799509446 	0.04669462680031145 	101344.011217669
-0.8395895895895897 	300.0124186104395 	0.0361145311069857 	101339.6822455521
-0.8370870870870872 	300.0093575965821 	0.02725143011087952 	101336.06315799
-0.8345845845845846 	300.0068891653657 	0.02009077424270249 	101333.1447500459
-0.8320820820820823 	300.004961524595 	0.01448903852911156 	101330.8657507184
-0.8295795795795798 	300.0034993232404 	0.01023275249942878 	101329.1370486476
-0.8270770770770772 	300.0024193339449 	0.007083995876098256 	101327.8602312808
-0.8245745745745746 	300.0016410773224 	0.004811452195196521 	101326.9401426675
-0.8220720720720721 	300.0010930122379 	0.003208690651986033 	101326.2921987587
-0.8195695695695699 	300.000715307909 	0.002102534048190904 	101325.8456628769
-0.817067067067067 	300.0004602721366 	0.001354577447961858 	101325.5441505857
-0.8145645645645651 	300.0002913719745 	0.0008585555810069269 	101325.3444708915
-0.8120620620620621 	300.0001815638353 	0.0005356412802318899 	101325.2146517455
-0.8095595595595597 	300.000111423792 	0.0003291089339173288 	101325.1317296046
-0.8070570570570572 	300.0000673745315 	0.0001992361342631675 	101325.0796529555
-0.8045545545545546 	300.000040157925 	0.0001188906792580954 	101325.0474764359
-0.8020520520520523 	300.0000236037165 	6.996074530477838e-05 	101325.0279053473
-0.7995495495495494 	300.0000136863289 	4.061179944488937e-05 	101325.0161805708
-0.7970470470470474 	300.0000078314699 	2.32645698619455e-05 	101325.0092587207
-0.7945445445445446 	300.0000044238025 	1.315611251204542e-05 	101325.0052300185
-0.7920420420420423 	300.0000024676344 	7.346588583813396e-06 	101325.0029173362
-0.7895395395395397 	300.0000013596442 	4.052272177894437e-06 	101325.0016074184
-0.7870370370370371 	300.0000007401948 	2.208445322158448e-06 	101325.000875088
-0.7845345345345348 	300.0000003982385 	1.189507345249628e-06 	101325.0004708357
-0.7820320320320323 	300.000000211811 	6.333523973351526e-07 	101325.0002504323
-0.7795295295295296 	300.0000001113605 	3.334523677731264e-07 	101325.0001317095
-0.7770270270270272 	300.0000000578893 	1.736263939537572e-07 	101325.0000685086
-0.7745245245245247 	300.0000000297559 	8.943654471295029e-08 	101325.0000352502
-0.7720220220220222 	300.0000000151417 	4.557937059630613e-08 	101325.0000179451
-0.7695195195195199 	300.0000000076155 	2.299128203565365e-08 	101325.0000090398
-0.767017017017017 	300.0000000038044 	1.147530361901633e-08 	101325.0000045061
-0.7645145145145147 	300.0000000018943 	5.674281888476997e-09 	101325.0000022226
-0.7620120120120122 	300.0000000009332 	2.773646802352925e-09 	101325.0000010843
-0.7595095095095097 	300.0000000003989 	1.346908189347744e-09 	101325.0000005226
-0.7570070070070072 	300.0000000001721 	6.415272775768112e-10 	101325.0000002482
-0.7545045045045048 	300.0000000000952 	3.065874586658296e-10 	101325.0000001154
-0.7520020020020022 	300.0000000000231 	1.397359115871272e-10 	101325.0000000519
-0.7494994994994997 	299.999999999992 	6.546828590800848e-11 	101325.0000000216
-0.7469969969969972 	300.0000000000077 	2.663942094825723e-11 	101325.0000000076
-0.7444944944944945 	299.9999999999937 	1.203492447499912e-11 	101325.0000000009
-0.7419919919919924 	299.999999999992 	3.462477287620698e-12 	101324.999999998
-0.7394894894894897 	299.9999999999706 	1.324126474989868e-12 	101324.9999999966
-0.7369869869869872 	299.999999999994 	1.182641414771785e-12 	101324.9999999959
-0.7344844844844846 	299.9999999999776 	1.556760267428142e-12 	101324.9999999957
-0.7319819819819822 	300.000000000002 	9.094265806098737e-13 	101324.9999999957
-0.7294794794794797 	300 	2.437549234686655e-12 	101324.9999999955
-0.7269769769769773 	300.0000000000117 	1.323140056878289e-12 	101324.9999999953
-0.7244744744744747 	300.0000000000171 	1.550517991234862e-12 	101324.9999999951
-0.721971971971972 	299.9999999999691 	1.135013295380812e-12 	101324.9999999951
-0.7194694694694695 	299.9999999999897 	1.208078201925591e-12 	101324.9999999952
-0.7169669669669674 	299.9999999999565 	8.715308644884543e-13 	101324.9999999952
-0.7144644644644647 	299.9999999999829 	1.314807686349032e-12 	101324.9999999953
-0.711961961961962 	300.0000000000051 	1.578453496938666e-12 	101324.9999999954
-0.7094594594594597 	300.0000000000092 	6.737565361991817e-13 	101324.9999999956
-0.7069569569569573 	300.0000000000168 	1.393416390464023e-12 	101324.9999999956
-0.7044544544544545 	300.00000000002 	7.726757853441549e-13 	101324.9999999956
-0.7019519519519523 	300.0000000000042 	6.948463418847673e-13 	101324.9999999956
-0.6994494494494495 	299.9999999999509 	2.755825125369323e-13 	101324.9999999955
-0.6969469469469471 	299.9999999999619 	5.746274832605266e-13 	101324.9999999954
-0.6944444444444446 	299.999999999976 	2.342420190247476e-13 	101324.9999999954
-0.6919419419419421 	300.000000000018 	4.81148457077763e-13 	101324.9999999954
-0.6894394394394396 	299.9999999999966 	4.337554524497829e-13 	101324.9999999955
-0.6869369369369374 	300.0000000000061 	9.309019653135928e-13 	101324.9999999956
-0.6844344344344344 	300.0000000000144 	6.113970992212504e-13 	101324.9999999954
-0.6819319319319321 	299.9999999999711 	1.12479955330175e-12 	101324.9999999955
-0.6794294294294296 	299.9999999999589 	1.277279864311996e-12 	101324.9999999957
-0.6769269269269272 	299.9999999999388 	1.501110499226147e-12 	101324.9999999957
-0.6744244244244245 	299.9999999999758 	1.628112649704984e-12 	101324.9999999957
-0.6719219219219222 	299.9999999999675 	1.411607920849515e-12 	101324.9999999958
-0.6694194194194195 	299.9999999999982 	1.895124792837934e-12 	101324.9999999957
-0.6669169169169172 	300.0000000000137 	9.266875985074386e-13 	101324.9999999956
-0.6644144144144146 	299.9999999999756 	1.493343843309009e-12 	101324.9999999954
-0.661911911911912 	299.9999999999783 	1.143313330566582e-12 	101324.9999999954
-0.6594094094094097 	299.9999999999852 	2.261156791644766e-12 	101324.9999999955
-0.656906906906907 	299.9999999999603 	1.876457105829487e-12 	101324.9999999954
-0.6544044044044046 	299.9999999999616 	3.628400877319867e-12 	101324.9999999953
-0.6519019019019021 	299.9999999999868 	2.315908017374162e-12 	101324.9999999952
-0.6493993993993996 	300.0000000000165 	4.808506944193041e-12 	101324.999999995
-0.6468968968968971 	300.0000000000241 	1.905792788921884e-12 	101324.9999999948
-0.6443943943943946 	299.9999999999964 	4.211862543950436e-12 	101324.9999999948
-0.6418918918918921 	299.9999999999949 	2.112574016842439e-12 	101324.9999999948
-0.6393893893893897 	299.9999999999976 	2.980032985037441e-12 	101324.9999999948
-0.6368868868868871 	299.9999999999823 	1.990893717690265e-12 	101324.9999999948
-0.6343843843843846 	299.9999999999931 	2.16901582540051e-12 	101324.9999999948
-0.6318818818818821 	299.9999999999635 	1.538808896920753e-12 	101324.999999995
-0.6293793793793795 	300 	8.700944727707406e-13 	101324.9999999951
-0.6268768768768773 	300.0000000000146 	7.348553913945651e-13 	101324.9999999953
-0.6243743743743745 	299.9999999999856 	6.41732365243973e-13 	101324.9999999954
-0.6218718718718721 	300.000000000005 	1.487414963416211e-12 	101324.9999999955
-0.6193693693693696 	299.9999999999554 	8.336076876430399e-13 	101324.9999999954
-0.6168668668668671 	299.9999999999851 	1.446075448849136e-12 	101324.9999999953
-0.6143643643643645 	300.0000000000108 	8.413436638719608e-13 	101324.9999999953
-0.6118618618618621 	299.9999999999926 	1.48875696223099e-12 	101324.9999999951
-0.6093593593593596 	299.9999999999932 	7.030261793858111e-13 	101324.9999999951
-0.6068568568568571 	299.9999999999927 	7.626382210326373e-13 	101324.9999999951
-0.6043543543543546 	299.9999999999722 	4.653038626578829e-13 	101324.9999999951
-0.6018518518518521 	299.9999999999768 	6.666447746943564e-13 	101324.9999999949
-0.5993493493493496 	299.9999999999609 	3.84839218453552e-13 	101324.9999999949
-0.5968468468468471 	299.9999999999676 	1.644990133770267e-12 	101324.9999999949
-0.5943443443443446 	299.9999999999946 	9.79621247872351e-13 	101324.9999999951
-0.591841841841842 	299.9999999999725 	1.944244082005045e-12 	101324.999999995
-0.5893393393393397 	299.9999999999591 	1.015868296102545e-12 	101324.9999999952
-0.5868368368368371 	299.9999999999912 	3.001783114127739e-12 	101324.9999999952
-0.5843343343343346 	300.0000000000019 	1.579481596426185e-12 	101324.9999999954
-0.5818318318318321 	300.0000000000213 	3.24459523012722e-12 	101324.9999999954
-0.5793293293293297 	299.9999999999911 	1.278752974404742e-12 	101324.9999999952
-0.5768268268268271 	300.000000000002 	2.121999431191263e-12 	101324.9999999952
-0.5743243243243245 	300.0000000000168 	1.007191290590371e-12 	101324.999999995
-0.5718218218218221 	300.0000000000152 	1.237176989834472e-12 	101324.9999999948
-0.5693193193193196 	300.0000000000289 	1.161379619094255e-12 	101324.9999999948
-0.5668168168168171 	299.9999999999914 	4.446030151150596e-13 	101324.999999995
-0.5643143143143147 	299.9999999999638 	1.117940079209971e-12 	101324.999999995
-0.5618118118118121 	300.0000000000084 	8.951871862285284e-13 	101324.9999999952
-0.5593093093093094 	300.0000000000243 	4.661227602236575e-13 	101324.9999999953
-0.5568068068068072 	300.000000000012 	1.03791782988137e-12 	101324.9999999954
-0.5543043043043046 	300.0000000000111 	7.657260145926665e-13 	101324.9999999954
-0.551801801801802 	299.9999999999681 	8.51194027277681e-13 	101324.9999999954
-0.5492992992992995 	299.9999999999993 	4.808922090124311e-13 	101324.9999999955
-0.5467967967967969 	300.0000000000086 	1.245623475404672e-12 	101324.9999999953
-0.5442942942942947 	300.0000000000039 	8.409057006207568e-13 	101324.9999999951
-0.5417917917917919 	299.9999999999711 	1.375863217772187e-12 	101324.999999995
-0.5392892892892895 	299.9999999999487 	4.814924271128837e-13 	101324.9999999947
-0.536786786786787 	299.9999999999686 	1.870498386166489e-12 	101324.9999999949
-0.5342842842842846 	299.9999999999762 	5.382242054072579e-13 	101324.999999995
-0.531781781781782 	299.999999999955 	2.164312108080828e-12 	101324.9999999952
-0.5292792792792794 	299.9999999999504 	2.275108690086333e-12 	101324.9999999954
-0.526776776776777 	299.9999999999393 	2.302692122700691e-12 	101324.9999999955
-0.5242742742742745 	299.9999999999845 	4.058599691303001e-12 	101324.9999999954
-0.521771771771772 	300.0000000000097 	3.876968002204442e-12 	101324.9999999953
-0.5192692692692695 	299.9999999999724 	4.532363817644683e-12 	101324.999999995
-0.516766766766767 	300.0000000000022 	3.95857707124549e-12 	101324.9999999949
-0.5142642642642645 	299.9999999999799 	4.239382599230459e-12 	101324.9999999951
-0.511761761761762 	299.9999999999665 	3.181384253758458e-12 	101324.9999999951
-0.5092592592592596 	299.9999999999785 	3.230092757029616e-12 	101324.999999995
-0.506756756756757 	299.9999999999591 	2.128346864014626e-12 	101324.9999999949
-0.5042542542542544 	299.9999999999984 	2.446258789856521e-12 	101324.999999995
-0.5017517517517521 	300.000000000021 	1.746750330791639e-12 	101324.999999995
-0.4992492492492494 	300.0000000000219 	1.242173939129218e-12 	101324.9999999948
-0.496746746746747 	299.9999999999934 	1.303155439816887e-12 	101324.9999999947
-0.4942442442442445 	299.9999999999588 	8.105800584662714e-13 	101324.9999999946
-0.4917417417417421 	299.9999999999571 	7.482457685784261e-13 	101324.9999999945
-0.4892392392392395 	299.9999999999696 	1.005650023265381e-12 	101324.9999999944
-0.486736736736737 	299.9999999999706 	1.413982817277369e-12 	101324.9999999946
-0.4842342342342345 	299.9999999999453 	1.292928057756322e-12 	101324.9999999947
-0.481731731731732 	300.0000000000219 	1.511979816671128e-12 	101324.9999999949
-0.4792292292292296 	300.0000000000149 	1.579372201619757e-12 	101324.9999999948
-0.4767267267267268 	299.9999999999715 	2.821754160871516e-12 	101324.9999999946
-0.4742242242242246 	300.0000000000032 	2.145117373413212e-12 	101324.9999999947
-0.471721721721722 	299.9999999999727 	2.693995165240773e-12 	101324.9999999949
-0.4692192192192195 	299.9999999999866 	2.09102931539599e-12 	101324.999999995
-0.4667167167167169 	299.9999999999401 	1.416932155982982e-12 	101324.999999995
-0.4642142142142145 	299.9999999999941 	1.883691655482362e-12 	101324.9999999949
-0.461711711711712 	300.000000000012 	1.106930538113647e-12 	101324.9999999948
-0.4592092092092094 	300.0000000000064 	1.343254314352118e-12 	101324.9999999946
-0.456706706706707 	300.0000000000368 	8.467071076289647e-13 	101324.9999999943
-0.4542042042042045 	299.9999999999597 	7.840239050333039e-13 	101324.9999999943
-0.451701701701702 	299.9999999999652 	4.7852431374606e-13 	101324.9999999944
-0.4491991991991995 	299.9999999999718 	9.901952268320952e-13 	101324.9999999946
-0.4466966966966969 	299.9999999999714 	2.582072979161925e-13 	101324.9999999948
-0.4441941941941945 	299.9999999999962 	1.826613718319349e-12 	101324.9999999945
-0.441691691691692 	299.9999999999721 	7.492550854255722e-13 	101324.9999999944
-0.4391891891891895 	299.9999999999907 	2.327938553519695e-12 	101324.9999999943
-0.436686686686687 	299.9999999999773 	2.646322951435892e-12 	101324.9999999941
-0.4341841841841846 	299.9999999999986 	2.585898802438653e-12 	101324.999999994
-0.431681681681682 	299.9999999999648 	2.371265892661654e-12 	101324.999999994
-0.4291791791791794 	299.999999999954 	2.091551041205507e-12 	101324.9999999939
-0.426676676676677 	299.9999999999393 	1.356008137845145e-12 	101324.9999999939
-0.4241741741741744 	299.9999999999787 	2.544652427606849e-12 	101324.999999994
-0.421671671671672 	300.0000000000038 	8.815544619799639e-13 	101324.9999999942
-0.4191691691691694 	300.0000000000325 	1.80090417022121e-12 	101324.9999999942
-0.4166666666666669 	300.0000000000376 	3.693403361122007e-13 	101324.9999999941
-0.4141641641641645 	299.9999999999555 	5.305177374061806e-13 	101324.9999999943
-0.411661661661662 	300.0000000000003 	4.609883423211174e-13 	101324.9999999944
-0.4091591591591594 	300.0000000000099 	4.086593093986291e-13 	101324.9999999942
-0.406656656656657 	299.9999999999693 	1.063063615060015e-12 	101324.9999999943
-0.4041541541541545 	300.000000000013 	8.231301504322292e-13 	101324.9999999942
-0.401651651651652 	299.9999999999509 	2.92523877887198e-12 	101324.9999999943
-0.3991491491491494 	300.0000000000062 	9.179642702160033e-13 	101324.9999999944
-0.396646646646647 	299.9999999999695 	3.570992578724568e-12 	101324.9999999943
-0.3941441441441444 	299.9999999999864 	1.822653997101666e-12 	101324.9999999945
-0.3916416416416419 	299.9999999999571 	3.330912420742703e-12 	101324.9999999946
-0.3891391391391395 	299.9999999999706 	8.784567638659207e-13 	101324.9999999947
-0.3866366366366368 	299.9999999999695 	2.368352228852394e-12 	101324.9999999947
-0.3841341341341344 	299.9999999999988 	8.538324525173257e-13 	101324.9999999949
-0.381631631631632 	299.9999999999674 	1.014385792022467e-12 	101324.9999999947
-0.3791291291291294 	299.9999999999999 	7.187211301159425e-13 	101324.9999999947
-0.3766266266266269 	300.000000000011 	8.216226667865615e-13 	101324.9999999947
-0.3741241241241244 	300.0000000000124 	2.345854833998256e-12 	101324.9999999947
-0.371621621621622 	300.0000000000125 	7.643380260597479e-13 	101324.9999999948
-0.3691191191191194 	300.0000000000047 	3.014845869328739e-12 	101324.9999999948
-0.366616616616617 	300.0000000000028 	8.12609584343524e-13 	101324.9999999948
-0.3641141141141143 	299.9999999999824 	2.919752333588076e-12 	101324.9999999945
-0.3616116116116119 	299.9999999999627 	1.437206897534592e-12 	101324.9999999943
-0.3591091091091095 	299.9999999999866 	2.569586453450738e-12 	101324.9999999943
-0.356606606606607 	299.9999999999919 	1.547220060120195e-12 	101324.9999999943
-0.3541041041041044 	299.999999999994 	4.222978492381695e-13 	101324.9999999943
-0.3516016016016019 	300.0000000000113 	2.689936731248033e-13 	101324.9999999942
-0.3490990990990994 	299.9999999999953 	1.265990921262042e-12 	101324.9999999939
-0.346596596596597 	300.000000000022 	1.039955590145828e-12 	101324.9999999939
-0.3440940940940944 	300.0000000000268 	9.568568412095765e-13 	101324.999999994
-0.3415915915915919 	300.0000000000155 	1.874940487097509e-12 	101324.9999999939
-0.3390890890890895 	299.9999999999895 	6.799665291414943e-13 	101324.9999999942
-0.3365865865865869 	300.000000000012 	2.226002027469965e-12 	101324.9999999943
-0.3340840840840844 	299.9999999999962 	2.061623250276198e-12 	101324.9999999942
-0.3315815815815819 	300.0000000000113 	2.747037155434644e-12 	101324.999999994
-0.3290790790790794 	300.0000000000107 	2.89448434579704e-12 	101324.9999999942
-0.3265765765765769 	299.9999999999518 	3.435197612657371e-12 	101324.9999999945
-0.3240740740740744 	299.999999999999 	2.58921764308681e-12 	101324.9999999944
-0.3215715715715718 	300.0000000000072 	4.13905939863137e-12 	101324.9999999942
-0.3190690690690695 	299.9999999999555 	3.387413354765893e-12 	101324.9999999942
-0.3165665665665668 	299.9999999999931 	4.755224157146317e-12 	101324.9999999944
-0.3140640640640644 	300.0000000000005 	2.824207962807542e-12 	101324.9999999944
-0.311561561561562 	299.9999999999517 	5.522916807706399e-12 	101324.9999999942
-0.3090590590590593 	299.9999999999991 	1.98260835560512e-12 	101324.9999999943
-0.3065565565565568 	300.0000000000044 	6.34343394658577e-12 	101324.9999999941
-0.3040540540540545 	299.9999999999993 	1.813759445406486e-12 	101324.9999999941
-0.3015515515515518 	300.0000000000221 	5.155111340817429e-12 	101324.999999994
-0.2990490490490494 	299.9999999999604 	2.547742716616078e-12 	101324.9999999943
-0.2965465465465469 	299.9999999999893 	4.020821408449961e-12 	101324.9999999939
-0.2940440440440444 	299.9999999999937 	3.576610830319339e-12 	101324.9999999935
-0.2915415415415418 	300.0000000000045 	4.074524762879334e-12 	101324.9999999936
-0.2890390390390395 	300.0000000000052 	4.978370263034956e-12 	101324.9999999935
-0.2865365365365368 	299.9999999999842 	4.347296702696433e-12 	101324.9999999938
-0.2840340340340343 	300.0000000000003 	6.587517096147369e-12 	101324.9999999939
-0.2815315315315318 	299.9999999999486 	4.411256172861178e-12 	101324.999999994
-0.2790290290290295 	299.9999999999778 	6.504194890586915e-12 	101324.9999999941
-0.2765265265265269 	300.000000000007 	5.192017748137368e-12 	101324.9999999942
-0.2740240240240244 	300.0000000000139 	5.687894359755975e-12 	101324.999999994
-0.2715215215215219 	300.0000000000105 	5.519688297698149e-12 	101324.999999994
-0.2690190190190194 	299.9999999999635 	5.071210196970828e-12 	101324.9999999938
-0.2665165165165169 	299.9999999999968 	5.753192943624298e-12 	101324.9999999936
-0.2640140140140144 	299.9999999999825 	4.616795306430499e-12 	101324.9999999936
-0.2615115115115119 	299.9999999999987 	6.438630725677346e-12 	101324.9999999935
-0.2590090090090094 	299.9999999999533 	4.868044688146045e-12 	101324.9999999936
-0.2565065065065068 	299.9999999999946 	5.782176244893106e-12 	101324.9999999936
-0.2540040040040044 	299.9999999999943 	5.511603632920425e-12 	101324.9999999939
-0.2515015015015019 	300.0000000000224 	5.348550508539198e-12 	101324.9999999934
-0.2489989989989994 	300.0000000000271 	6.91861515852751e-12 	101324.9999999935
-0.2464964964964968 	299.999999999989 	5.443140704813317e-12 	101324.9999999935
-0.2439939939939944 	299.9999999999914 	8.034306330892158e-12 	101324.9999999935
-0.2414914914914919 	299.9999999999762 	4.358031407263111e-12 	101324.9999999935
-0.2389889889889893 	299.9999999999978 	8.417280702661626e-12 	101324.9999999936
-0.2364864864864869 	300.0000000000139 	5.784855631275975e-12 	101324.9999999937
-0.2339839839839843 	299.9999999999588 	8.651024486950751e-12 	101324.9999999937
-0.2314814814814819 	299.9999999999842 	4.70339061830481e-12 	101324.9999999936
-0.2289789789789792 	299.9999999999436 	6.807269441104701e-12 	101324.9999999934
-0.2264764764764769 	299.9999999999633 	4.706662466610275e-12 	101324.9999999934
-0.2239739739739743 	299.9999999999744 	5.95112348901876e-12 	101324.9999999935
-0.2214714714714718 	299.9999999999586 	5.023078586984329e-12 	101324.9999999938
-0.2189689689689693 	299.9999999999783 	4.70095910526353e-12 	101324.9999999938
-0.2164664664664669 	299.9999999999882 	6.17314048691756e-12 	101324.9999999936
-0.2139639639639643 	299.9999999999564 	3.807055406515999e-12 	101324.9999999935
-0.2114614614614618 	299.999999999979 	4.463838422617153e-12 	101324.9999999938
-0.2089589589589593 	299.9999999999941 	4.487483317167708e-12 	101324.9999999939
-0.2064564564564568 	299.9999999999945 	4.40008495020663e-12 	101324.9999999938
-0.2039539539539543 	299.9999999999424 	5.154310446513565e-12 	101324.9999999939
-0.2014514514514518 	299.9999999999584 	2.70651042620877e-12 	101324.9999999939
-0.1989489489489494 	299.9999999999793 	5.040243638440516e-12 	101324.9999999937
-0.1964464464464468 	299.9999999999964 	1.848385473814248e-12 	101324.9999999936
-0.1939439439439443 	299.9999999999937 	4.435201467119212e-12 	101324.9999999938
-0.1914414414414418 	299.9999999999502 	2.662160672804386e-12 	101324.9999999939
-0.1889389389389393 	300.0000000000013 	3.764438014481666e-12 	101324.9999999938
-0.1864364364364368 	300.000000000023 	3.352856485024374e-12 	101324.9999999939
-0.1839339339339343 	299.9999999999837 	3.921216724161822e-12 	101324.9999999939
-0.1814314314314318 	299.9999999999947 	3.755942562871882e-12 	101324.9999999941
-0.1789289289289293 	299.9999999999346 	4.245666563891956e-12 	101324.9999999939
-0.1764264264264268 	299.9999999999856 	3.711130510148357e-12 	101324.9999999939
-0.1739239239239243 	299.9999999999374 	4.551367529306097e-12 	101324.9999999943
-0.1714214214214218 	299.9999999999906 	2.622090280013827e-12 	101324.9999999941
-0.1689189189189193 	299.9999999999667 	4.44458779459218e-12 	101324.9999999939
-0.1664164164164168 	300.0000000000006 	3.278273394757742e-13 	101324.9999999939
-0.1639139139139143 	299.9999999999906 	4.626830860045757e-12 	101324.9999999939
-0.1614114114114118 	300.0000000000132 	1.200856149865766e-12 	101324.9999999939
-0.1589089089089093 	299.9999999999968 	7.062462290780661e-12 	101324.9999999941
-0.1564064064064068 	299.9999999999862 	2.201327440512803e-12 	101324.9999999941
-0.1539039039039043 	299.9999999999947 	7.56650639103271e-12 	101324.9999999941
-0.1514014014014018 	300.0000000000143 	1.472200852342686e-12 	101324.9999999941
-0.1488988988988993 	299.9999999999938 	6.725219842451463e-12 	101324.9999999938
-0.1463963963963968 	300.0000000000018 	5.319262882076748e-13 	101324.9999999935
-0.1438938938938943 	299.9999999999733 	5.799118154873863e-12 	101324.9999999932
-0.1413913913913918 	299.9999999999512 	1.19230833261668e-12 	101324.9999999931
-0.1388888888888893 	299.9999999999832 	4.173871498259381e-12 	101324.999999993
-0.1363863863863868 	299.9999999999295 	2.467614303034472e-12 	101324.9999999932
-0.1338838838838843 	299.9999999999493 	3.788387799913947e-12 	101324.9999999932
-0.1313813813813818 	299.9999999999937 	3.108741543330728e-12 	101324.9999999934
-0.1288788788788793 	299.999999999974 	4.054748163696936e-12 	101324.9999999938
-0.1263763763763768 	299.999999999979 	2.384007375918645e-12 	101324.999999994
-0.1238738738738743 	299.9999999999556 	3.626600726352892e-12 	101324.9999999938
-0.1213713713713717 	299.9999999999885 	1.788746428995626e-12 	101324.9999999939
-0.1188688688688693 	300.0000000000081 	4.494930762641005e-12 	101324.999999994
-0.1163663663663668 	299.9999999999418 	1.041520951358627e-12 	101324.999999994
-0.1138638638638643 	299.9999999999943 	4.161820961630467e-12 	101324.999999994
-0.1113613613613618 	299.9999999999909 	8.059095822523441e-13 	101324.9999999941
-0.1088588588588592 	299.9999999999858 	4.113697017928066e-12 	101324.999999994
-0.1063563563563568 	299.9999999999709 	9.591427433323837e-13 	101324.9999999939
-0.1038538538538543 	299.9999999999872 	3.106829087777344e-12 	101324.9999999939
-0.1013513513513517 	300.0000000000094 	7.260504846287826e-13 	101324.9999999941
-0.09884884884884926 	299.9999999999648 	3.132364180385082e-12 	101324.999999994
-0.09634634634634676 	299.9999999999358 	1.871490075278086e-12 	101324.999999994
-0.09384384384384425 	299.9999999999494 	2.253467228390086e-12 	101324.9999999943
-0.09134134134134177 	300.0000000000123 	1.457853319287829e-12 	101324.9999999941
-0.08883883883883925 	300.0000000000073 	2.655840382466093e-12 	101324.9999999941
-0.08633633633633674 	299.9999999999682 	2.704094868266392e-12 	101324.9999999943
-0.08383383383383426 	300.0000000000035 	2.828458979649504e-12 	101324.9999999947
-0.08133133133133173 	299.9999999999824 	3.212382378361904e-12 	101324.9999999946
-0.07882882882882926 	299.9999999999289 	2.393322381179445e-12 	101324.9999999947
-0.07632632632632676 	299.9999999999726 	1.820065335245829e-12 	101324.9999999947
-0.07382382382382424 	299.9999999999353 	1.21721067389275e-12 	101324.9999999947
-0.07132132132132173 	300.0000000000074 	5.689488443476865e-13 	101324.9999999947
-0.06881881881881925 	299.999999999976 	4.094115132634089e-13 	101324.9999999948
-0.06631631631631671 	299.9999999999337 	6.902623986381216e-14 	101324.9999999946
-0.06381381381381425 	299.9999999999728 	7.59068331959926e-14 	101324.9999999944
-0.06131131131131173 	299.9999999999737 	7.447705562705642e-14 	101324.9999999943
-0.05880880880880923 	299.9999999999484 	3.603800874170652e-15 	101324.9999999943
-0.05630630630630672 	299.9999999999798 	4.737574061109256e-14 	101324.9999999946
-0.05380380380380424 	300.0000000000099 	3.584234764622182e-13 	101324.9999999946
-0.05130130130130173 	300.0000000000068 	4.312639808602593e-13 	101324.9999999945
-0.04879879879879922 	299.9999999999662 	7.275292506828284e-13 	101324.9999999946
-0.04629629629629672 	299.999999999958 	9.594943379666739e-13 	101324.999999995
-0.04379379379379422 	299.9999999999454 	1.716044497976218e-12 	101324.9999999949
-0.04129129129129173 	299.9999999999875 	1.435800935078501e-12 	101324.9999999948
-0.03878878878878922 	299.9999999999893 	1.516440325781527e-12 	101324.9999999945
-0.03628628628628671 	299.9999999999881 	1.070326403127942e-12 	101324.9999999943
-0.03378378378378422 	299.9999999999542 	1.238440504758545e-12 	101324.9999999941
-0.03128128128128172 	299.9999999999801 	1.504136695021848e-13 	101324.9999999938
-0.02877877877877922 	299.9999999999784 	3.958158249608927e-13 	101324.9999999939
-0.0262762762762767 	299.9999999999367 	5.550280396379313e-13 	101324.9999999942
-0.02377377377377422 	300.0000000000124 	9.444980376114997e-13 	101324.9999999944
-0.0212712712712717 	299.9999999999381 	1.287318121683415e-12 	101324.9999999944
-0.01876876876876921 	299.9999999999816 	8.084536911852552e-13 	101324.9999999944
-0.01626626626626671 	300.0000000000075 	1.531499593085883e-12 	101324.9999999944
-0.0137637637637642 	299.9999999999768 	1.000637185983633e-12 	101324.9999999945
-0.0112612612612617 	300.00000000001 	1.169694397901011e-12 	101324.9999999945
-0.008758758758759198 	299.999999999998 	5.866350342210718e-13 	101324.9999999947
-0.006256256256256697 	299.9999999999301 	6.060502543376949e-13 	101324.9999999948
-0.003753753753754195 	299.9999999999698 	5.090580103147145e-15 	101324.9999999949
-0.001251251251251693 	299.9999999999521 	6.590047493928228e-14 	101324.9999999949
0.00125125125125081 	299.9999999999703 	5.286233107892239e-13 	101324.9999999946
0.003753753753753312 	299.9999999999777 	1.167732597768768e-13 	101324.9999999946
0.006256256256255817 	299.9999999999288 	6.72126052905952e-13 	101324.9999999944
0.008758758758758317 	299.9999999999911 	7.077592107992917e-13 	101324.9999999945
0.01126126126126082 	300.0000000000067 	7.46307991144341e-13 	101324.9999999946
0.01376376376376332 	299.9999999999789 	8.701928363676863e-13 	101324.9999999946
0.01626626626626582 	300.0000000000059 	1.194939258534464e-12 	101324.9999999947
0.01876876876876833 	299.9999999999728 	7.581663042129846e-13 	101324.9999999947
0.02127127127127083 	299.9999999999793 	7.839466434545233e-13 	101324.9999999945
0.02377377377377332 	299.9999999999976 	5.396675359692639e-13 	101324.9999999944
0.02627627627627583 	299.9999999999411 	5.083194042336787e-14 	101324.9999999941
0.02877877877877833 	300.0000000000038 	3.565480399323875e-13 	101324.9999999943
0.03128128128128083 	299.9999999999641 	1.850931745358045e-14 	101324.9999999943
0.03378378378378333 	299.9999999999376 	9.524561720246963e-13 	101324.9999999942
0.03628628628628584 	299.9999999999838 	1.472276267518551e-12 	101324.9999999945
0.03878878878878834 	299.9999999999899 	1.771918965125494e-12 	101324.9999999943
0.04129129129129084 	299.9999999999856 	1.97684601385683e-12 	101324.9999999943
0.04379379379379333 	299.9999999999605 	1.847780878838543e-12 	101324.9999999944
0.04629629629629585 	299.9999999999288 	1.587110011813141e-12 	101324.9999999944
0.04879879879879834 	299.9999999999692 	1.653723425075105e-12 	101324.9999999943
0.05130130130130085 	300.0000000000082 	1.588041362095969e-12 	101324.9999999947
0.05380380380380335 	300.0000000000114 	9.72864384322831e-13 	101324.9999999945
0.05630630630630584 	299.999999999993 	6.035201926227485e-13 	101324.9999999944
0.05880880880880836 	299.9999999999524 	7.763295667392753e-13 	101324.9999999946
0.06131131131131085 	299.9999999999849 	1.391541290707302e-12 	101324.9999999949
0.06381381381381336 	299.9999999999762 	1.847511313610715e-12 	101324.9999999947
0.06631631631631586 	299.9999999999305 	1.82747130485241e-12 	101324.9999999943
0.06881881881881835 	299.9999999999665 	1.692334544564503e-12 	101324.9999999944
0.07132132132132088 	299.9999999999922 	1.282565389952463e-12 	101324.9999999942
0.07382382382382337 	299.9999999999408 	1.509989154308412e-12 	101324.9999999939
0.07632632632632587 	299.9999999999804 	2.115984323318375e-12 	101324.9999999938
0.07882882882882837 	299.9999999999606 	2.038974647847557e-12 	101324.999999994
0.08133133133133086 	299.999999999992 	2.386273892497273e-12 	101324.9999999941
0.08383383383383337 	299.9999999999912 	2.392671304992258e-12 	101324.9999999939
0.08633633633633589 	299.9999999999413 	3.130724242403434e-12 	101324.9999999942
0.08883883883883838 	300.0000000000061 	3.925038009113422e-12 	101324.9999999942
0.09134134134134086 	299.9999999999922 	3.134515312958135e-12 	101324.9999999942
0.09384384384384339 	299.9999999999357 	3.470258306211214e-12 	101324.9999999941
0.09634634634634588 	299.9999999999783 	3.160257951093405e-12 	101324.999999994
0.09884884884884838 	299.9999999999822 	3.107700698178342e-12 	101324.999999994
0.1013513513513509 	300.000000000013 	3.05202526740023e-12 	101324.9999999942
0.1038538538538534 	299.9999999999675 	3.000361170473647e-12 	101324.9999999943
0.1063563563563559 	300.0000000000076 	3.294275346532916e-12 	101324.9999999945
0.1088588588588584 	300.0000000000167 	2.428859658070664e-12 	101324.9999999942
0.1113613613613609 	299.9999999999529 	2.262799867016237e-12 	101324.9999999943
0.1138638638638634 	299.9999999999645 	2.352797195932042e-12 	101324.9999999944
0.1163663663663659 	299.9999999999629 	2.704024714698715e-12 	101324.999999994
0.1188688688688684 	299.9999999999784 	2.686205220057788e-12 	101324.9999999936
0.1213713713713709 	299.9999999999952 	2.491234323853972e-12 	101324.9999999938
0.1238738738738734 	299.9999999999511 	2.672803918138055e-12 	101324.9999999938
0.1263763763763759 	299.9999999999878 	2.631658713456595e-12 	101324.9999999937
0.1288788788788784 	299.9999999999886 	2.142129445148874e-12 	101324.9999999936
0.1313813813813809 	299.9999999999871 	2.448053174323654e-12 	101324.9999999935
0.1338838838838834 	299.9999999999829 	2.269202404675943e-12 	101324.9999999935
0.1363863863863859 	300.0000000000151 	2.512744324207364e-12 	101324.9999999937
0.1388888888888884 	300.0000000000289 	2.622228142233326e-12 	101324.9999999937
0.1413913913913909 	299.9999999999999 	2.543516984978314e-12 	101324.9999999937
0.1438938938938934 	299.9999999999947 	2.593335339713257e-12 	101324.9999999937
0.1463963963963959 	299.9999999999716 	2.101206059761134e-12 	101324.9999999937
0.1488988988988985 	299.9999999999442 	3.2649044219283e-12 	101324.9999999934
0.1514014014014009 	299.9999999999745 	2.795942051120343e-12 	101324.9999999934
0.1539039039039035 	299.9999999999727 	3.740672206468714e-12 	101324.9999999935
0.1564064064064059 	299.999999999966 	1.319060135914007e-12 	101324.9999999942
0.1589089089089084 	299.9999999999874 	3.622132438834321e-12 	101324.9999999944
0.1614114114114109 	299.9999999999839 	1.654909453364923e-12 	101324.9999999941
0.1639139139139134 	299.9999999999417 	3.896095422340541e-12 	101324.999999994
0.166416416416416 	300.0000000000032 	3.209709288390622e-12 	101324.9999999941
0.1689189189189185 	300.0000000000175 	3.04636476145373e-12 	101324.9999999941
0.1714214214214209 	299.9999999999925 	4.077308001149278e-12 	101324.9999999939
0.1739239239239235 	299.9999999999889 	3.591867446020724e-12 	101324.9999999937
0.1764264264264259 	299.999999999977 	5.779372222822027e-12 	101324.9999999937
0.1789289289289284 	300.0000000000018 	3.712187618104144e-12 	101324.9999999937
0.181431431431431 	299.9999999999755 	5.803217429507433e-12 	101324.9999999935
0.1839339339339334 	299.9999999999799 	3.461045986388574e-12 	101324.9999999933
0.186436436436436 	299.9999999999524 	4.991983577070906e-12 	101324.9999999935
0.1889389389389385 	299.999999999989 	4.89214175024614e-12 	101324.9999999934
0.191441441441441 	299.9999999999864 	4.978704639928597e-12 	101324.9999999938
0.1939439439439434 	299.9999999999495 	6.070913870450821e-12 	101324.999999994
0.196446446446446 	299.9999999999679 	4.018671200214798e-12 	101324.9999999937
0.1989489489489485 	299.9999999999762 	6.141461682090738e-12 	101324.9999999939
0.2014514514514509 	299.9999999999885 	3.500052321989056e-12 	101324.9999999941
0.2039539539539535 	299.9999999999945 	4.117505578353727e-12 	101324.9999999942
0.2064564564564559 	299.9999999999742 	3.420051922648866e-12 	101324.9999999943
0.2089589589589585 	299.9999999999897 	4.156202284744695e-12 	101324.9999999946
0.211461461461461 	299.9999999999563 	4.446711289774642e-12 	101324.9999999944
0.2139639639639635 	299.9999999999892 	4.30613084420391e-12 	101324.9999999944
0.2164664664664659 	299.9999999999986 	5.193687707459214e-12 	101324.9999999944
0.2189689689689684 	299.9999999999973 	3.10366360125085e-12 	101324.9999999943
0.221471471471471 	299.999999999993 	5.283186999294403e-12 	101324.9999999939
0.2239739739739735 	299.9999999999719 	3.67543070772707e-12 	101324.9999999938
0.226476476476476 	299.9999999999883 	5.06168613275892e-12 	101324.9999999939
0.2289789789789785 	299.9999999999948 	4.501452353391218e-12 	101324.999999994
0.231481481481481 	299.9999999999931 	4.314868526958085e-12 	101324.999999994
0.2339839839839835 	299.9999999999918 	4.747988272304926e-12 	101324.9999999942
0.236486486486486 	300.0000000000134 	3.875710096368709e-12 	101324.9999999946
0.2389889889889885 	300.0000000000026 	5.002712792587556e-12 	101324.9999999949
0.241491491491491 	299.9999999999539 	2.561802855564495e-12 	101324.9999999947
0.2439939939939935 	299.9999999999852 	5.119080804568678e-12 	101324.9999999944
0.246496496496496 	299.9999999999917 	2.981040607027697e-12 	101324.9999999945
0.2489989989989985 	300.00000000002 	4.717475793243498e-12 	101324.9999999945
0.251501501501501 	300.0000000000156 	4.017058001418092e-12 	101324.9999999943
0.2540040040040035 	299.9999999999935 	4.348507270240543e-12 	101324.9999999942
0.256506506506506 	300.0000000000131 	4.661001873591717e-12 	101324.9999999941
0.2590090090090086 	299.9999999999417 	3.117317604297123e-12 	101324.999999994
0.261511511511511 	299.9999999999999 	5.13139664927437e-12 	101324.9999999938
0.2640140140140135 	299.9999999999944 	2.49029207788937e-12 	101324.9999999938
0.2665165165165161 	299.9999999999566 	4.201038488426957e-12 	101324.9999999938
0.2690190190190185 	300.0000000000036 	3.301284873629061e-12 	101324.999999994
0.271521521521521 	300.0000000000006 	3.612159506228653e-12 	101324.9999999938
0.2740240240240235 	300.0000000000081 	3.505990233830877e-12 	101324.999999994
0.276526526526526 	300.0000000000031 	2.304914176855752e-12 	101324.999999994
0.2790290290290286 	299.9999999999629 	3.197664840468226e-12 	101324.9999999938
0.281531531531531 	299.999999999953 	2.008502453118562e-12 	101324.9999999939
0.2840340340340335 	299.9999999999843 	3.822609230034648e-12 	101324.9999999938
0.2865365365365361 	299.9999999999734 	1.907530990838449e-12 	101324.9999999939
0.2890390390390385 	299.9999999999981 	3.062301040714474e-12 	101324.9999999938
0.291541541541541 	299.9999999999969 	2.708987322642454e-12 	101324.9999999937
0.2940440440440436 	299.9999999999911 	2.668375683413812e-12 	101324.9999999935
0.296546546546546 	299.9999999999939 	3.665820473057333e-12 	101324.9999999934
0.2990490490490486 	299.9999999999557 	2.541596775335664e-12 	101324.9999999935
0.3015515515515511 	300.0000000000182 	5.234798541608954e-12 	101324.9999999937
0.3040540540540535 	299.999999999993 	1.243515030225493e-12 	101324.9999999937
0.3065565565565562 	299.9999999999974 	5.479592083357979e-12 	101324.999999994
0.3090590590590585 	299.9999999999926 	9.496031073549385e-13 	101324.999999994
0.3115615615615611 	299.9999999999588 	4.451506370490202e-12 	101324.9999999938
0.3140640640640635 	300.0000000000013 	1.793751079367734e-12 	101324.9999999936
0.316566566566566 	299.9999999999936 	3.1700618295111e-12 	101324.9999999937
0.3190690690690687 	299.9999999999691 	1.702267019046898e-12 	101324.9999999937
0.3215715715715711 	300.000000000008 	3.249912224055636e-12 	101324.9999999937
0.3240740740740735 	299.9999999999978 	2.328243684722656e-12 	101324.9999999938
0.326576576576576 	299.9999999999388 	3.503405865177506e-12 	101324.9999999938
0.3290790790790786 	300.0000000000005 	2.558064942215799e-12 	101324.9999999937
0.3315815815815811 	300.0000000000217 	2.552852720019058e-12 	101324.9999999938
0.3340840840840836 	299.999999999995 	1.738027781912057e-12 	101324.9999999938
0.3365865865865861 	300.0000000000347 	1.913734449648344e-12 	101324.9999999936
0.3390890890890886 	300.00000000003 	4.507206463943849e-13 	101324.9999999934
0.3415915915915911 	299.9999999999983 	1.266329628224602e-12 	101324.9999999933
0.3440940940940935 	299.9999999999656 	7.186557152290346e-13 	101324.9999999934
0.3465965965965962 	300.0000000000219 	1.034389126704825e-12 	101324.9999999936
0.3490990990990985 	300.0000000000168 	1.869107043672222e-13 	101324.9999999935
0.3516016016016011 	299.9999999999923 	4.641797417934964e-13 	101324.9999999937
0.3541041041041035 	300.0000000000048 	4.268803635252019e-13 	101324.9999999938
0.3566066066066061 	299.9999999999732 	8.712979188488276e-13 	101324.9999999939
0.3591091091091085 	299.999999999951 	2.06026926175924e-12 	101324.9999999939
0.3616116116116112 	299.9999999999604 	9.379703527637176e-13 	101324.9999999939
0.3641141141141137 	299.9999999999561 	2.191141660724322e-12 	101324.999999994
0.3666166166166161 	299.9999999999531 	1.612044638397746e-12 	101324.999999994
0.3691191191191185 	300.0000000000211 	2.393687821451338e-12 	101324.9999999939
0.371621621621621 	300.0000000000094 	1.220522331699496e-12 	101324.9999999938
0.3741241241241237 	300.0000000000308 	1.973820396505777e-12 	101324.9999999939
0.3766266266266261 	300.000000000014 	8.673071595988168e-13 	101324.9999999939
0.3791291291291286 	299.9999999999898 	1.425007538442949e-12 	101324.9999999941
0.3816316316316311 	299.9999999999516 	7.979891720087304e-13 	101324.999999994
0.3841341341341336 	300.0000000000039 	1.985884561629302e-12 	101324.9999999939
0.3866366366366362 	299.9999999999972 	7.257245279445831e-13 	101324.9999999941
0.3891391391391387 	299.9999999999729 	1.377395406069153e-12 	101324.9999999944
0.391641641641641 	299.9999999999955 	5.118841116287548e-13 	101324.9999999945
0.3941441441441436 	300.0000000000039 	7.924678779793052e-13 	101324.9999999946
0.3966466466466462 	299.9999999999991 	1.126468126545753e-13 	101324.9999999945
0.3991491491491486 	299.9999999999679 	7.248370295614148e-13 	101324.9999999943
0.4016516516516512 	299.999999999949 	8.415303709520396e-13 	101324.9999999943
0.4041541541541536 	299.9999999999713 	9.842979262570609e-13 	101324.9999999944
0.4066566566566561 	299.9999999999696 	1.531172919132493e-12 	101324.9999999944
0.4091591591591587 	299.999999999998 	9.74096653814758e-13 	101324.9999999942
0.4116616616616612 	300.0000000000048 	6.722177913879224e-13 	101324.9999999942
0.4141641641641635 	300.0000000000256 	2.052616753076698e-13 	101324.9999999943
0.4166666666666662 	299.999999999998 	5.085411984538258e-13 	101324.9999999944
0.4191691691691687 	299.9999999999645 	1.103079972044655e-12 	101324.9999999944
0.421671671671671 	300.0000000000049 	1.379032096700859e-12 	101324.9999999944
0.4241741741741737 	299.9999999999849 	2.150606396445378e-12 	101324.9999999945
0.4266766766766761 	299.9999999999679 	2.049935258521881e-12 	101324.9999999945
0.4291791791791785 	300.0000000000145 	3.167623686881263e-12 	101324.9999999943
0.4316816816816812 	300.0000000000064 	2.003265347029268e-12 	101324.9999999942
0.4341841841841836 	299.9999999999871 	3.318072742050004e-12 	101324.9999999942
0.4366866866866862 	299.9999999999501 	6.634714869803899e-13 	101324.9999999942
0.4391891891891885 	299.9999999999958 	2.18794422680344e-12 	101324.999999994
0.4416916916916913 	299.9999999999898 	1.090056441590158e-12 	101324.9999999941
0.4441941941941936 	299.9999999999932 	2.106021102211225e-12 	101324.9999999942
0.4466966966966961 	299.9999999999507 	1.173820091445151e-12 	101324.9999999942
0.4491991991991987 	299.9999999999907 	8.597801075118598e-13 	101324.9999999942
0.4517017017017012 	299.9999999999902 	1.382830939062816e-12 	101324.9999999943
0.4542042042042035 	299.9999999999912 	9.442511789155531e-13 	101324.9999999944
0.4567067067067062 	299.9999999999993 	1.635131329332214e-12 	101324.9999999942
0.4592092092092087 	299.9999999999569 	9.817868183779872e-13 	101324.9999999942
0.4617117117117112 	300.0000000000121 	1.299421119326915e-12 	101324.9999999944
0.4642142142142137 	299.9999999999794 	1.36679575020013e-12 	101324.9999999946
0.4667167167167162 	299.9999999999959 	1.46568243102638e-12 	101324.9999999945
0.4692192192192187 	299.9999999999752 	1.670566087411472e-12 	101324.9999999947
0.4717217217217212 	300.0000000000065 	1.050086176545649e-12 	101324.9999999949
0.4742242242242236 	299.9999999999732 	1.35207371036494e-12 	101324.9999999948
0.4767267267267262 	299.9999999999844 	1.434259362278177e-12 	101324.9999999946
0.4792292292292287 	300.0000000000103 	2.288553998432514e-12 	101324.9999999945
0.4817317317317312 	300.0000000000185 	2.657076293152151e-12 	101324.9999999945
0.4842342342342336 	299.9999999999919 	2.882432133911927e-12 	101324.9999999944
0.4867367367367362 	299.9999999999727 	3.704378910735527e-12 	101324.9999999944
0.4892392392392387 	300.000000000018 	3.233502355220269e-12 	101324.9999999945
0.4917417417417412 	300.0000000000026 	4.280417487965206e-12 	101324.9999999944
0.4942442442442437 	299.9999999999432 	3.42898408464393e-12 	101324.9999999946
0.4967467467467462 	299.9999999999562 	4.770234877118536e-12 	101324.9999999946
0.4992492492492487 	299.9999999999522 	2.291878585423749e-12 	101324.9999999945
0.5017517517517511 	299.9999999999735 	2.962496231082954e-12 	101324.9999999945
0.5042542542542537 	299.9999999999795 	1.899317692453452e-12 	101324.9999999946
0.5067567567567562 	299.9999999999694 	2.315882099580461e-12 	101324.9999999945
0.5092592592592589 	299.9999999999852 	2.505450425859235e-12 	101324.9999999947
0.5117617617617611 	299.9999999999756 	2.138894297133084e-12 	101324.9999999945
0.5142642642642637 	299.9999999999923 	3.193149073895614e-12 	101324.9999999946
0.5167667667667663 	299.9999999999837 	1.713888566495061e-12 	101324.9999999947
0.5192692692692688 	299.9999999999538 	4.187885819926569e-12 	101324.999999995
0.5217717717717714 	299.9999999999627 	1.446595099076208e-12 	101324.999999995
0.5242742742742736 	299.9999999999618 	3.86636832675243e-12 	101324.9999999948
0.5267767767767763 	299.9999999999777 	8.767037214829844e-13 	101324.9999999946
0.5292792792792789 	299.9999999999658 	2.307946757512716e-12 	101324.9999999943
0.5317817817817813 	299.9999999999478 	7.25218424602002e-13 	101324.9999999943
0.5342842842842837 	300.0000000000134 	1.24348590679833e-12 	101324.9999999942
0.5367867867867864 	300.0000000000035 	1.10663512810872e-12 	101324.9999999943
0.5392892892892888 	299.9999999999763 	2.016204234016815e-12 	101324.9999999943
0.5417917917917912 	300.0000000000034 	1.515811373570664e-12 	101324.9999999943
0.5442942942942938 	299.9999999999885 	1.417678355850805e-12 	101324.9999999946
0.5467967967967964 	299.9999999999695 	8.756635263561447e-13 	101324.9999999947
0.5492992992992988 	299.999999999961 	1.206229020121876e-12 	101324.9999999947
0.5518018018018012 	299.9999999999614 	9.936844039734893e-13 	101324.9999999948
0.5543043043043039 	300.0000000000136 	1.403571307795955e-12 	101324.999999995
0.5568068068068063 	299.9999999999951 	1.038364836740893e-12 	101324.9999999949
0.5593093093093087 	299.9999999999421 	1.768412346526652e-12 	101324.9999999948
0.5618118118118114 	299.9999999999753 	5.742067352004188e-13 	101324.9999999948
0.5643143143143137 	299.9999999999677 	1.355310010020673e-12 	101324.9999999948
0.5668168168168163 	299.9999999999932 	3.50312823828896e-13 	101324.9999999948
0.5693193193193188 	300.0000000000204 	6.8185180377987e-13 	101324.9999999946
0.5718218218218213 	300.0000000000165 	1.102527579255917e-12 	101324.9999999948
0.5743243243243239 	300.0000000000052 	1.334343204774634e-12 	101324.9999999948
0.5768268268268262 	300.0000000000035 	2.815345307325944e-12 	101324.9999999948
0.5793293293293288 	299.9999999999696 	1.651486351863648e-12 	101324.9999999946
0.5818318318318314 	299.9999999999515 	3.832143925470015e-12 	101324.9999999946
0.5843343343343338 	299.999999999987 	1.399178584053618e-12 	101324.9999999948
0.5868368368368363 	299.999999999984 	4.138495817562967e-12 	101324.9999999948
0.5893393393393387 	299.9999999999641 	2.443054953278053e-12 	101324.9999999946
0.5918418418418413 	299.9999999999645 	3.859251704275526e-12 	101324.9999999946
0.5943443443443439 	300.0000000000117 	2.09246038342964e-12 	101324.9999999946
0.5968468468468463 	300.0000000000121 	2.581549891894939e-12 	101324.9999999946
0.5993493493493487 	300.0000000000244 	1.933549583152566e-12 	101324.9999999946
0.6018518518518514 	299.9999999999888 	2.691267854942065e-12 	101324.9999999946
0.6043543543543537 	299.9999999999956 	2.807287841409259e-12 	101324.9999999944
0.6068568568568564 	299.9999999999881 	3.687097409222855e-12 	101324.9999999946
0.6093593593593587 	299.999999999959 	3.41547209248793e-12 	101324.9999999948
0.6118618618618614 	299.9999999999562 	3.133166684799574e-12 	101324.999999995
0.6143643643643638 	300.0000000000072 	2.315214332871452e-12 	101324.9999999952
0.6168668668668662 	299.9999999999906 	2.818090974105824e-12 	101324.9999999951
0.6193693693693688 	299.9999999999746 	1.308302758727383e-12 	101324.999999995
0.6218718718718714 	299.9999999999795 	2.579275454548193e-12 	101324.9999999949
0.6243743743743737 	299.9999999999592 	1.296102548179711e-12 	101324.9999999948
0.6268768768768762 	299.9999999999541 	2.722015994583639e-12 	101324.9999999951
0.629379379379379 	299.9999999999695 	2.026948011186505e-12 	101324.9999999953
0.6318818818818812 	299.9999999999834 	3.059008073562688e-12 	101324.9999999954
0.6343843843843838 	300.0000000000107 	2.928054813239771e-12 	101324.9999999954
0.6368868868868864 	299.9999999999886 	3.1500752727949e-12 	101324.9999999951
0.6393893893893888 	299.9999999999535 	4.40464822410269e-12 	101324.9999999948
0.6418918918918912 	300.0000000000074 	2.912228376975099e-12 	101324.9999999946
0.6443943943943939 	299.9999999999966 	5.359118730775837e-12 	101324.9999999946
0.6468968968968963 	299.9999999999895 	2.483387830995628e-12 	101324.9999999944
0.6493993993993988 	299.9999999999837 	4.996721216214207e-12 	101324.9999999943
0.6519019019019012 	299.99999999998 	2.200424055532258e-12 	101324.9999999942
0.6544044044044038 	299.9999999999394 	3.697306788385609e-12 	101324.9999999943
0.6569069069069065 	299.9999999999749 	1.840046713060698e-12 	101324.9999999943
0.6594094094094087 	299.9999999999743 	3.418316845387825e-12 	101324.9999999944
0.6619119119119113 	299.9999999999692 	1.867854636852996e-12 	101324.9999999944
0.664414414414414 	300.0000000000012 	2.377052186924857e-12 	101324.9999999944
0.6669169169169162 	300.000000000011 	1.457424618562034e-12 	101324.9999999944
0.6694194194194188 	299.9999999999914 	2.076208462734989e-12 	101324.9999999943
0.6719219219219214 	299.9999999999579 	1.408309755726679e-12 	101324.9999999945
0.674424424424424 	299.9999999999868 	1.814556073708147e-12 	101324.9999999947
0.6769269269269262 	299.9999999999504 	1.032235798940881e-12 	101324.9999999946
0.679429429429429 	300.0000000000038 	1.118750044657606e-12 	101324.9999999946
0.6819319319319311 	299.9999999999845 	9.403767505234731e-13 	101324.9999999945
0.6844344344344341 	299.9999999999948 	1.765290972485455e-12 	101324.9999999947
0.686936936936936 	299.9999999999926 	1.511242221061058e-12 	101324.9999999947
0.6894394394394392 	299.99999999999 	2.801474880827183e-12 	101324.9999999945
0.6919419419419413 	299.999999999992 	3.140907903116767e-12 	101324.9999999944
0.694444444444444 	299.9999999999706 	3.226506893687364e-12 	101324.9999999944
0.6969469469469463 	299.9999999999582 	3.145048741464416e-12 	101324.9999999943
0.6994494494494489 	299.9999999999467 	2.74340273615524e-12 	101324.999999994
0.7019519519519515 	299.9999999999869 	3.118654123600721e-12 	101324.9999999938
0.7044544544544538 	299.9999999999686 	2.137760978874601e-12 	101324.9999999937
0.7069569569569564 	299.9999999999968 	3.335989067051438e-12 	101324.9999999936
0.7094594594594589 	299.9999999999784 	1.703218206841632e-12 	101324.9999999938
0.7119619619619615 	299.9999999999455 	3.129749354993965e-12 	101324.9999999939
0.7144644644644638 	299.9999999999665 	1.636567553485409e-12 	101324.9999999939
0.7169669669669665 	299.9999999999505 	2.004871235270815e-12 	101324.9999999939
0.7194694694694688 	299.9999999999955 	1.216719791637065e-12 	101324.9999999941
0.7219719719719715 	299.9999999999935 	1.944339978906065e-12 	101324.9999999942
0.7244744744744737 	300.0000000000016 	2.209743111007547e-12 	101324.9999999941
0.7269769769769764 	299.9999999999946 	2.950720149736176e-12 	101324.9999999937
0.7294794794794791 	299.999999999989 	6.099408455965862e-12 	101324.9999999929
0.7319819819819813 	299.9999999999851 	9.594369351509202e-12 	101324.999999991
0.7344844844844839 	299.9999999999469 	2.207387733784989e-11 	101324.9999999869
0.7369869869869864 	299.9999999999562 	4.535189731183541e-11 	101324.9999999776
0.739489489489489 	299.9999999999317 	9.913536917740392e-11 	101324.9999999567
0.7419919919919914 	299.9999999998869 	2.153687180473148e-10 	101324.9999999112
0.7444944944944939 	299.9999999998323 	4.650146328581358e-10 	101324.9999998134
0.7469969969969963 	299.9999999996517 	9.992295192866998e-10 	101324.9999996049
0.7494994994994989 	299.9999999992634 	2.122527134155415e-09 	101324.9999991644
0.7520020020020015 	299.9999999984976 	4.475454079217812e-09 	101324.9999982432
0.7545045045045039 	299.9999999968838 	9.3391348199995e-09 	101324.9999963351
0.7570070070070062 	299.9999999935596 	1.930907019182718e-08 	101324.999992422
0.7595095095095092 	299.9999999868337 	3.952281236836363e-08 	101324.9999844786
0.7620120120120112 	299.9999999733784 	8.009619832396437e-08 	101324.9999685196
0.7645145145145138 	299.9999999465324 	1.606704214499987e-07 	101324.999936793
0.7670170170170165 	299.9999998937268 	3.18969081643544e-07 	101324.9998743965
0.7695195195195191 	299.9999997910569 	6.265655140943795e-07 	101324.9997530235
0.7720220220220213 	299.9999995935962 	1.217578641834763e-06 	101324.9995195676
0.7745245245245239 	299.9999992181189 	2.340163425420167e-06 	101324.9990756563
0.7770270270270263 	299.9999985125216 	4.44745558290032e-06 	101324.9982414381
0.779529529529529 	299.9999972023816 	8.355788140498937e-06 	101324.9966925156
0.7820320320320313 	299.9999947996555 	1.551531436347279e-05 	101324.9938518966
0.784534534534534 	299.9999904487769 	2.846505911287727e-05 	101324.9887080573
0.7870370370370364 	299.9999826721294 	5.158406111446203e-05 	101324.9795141439
0.7895395395395389 	299.9999689576041 	9.230743104024787e-05 	101324.9633002185
0.7920420420420413 	299.9999451032913 	0.000163054403809385 	101324.9350986015
0.794544544544544 	299.9999041998166 	0.0002842173128502435 	101324.886740787
0.7970470470470463 	299.9998350879601 	0.0004886831449090261 	101324.8050339683
0.799549549549549 	299.9997200827844 	0.0008284910354369522 	101324.6690705448
0.8020520520520515 	299.9995317154097 	0.001384342014435738 	101324.4463761295
0.8045545545545539 	299.999228225806 	0.002278718939485573 	101324.0875814811
0.8070570570570563 	299.9987475766484 	0.003693260110355278 	101323.5193459511
0.8095595595595589 	299.997999887745 	0.005890634821280409 	101322.6354150551
0.8120620620620614 	299.9968584743447 	0.009240333665461788 	101321.2860285435
0.8145645645645638 	299.9951501657139 	0.01424633434110758 	101319.2664812074
0.8170670670670666 	299.9926463415033 	0.0215723922229872 	101316.3065380838
0.8195695695695689 	299.9890571610882 	0.03205770867098403 	101312.0636335069
0.8220720720720714 	299.9840327048357 	0.04671216739808883 	101306.1242560774
0.8245745745745739 	299.9771759948895 	0.06667681019064693 	101298.0193949432
0.8270770770770765 	299.9680737240213 	0.09313287882720706 	101287.2609364801
0.8295795795795788 	299.956350415469 	0.1271432670958383 	101273.4057604978
0.8320820820820815 	299.9417499275534 	0.1694156924077921 	101256.1521252058
0.834584584584584 	299.9242439773459 	0.2199893772996486 	101235.4678871271
0.8370870870870865 	299.904160192798 	0.2778681997236295 	101211.7416104505
0.8395895895895891 	299.8823112259062 	0.3406645372433525 	101185.9346631888
0.8420920920920915 	299.8600747391689 	0.4044168351420013 	101159.6750189242
0.844594594594594 	299.8393170443926 	0.4638441878452918 	101135.1663596216
0.8470970970970964 	299.8220907576063 	0.5131746669034788 	101114.8307487
0.8495995995995991 	299.8101905100424 	0.5473683715542371 	101100.7845446374
0.8521021021021015 	299.8047024030557 	0.5633817253413527 	101094.3068992054
0.8546046046046039 	299.8056605660848 	0.5611363936769939 	101095.4367748848
0.8571071071071066 	299.8119037450004 	0.5439241969639335 	101102.8066183105
0.8596096096096089 	299.8211992917048 	0.5180783794377627 	101113.7808903854
0.8621121121121116 	299.8306316424722 	0.4917988734381633 	101124.9154275937
0.8646146146146139 	299.8373325833008 	0.4730124055997895 	101132.8260274055
0.8671171171171166 	299.839494581803 	0.466691737686843 	101135.3790785843
0.8696196196196189 	299.8370895255741 	0.472974645048135 	101132.5399043241
0.8721221221221216 	299.8318205078056 	0.4872178938285101 	101126.3179483654
0.874624624624624 	299.826394026683 	0.501990707218705 	101119.9118744712
0.8771271271271264 	299.8233741807629 	0.5103280577808503 	101116.3467560079
0.879629629629629 	299.8239454727033 	0.5089957136151217 	101117.020562788
0.8821321321321317 	299.8273527500718 	0.4999636165135472 	101121.043505231
0.8846346346346339 	299.8314122227586 	0.4890855944257038 	101125.8364663431
0.8871371371371364 	299.8337726525766 	0.482653350602877 	101128.6231998303
0.8896396396396391 	299.8333126618269 	0.4836745602856799 	101128.0805684498
0.8921421421421414 	299.8307955836997 	0.4901893101750949 	101125.1084750686
0.8946446446446441 	299.8282500933138 	0.4968693248605252 	101122.1030214077
0.8971471471471464 	299.827521359867 	0.4988646768603178 	101121.2424546399
0.8996496496496489 	299.8289591804929 	0.4952126991068736 	101122.939554147
0.9021521521521517 	299.8312571995701 	0.4892558021295699 	101125.6532596963
0.9046546546546541 	299.8325847793066 	0.4857302149634335 	101127.2207917322
0.9071571571571564 	299.8320843223159 	0.4868750785149808 	101126.6300711997
0.9096596596596589 	299.8305221316782 	0.4907831668913604 	101124.7855165204
0.9121621621621616 	299.8294972051503 	0.4933969034062681 	101123.5751694922
0.9146646646646639 	299.829948677711 	0.4923069870210318 	101124.1078132742
0.9171671671671666 	299.8313396740204 	0.4888116494912494 	101125.7504427317
0.9196696696696689 	299.8322996568814 	0.4863326583309917 	101126.8841151054
0.9221721721721714 	299.8320405122043 	0.4868666317273806 	101126.5780055253
0.9246746746746741 	299.8311032362932 	0.4891181055746515 	101125.47146905
0.9271771771771765 	299.8306723323249 	0.4901772092730429 	101124.962566043
0.9296796796796791 	299.8312445564185 	0.4887898321376133 	101125.6377552786
0.9321821821821816 	299.8321475805761 	0.4865520762063373 	101126.7042290847
0.9346846846846838 	299.8324193871428 	0.4858033478813428 	101127.0254026092
0.9371871871871866 	299.8319511324863 	0.4868461647137911 	101126.4724950435
0.9396896896896891 	299.8315295624421 	0.4878216574239543 	101125.9744364788
0.9421921921921914 	299.8317818191432 	0.4872137042288887 	101126.2721757052
0.9446946946946939 	299.8324105776667 	0.4856878706060059 	101127.0146269036
0.9471971971971965 	299.8326765811122 	0.4849805837601779 	101127.3288805982
0.9496996996996991 	299.8324140324513 	0.4855132399657554 	101127.0189485559
0.9522022022022016 	299.8321863569475 	0.4859997409166779 	101126.7497803958
0.9547047047047038 	299.8324305764035 	0.4854093863960652 	101127.0381610383
0.9572072072072064 	299.8328644699149 	0.4843595753747237 	101127.550560171
0.9597097097097093 	299.8329757829881 	0.4840230507860169 	101127.6819244892
0.9622122122122114 	299.8327937956293 	0.4843626048606544 	101127.4671231108
0.964714714714714 	299.8327780830795 	0.4843533876356116 	101127.4484792253
0.9672172172172167 	299.8330690678231 	0.4836570619725165 	101127.7918420777
0.969719719719719 	299.8333138976266 	0.4830398029561119 	101128.0810891491
0.9722222222222214 	299.8332854080676 	0.4830205542289364 	101128.0475598219
0.9747247247247239 	299.833227178798 	0.4830860414212433 	101127.978508521
0.9772272272272267 	299.8333930863894 	0.4826722577492913 	101128.1743790223
0.9797297297297292 	299.8336267326964 	0.4820969823107645 	101128.4504778845
0.9822322322322313 	299.8336824212706 	0.4818941574840427 	101128.5160926349
0.9847347347347344 	299.8336574878668 	0.4818745243722184 	101128.4865266745
0.9872372372372363 	299.8337738287921 	0.4815658847255309 	101128.6239976656
0.9897397397397389 	299.8339676314042 	0.4810858028970366 	101128.8527616571
0.9922422422422417 	299.8340460108761 	0.4808371828530375 	101128.9452419735
0.9947447447447441 	299.8340582467161 	0.4807329384055881 	101128.9597256022
0.9972472472472468 	299.8341680562954 	0.4804366478178919 	101129.0892696836
0.999749749749749 	299.8343278810836 	0.4800313701692295 	101129.2780544974
1.002252252252252 	299.8344025219133 	0.4797919860779173 	101129.3662771162
1.004754754754754 	299.8344446599383 	0.4796248413069737 	101129.4157928089
1.007257257257256 	299.8345616842585 	0.4793131249322147 	101129.5539469321
1.009759759759759 	299.8346931109434 	0.4789664543734986 	101129.7093584509
1.012262262262261 	299.8347597197105 	0.4787446460911915 	101129.7877958747
1.014764764764764 	299.8348285270922 	0.4785243063082359 	101129.8689058629
1.017267267267267 	299.8349502566252 	0.4782026264778091 	101130.0128225684
1.019769769769769 	299.8350552719877 	0.4779081118947074 	101130.1367488129
1.022272272272272 	299.8351214910325 	0.4776879846116007 	101130.2148000985
1.024774774774774 	299.8352143559146 	0.4774217966301868 	101130.3246208865
1.027277277277277 	299.8353294971701 	0.4771124713213274 	101130.460519002
1.029779779779779 	299.8354137457346 	0.4768574721599208 	101130.5598255054
1.032282282282282 	299.83549246935 	0.4766151899069009 	101130.652837224
1.034784784784784 	299.8355989425301 	0.4763239655723602 	101130.7785665478
1.037287287287286 	299.8356965750209 	0.4760459586232794 	101130.8937511326
1.039789789789789 	299.8357756848277 	0.4758012702651676 	101130.9871683051
1.042292292292291 	299.8358716910799 	0.4755290566818952 	101131.1005695388
1.044794794794794 	299.8359734372883 	0.4752457225070253 	101131.2205800305
1.047297297297296 	299.8360578399103 	0.4749914531389048 	101131.320196783
1.049799799799799 	299.8361478613388 	0.4747291660002571 	101131.4266033834
1.052302302302302 	299.8362484630793 	0.4744489568908337 	101131.5452179107
1.054804804804804 	299.8363373058364 	0.4741871956069616 	101131.6500370762
1.057307307307306 	299.8364252853847 	0.4739278638716244 	101131.7541440694
1.059809809809809 	299.8365233960782 	0.4736526669220042 	101131.8698412641
1.062312312312312 	299.8366146325594 	0.4733875934825089 	101131.9774185448
1.064814814814814 	299.8367027144906 	0.4731281754849386 	101132.0815336282
1.067317317317317 	299.8367986549443 	0.4728568329610327 	101132.1947970619
1.069819819819819 	299.8368906200913 	0.4725909417107129 	101132.3032817304
1.072322322322321 	299.8369793788861 	0.4723305176508931 	101132.4081047232
1.074824824824824 	299.8370739107017 	0.4720616569810333 	101132.5197648538
1.077327327327327 	299.8371658503254 	0.4717963308784536 	101132.628197692
1.079829829829829 	299.8372553631411 	0.4715352412751513 	101132.7338240957
1.082332332332332 	299.8373489910809 	0.4712683181341848 	101132.8444908716
1.084834834834834 	299.8374405675556 	0.471004167497441 	101132.9524553414
1.087337337337337 	299.8375307174459 	0.4707422536531111 	101133.058774823
1.089839839839839 	299.8376236662519 	0.4704763059025765 	101133.1687042706
1.092342342342342 	299.8377146596309 	0.4702133697951348 	101133.2760805534
1.094844844844844 	299.8378053057775 	0.4699513208220094 	101133.3830069877
1.097347347347347 	299.8378978162392 	0.4696865548283036 	101133.4922884174
1.099849849849849 	299.8379882838333 	0.469424484529035 	101133.599218037
1.102352352352352 	299.8380794497121 	0.4691623323676092 	101133.706663562
1.104854854854854 	299.8381714865982 	0.4688989893875923 	101133.8151934376
1.107357357357357 	299.8382616728023 	0.4686376693254447 	101133.9218501911
1.109859859859859 	299.8383529870418 	0.4683755251289711 	101134.0296119489
1.112362362362362 	299.8384443755028 	0.4681135092863772 	101134.1373656011
1.114864864864865 	299.838534737812 	0.4678527210229098 	101134.2440713827
1.117367367367367 	299.838625993219 	0.4675909975634671 	101134.3518735005
1.119869869869869 	299.8387167569201 	0.4673302603502667 	101134.4589413012
1.122372372372372 	299.8388073612932 	0.4670700459443562 	101134.5658611778
1.124874874874874 	299.8388983066413 	0.4668092974419354 	101134.6733430022
1.127377377377377 	299.8389887602164 	0.4665493212287461 	101134.7800082307
1.129879879879879 	299.8390795637142 	0.4662892087944285 	101134.8870969545
1.132382382382382 	299.8391700793229 	0.4660295815030497 	101134.9940486121
1.134884884884884 	299.839260291668 	0.4657706666317481 	101135.1006285785
1.137387387387387 	299.8393509216192 	0.4655114174589469 	101135.207582446
1.139889889889889 	299.83944120683 	0.4652527011354829 	101135.3140713895
1.142392392392392 	299.8395315846849 	0.4649943140265039 	101135.4207121722
1.144894894894894 	299.8396219151996 	0.4647362478444064 	101135.5273244868
1.147397397397397 	299.8397120289563 	0.4644786497988864 	101135.6336897697
1.149899899899899 	299.8398022906234 	0.4642209698652401 	101135.7402390857
1.152402402402402 	299.83989225534 	0.4639638232671167 	101135.8464782863
1.154904904904904 	299.8399823855875 	0.4637072205046803 	101135.952781311
1.157407407407407 	299.8400724249357 	0.4634509104770218 	101136.058994341
1.159909909909909 	299.8401622595915 	0.4631947859158823 	101136.1650933996
1.162412412412412 	299.8402522004671 	0.462938833025255 	101136.2712576801
1.164914914914914 	299.8403419822208 	0.4626833858279072 	101136.3772348924
1.167417417417417 	299.8404318102323 	0.4624284112162208 	101136.4832557008
1.169919919919919 	299.8405214691396 	0.4621740366516173 	101136.5891321361
1.172422422422422 	299.840611174432 	0.4619199760320239 	101136.6949767634
1.174924924924925 	299.8407009385461 	0.4616661561361353 	101136.8007829258
1.177427427427427 	299.8407905707149 	0.4614128632808091 	101136.9065028366
1.179929929929929 	299.8408800962088 	0.4611599121077362 	101137.0122192146
1.182432432432432 	299.8409695436622 	0.4609075395933978 	101137.1178252069
1.184934934934934 	299.8410590677353 	0.4606558795800232 	101137.2234236683
1.187437437437437 	299.8411485853361 	0.4604045051315359 	101137.3289281712
1.189939939939939 	299.8412379040675 	0.4601534335586874 	101137.4344008918
1.192442442442442 	299.8413270274219 	0.4599029888546216 	101137.5398058154
1.194944944944944 	299.841416405299 	0.459653107780893 	101137.6451642858
1.197447447447447 	299.84150584302 	0.4594039187968748 	101137.7504880556
1.199949949949949 	299.8415951999589 	0.4591555768199517 	101137.8557625919
1.202452452452452 	299.8416843401107 	0.4589076335693889 	101137.9610072539
1.204954954954955 	299.8417733369288 	0.4586602391812623 	101138.0661933746
1.207457457457457 	299.8418624972257 	0.4584137511583887 	101138.171359264
1.20995995995996 	299.8419517407744 	0.4581680140059595 	101138.2764838187
1.212462462462462 	299.8420409455006 	0.4579223562062935 	101138.3815858517
1.214964964964964 	299.8421301959077 	0.4576787273021982 	101138.4866482375
1.217467467467467 	299.8422193209159 	0.4574332366637368 	101138.5916876106
1.219969969969969 	299.8423082125512 	0.4571938586346918 	101138.6966974407
1.222472472472472 	299.8423972765264 	0.4569405124768476 	101138.8016773848
1.224974974974975 	299.842486436848 	0.4567267829253987 	101138.9066701386
1.227477477477477 	299.8425756061572 	0.4564033330492114 	101139.0115759721
1.229979979979979 	299.8426650206358 	0.4563709198750658 	101139.1167768591
1.232482482482482 	299.8427539366738 	0.4551135939825912 	101139.2210353819
1.234984984984984 	299.8428448204592 	0.4566902417513707 	101139.3288421773
1.237487487487487 	299.8429347178803 	0.4535954475000306 	101139.4316302873
1.239989989989989 	299.8430170345617 	0.456124637880683 	101139.533461081
1.242492492492492 	299.8431182416369 	0.4555347544091206 	101139.6436941177
1.244994994994994 	299.8421737011741 	0.4518112528634289 	101139.7347319788
1.247497497497497 	299.3468447997741 	0.4560767514492449 	101139.8443333885
1.249999999999999 	303.1014642048775 	0.4541377775967487 	101139.9515235366
