-1.25 	300 	0.03047685363690954 	101312.5655056418
-1.247497497497497 	299.9890168288567 	0.02903744477502241 	101313.2217492606
-1.244994994994995 	299.9905790552048 	0.02710921641370376 	101313.8823325961
-1.242492492492492 	299.9911572555018 	0.02568531795700128 	101314.5461484294
-1.23998998998999 	299.9917157588677 	0.02397475384203789 	101315.2070988929
-1.237487487487487 	299.9922820707741 	0.02236851605502001 	101315.8765775599
-1.234984984984985 	299.9928529094119 	0.02072031641657035 	101316.5513809823
-1.232482482482482 	299.9934179063462 	0.01908060319491749 	101317.219279946
-1.22997997997998 	299.993980497571 	0.01745084876436408 	101317.8843423387
-1.227477477477477 	299.9945456914111 	0.0158152559464732 	101318.5524875384
-1.224974974974975 	299.9951127194191 	0.01416700159435624 	101319.2228024942
-1.222472472472472 	299.9956831518181 	0.01251066381426956 	101319.8971448315
-1.21996996996997 	299.9962609974386 	0.01083708887566696 	101320.5802570951
-1.217467467467467 	299.9968433238452 	0.009149235515429205 	101321.2686651426
-1.214964964964965 	299.9974222568424 	0.007478245189259537 	101321.9530590314
-1.212462462462462 	299.9979923909472 	0.005829350102377878 	101322.6270544961
-1.20995995995996 	299.9985553705155 	0.004195180127029297 	101323.2925984731
-1.207457457457457 	299.9991198217893 	0.002560379808693726 	101323.9598899742
-1.204954954954955 	299.9996894050876 	0.0009081312231936801 	101324.6332552377
-1.202452452452452 	300.0002645824448 	0.0008611010614345879 	101325.3132337227
-1.19994994994995 	300.0008420212424 	0.002425991728330908 	101325.9958843399
-1.197447447447447 	300.0014173009184 	0.004092753073082118 	101326.6759864942
-1.194944944944945 	300.0019914240059 	0.00575608167227351 	101327.3547250049
-1.192442442442442 	300.002564773829 	0.007417114926158723 	101328.0325526251
-1.18993993993994 	300.0031374830182 	0.009076249785854529 	101328.7096261805
-1.187437437437437 	300.003709545929 	0.01073348604922645 	101329.3859388537
-1.184934934934935 	300.0042808940833 	0.0123886378803694 	101330.0614095955
-1.182432432432432 	300.0048514348052 	0.01404144925467214 	101330.7359287307
-1.17992992992993 	300.0054210669788 	0.01569163865888099 	101331.4093770142
-1.177427427427427 	300.0059896871505 	0.01733891082418709 	101332.0816326714
-1.174924924924925 	300.0065571925901 	0.01898296374141013 	101332.7525735656
-1.172422422422422 	300.0071234811916 	0.02062349598265806 	101333.4220776613
-1.16991991991992 	300.0076884498024 	0.0222602071696153 	101334.0900229864
-1.167417417417417 	300.0082519933637 	0.02389279473859852 	101334.7562875144
-1.164914914914915 	300.0088140068782 	0.02552095619106679 	101335.4207491777
-1.162412412412412 	300.0093743884798 	0.02714439253679301 	101336.0832859911
-1.15990990990991 	300.0099330386465 	0.02876280623104293 	101336.7437761878
-1.157407407407407 	300.0104898565652 	0.03037589838265077 	101337.402098311
-1.154904904904904 	300.0110447375598 	0.03198337152356195 	101338.058131328
-1.152402402402403 	300.0115975751663 	0.03358493151210217 	101338.7117546446
-1.1498998998999 	300.0121482654092 	0.03518028393666599 	101339.3628481007
-1.147397397397397 	300.0126967085184 	0.03676913373836393 	101340.0112919758
-1.144894894894895 	300.0132428079683 	0.03835118921029788 	101340.6569670243
-1.142392392392392 	300.013786467443 	0.03992616116891021 	101341.2997545034
-1.13988988988989 	300.0143275886228 	0.04149375917402871 	101341.9395362109
-1.137387387387387 	300.0148660708563 	0.04305369420230497 	101342.5761945519
-1.134884884884885 	300.0154018124113 	0.04460568064958596 	101343.2096125006
-1.132382382382382 	300.015934712469 	0.04614943352460499 	101343.8396736144
-1.12987987987988 	300.0164646714138 	0.04768466824018654 	101344.4662620288
-1.127377377377377 	300.0169915912447 	0.04921110335056801 	101345.089262578
-1.124874874874875 	300.0175153753139 	0.05072845949994152 	101345.708560855
-1.122372372372372 	300.0180359277912 	0.05223645675588615 	101346.3240431083
-1.11986986986987 	300.0185531536354 	0.05373481795305325 	101346.9355962343
-1.117367367367367 	300.0190669581453 	0.05522326939652324 	101347.5431077722
-1.114864864864865 	300.0195772472958 	0.05670153726025621 	101348.1464660576
-1.112362362362362 	300.0200839276811 	0.05816934927590799 	101348.7455602839
-1.10985985985986 	300.0205869064226 	0.0596264368670604 	101349.3402804955
-1.107357357357357 	300.0210860915078 	0.06107253289718495 	101349.930517533
-1.104854854854855 	300.0215813912004 	0.06250737123376746 	101350.5161629503
-1.102352352352353 	300.0220727146079 	0.06393068898664112 	101351.0971091675
-1.09984984984985 	300.0225599716807 	0.06534222547045658 	101351.6732494631
-1.097347347347347 	300.0230430728498 	0.06674172075266356 	101352.2444780537
-1.094844844844845 	300.0235219295107 	0.06812891812999514 	101352.8106900885
-1.092342342342342 	300.0239964537821 	0.06950356389176453 	101353.3717815372
-1.08983983983984 	300.0244665585645 	0.07086540479007147 	101353.9276493131
-1.087337337337337 	300.0249321573802 	0.07221419047019295 	101354.4781911758
-1.084834834834835 	300.0253931646746 	0.07354967428778925 	101355.0233058904
-1.082332332332332 	300.0258494959367 	0.07487161041966175 	101355.5628933216
-1.07982982982983 	300.0263010672114 	0.07617975550442861 	101356.0968543015
-1.077327327327327 	300.0267477956356 	0.07747387034438664 	101356.6250907886
-1.074824824824825 	300.0271895992694 	0.07875371750122784 	101357.147505766
-1.072322322322323 	300.0276263970655 	0.08001906186175761 	101357.6640033488
-1.06981981981982 	300.0280581089967 	0.08126967180583643 	101358.1744887861
-1.067317317317317 	300.0284846556739 	0.08250531788223518 	101358.678868314
-1.064814814814815 	300.028905959143 	0.08372577331586298 	101359.1770494893
-1.062312312312312 	300.0293219421659 	0.08493081507759867 	101359.6689409432
-1.05980980980981 	300.0297325283006 	0.08612022238685652 	101360.1544523671
-1.057307307307307 	300.0301376424708 	0.08729377634889017 	101360.6334947517
-1.054804804804805 	300.0305372103044 	0.08845126209579182 	101361.1059800859
-1.052302302302302 	300.0309311585373 	0.08959246829132921 	101361.5718217344
-1.0497997997998 	300.0313194149361 	0.09071718523569604 	101362.0309343703
-1.047297297297297 	300.0317019084447 	0.09182520662435818 	101362.4832336579
-1.044794794794795 	300.0320785690803 	0.09291632989241988 	101362.9286366383
-1.042292292292292 	300.0324493272592 	0.09399035430267202 	101363.3670614103
-1.03978978978979 	300.032814114879 	0.09504708297529137 	101363.7984274818
-1.037287287287287 	300.0331728658638 	0.09608632312018955 	101364.2226560763
-1.034784784784785 	300.0335255145374 	0.09710788361496003 	101364.6396692055
-1.032282282282283 	300.0338719953945 	0.09811157707170205 	101365.0493901546
-1.02977977977978 	300.0342122444811 	0.09909721984737063 	101365.4517437493
-1.027277277277277 	300.034546200254 	0.100064630303534 	101365.8466559502
-1.024774774774775 	300.0348738023392 	0.1010136315882565 	101366.2340546043
-1.022272272272272 	300.0351949896351 	0.101944050668131 	101366.6138687587
-1.01976976976977 	300.035509701827 	0.1028557160434642 	101366.9860283373
-1.017267267267267 	300.0358178826368 	0.1037484605591655 	101367.3504652349
-1.014764764764765 	300.0361194773767 	0.1046221205898796 	101367.7071123325
-1.012262262262262 	300.0364144291389 	0.1054765347048038 	101368.0559036696
-1.00975975975976 	300.0367026811916 	0.1063115466781835 	101368.3967756507
-1.007257257257257 	300.0369841807692 	0.1071270042002494 	101368.7296657343
-1.004754754754755 	300.0372588802154 	0.1079227577067041 	101369.0545128499
-1.002252252252252 	300.0375267319102 	0.1086986618819009 	101369.3712579341
-0.9997497497497498 	300.0377876823135 	0.1094545737046786 	101369.6798421237
-0.9972472472472473 	300.0380416777524 	0.1101903531069281 	101369.9802081893
-0.9947447447447449 	300.0382886729845 	0.1109058654077355 	101370.2723014533
-0.9922422422422421 	300.0385286295291 	0.1116009788589594 	101370.5560676486
-0.9897397397397399 	300.0387615078141 	0.1122755652908978 	101370.8314544502
-0.9872372372372376 	300.0389872605851 	0.1129295020866505 	101371.0984120871
-0.9847347347347346 	300.0392058363081 	0.1135626690173308 	101371.3568909413
-0.9822322322322323 	300.039417192157 	0.1141749498501655 	101371.6068436539
-0.9797297297297296 	300.0396212990192 	0.1147662343630465 	101371.8482256548
-0.9772272272272275 	300.0398181302255 	0.1153364136913221 	101372.0809918314
-0.9747247247247248 	300.0400076506475 	0.1158853815737061 	101372.3050987468
-0.9722222222222224 	300.0401898154882 	0.1164130378316364 	101372.5205060759
-0.9697197197197196 	300.0403645773805 	0.1169192845341366 	101372.7271732305
-0.9672172172172175 	300.040531901099 	0.1174040276502003 	101372.9250615742
-0.9647147147147147 	300.0406917682869 	0.1178671803208533 	101373.1141363463
-0.9622122122122124 	300.0408441641561 	0.1183086567489026 	101373.2943621552
-0.9597097097097099 	300.0409890656859 	0.1187283732011451 	101373.4657042815
-0.9572072072072073 	300.0411264388798 	0.1191262536705884 	101373.6281322999
-0.9547047047047047 	300.0412562422997 	0.1195022242339556 	101373.7816159982
-0.9522022022022023 	300.0413784386699 	0.1198562128968096 	101373.9261252568
-0.9496996996996998 	300.0414930077242 	0.1201881572124763 	101374.0616349487
-0.9471971971971973 	300.0415999423095 	0.1204979981446313 	101374.188121441
-0.9446946946946947 	300.041699236778 	0.1207856751664359 	101374.3055593981
-0.9421921921921923 	300.0417908818496 	0.1210511353307157 	101374.4139270408
-0.93968968968969 	300.0418748589064 	0.1212943319506421 	101374.5132059292
-0.9371871871871872 	300.0419511385257 	0.121515216876642 	101374.603376069
-0.9346846846846848 	300.0420196908961 	0.1217137467797926 	101374.6844191772
-0.9321821821821823 	300.0420804952854 	0.1218898876958653 	101374.7563220073
-0.9296796796796799 	300.0421335397929 	0.1220436074910334 	101374.81907176
-0.9271771771771771 	300.0421788195016 	0.1221748742327788 	101374.8726546051
-0.9246746746746748 	300.0422163375063 	0.1222836636628204 	101374.9170605774
-0.9221721721721724 	300.0422461011053 	0.1223699598015063 	101374.9522839337
-0.9196696696696698 	300.0422681128243 	0.1224337468618294 	101374.9783181398
-0.9171671671671672 	300.0422823686768 	0.1224750083808868 	101374.9951556599
-0.9146646646646649 	300.0422888636871 	0.1224937377786659 	101375.0027938937
-0.9121621621621623 	300.0422875936565 	0.1224899356982112 	101375.0012344949
-0.9096596596596597 	300.042278547905 	0.122463594746813 	101374.9904735717
-0.9071571571571573 	300.0422617184089 	0.1224147095626266 	101374.9705072176
-0.9046546546546547 	300.0422371087338 	0.122343298063008 	101374.941343754
-0.9021521521521524 	300.0422047269755 	0.1222493845563188 	101374.9029959507
-0.8996496496496498 	300.0421645717073 	0.1221329725146519 	101374.8554632483
-0.8971471471471473 	300.0421166431151 	0.1219940713799478 	101374.7987458701
-0.894644644644645 	300.0420609615836 	0.1218327289541483 	101374.7328672791
-0.892142142142142 	300.0419975453773 	0.1216489856983716 	101374.6578478854
-0.8896396396396397 	300.0419263892371 	0.1214428387926369 	101374.5736802354
-0.8871371371371374 	300.0418475002318 	0.1212143151428201 	101374.4803716303
-0.8846346346346349 	300.0417609183927 	0.1209635055455618 	101374.3779683093
-0.8821321321321324 	300.0416666634194 	0.1206904572491797 	101374.2664927613
-0.8796296296296297 	300.0415647179603 	0.1203951496951723 	101374.1459239162
-0.8771271271271271 	300.0414551013909 	0.1200776435548859 	101374.016284291
-0.8746246246246248 	300.0413378803456 	0.1197380891667695 	101373.8776523206
-0.8721221221221224 	300.0412130703568 	0.119376528585259 	101373.7300462173
-0.8696196196196196 	300.0410806337979 	0.1189929068692723 	101373.573421376
-0.8671171171171175 	300.0409406071855 	0.1185873283373707 	101373.407820922
-0.8646146146146148 	300.0407930944886 	0.118160024934605 	101373.2333678547
-0.8621121121121121 	300.0406381046714 	0.1177110258207514 	101373.0500725574
-0.8596096096096097 	300.0404755644836 	0.1172402060515532 	101372.8578484858
-0.857107107107107 	300.0403055249259 	0.1167477105160174 	101372.6567562243
-0.8546046046046049 	300.0401281479925 	0.1162338985779661 	101372.4469871731
-0.8521021021021022 	300.039943446006 	0.1156988034201415 	101372.2285558413
-0.8495995995995997 	300.0397512835527 	0.1151421693877774 	101372.0013022358
-0.8470970970970974 	300.0395517030409 	0.114564136209906 	101371.7652766869
-0.8445945945945946 	300.0393449563034 	0.1139652662825381 	101371.5207769658
-0.8420920920920922 	300.039131104303 	0.113345690782765 	101371.2678749755
-0.8395895895895897 	300.0389099175992 	0.112704942798344 	101371.0062995795
-0.8370870870870872 	300.0386813538627 	0.1120429934471735 	101370.7360009434
-0.8345845845845846 	300.0384457740316 	0.1113606676155003 	101370.457405995
-0.8320820820820823 	300.0382034032551 	0.1106584491264306 	101370.1707808156
-0.8295795795795798 	300.0379539343065 	0.1099356715485544 	101369.8757618779
-0.8270770770770772 	300.0376970809643 	0.1091917761059508 	101369.5720110677
-0.8245745745745746 	300.0374332240175 	0.1084276792658 	101369.259979156
-0.8220720720720721 	300.0371629406641 	0.1076446619668366 	101368.9403484067
-0.8195695695695699 	300.0368860585314 	0.1068423089582542 	101368.6129145501
-0.817067067067067 	300.0366018825404 	0.1060191106924889 	101368.2768559147
-0.8145645645645651 	300.0363104287101 	0.1051752198413619 	101367.9321920924
-0.8120620620620621 	300.0360126597836 	0.1043128668146514 	101367.5800617015
-0.8095595595595597 	300.0357091011425 	0.1034331883862469 	101367.221085398
-0.8070570570570572 	300.0353989167496 	0.1025342428665592 	101366.8542741344
-0.8045545545545546 	300.0350811186831 	0.101613872240298 	101366.4784602406
-0.8020520520520523 	300.034756292499 	0.1006735792790591 	101366.0943372367
-0.7995495495495494 	300.0344260818617 	0.0997171836017727 	101365.7038487088
-0.7970470470470474 	300.0340908466222 	0.09874540500918336 	101365.3074189015
-0.7945445445445446 	300.0337489000115 	0.09775426833478831 	101364.9030526191
-0.7920420420420423 	300.0333988085295 	0.09674057700924842 	101364.4890560509
-0.7895395395395397 	300.0330417512541 	0.09570731052658812 	101364.0668251167
-0.7870370370370371 	300.0326803788085 	0.09466073807930693 	101363.6394938469
-0.7845345345345348 	300.0323152792739 	0.09360207615781228 	101363.2077555208
-0.7820320320320323 	300.0319438080608 	0.09252493345744014 	101362.7684818633
-0.7795295295295296 	300.0315633238578 	0.09142317159366706 	101362.3185514075
-0.7770270270270272 	300.0311749739271 	0.09029983226133063 	101361.8593233786
-0.7745245245245247 	300.0307829162671 	0.08916501550567331 	101361.3957147641
-0.7720220220220222 	300.0303893790287 	0.08802390637226867 	101360.9303574518
-0.7695195195195199 	300.0299914971359 	0.08686932880268305 	101360.4598610034
-0.767017017017017 	300.029584232082 	0.08568907541396539 	101359.9782685104
-0.7645145145145147 	300.0291664463602 	0.08448070524313939 	101359.4842390342
-0.7620120120120122 	300.0287430058062 	0.08325643288482694 	101358.9835288801
-0.7595095095095097 	300.0283199170792 	0.08203098495036062 	101358.4832385975
-0.7570070070070072 	300.0278975126782 	0.0808048701018384 	101357.9837563827
-0.7545045045045048 	300.0274693693519 	0.07956195695939826 	101357.4774847412
-0.7520020020020022 	300.0270287182726 	0.0782855638298879 	101356.9564231844
-0.7494994994994997 	300.0265759331356 	0.0769770275670129 	101356.4210192781
-0.7469969969969972 	300.0261190932026 	0.07565686401631987 	101355.880829001
-0.7444944944944945 	300.0256664838427 	0.07434581354782858 	101355.3456458173
-0.7419919919919924 	300.0252182095256 	0.07304380288763072 	101354.8155865425
-0.7394894894894897 	300.024765309523 	0.07172790414642542 	101354.2800524447
-0.7369869869869872 	300.0242976735921 	0.0703725423622189 	101353.727092269
-0.7344844844844846 	300.0238136497621 	0.06897389117744263 	101353.1547604473
-0.7319819819819822 	300.023322438143 	0.0675558061329922 	101352.5739403222
-0.7294794794794797 	300.0228367474398 	0.06615092183778291 	101351.9996568668
-0.7269769769769773 	300.0223619118266 	0.06477272345092282 	101351.4382092987
-0.7244744744744747 	300.0218908284392 	0.0634025717334335 	101350.8811920728
-0.721971971971972 	300.0214091080408 	0.0620030947757348 	101350.3115909385
-0.7194694694694695 	300.0209063964542 	0.06054758925348602 	101349.717169988
-0.7169669669669674 	300.0203849361888 	0.05904224253966554 	101349.1005901735
-0.7144644644644647 	300.0198586483554 	0.05752367261476213 	101348.4783160542
-0.711961961961962 	300.019343336557 	0.05603331957293377 	101347.8690299866
-0.7094594594594597 	300.0188452890434 	0.05458756018263151 	101347.2801577508
-0.7069569569569573 	300.0183564919727 	0.0531650431026401 	101346.7022153729
-0.7044544544544545 	300.0178596329603 	0.05171983948890154 	101346.1147312468
-0.7019519519519523 	300.0173393267399 	0.05021119874328007 	101345.4995204853
-0.6994494494494495 	300.0167921828065 	0.04863032361266016 	101344.8525846546
-0.6969469469469471 	300.0162293972429 	0.04700729078053307 	101344.187169653
-0.6944444444444446 	300.015670414263 	0.04539420958467643 	101343.5262666779
-0.6919419419419421 	300.0151317265847 	0.04383533523372347 	101342.8893692906
-0.6894394394394396 	300.0146175476559 	0.04234196523603925 	101342.2814490618
-0.6869369369369374 	300.0141174404174 	0.04088583959581892 	101341.6901570403
-0.6844344344344344 	300.0136116693832 	0.03941343040568814 	101341.0921568941
-0.6819319319319321 	300.0130810284288 	0.03787257911590111 	101340.4647454771
-0.6794294294294296 	300.0125161465534 	0.03623787721610536 	101339.7968527227
-0.6769269269269272 	300.0119220086376 	0.03452305543976143 	101339.0943824624
-0.6744244244244245 	300.0113158980675 	0.03277545628908945 	101338.3777749882
-0.6719219219219222 	300.0107200364361 	0.03105605579584823 	101337.673302777
-0.6694194194194195 	300.0101525005655 	0.02941465016769208 	101337.0023315301
-0.6669169169169172 	300.0096203455411 	0.02787079647049115 	101336.3731929961
-0.6644144144144146 	300.0091172755508 	0.0264071506886433 	101335.778434734
-0.661911911911912 	300.0086261131481 	0.02497601722448074 	101335.1977423613
-0.6594094094094097 	300.0081245037983 	0.02351503740656585 	101334.6046858036
-0.656906906906907 	300.0075915740242 	0.02196580965874325 	101333.9745908052
-0.6544044044044046 	300.0070135971194 	0.02028987222471153 	101333.2912358123
-0.6519019019019021 	300.0063874044931 	0.01847838066982202 	101332.5508833483
-0.6493993993993996 	300.0057210217878 	0.01655395770913291 	101331.7630297943
-0.6468968968968971 	300.0050316957178 	0.01456519413535569 	101330.9480707019
-0.6443943943943946 	300.0043420498256 	0.01257591674727526 	101330.1327547251
-0.6418918918918921 	300.0036755106214 	0.01065253770440247 	101329.3447760654
-0.6393893893893897 	300.0030524317947 	0.008853265961137526 	101328.6081937098
-0.6368868868868871 	300.0024879021291 	0.007221621905120281 	101327.940841054
-0.6343843843843846 	300.0019910609756 	0.005784222897823097 	101327.3535176145
-0.6318818818818821 	300.0015654230544 	0.004551573601864891 	101326.850374056
-0.6293793793793795 	300.0012098133442 	0.00352066046216617 	101326.4300173774
-0.6268768768768773 	300.0009195795263 	0.002678396550645635 	101326.0869451465
-0.6243743743743745 	300.0006877998225 	0.002005168956644478 	101325.8130138679
-0.6218718718718721 	300.000506510779 	0.001478020715723769 	101325.5987478126
-0.6193693693693696 	300.0003674894319 	0.001073211373248707 	101325.4343770667
-0.6168668668668671 	300.0002627687262 	0.0007680264991052373 	101325.3105816594
-0.6143643643643645 	300.0001852550247 	0.0005419371936039104 	101325.2189619012
-0.6118618618618621 	300.0001288360738 	0.0003772159085743577 	101325.1522764285
-0.6093593593593596 	300.0000884198819 	0.0002591034407980919 	101325.1045061274
-0.6068568568568571 	300.0000599057552 	0.0001756954455985065 	101325.0708038986
-0.6043543543543546 	300.0000400819548 	0.0001176541768594184 	101325.0473734255
-0.6018518518518521 	300.0000264936901 	7.78329733753406e-05 	101325.0313130492
-0.5993493493493496 	300.000017305733 	5.088279434950297e-05 	101325.0204536414
-0.5968468468468471 	300.0000111743905 	3.288220570514134e-05 	101325.0132069316
-0.5943443443443446 	300.0000071345706 	2.101146498805431e-05 	101325.0084322139
-0.591841841841842 	300.0000045053702 	1.327922126163982e-05 	101325.0053248224
-0.5893393393393397 	300.0000028146602 	8.302704782630232e-06 	101325.0033266112
-0.5868368368368371 	300.0000017400911 	5.13690121928235e-06 	101325.002056537
-0.5843343343343346 	300.0000010647677 	3.145701317244687e-06 	101325.0012583682
-0.5818318318318321 	300.0000006450218 	1.907047685462589e-06 	101325.0007622716
-0.5793293293293297 	300.0000003868688 	1.14478981414697e-06 	101325.0004572274
-0.5768268268268271 	300.0000002298387 	6.806016714478347e-07 	101325.0002716188
-0.5743243243243245 	300.0000001352732 	4.008207415003285e-07 	101325.0001598357
-0.5718218218218221 	300.0000000788755 	2.338681789266078e-07 	101325.0000931858
-0.5693193193193196 	300.000000045603 	1.352187208350713e-07 	101325.0000538339
-0.5668168168168171 	300.0000000260706 	7.748556248400559e-08 	101325.0000308217
-0.5643143143143147 	300.0000000147513 	4.401349294404144e-08 	101325.0000174905
-0.5618118118118121 	300.0000000083466 	2.478777753014281e-08 	101325.0000098389
-0.5593093093093094 	300.0000000046847 	1.384222745102924e-08 	101325.0000054868
-0.5568068068068072 	300.0000000025934 	7.668033515473152e-09 	101325.0000030329
-0.5543043043043046 	300.0000000014352 	4.212715009724973e-09 	101325.0000016612
-0.551801801801802 	300.0000000007232 	2.297505151402928e-09 	101325.000000901
-0.5492992992992995 	300.0000000004121 	1.241639669538485e-09 	101325.0000004831
-0.5467967967967969 	300.0000000002371 	6.674511735003e-10 	101325.000000255
-0.5442942942942947 	300.0000000001272 	3.54859951789955e-10 	101325.0000001315
-0.5417917917917919 	300.0000000000225 	1.893295720755142e-10 	101325.0000000654
-0.5392892892892895 	299.9999999999602 	9.773867471116506e-11 	101325.0000000301
-0.536786786786787 	299.9999999999674 	5.289463267377947e-11 	101325.0000000115
-0.5342842842842846 	299.999999999964 	2.524699803426376e-11 	101325.0000000016
-0.531781781781782 	299.9999999999328 	1.580583759367815e-11 	101324.9999999966
-0.5292792792792794 	299.9999999999254 	5.170022996121363e-12 	101324.9999999942
-0.526776776776777 	299.9999999999105 	6.887110285377927e-12 	101324.9999999932
-0.5242742742742745 	299.9999999999769 	3.350498776734601e-12 	101324.9999999925
-0.521771771771772 	300.0000000000242 	7.018160564806402e-12 	101324.9999999922
-0.5192692692692695 	299.9999999999597 	4.320019383828536e-12 	101324.999999992
-0.516766766766767 	300.0000000000038 	7.179521980335687e-12 	101324.9999999917
-0.5142642642642645 	299.9999999999775 	3.928565910421901e-12 	101324.9999999915
-0.511761761761762 	299.999999999953 	5.941895921828673e-12 	101324.9999999914
-0.5092592592592596 	299.9999999999681 	3.347636625928527e-12 	101324.9999999911
-0.506756756756757 	299.9999999999339 	4.888236988783388e-12 	101324.9999999908
-0.5042542542542544 	299.9999999999915 	2.232723534158098e-12 	101324.9999999908
-0.5017517517517521 	300.0000000000254 	4.540388255559394e-12 	101324.9999999909
-0.4992492492492494 	300.0000000000315 	1.604218942733707e-12 	101324.9999999913
-0.496746746746747 	299.9999999999863 	3.382891603247998e-12 	101324.9999999916
-0.4942442442442445 	299.9999999999458 	1.035110992510613e-12 	101324.9999999919
-0.4917417417417421 	299.9999999999428 	4.107433155635375e-12 	101324.9999999918
-0.4892392392392395 	299.9999999999571 	1.970883981075674e-12 	101324.9999999916
-0.486736736736737 	299.9999999999604 	4.61456914629235e-12 	101324.9999999915
-0.4842342342342345 	299.9999999999258 	2.178027188194362e-12 	101324.9999999916
-0.481731731731732 	300.0000000000297 	5.499865228909464e-12 	101324.9999999914
-0.4792292292292296 	300.0000000000188 	2.945345334046804e-12 	101324.9999999915
-0.4767267267267268 	299.9999999999455 	7.020725713708965e-12 	101324.9999999914
-0.4742242242242246 	299.9999999999886 	2.086165542674181e-12 	101324.9999999915
-0.471721721721722 	299.9999999999509 	5.734532509645083e-12 	101324.9999999917
-0.4692192192192195 	299.9999999999665 	1.859174784517894e-12 	101324.9999999918
-0.4667167167167169 	299.9999999999119 	4.154723349753824e-12 	101324.9999999917
-0.4642142142142145 	299.9999999999955 	1.32532783745032e-12 	101324.9999999918
-0.461711711711712 	300.0000000000149 	4.404934740389243e-12 	101324.999999992
-0.4592092092092094 	300.0000000000124 	2.42212235766344e-12 	101324.9999999922
-0.456706706706707 	300.0000000000488 	4.142029587385134e-12 	101324.9999999921
-0.4542042042042045 	299.9999999999383 	2.625400948546631e-12 	101324.9999999918
-0.451701701701702 	299.9999999999534 	4.131664856854433e-12 	101324.9999999917
-0.4491991991991995 	299.9999999999573 	2.485722839463442e-12 	101324.9999999916
-0.4466966966966969 	299.9999999999432 	4.599850571376405e-12 	101324.9999999917
-0.4441941941941945 	299.9999999999934 	2.230619770646934e-12 	101324.9999999914
-0.441691691691692 	299.9999999999566 	5.486089930911397e-12 	101324.9999999916
-0.4391891891891895 	299.9999999999846 	1.361902166730473e-12 	101324.9999999915
-0.436686686686687 	299.9999999999667 	5.713592774629405e-12 	101324.9999999915
-0.4341841841841846 	299.9999999999968 	1.822472696052966e-12 	101324.9999999915
-0.431681681681682 	299.9999999999503 	5.181899958127419e-12 	101324.9999999917
-0.4291791791791794 	299.9999999999093 	1.329288954951915e-12 	101324.9999999919
-0.426676676676677 	299.9999999999166 	4.428326290741664e-12 	101324.9999999918
-0.4241741741741744 	299.9999999999666 	1.749999531857645e-12 	101324.9999999916
-0.421671671671672 	300.0000000000031 	3.704705180013149e-12 	101324.9999999915
-0.4191691691691694 	300.000000000045 	1.810753780446284e-12 	101324.9999999914
-0.4166666666666669 	300.0000000000528 	3.974394121143543e-12 	101324.9999999913
-0.4141641641641645 	299.9999999999347 	2.626736691545224e-12 	101324.9999999912
-0.411661661661662 	300.0000000000042 	3.161322114660543e-12 	101324.9999999915
-0.4091591591591594 	300.0000000000059 	2.091381375977523e-12 	101324.9999999913
-0.406656656656657 	299.9999999999395 	3.443880919234402e-12 	101324.9999999915
-0.4041541541541545 	300.0000000000127 	1.871225481597949e-12 	101324.9999999916
-0.401651651651652 	299.9999999999231 	4.023253396081597e-12 	101324.9999999915
-0.3991491491491494 	300.0000000000007 	1.714658780117041e-12 	101324.9999999914
-0.396646646646647 	299.9999999999563 	3.972612475508488e-12 	101324.9999999913
-0.3941441441441444 	299.9999999999739 	2.36952203262199e-12 	101324.9999999913
-0.3916416416416419 	299.999999999931 	4.171545070793043e-12 	101324.9999999909
-0.3891391391391395 	299.9999999999588 	1.285915002827679e-12 	101324.9999999909
-0.3866366366366368 	299.9999999999559 	2.789111861261131e-12 	101324.9999999909
-0.3841341341341344 	299.9999999999967 	1.218467464496889e-12 	101324.999999991
-0.381631631631632 	299.9999999999552 	2.63677754777381e-12 	101324.9999999912
-0.3791291291291294 	300.0000000000048 	1.904059652714437e-12 	101324.9999999913
-0.3766266266266269 	300.0000000000188 	2.210296726790786e-12 	101324.9999999915
-0.3741241241241244 	300.0000000000214 	3.239215212808351e-12 	101324.9999999918
-0.371621621621622 	300.0000000000144 	1.765297552151886e-12 	101324.9999999918
-0.3691191191191194 	300.000000000003 	4.693203636785383e-12 	101324.999999992
-0.366616616616617 	300.0000000000081 	2.125937172046811e-12 	101324.9999999921
-0.3641141141141143 	299.9999999999683 	4.685269478646e-12 	101324.999999992
-0.3616116116116119 	299.9999999999482 	2.279296797295602e-12 	101324.9999999922
-0.3591091091091095 	299.9999999999883 	3.043335671583733e-12 	101324.999999992
-0.356606606606607 	299.9999999999862 	2.526363376342654e-12 	101324.9999999921
-0.3541041041041044 	299.9999999999833 	2.53524949182101e-12 	101324.9999999919
-0.3516016016016019 	300.0000000000039 	3.761257087862597e-12 	101324.999999992
-0.3490990990990994 	299.9999999999851 	2.589362550012261e-12 	101324.9999999919
-0.346596596596597 	300.0000000000402 	4.209740482780716e-12 	101324.999999992
-0.3440940940940944 	300.0000000000494 	1.958148216705819e-12 	101324.999999992
-0.3415915915915919 	300.0000000000179 	4.496339760646811e-12 	101324.9999999921
-0.3390890890890895 	299.9999999999797 	2.925976395962579e-12 	101324.9999999919
-0.3365865865865869 	300.0000000000206 	5.160865217261657e-12 	101324.999999992
-0.3340840840840844 	300.0000000000049 	4.29199410590416e-12 	101324.999999992
-0.3315815815815819 	300.0000000000248 	5.006713463372439e-12 	101324.9999999918
-0.3290790790790794 	300.0000000000157 	4.158858348388638e-12 	101324.999999992
-0.3265765765765769 	299.999999999932 	5.129623877477039e-12 	101324.9999999919
-0.3240740740740744 	299.9999999999969 	3.368736792297307e-12 	101324.9999999919
-0.3215715715715718 	300.0000000000072 	5.331576726415846e-12 	101324.9999999919
-0.3190690690690695 	299.9999999999293 	3.116392300492108e-12 	101324.9999999919
-0.3165665665665668 	299.9999999999905 	5.066412548646182e-12 	101324.999999992
-0.3140640640640644 	300.0000000000017 	2.769976705875042e-12 	101324.9999999919
-0.311561561561562 	299.9999999999287 	5.882655878820745e-12 	101324.9999999921
-0.3090590590590593 	299.9999999999955 	1.312316193812858e-12 	101324.9999999918
-0.3065565565565568 	300.0000000000034 	6.428991500010537e-12 	101324.9999999921
-0.3040540540540545 	300.0000000000165 	1.543629555021723e-12 	101324.9999999917
-0.3015515515515518 	300.0000000000297 	5.620166578307289e-12 	101324.9999999915
-0.2990490490490494 	299.9999999999461 	1.971584600658623e-12 	101324.9999999915
-0.2965465465465469 	299.9999999999826 	4.665400835237125e-12 	101324.9999999916
-0.2940440440440444 	299.9999999999995 	2.804268953059309e-12 	101324.9999999917
-0.2915415415415418 	299.9999999999991 	3.64026727960061e-12 	101324.9999999916
-0.2890390390390395 	300.0000000000009 	3.344509483872991e-12 	101324.9999999915
-0.2865365365365368 	299.999999999976 	2.366255721744397e-12 	101324.9999999914
-0.2840340340340343 	300.000000000001 	3.520716686964006e-12 	101324.9999999912
-0.2815315315315318 	299.9999999999289 	2.038189588736849e-12 	101324.9999999912
-0.2790290290290295 	299.9999999999596 	3.618597786181745e-12 	101324.9999999914
-0.2765265265265269 	300.0000000000109 	2.848289518414903e-12 	101324.9999999916
-0.2740240240240244 	300.0000000000309 	3.428062390826031e-12 	101324.9999999916
-0.2715215215215219 	300.0000000000144 	3.486217081707274e-12 	101324.9999999916
-0.2690190190190194 	299.9999999999442 	2.792893578862767e-12 	101324.9999999915
-0.2665165165165169 	299.9999999999963 	3.21024653593477e-12 	101324.9999999915
-0.2640140140140144 	299.9999999999692 	1.747702290015019e-12 	101324.9999999915
-0.2615115115115119 	299.9999999999989 	3.396554642925461e-12 	101324.9999999914
-0.2590090090090094 	299.9999999999379 	1.208150665867076e-12 	101324.9999999918
-0.2565065065065068 	299.9999999999934 	2.058026534204253e-12 	101324.9999999915
-0.2540040040040044 	300.0000000000002 	2.001879988384971e-12 	101324.9999999914
-0.2515015015015019 	300.0000000000366 	1.784963531671067e-12 	101324.9999999917
-0.2489989989989994 	300.0000000000443 	4.479863105825211e-12 	101324.9999999918
-0.2464964964964968 	299.9999999999923 	2.786476070264806e-12 	101324.9999999916
-0.2439939939939944 	299.9999999999989 	6.436361417011171e-12 	101324.9999999915
-0.2414914914914919 	299.999999999975 	2.448362116495157e-12 	101324.9999999916
-0.2389889889889893 	300.0000000000024 	6.784248046020594e-12 	101324.9999999916
-0.2364864864864869 	300.0000000000229 	2.821737098180289e-12 	101324.9999999916
-0.2339839839839843 	299.9999999999289 	6.070030515488324e-12 	101324.9999999915
-0.2314814814814819 	299.9999999999826 	1.422109064120361e-12 	101324.9999999917
-0.2289789789789792 	299.9999999999256 	4.671859369843681e-12 	101324.9999999916
-0.2264764764764769 	299.9999999999487 	2.054486859881004e-12 	101324.9999999917
-0.2239739739739743 	299.9999999999627 	4.50060469262265e-12 	101324.9999999918
-0.2214714714714718 	299.9999999999433 	3.301814250860836e-12 	101324.9999999919
-0.2189689689689693 	299.9999999999749 	2.408015673540936e-12 	101324.999999992
-0.2164664664664669 	299.9999999999815 	3.375579398839274e-12 	101324.9999999917
-0.2139639639639643 	299.9999999999318 	2.212538783469133e-12 	101324.9999999913
-0.2114614614614618 	299.9999999999742 	3.367266996698627e-12 	101324.9999999913
-0.2089589589589593 	299.9999999999933 	3.175189047202061e-12 	101324.9999999911
-0.2064564564564568 	299.9999999999915 	2.488267508261109e-12 	101324.9999999911
-0.2039539539539543 	299.9999999999145 	2.575286548324411e-12 	101324.9999999914
-0.2014514514514518 	299.9999999999511 	3.810590867001318e-13 	101324.9999999916
-0.1989489489489494 	299.9999999999766 	3.234484980015103e-12 	101324.9999999919
-0.1964464464464468 	299.9999999999955 	5.112548074687882e-13 	101324.9999999922
-0.1939439439439443 	299.9999999999854 	3.590941325416722e-12 	101324.9999999919
-0.1914414414414418 	299.9999999999189 	1.457198981629288e-12 	101324.9999999919
-0.1889389389389393 	300.0000000000064 	3.241226385810859e-12 	101324.9999999919
-0.1864364364364368 	300.0000000000395 	2.152501649929227e-12 	101324.999999992
-0.1839339339339343 	299.9999999999744 	3.001317036439002e-12 	101324.9999999919
-0.1814314314314318 	299.9999999999956 	1.928356520812171e-12 	101324.9999999919
-0.1789289289289293 	299.9999999999102 	2.998420527299194e-12 	101324.9999999919
-0.1764264264264268 	299.9999999999813 	8.433537931129374e-13 	101324.9999999919
-0.1739239239239243 	299.9999999999063 	3.035147096259761e-12 	101324.9999999918
-0.1714214214214218 	299.9999999999886 	8.432737164619508e-13 	101324.999999992
-0.1689189189189193 	299.9999999999592 	4.161619266018428e-12 	101324.9999999922
-0.1664164164164168 	300.000000000009 	2.617313161098933e-12 	101324.9999999921
-0.1639139139139143 	299.999999999991 	4.95475892369163e-12 	101324.9999999921
-0.1614114114114118 	300.0000000000318 	3.69032274904433e-12 	101324.9999999921
-0.1589089089089093 	299.9999999999959 	7.60367867882292e-12 	101324.9999999922
-0.1564064064064068 	299.9999999999886 	4.285236390163057e-12 	101324.9999999923
-0.1539039039039043 	299.9999999999928 	7.304767396780171e-12 	101324.9999999928
-0.1514014014014018 	300.0000000000249 	4.43325729430204e-12 	101324.9999999927
-0.1488988988988993 	299.9999999999957 	6.102632787203315e-12 	101324.9999999928
-0.1463963963963968 	300.0000000000053 	3.40470301267987e-12 	101324.999999993
-0.1438938938938943 	299.9999999999554 	5.3462849563757e-12 	101324.9999999929
-0.1413913913913918 	299.999999999932 	2.292906628141214e-12 	101324.9999999928
-0.1388888888888893 	299.9999999999815 	3.032156260300866e-12 	101324.9999999926
-0.1363863863863868 	299.9999999999001 	1.402755227855036e-12 	101324.9999999926
-0.1338838838838843 	299.9999999999258 	1.805248105996427e-12 	101324.9999999926
-0.1313813813813818 	299.9999999999944 	9.023009397016195e-13 	101324.9999999926
-0.1288788788788793 	299.999999999974 	2.047921960295197e-12 	101324.9999999927
-0.1263763763763768 	299.9999999999727 	8.723722525411556e-13 	101324.9999999929
-0.1238738738738743 	299.9999999999273 	2.038022455103983e-12 	101324.9999999929
-0.1213713713713717 	299.9999999999823 	1.163485956527491e-12 	101324.9999999927
-0.1188688688688693 	300.0000000000099 	4.470267521676229e-12 	101324.9999999929
-0.1163663663663668 	299.9999999999112 	5.475907460816286e-13 	101324.9999999926
-0.1138638638638643 	299.9999999999916 	5.226612748651199e-12 	101324.9999999923
-0.1113613613613618 	299.9999999999853 	4.173930451384023e-13 	101324.9999999921
-0.1088588588588592 	299.9999999999764 	5.33791392618704e-12 	101324.9999999921
-0.1063563563563568 	299.9999999999511 	6.214352300993357e-13 	101324.9999999919
-0.1038538538538543 	299.9999999999766 	4.745678775393966e-12 	101324.999999992
-0.1013513513513517 	300.0000000000161 	6.346598354008423e-13 	101324.9999999919
-0.09884884884884926 	299.9999999999405 	4.097166588836854e-12 	101324.9999999919
-0.09634634634634676 	299.9999999999049 	8.691636477336776e-13 	101324.9999999921
-0.09384384384384425 	299.9999999999332 	2.287660572736927e-12 	101324.9999999921
-0.09134134134134177 	300.0000000000241 	4.689354030801583e-13 	101324.9999999922
-0.08883883883883925 	300.0000000000066 	2.333071063179864e-12 	101324.9999999921
-0.08633633633633674 	299.999999999957 	5.154791503820782e-13 	101324.999999992
-0.08383383383383426 	300.0000000000087 	7.472733383956823e-13 	101324.9999999923
-0.08133133133133173 	299.9999999999641 	1.55961536981972e-12 	101324.9999999921
-0.07882882882882926 	299.9999999998954 	2.310249325641889e-12 	101324.9999999923
-0.07632632632632676 	299.9999999999614 	2.309791253310028e-12 	101324.999999992
-0.07382382382382424 	299.9999999999003 	2.20089397290586e-12 	101324.9999999916
-0.07132132132132173 	300.0000000000144 	2.267919736760413e-12 	101324.9999999912
-0.06881881881881925 	299.9999999999687 	2.921175805633202e-12 	101324.9999999913
-0.06631631631631671 	299.9999999999029 	2.819954873460618e-12 	101324.9999999916
-0.06381381381381425 	299.9999999999583 	2.90452625459115e-12 	101324.9999999917
-0.06131131131131173 	299.9999999999594 	3.272785194092503e-12 	101324.9999999921
-0.05880880880880923 	299.9999999999177 	2.843134745489839e-12 	101324.9999999924
-0.05630630630630672 	299.9999999999745 	2.766938358208369e-12 	101324.9999999924
-0.05380380380380424 	300.0000000000164 	2.866550917669893e-12 	101324.9999999923
-0.05130130130130173 	300.0000000000134 	3.29523228639558e-12 	101324.9999999923
-0.04879879879879922 	299.9999999999438 	3.333318951268932e-12 	101324.9999999923
-0.04629629629629672 	299.9999999999335 	2.409030400175816e-12 	101324.9999999923
-0.04379379379379422 	299.9999999999207 	2.782542183596957e-12 	101324.9999999923
-0.04129129129129173 	299.9999999999835 	2.139662390369683e-12 	101324.9999999922
-0.03878878878878922 	299.9999999999877 	2.681634132960152e-12 	101324.9999999918
-0.03628628628628671 	299.9999999999857 	1.967800832695689e-12 	101324.9999999918
-0.03378378378378422 	299.9999999999263 	2.128619011434295e-12 	101324.9999999917
-0.03128128128128172 	299.9999999999647 	1.390909554650871e-12 	101324.9999999919
-0.02877877877877922 	299.9999999999642 	1.647729553433506e-12 	101324.9999999921
-0.0262762762762767 	299.9999999999077 	1.076317374104961e-12 	101324.9999999923
-0.02377377377377422 	300.0000000000184 	1.560626709797828e-12 	101324.9999999926
-0.0212712712712717 	299.9999999999096 	1.24337189892948e-12 	101324.9999999922
-0.01876876876876921 	299.9999999999643 	4.785330333035981e-13 	101324.999999992
-0.01626626626626671 	300.0000000000121 	1.001934412937288e-12 	101324.9999999917
-0.0137637637637642 	299.9999999999669 	7.210328293952619e-13 	101324.9999999918
-0.0112612612612617 	300.0000000000192 	6.364824301152703e-13 	101324.9999999918
-0.008758758758759198 	299.9999999999969 	3.979161095851e-13 	101324.9999999918
-0.006256256256256697 	299.9999999998912 	4.557645908103628e-13 	101324.9999999921
-0.003753753753754195 	299.9999999999574 	1.395480114337347e-13 	101324.9999999925
-0.001251251251251693 	299.9999999999319 	5.191495634564394e-13 	101324.9999999925
0.00125125125125081 	299.9999999999573 	1.402598033625148e-12 	101324.9999999924
0.003753753753753312 	299.9999999999623 	1.20605728371347e-12 	101324.9999999923
0.006256256256255817 	299.9999999998984 	1.621898060297425e-12 	101324.999999992
0.008758758758758317 	299.9999999999832 	1.132822438041258e-12 	101324.9999999923
0.01126126126126082 	299.9999999999991 	1.126307544670993e-12 	101324.9999999925
0.01376376376376332 	299.9999999999739 	1.375733023597081e-12 	101324.9999999925
0.01626626626626582 	300.0000000000108 	1.197619509069847e-12 	101324.9999999925
0.01876876876876833 	299.9999999999566 	1.095538964803605e-12 	101324.9999999923
0.02127127127127083 	299.999999999973 	9.360174080313306e-13 	101324.9999999926
0.02377377377377332 	299.9999999999952 	7.74303923311364e-13 	101324.9999999927
0.02627627627627583 	299.9999999999048 	3.549812368136244e-13 	101324.9999999926
0.02877877877877833 	300.0000000000063 	4.374669318109707e-13 	101324.9999999921
0.03128128128128083 	299.9999999999513 	9.955139637884721e-14 	101324.999999992
0.03378378378378333 	299.9999999999061 	8.073404849424662e-13 	101324.999999992
0.03628628628628584 	299.9999999999705 	6.800822226912886e-13 	101324.999999992
0.03878878878878834 	299.9999999999836 	2.194602792633546e-13 	101324.9999999921
0.04129129129129084 	299.9999999999797 	2.525277713493454e-13 	101324.9999999919
0.04379379379379333 	299.9999999999548 	4.381574533188756e-15 	101324.9999999915
0.04629629629629585 	299.9999999998927 	2.220147574964939e-13 	101324.9999999916
0.04879879879879834 	299.9999999999597 	1.233301964079248e-12 	101324.9999999916
0.05130130130130085 	300.0000000000119 	1.059295860963022e-12 	101324.9999999915
0.05380380380380335 	300.0000000000195 	1.222090360931131e-12 	101324.9999999915
0.05630630630630584 	299.9999999999953 	1.142303388131597e-12 	101324.9999999913
0.05880880880880836 	299.9999999999246 	1.567551065403141e-12 	101324.9999999914
0.06131131131131085 	299.9999999999662 	1.670825930949194e-12 	101324.9999999915
0.06381381381381336 	299.9999999999649 	2.089548740935238e-12 	101324.9999999914
0.06631631631631586 	299.9999999998992 	1.859491752071432e-12 	101324.9999999913
0.06881881881881835 	299.9999999999594 	2.54250301235686e-12 	101324.9999999915
0.07132132132132088 	299.9999999999838 	2.098372218967146e-12 	101324.9999999913
0.07382382382382337 	299.9999999999041 	3.187850057330158e-12 	101324.9999999912
0.07632632632632587 	299.9999999999686 	3.628692994599264e-12 	101324.9999999911
0.07882882882882837 	299.9999999999395 	3.776225193870073e-12 	101324.999999991
0.08133133133133086 	299.9999999999771 	3.372841981196634e-12 	101324.9999999912
0.08383383383383337 	299.999999999985 	2.603956494436852e-12 	101324.9999999915
0.08633633633633589 	299.9999999999077 	2.759807262084378e-12 	101324.9999999917
0.08883883883883838 	300.0000000000038 	3.658960700923652e-12 	101324.9999999916
0.09134134134134086 	299.99999999998 	3.088582083927363e-12 	101324.9999999912
0.09384384384384339 	299.9999999998965 	3.066068608717442e-12 	101324.9999999912
0.09634634634634588 	299.9999999999662 	2.846380822353038e-12 	101324.9999999913
0.09884884884884838 	299.9999999999783 	2.890728602951288e-12 	101324.9999999913
0.1013513513513509 	300.0000000000152 	2.868253425340009e-12 	101324.9999999911
0.1038538538538534 	299.9999999999577 	2.754594409618066e-12 	101324.9999999911
0.1063563563563559 	300.0000000000047 	2.855663594593915e-12 	101324.9999999915
0.1088588588588584 	300.0000000000244 	2.293345349668551e-12 	101324.9999999912
0.1113613613613609 	299.9999999999251 	2.590229113412439e-12 	101324.9999999914
0.1138638638638634 	299.9999999999499 	2.923829656065404e-12 	101324.9999999913
0.1163663663663659 	299.9999999999515 	3.177503581729594e-12 	101324.9999999916
0.1188688688688684 	299.9999999999766 	3.515039970186522e-12 	101324.9999999919
0.1213713713713709 	300.0000000000009 	2.589819141275132e-12 	101324.9999999917
0.1238738738738734 	299.9999999999339 	2.686772227957753e-12 	101324.9999999916
0.1263763763763759 	299.9999999999841 	2.282622211147644e-12 	101324.9999999918
0.1288788788788784 	299.9999999999862 	2.707748568539646e-12 	101324.9999999918
0.1313813813813809 	299.9999999999851 	2.727460981971893e-12 	101324.9999999918
0.1338838838838834 	299.9999999999785 	3.431308084582212e-12 	101324.9999999922
0.1363863863863859 	300.0000000000162 	3.019943844021686e-12 	101324.9999999922
0.1388888888888884 	300.0000000000387 	3.350625620202814e-12 	101324.999999992
0.1413913913913909 	300.0000000000056 	2.629781126304616e-12 	101324.9999999921
0.1438938938938934 	299.9999999999932 	3.111751378990259e-12 	101324.9999999917
0.1463963963963959 	299.999999999958 	2.830291575496922e-12 	101324.9999999919
0.1488988988988985 	299.9999999999163 	4.878584614771228e-12 	101324.9999999918
0.1514014014014009 	299.9999999999691 	3.618119177390428e-12 	101324.999999992
0.1539039039039035 	299.9999999999675 	5.703451908833644e-12 	101324.999999992
0.1564064064064059 	299.9999999999346 	3.67685271874304e-12 	101324.9999999919
0.1589089089089084 	299.9999999999761 	7.189798188095278e-12 	101324.9999999919
0.1614114114114109 	299.9999999999713 	4.378228817668757e-12 	101324.9999999917
0.1639139139139134 	299.9999999999135 	5.359406446899557e-12 	101324.9999999918
0.166416416416416 	300.0000000000075 	3.759676751185911e-12 	101324.9999999919
0.1689189189189185 	300.0000000000267 	3.422213964553854e-12 	101324.9999999915
0.1714214214214209 	300.0000000000007 	4.494714250897171e-12 	101324.9999999911
0.1739239239239235 	299.999999999987 	2.402214841486574e-12 	101324.9999999911
0.1764264264264259 	299.9999999999729 	4.640601343729358e-12 	101324.9999999915
0.1789289289289284 	300.0000000000039 	1.816112296764016e-12 	101324.9999999916
0.181431431431431 	299.9999999999648 	4.188910494702836e-12 	101324.9999999922
0.1839339339339334 	299.9999999999708 	1.944830714928568e-12 	101324.9999999921
0.186436436436436 	299.9999999999335 	3.812471167751744e-12 	101324.9999999924
0.1889389389389385 	299.9999999999774 	3.461654753943934e-12 	101324.9999999925
0.191441441441441 	299.999999999979 	3.557251915764071e-12 	101324.9999999928
0.1939439439439434 	299.999999999927 	4.879392175620172e-12 	101324.9999999928
0.196446446446446 	299.9999999999562 	3.83214729089578e-12 	101324.9999999926
0.1989489489489485 	299.9999999999698 	6.316466777555718e-12 	101324.9999999926
0.2014514514514509 	299.9999999999842 	3.974959650449586e-12 	101324.9999999923
0.2039539539539535 	299.9999999999977 	4.87571909744898e-12 	101324.999999992
0.2064564564564559 	299.9999999999547 	3.485327091706463e-12 	101324.999999992
0.2089589589589585 	299.9999999999892 	4.186730837161197e-12 	101324.9999999921
0.211461461461461 	299.999999999932 	4.754306081443642e-12 	101324.9999999922
0.2139639639639635 	299.9999999999787 	4.554141095195828e-12 	101324.9999999921
0.2164664664664659 	299.9999999999998 	4.850240490743769e-12 	101324.9999999917
0.2189689689689684 	299.9999999999988 	2.635122691789632e-12 	101324.9999999918
0.221471471471471 	299.9999999999933 	4.250626731582354e-12 	101324.999999992
0.2239739739739735 	299.9999999999611 	1.485085494460577e-12 	101324.999999992
0.226476476476476 	299.9999999999794 	2.624593682421139e-12 	101324.999999992
0.2289789789789785 	299.9999999999935 	1.472290813613658e-12 	101324.9999999919
0.231481481481481 	299.9999999999864 	1.651247199052985e-12 	101324.9999999919
0.2339839839839835 	299.999999999982 	1.918829582934406e-12 	101324.9999999917
0.236486486486486 	300.0000000000281 	7.068980418468647e-13 	101324.9999999917
0.2389889889889885 	300.0000000000039 	2.260247301349253e-12 	101324.9999999917
0.241491491491491 	299.9999999999261 	3.74565697565985e-13 	101324.9999999915
0.2439939939939935 	299.9999999999749 	3.281655320069152e-12 	101324.9999999915
0.246496496496496 	299.9999999999956 	6.716802044115791e-13 	101324.9999999912
0.2489989989989985 	300.0000000000361 	2.802746562348664e-12 	101324.9999999912
0.251501501501501 	300.0000000000305 	1.641634150235125e-12 	101324.9999999913
0.2540040040040035 	299.9999999999944 	1.596406871860158e-12 	101324.9999999912
0.256506506506506 	300.0000000000292 	1.756704759963302e-12 	101324.9999999911
0.2590090090090086 	299.9999999999211 	5.427199577157865e-13 	101324.9999999913
0.261511511511511 	299.9999999999988 	2.749905054166076e-12 	101324.9999999912
0.2640140140140135 	299.9999999999901 	8.887051330593498e-13 	101324.9999999911
0.2665165165165161 	299.9999999999348 	1.738439056443255e-12 	101324.9999999911
0.2690190190190185 	300.00000000001 	7.931652069681503e-13 	101324.999999991
0.271521521521521 	300.0000000000167 	1.180157744817908e-12 	101324.9999999911
0.2740240240240235 	300.0000000000183 	1.505499434337537e-12 	101324.999999991
0.276526526526526 	300.0000000000098 	8.631948902598501e-13 	101324.9999999913
0.2790290290290286 	299.9999999999475 	2.285490845064321e-12 	101324.9999999916
0.281531531531531 	299.9999999999341 	1.371184115889975e-12 	101324.9999999917
0.2840340340340335 	299.9999999999833 	3.215828512016689e-12 	101324.9999999915
0.2865365365365361 	299.9999999999633 	1.630081997679196e-12 	101324.9999999912
0.2890390390390385 	300.0000000000015 	1.668389239706266e-12 	101324.9999999912
0.291541541541541 	300.0000000000007 	1.071890918596599e-12 	101324.9999999909
0.2940440440440436 	299.9999999999926 	2.022936833245654e-13 	101324.9999999911
0.296546546546546 	299.9999999999926 	1.48344569629157e-12 	101324.9999999914
0.2990490490490486 	299.9999999999432 	1.796209444420573e-12 	101324.9999999915
0.3015515515515511 	300.0000000000304 	3.763664291680947e-12 	101324.9999999913
0.3040540540540535 	299.9999999999954 	2.507559975114703e-12 	101324.9999999913
0.3065565565565562 	299.9999999999966 	4.034628696326859e-12 	101324.9999999914
0.3090590590590585 	299.9999999999917 	2.150224704208297e-12 	101324.9999999915
0.3115615615615611 	299.9999999999487 	3.895003461735234e-12 	101324.9999999915
0.3140640640640635 	300.0000000000092 	5.776468480876493e-13 	101324.9999999914
0.316566566566566 	299.9999999999965 	3.283814250585387e-12 	101324.9999999914
0.3190690690690687 	299.9999999999578 	1.066889745570542e-12 	101324.9999999911
0.3215715715715711 	300.0000000000115 	3.476345045976624e-12 	101324.9999999912
0.3240740740740735 	299.9999999999937 	1.28811500607802e-12 	101324.9999999912
0.326576576576576 	299.9999999999039 	3.147743484421408e-12 	101324.9999999912
0.3290790790790786 	300.0000000000104 	1.637384757429205e-12 	101324.9999999914
0.3315815815815811 	300.0000000000323 	2.339725388712533e-12 	101324.9999999913
0.3340840840840836 	299.9999999999894 	1.26304536512142e-12 	101324.9999999912
0.3365865865865861 	300.0000000000477 	2.202231805620086e-12 	101324.9999999909
0.3390890890890886 	300.000000000043 	3.98721741823394e-13 	101324.9999999906
0.3415915915915911 	299.999999999997 	1.506443124717802e-12 	101324.9999999905
0.3440940940940935 	299.9999999999541 	6.452149875204359e-13 	101324.9999999904
0.3465965965965962 	300.0000000000321 	1.373727442738442e-12 	101324.9999999906
0.3490990990990985 	300.0000000000248 	6.691829555827433e-13 	101324.9999999905
0.3516016016016011 	299.9999999999853 	2.615187327311093e-13 	101324.9999999908
0.3541041041041035 	300.0000000000008 	2.955774127116903e-13 	101324.9999999907
0.3566066066066061 	299.9999999999626 	9.105383593080311e-13 	101324.9999999907
0.3591091091091085 	299.9999999999268 	1.055711876938997e-12 	101324.9999999906
0.3616116116116112 	299.9999999999457 	1.564131807425226e-12 	101324.9999999907
0.3641141141141137 	299.9999999999374 	2.500352727383875e-12 	101324.9999999908
0.3666166166166161 	299.9999999999246 	1.773031241465595e-12 	101324.9999999912
0.3691191191191185 	300.0000000000323 	3.416448706005068e-12 	101324.9999999914
0.371621621621621 	300.0000000000099 	1.893297288993578e-12 	101324.9999999913
0.3741241241241237 	300.0000000000466 	2.877709133608384e-12 	101324.9999999912
0.3766266266266261 	300.0000000000297 	1.031196620740767e-12 	101324.9999999911
0.3791291291291286 	299.9999999999874 	1.818897621347192e-12 	101324.9999999908
0.3816316316316311 	299.9999999999232 	1.036861831858642e-12 	101324.9999999907
0.3841341341341336 	300.0000000000076 	2.250679753644391e-12 	101324.9999999904
0.3866366366366362 	299.9999999999978 	8.225724404937692e-13 	101324.9999999903
0.3891391391391387 	299.9999999999613 	2.990519471372556e-12 	101324.9999999904
0.391641641641641 	299.9999999999916 	2.194717719404458e-12 	101324.9999999904
0.3941441441441436 	300.0000000000046 	2.638883899392179e-12 	101324.9999999904
0.3966466466466462 	299.9999999999966 	1.353431722196652e-12 	101324.9999999904
0.3991491491491486 	299.9999999999475 	1.289609422290119e-12 	101324.9999999905
0.4016516516516512 	299.9999999999171 	8.460862572577874e-13 	101324.9999999906
0.4041541541541536 	299.9999999999605 	1.07690440670267e-12 	101324.9999999908
0.4066566566566561 	299.999999999952 	1.062095509537487e-12 	101324.9999999909
0.4091591591591587 	299.999999999987 	7.643061577728712e-13 	101324.9999999911
0.4116616616616612 	299.9999999999989 	1.805724979989787e-12 	101324.9999999912
0.4141641641641635 	300.0000000000374 	1.472368098137005e-12 	101324.9999999913
0.4166666666666662 	299.9999999999972 	1.205681136452455e-12 	101324.9999999911
0.4191691691691687 	299.9999999999491 	1.895481955785795e-12 	101324.9999999911
0.421671671671671 	300.0000000000083 	1.361482115606657e-12 	101324.9999999909
0.4241741741741737 	299.9999999999787 	2.341341972318446e-12 	101324.9999999907
0.4266766766766761 	299.9999999999559 	2.341694052785072e-12 	101324.9999999905
0.4291791791791785 	300.0000000000152 	3.372444850914502e-12 	101324.9999999906
0.4316816816816812 	300.0000000000078 	2.697657416735434e-12 	101324.9999999908
0.4341841841841836 	299.9999999999853 	2.454908643663139e-12 	101324.9999999908
0.4366866866866862 	299.9999999999268 	2.176352883653773e-12 	101324.999999991
0.4391891891891885 	299.9999999999891 	2.131998333194586e-12 	101324.9999999908
0.4416916916916913 	299.9999999999881 	9.849691188712404e-13 	101324.9999999908
0.4441941941941936 	299.9999999999893 	2.108676509460324e-12 	101324.9999999908
0.4466966966966961 	299.9999999999215 	3.050611807489931e-13 	101324.9999999907
0.4491991991991987 	299.9999999999852 	4.509499624962609e-13 	101324.9999999908
0.4517017017017012 	299.9999999999857 	2.177149072609412e-13 	101324.9999999908
0.4542042042042035 	299.9999999999966 	3.323656534094201e-13 	101324.9999999911
0.4567067067067062 	300.0000000000011 	1.909523215870653e-13 	101324.9999999912
0.4592092092092087 	299.9999999999339 	6.265884093356197e-13 	101324.9999999913
0.4617117117117112 	300.0000000000239 	3.929000138115872e-13 	101324.9999999914
0.4642142142142137 	299.9999999999686 	3.956027962197611e-13 	101324.9999999911
0.4667167167167162 	299.9999999999939 	3.08550018183487e-13 	101324.999999991
0.4692192192192187 	299.9999999999605 	7.823837816581491e-13 	101324.999999991
0.4717217217217212 	300.0000000000132 	9.602534495399345e-13 	101324.9999999912
0.4742242242242236 	299.9999999999686 	1.32556899537962e-12 	101324.9999999911
0.4767267267267262 	299.9999999999623 	6.359219983395074e-13 	101324.9999999911
0.4792292292292287 	300.0000000000151 	4.83998566174125e-13 	101324.9999999913
0.4817317317317312 	300.0000000000297 	5.086876835673334e-13 	101324.9999999915
0.4842342342342336 	299.9999999999833 	1.527817358616563e-13 	101324.9999999915
0.4867367367367362 	299.999999999959 	7.171493487273811e-13 	101324.9999999918
0.4892392392392387 	300.0000000000288 	1.059531760829144e-12 	101324.999999992
0.4917417417417412 	300.0000000000057 	1.429594436510634e-12 	101324.9999999921
0.4942442442442437 	299.9999999999174 	7.783529587991957e-13 	101324.9999999919
0.4967467467467462 	299.9999999999403 	1.51864454990373e-12 	101324.9999999917
0.4992492492492487 	299.999999999928 	1.004459800500297e-12 	101324.9999999918
0.5017517517517511 	299.9999999999596 	1.78451539457341e-13 	101324.9999999918
0.5042542542542537 	299.9999999999668 	1.044394596967449e-13 	101324.9999999917
0.5067567567567562 	299.9999999999509 	2.345173016635745e-13 	101324.9999999917
0.5092592592592589 	299.9999999999718 	9.951645505965087e-13 	101324.999999992
0.5117617617617611 	299.999999999965 	1.331591554186766e-12 	101324.9999999919
0.5142642642642637 	299.9999999999857 	1.72415608538304e-12 	101324.9999999918
0.5167667667667663 	299.9999999999736 	2.454625476987927e-12 	101324.9999999917
0.5192692692692688 	299.9999999999275 	3.472562919096922e-12 	101324.9999999917
0.5217717717717714 	299.9999999999471 	3.513110218137552e-12 	101324.9999999914
0.5242742742742736 	299.9999999999498 	2.892844290217651e-12 	101324.9999999912
0.5267767767767763 	299.9999999999626 	2.967714443200854e-12 	101324.999999991
0.5292792792792789 	299.9999999999396 	1.882534470136734e-12 	101324.999999991
0.5317817817817813 	299.9999999999202 	2.187232564522446e-12 	101324.9999999909
0.5342842842842837 	300.0000000000132 	1.430275468811712e-12 	101324.9999999907
0.5367867867867864 	300.0000000000003 	8.848636552997486e-13 	101324.9999999907
0.5392892892892888 	299.9999999999634 	1.697352337633902e-12 	101324.9999999908
0.5417917917917912 	300.0000000000072 	4.35854720283327e-13 	101324.9999999909
0.5442942942942938 	299.9999999999873 	1.27562276107166e-12 	101324.9999999908
0.5467967967967964 	299.9999999999555 	7.893506382028945e-13 	101324.9999999908
0.5492992992992988 	299.9999999999485 	1.059677549725619e-12 	101324.9999999909
0.5518018018018012 	299.9999999999422 	7.87022083459163e-13 	101324.9999999911
0.5543043043043039 	300.0000000000201 	9.026328181302612e-13 	101324.9999999912
0.5568068068068063 	299.9999999999935 	8.891424697758034e-13 	101324.9999999912
0.5593093093093087 	299.9999999999164 	1.370031336173378e-12 	101324.9999999913
0.5618118118118114 	299.9999999999657 	7.493174956346299e-13 	101324.9999999912
0.5643143143143137 	299.9999999999533 	7.865340641848252e-13 	101324.9999999912
0.5668168168168163 	299.9999999999919 	3.038759924068662e-13 	101324.9999999915
0.5693193193193188 	300.0000000000302 	4.110014474642346e-13 	101324.9999999916
0.5718218218218213 	300.0000000000243 	9.867202540858312e-13 	101324.9999999916
0.5743243243243239 	300.0000000000059 	1.236442183880251e-12 	101324.9999999914
0.5768268268268262 	300.0000000000017 	1.716977694889637e-12 	101324.9999999914
0.5793293293293288 	299.9999999999491 	2.547779478913619e-12 	101324.9999999914
0.5818318318318314 	299.9999999999267 	2.817246973446587e-12 	101324.9999999916
0.5843343343343338 	299.9999999999841 	2.67925508873991e-12 	101324.9999999916
0.5868368368368363 	299.9999999999798 	2.650773365615846e-12 	101324.9999999914
0.5893393393393387 	299.9999999999564 	1.836389779096817e-12 	101324.9999999916
0.5918418418418413 	299.9999999999444 	1.938357228265168e-12 	101324.9999999915
0.5943443443443439 	300.0000000000088 	1.803976204463785e-12 	101324.9999999916
0.5968468468468463 	300.0000000000082 	1.285912537217474e-12 	101324.9999999914
0.5993493493493487 	300.0000000000275 	1.320026077450494e-12 	101324.9999999915
0.6018518518518514 	299.9999999999842 	1.107158389085691e-12 	101324.9999999915
0.6043543543543537 	299.9999999999953 	6.953539486620881e-13 	101324.9999999917
0.6068568568568564 	299.9999999999852 	1.563819326867156e-12 	101324.9999999919
0.6093593593593587 	299.9999999999407 	7.049290965266935e-13 	101324.9999999922
0.6118618618618614 	299.9999999999343 	1.612973467324056e-12 	101324.999999992
0.6143643643643638 	300.0000000000236 	1.290091627658343e-12 	101324.9999999918
0.6168668668668662 	299.9999999999931 	2.122565754161223e-12 	101324.9999999919
0.6193693693693688 	299.9999999999611 	9.30801516798967e-13 	101324.9999999921
0.6218718718718714 	299.9999999999687 	2.286281856477025e-12 	101324.9999999922
0.6243743743743737 	299.999999999942 	7.383336221707161e-13 	101324.9999999921
0.6268768768768762 	299.9999999999355 	1.74000803263819e-12 	101324.999999992
0.629379379379379 	299.9999999999595 	6.166814290453827e-13 	101324.9999999918
0.6318818818818812 	299.9999999999853 	1.182298733203054e-12 	101324.9999999917
0.6343843843843838 	300.0000000000157 	1.168391191653159e-12 	101324.9999999918
0.6368868868868864 	299.9999999999822 	1.088099391171982e-12 	101324.9999999919
0.6393893893893888 	299.9999999999314 	2.64069017828702e-12 	101324.9999999919
0.6418918918918912 	300.0000000000072 	2.604347822048959e-12 	101324.9999999921
0.6443943943943939 	299.9999999999875 	3.456912972813856e-12 	101324.9999999922
0.6468968968968963 	299.9999999999853 	3.051876157000435e-12 	101324.9999999921
0.6493993993993988 	299.9999999999755 	2.944200729291978e-12 	101324.9999999921
0.6519019019019012 	299.9999999999816 	2.757726771896426e-12 	101324.999999992
0.6544044044044038 	299.9999999999172 	2.496138090330451e-12 	101324.9999999919
0.6569069069069065 	299.9999999999548 	2.490272561953913e-12 	101324.9999999921
0.6594094094094087 	299.9999999999653 	1.77711891147013e-12 	101324.9999999922
0.6619119119119113 	299.999999999959 	1.839055512409618e-12 	101324.9999999925
0.664414414414414 	300.0000000000008 	1.396444856609384e-12 	101324.9999999926
0.6669169169169162 	300.0000000000207 	1.183050803539444e-12 	101324.9999999924
0.6694194194194188 	299.9999999999899 	1.283834393064831e-12 	101324.9999999922
0.6719219219219214 	299.9999999999293 	9.341178037798765e-13 	101324.9999999923
0.674424424424424 	299.9999999999754 	8.571429946116571e-13 	101324.9999999923
0.6769269269269262 	299.9999999999314 	1.218666422555828e-12 	101324.9999999926
0.679429429429429 	300.0000000000053 	6.768263367576066e-13 	101324.9999999927
0.6819319319319311 	299.9999999999835 	1.408524682711004e-12 	101324.9999999927
0.6844344344344341 	299.9999999999923 	6.519161174943095e-13 	101324.9999999927
0.686936936936936 	299.9999999999877 	8.467918329358389e-13 	101324.9999999925
0.6894394394394392 	299.9999999999857 	4.955040721940719e-13 	101324.9999999923
0.6919419419419413 	299.9999999999861 	1.042655353142359e-12 	101324.9999999921
0.694444444444444 	299.9999999999442 	1.019598446771278e-12 	101324.9999999924
0.6969469469469463 	299.9999999999377 	8.961746216266224e-13 	101324.9999999927
0.6994494494494489 	299.9999999999311 	1.757179940325251e-12 	101324.9999999928
0.7019519519519515 	299.9999999999868 	1.259417643473216e-12 	101324.9999999928
0.7044544544544538 	299.9999999999583 	2.349898507759827e-12 	101324.9999999928
0.7069569569569564 	299.9999999999957 	1.791112599165273e-12 	101324.9999999929
0.7094594594594589 	299.9999999999703 	2.197687568471521e-12 	101324.9999999927
0.7119619619619615 	299.9999999999233 	1.161687203039028e-12 	101324.9999999925
0.7144644644644638 	299.9999999999512 	1.512629134187668e-12 	101324.9999999922
0.7169669669669665 	299.99999999993 	7.794474451109879e-13 	101324.9999999919
0.7194694694694688 	299.9999999999877 	9.192329552886449e-13 	101324.9999999922
0.7219719719719715 	299.999999999987 	2.482617712095271e-13 	101324.9999999925
0.7244744744744737 	300.0000000000033 	8.642609287684898e-13 	101324.9999999926
0.7269769769769764 	299.9999999999925 	1.10397817702763e-12 	101324.9999999929
0.7294794794794791 	299.9999999999823 	8.058868198303617e-13 	101324.9999999933
0.7319819819819813 	299.9999999999841 	1.275926404033165e-12 	101324.9999999934
0.7344844844844839 	299.999999999932 	4.524622192551048e-13 	101324.9999999934
0.7369869869869864 	299.9999999999583 	1.199661564872828e-12 	101324.9999999935
0.739489489489489 	299.999999999945 	9.537652694955434e-13 	101324.9999999933
0.7419919919919914 	299.9999999999317 	9.312226963065114e-13 	101324.9999999932
0.7444944944944939 	299.9999999999799 	1.93133444166269e-12 	101324.9999999932
0.7469969969969963 	299.9999999999758 	1.856293552719966e-12 	101324.9999999934
0.7494994994994989 	299.9999999999537 	2.448056485405299e-12 	101324.9999999934
0.7520020020020015 	299.9999999999771 	2.20498362680295e-12 	101324.9999999936
0.7545045045045039 	299.9999999999764 	2.499503950073908e-12 	101324.9999999935
0.7570070070070062 	299.9999999999503 	5.9568104034992e-13 	101324.9999999934
0.7595095095095092 	299.9999999999349 	1.639121039833139e-12 	101324.9999999933
0.7620120120120112 	300.0000000000047 	8.659187464480558e-13 	101324.9999999934
0.7645145145145138 	299.9999999999898 	1.440489955062836e-12 	101324.9999999935
0.7670170170170165 	299.9999999999383 	2.227121927162112e-12 	101324.9999999937
0.7695195195195191 	299.9999999999318 	1.48287852295719e-12 	101324.9999999939
0.7720220220220213 	299.9999999999396 	2.433826894663525e-12 	101324.9999999938
0.7745245245245239 	299.9999999999423 	9.581737642635183e-13 	101324.9999999939
0.7770270270270263 	299.9999999999747 	1.824332354933492e-12 	101324.999999994
0.779529529529529 	299.9999999999848 	1.096615126181209e-12 	101324.9999999941
0.7820320320320313 	299.9999999999761 	2.057931080638521e-12 	101324.999999994
0.784534534534534 	300.0000000000023 	1.889226730099837e-12 	101324.9999999938
0.7870370370370364 	299.9999999999966 	1.857649034791827e-12 	101324.9999999936
0.7895395395395389 	299.9999999999805 	2.61823899999573e-12 	101324.9999999935
0.7920420420420413 	299.9999999999732 	2.002802142695498e-12 	101324.9999999935
0.794544544544544 	299.9999999999773 	3.564194192011315e-12 	101324.9999999936
0.7970470470470463 	300.0000000000026 	1.797222267744665e-12 	101324.9999999936
0.799549549549549 	299.9999999999856 	3.68919560585889e-12 	101324.9999999936
0.8020520520520515 	299.9999999999943 	1.839935066341558e-12 	101324.9999999937
0.8045545545545539 	299.9999999999553 	3.699103975415457e-12 	101324.9999999936
0.8070570570570563 	299.9999999999886 	2.929203351395402e-12 	101324.9999999935
0.8095595595595589 	299.9999999999646 	3.921340001171688e-12 	101324.9999999934
0.8120620620620614 	299.9999999999388 	4.157799074104736e-12 	101324.9999999935
0.8145645645645638 	299.9999999999899 	3.712561369890579e-12 	101324.9999999935
0.8170670670670666 	299.9999999999894 	3.562987043220356e-12 	101324.9999999936
0.8195695695695689 	299.9999999999771 	1.928143837158058e-12 	101324.9999999939
0.8220720720720714 	299.9999999999509 	3.258879713988673e-12 	101324.9999999937
0.8245745745745739 	299.9999999999944 	1.465489032348823e-12 	101324.9999999936
0.8270770770770765 	299.999999999973 	3.034546385678223e-12 	101324.9999999937
0.8295795795795788 	299.9999999999569 	2.120961261690929e-12 	101324.9999999937
0.8320820820820815 	300.0000000000196 	2.658164036747556e-12 	101324.9999999937
0.834584584584584 	300.0000000000085 	2.074913129412675e-12 	101324.9999999938
0.8370870870870865 	299.999999999976 	2.400474667037992e-12 	101324.9999999942
0.8395895895895891 	299.9999999999385 	3.145999905775321e-12 	101324.9999999943
0.8420920920920915 	299.9999999999486 	3.089120404668111e-12 	101324.999999994
0.844594594594594 	299.9999999999488 	3.915986821481042e-12 	101324.999999994
0.8470970970970964 	299.9999999999644 	4.444322667579786e-12 	101324.999999994
0.8495995995995991 	299.9999999999877 	4.256530566970823e-12 	101324.9999999939
0.8521021021021015 	299.9999999999811 	4.273803436054574e-12 	101324.9999999939
0.8546046046046039 	299.9999999999835 	3.540608924251385e-12 	101324.9999999941
0.8571071071071066 	300.0000000000038 	4.167709325389123e-12 	101324.9999999942
0.8596096096096089 	299.9999999999652 	2.238254893157751e-12 	101324.9999999942
0.8621121121121116 	299.9999999999373 	4.39522854141021e-12 	101324.9999999943
0.8646146146146139 	299.9999999999906 	2.61576044273463e-12 	101324.9999999942
0.8671171171171166 	299.9999999999698 	3.979376837424356e-12 	101324.9999999942
0.8696196196196189 	299.9999999999467 	3.366405178172644e-12 	101324.9999999939
0.8721221221221216 	299.9999999999839 	3.855270282184786e-12 	101324.9999999937
0.874624624624624 	299.9999999999991 	3.73285952014623e-12 	101324.9999999937
0.8771271271271264 	300.0000000000003 	3.955011511456393e-12 	101324.999999994
0.879629629629629 	300.000000000006 	5.208827248411759e-12 	101324.9999999942
0.8821321321321317 	299.9999999999819 	4.844966147276238e-12 	101324.9999999944
0.8846346346346339 	299.9999999999301 	7.228484748487096e-12 	101324.9999999946
0.8871371371371364 	299.9999999999588 	5.448434013458508e-12 	101324.9999999946
0.8896396396396391 	299.999999999967 	7.338879115416404e-12 	101324.9999999946
0.8921421421421414 	299.9999999999712 	7.054952264292452e-12 	101324.9999999946
0.8946446446446441 	299.9999999999853 	7.772632899863823e-12 	101324.9999999947
0.8971471471471464 	299.9999999999969 	7.228411038137415e-12 	101324.9999999948
0.8996496496496489 	299.9999999999807 	7.298643513618673e-12 	101324.9999999949
0.9021521521521517 	299.9999999999695 	7.495667972003124e-12 	101324.9999999949
0.9046546546546541 	299.9999999999937 	6.21943480884067e-12 	101324.9999999948
0.9071571571571564 	299.9999999999594 	6.394032856468643e-12 	101324.9999999946
0.9096596596596589 	299.9999999999579 	6.64760954794632e-12 	101324.9999999946
0.9121621621621616 	300.0000000000042 	6.580795792051708e-12 	101324.9999999948
0.9146646646646639 	299.9999999999797 	6.603597632615059e-12 	101324.999999995
0.9171671671671666 	299.9999999999563 	6.232656689558888e-12 	101324.9999999951
0.9196696696696689 	300.0000000000019 	6.530685373721936e-12 	101324.9999999952
0.9221721721721714 	299.9999999999995 	4.844488445251189e-12 	101324.9999999953
0.9246746746746741 	299.9999999999516 	7.305969592776406e-12 	101324.9999999955
0.9271771771771765 	299.9999999999573 	5.718172460877453e-12 	101324.9999999953
0.9296796796796791 	299.999999999992 	7.222377359469888e-12 	101324.9999999951
0.9321821821821816 	299.9999999999711 	5.607827059199907e-12 	101324.9999999952
0.9346846846846838 	299.9999999999545 	6.494966270269596e-12 	101324.9999999951
0.9371871871871866 	300.000000000011 	5.982277697747164e-12 	101324.9999999951
0.9396896896896891 	300.0000000000094 	6.164314618703033e-12 	101324.9999999953
0.9421921921921914 	300.0000000000055 	6.11900375343063e-12 	101324.9999999955
0.9446946946946939 	299.9999999999726 	4.886149285748361e-12 	101324.9999999954
0.9471971971971965 	299.9999999999357 	7.15741524671187e-12 	101324.9999999954
0.9496996996996991 	299.9999999999675 	6.25213900566646e-12 	101324.9999999955
0.9522022022022016 	299.9999999999787 	8.064073663828794e-12 	101324.9999999956
0.9547047047047038 	299.9999999999765 	7.714287416096216e-12 	101324.9999999958
0.9572072072072064 	299.9999999999682 	8.881867920829998e-12 	101324.9999999958
0.9597097097097093 	299.9999999999739 	9.270825839613633e-12 	101324.9999999957
0.9622122122122114 	299.9999999999676 	9.750662438225315e-12 	101324.9999999953
0.964714714714714 	299.9999999999627 	1.092999799932014e-11 	101324.999999995
0.9672172172172167 	299.9999999999625 	1.009497842585612e-11 	101324.9999999946
0.969719719719719 	299.9999999999857 	1.082585771615388e-11 	101324.9999999945
0.9722222222222214 	299.9999999999854 	1.018942628306488e-11 	101324.9999999946
0.9747247247247239 	299.9999999999814 	1.025841288568684e-11 	101324.9999999946
0.9772272272272267 	300.0000000000059 	1.022192401357206e-11 	101324.9999999948
0.9797297297297292 	299.9999999999926 	1.014785612964627e-11 	101324.9999999949
0.9822322322322313 	299.9999999999927 	1.104927330342743e-11 	101324.9999999951
0.9847347347347344 	299.9999999999908 	9.76894572343764e-12 	101324.9999999953
0.9872372372372363 	299.9999999999556 	1.212254737324981e-11 	101324.9999999953
0.9897397397397389 	299.9999999999703 	1.057378108156229e-11 	101324.9999999952
0.9922422422422417 	299.9999999999546 	1.291136087843437e-11 	101324.999999995
0.9947447447447441 	299.9999999999666 	1.21061061153886e-11 	101324.9999999951
0.9972472472472468 	299.9999999999825 	1.255186991579092e-11 	101324.9999999952
0.999749749749749 	299.9999999999745 	1.13158362396516e-11 	101324.9999999952
1.002252252252252 	299.9999999999808 	1.140111982080414e-11 	101324.9999999953
1.004754754754754 	299.999999999992 	1.112719007476547e-11 	101324.9999999955
1.007257257257256 	299.9999999999727 	1.026295482909759e-11 	101324.9999999954
1.009759759759759 	299.9999999999638 	1.206121327962472e-11 	101324.9999999955
1.012262262262261 	299.9999999999626 	1.036682689613141e-11 	101324.9999999957
1.014764764764764 	299.9999999999399 	1.16464188100781e-11 	101324.9999999959
1.017267267267267 	299.9999999999318 	1.07079029820038e-11 	101324.999999996
1.019769769769769 	299.9999999999762 	1.167693847976511e-11 	101324.9999999961
1.022272272272272 	299.9999999999903 	1.133926890003147e-11 	101324.9999999961
1.024774774774774 	299.9999999999832 	1.155586556139959e-11 	101324.999999996
1.027277277277277 	299.9999999999811 	1.262521190009516e-11 	101324.9999999959
1.029779779779779 	300.0000000000098 	1.211471109829587e-11 	101324.999999996
1.032282282282282 	300.00000000001 	1.2950904883494e-11 	101324.9999999961
1.034784784784784 	299.9999999999994 	1.275604535596929e-11 	101324.9999999962
1.037287287287286 	299.999999999974 	1.353309169194909e-11 	101324.9999999963
1.039789789789789 	299.9999999999794 	1.358475831104202e-11 	101324.9999999964
1.042292292292291 	300.0000000000044 	1.370087420146439e-11 	101324.9999999966
1.044794794794794 	300.000000000015 	1.376291802500155e-11 	101324.9999999965
1.047297297297296 	300.0000000000288 	1.289750998348201e-11 	101324.9999999964
1.049799799799799 	299.9999999999876 	1.435847816871086e-11 	101324.9999999963
1.052302302302302 	299.9999999999601 	1.232556468591678e-11 	101324.9999999963
1.054804804804804 	299.9999999999459 	1.362705394096761e-11 	101324.9999999963
1.057307307307306 	299.9999999999335 	1.279689174792882e-11 	101324.9999999963
1.059809809809809 	299.9999999999653 	1.414233492383273e-11 	101324.9999999963
1.062312312312312 	299.9999999999606 	1.395013835252914e-11 	101324.999999996
1.064814814814814 	299.9999999999551 	1.473200002497203e-11 	101324.999999996
1.067317317317317 	299.9999999999351 	1.453086383286562e-11 	101324.9999999961
1.069819819819819 	299.9999999999411 	1.416729701773046e-11 	101324.9999999964
1.072322322322321 	299.9999999999961 	1.59112954695263e-11 	101324.9999999964
1.074824824824824 	300.0000000000065 	1.471323390772011e-11 	101324.9999999965
1.077327327327327 	300.0000000000237 	1.623886733102653e-11 	101324.9999999966
1.079829829829829 	300.0000000000364 	1.481643969656082e-11 	101324.9999999964
1.082332332332332 	300.0000000000055 	1.484840410305935e-11 	101324.9999999964
1.084834834834834 	299.9999999999814 	1.418307661043115e-11 	101324.9999999966
1.087337337337337 	299.9999999999494 	1.423531482754445e-11 	101324.9999999965
1.089839839839839 	299.9999999999436 	1.572902987851429e-11 	101324.9999999964
1.092342342342342 	299.9999999999794 	1.409336692065757e-11 	101324.9999999964
1.094844844844844 	299.9999999999777 	1.458393429971052e-11 	101324.9999999965
1.097347347347347 	299.9999999999509 	1.304361786391156e-11 	101324.9999999969
1.099849849849849 	299.9999999999425 	1.579034747508954e-11 	101324.9999999972
1.102352352352352 	299.9999999999653 	1.430702394294024e-11 	101324.9999999975
1.104854854854854 	299.9999999999818 	1.643046577792383e-11 	101324.9999999977
1.107357357357357 	299.9999999999671 	1.520105880438386e-11 	101324.9999999976
1.109859859859859 	299.999999999954 	1.666062163656812e-11 	101324.9999999977
1.112362362362362 	300.0000000000083 	1.585628139494001e-11 	101324.999999998
1.114864864864865 	300.000000000008 	1.59126597068843e-11 	101324.999999998
1.117367367367367 	299.9999999999706 	1.672342610554025e-11 	101324.9999999978
1.119869869869869 	299.99999999994 	1.523404818907766e-11 	101324.9999999979
1.122372372372372 	299.9999999999621 	1.666891343860518e-11 	101324.999999998
1.124874874874874 	299.9999999999605 	1.562554273712917e-11 	101324.9999999979
1.127377377377377 	299.9999999999723 	1.627498987137509e-11 	101324.9999999981
1.129879879879879 	300.0000000000147 	1.561104011916804e-11 	101324.999999998
1.132382382382382 	300.0000000000263 	1.68522184121289e-11 	101324.9999999978
1.134884884884884 	300.0000000000082 	1.682159023607892e-11 	101324.9999999976
1.137387387387387 	300.0000000000143 	1.662522235945848e-11 	101324.9999999975
1.139889889889889 	299.9999999999686 	1.754563119696819e-11 	101324.9999999974
1.142392392392392 	299.9999999999585 	1.606361090334151e-11 	101324.9999999976
1.144894894894894 	300.0000000000106 	1.706299456041975e-11 	101324.9999999977
1.147397397397397 	299.9999999999969 	1.603394275938635e-11 	101324.9999999977
1.149899899899899 	299.99999999995 	1.696143546028945e-11 	101324.9999999977
1.152402402402402 	299.9999999999388 	1.631980915150673e-11 	101324.999999998
1.154904904904904 	299.9999999999699 	1.670916117286366e-11 	101324.999999998
1.157407407407407 	299.9999999999728 	1.590115549223006e-11 	101324.9999999979
1.159909909909909 	299.9999999999476 	1.617341046209525e-11 	101324.9999999982
1.162412412412412 	299.99999999994 	1.769232401719004e-11 	101324.9999999983
1.164914914914914 	299.999999999958 	1.639173401709744e-11 	101324.9999999981
1.167417417417417 	299.9999999999592 	1.796328246852484e-11 	101324.9999999979
1.169919919919919 	300.0000000000044 	1.668586308473662e-11 	101324.9999999981
1.172422422422422 	300.0000000000326 	1.723892683028411e-11 	101324.9999999983
1.174924924924925 	299.9999999999902 	1.594007380405127e-11 	101324.9999999984
1.177427427427427 	299.9999999999623 	1.674200102432807e-11 	101324.9999999984
1.179929929929929 	300.0000000000029 	1.83406521746209e-11 	101324.9999999983
1.182432432432432 	300.000000000029 	1.705744891853519e-11 	101324.9999999985
1.184934934934934 	300.0000000000037 	1.771956540964098e-11 	101324.9999999989
1.187437437437437 	299.9999999999825 	1.643365370302461e-11 	101324.999999999
1.189939939939939 	299.9999999999745 	1.745743318530374e-11 	101324.9999999989
1.192442442442442 	299.9999999999443 	1.675600246121625e-11 	101324.9999999987
1.194944944944944 	299.9999999999472 	1.75446101122291e-11 	101324.9999999987
1.197447447447447 	299.9999999999947 	1.642941196594438e-11 	101324.9999999986
1.199949949949949 	300.000000000008 	1.635924007618543e-11 	101324.9999999987
1.202452452452452 	299.9999999999624 	1.696839586550019e-11 	101324.9999999988
1.204954954954955 	299.9999999999554 	1.590051474175167e-11 	101324.9999999991
1.207457457457457 	299.9999999999803 	1.764259694441119e-11 	101324.9999999994
1.20995995995996 	299.9999999999764 	1.695795585950208e-11 	101324.9999999994
1.212462462462462 	299.9999999999857 	1.804524735937586e-11 	101324.9999999993
1.214964964964964 	299.9999999999878 	1.725424444815166e-11 	101324.999999999
1.217467467467467 	299.9999999999844 	1.845732200196636e-11 	101324.9999999989
1.219969969969969 	299.9999999999744 	1.771111974423667e-11 	101324.9999999989
1.222472472472472 	300.000000000015 	1.829762171000203e-11 	101324.999999999
1.224974974974975 	300.0000000000394 	1.931082039364589e-11 	101324.999999999
1.227477477477477 	299.9999999999981 	1.845443962071503e-11 	101324.9999999992
1.229979979979979 	299.9999999999829 	1.997079576017225e-11 	101324.9999999993
1.232482482482482 	299.9999999999587 	1.858736160461446e-11 	101324.999999999
1.234984984984984 	299.9999999999559 	1.993311613423056e-11 	101324.999999999
1.237487487487487 	299.9999999999792 	1.846329187897955e-11 	101324.9999999992
1.239989989989989 	299.9999999999858 	1.905953259527971e-11 	101324.9999999993
1.242492492492492 	300.0000000000131 	1.958538984388069e-11 	101324.9999999993
1.244994994994994 	299.9999999999861 	1.807851671118945e-11 	101324.9999999992
1.247497497497497 	299.9999999999898 	1.966143007558498e-11 	101324.9999999992
1.249999999999999 	300.0000000002235 	1.936547450809283e-11 	101324.9999999993
