-1.25 	347.5528258147573 	0.1133796565501473 	101372.5528258148
-1.247497497497497 	300.7803643971698 	0.1162223582258712 	101372.7547970717
-1.244994994994995 	300.0470992853275 	0.1182244457151939 	101372.9437381391
-1.242492492492492 	300.0407508227443 	0.1177441644052121 	101373.1364669645
-1.23998998998999 	300.0408623121098 	0.1183280888111568 	101373.3150944606
-1.237487487487487 	300.0410059089437 	0.1187647389659285 	101373.4851091137
-1.234984984984985 	300.0411421910047 	0.1191531814305394 	101373.6462417761
-1.232482482482482 	300.041270869843 	0.1195284369254229 	101373.7984177369
-1.22997997997998 	300.0413919559349 	0.1198792671611114 	101373.9416146217
-1.227477477477477 	300.0415054266945 	0.1202088544177696 	101374.075805833
-1.224974974974975 	300.0416112614683 	0.1205158898469883 	101374.2009667259
-1.222472472472472 	300.0417094406961 	0.1208008658099456 	101374.3170743486
-1.21996996996997 	300.0417999460086 	0.1210634992766643 	101374.4241068881
-1.217467467467467 	300.0418827612359 	0.1213038521828879 	101374.522045067
-1.214964964964965 	300.0419578708788 	0.1215218424679998 	101374.610870722
-1.212462462462462 	300.0420252615835 	0.1217174525305206 	101374.6905679132
-1.20995995995996 	300.0420849198722 	0.1218906373514559 	101374.7611208212
-1.207457457457457 	300.0421368355158 	0.122041370762983 	101374.8225172748
-1.204954954954955 	300.0421809990911 	0.1221696262290935 	101374.8747459483
-1.202452452452452 	300.0422174020896 	0.1222753855427159 	101374.9177970616
-1.19994994994995 	300.0422460374922 	0.1223586292667321 	101374.9516622106
-1.197447447447447 	300.04226689975 	0.1224193418342147 	101374.9763346883
-1.194944944944945 	300.0422799865731 	0.1224575144104428 	101374.9918118749
-1.192442442442442 	300.0422852948797 	0.1224731433618964 	101374.9980899926
-1.18993993993994 	300.0422828249697 	0.1224662284813189 	101374.9951692142
-1.187437437437437 	300.0422725733403 	0.1224367665487757 	101374.9830463825
-1.184934934934935 	300.0422545436719 	0.1223847626136203 	101374.9617255497
-1.182432432432432 	300.0422287402436 	0.1223102291652775 	101374.9312109775
-1.17992992992993 	300.0421951668158 	0.1222131828452521 	101374.891507258
-1.177427427427427 	300.042153830988 	0.1220936406799365 	101374.8426234785
-1.174924924924925 	300.042104736628 	0.1219516207666416 	101374.7845650305
-1.172422422422422 	300.042047896212 	0.1217871545914246 	101374.7173470403
-1.16991991991992 	300.0419833187179 	0.121600272614632 	101374.6409786069
-1.167417417417417 	300.0419110187873 	0.1213910095197422 	101374.5554753634
-1.164914914914915 	300.0418310091413 	0.1211594015317141 	101374.4608537958
-1.162412412412412 	300.0417432965057 	0.1209054878340587 	101374.3571255328
-1.15990990990991 	300.0416479013865 	0.1206293196631049 	101374.2443158259
-1.157407407407407 	300.0415448388653 	0.1203309400154335 	101374.1224384472
-1.154904904904904 	300.0414341352059 	0.12001040850924 	101373.9915197561
-1.152402402402403 	300.0413158131958 	0.1196677888711072 	101373.8515869501
-1.1498998998999 	300.0411898836625 	0.1193031383618055 	101373.7026579497
-1.147397397397397 	300.0410563751097 	0.1189165332207461 	101373.544771803
-1.144894894894895 	300.0409153034331 	0.1185080368005756 	101373.3779484311
-1.142392392392392 	300.0407666981383 	0.1180777266106792 	101373.202218762
-1.13988988988989 	300.0406105996137 	0.1176256870890339 	101373.0176246017
-1.137387387387387 	300.0404470255442 	0.1171519844054081 	101372.8241828977
-1.134884884884885 	300.0402760178057 	0.1166567213642861 	101372.6219429239
-1.132382382382382 	300.0400976044645 	0.1161399850714399 	101372.410940595
-1.12987987987988 	300.0399118020886 	0.1156018554740762 	101372.1911990914
-1.127377377377377 	300.0397186631056 	0.1150424573674914 	101371.9627829489
-1.124874874874875 	300.0395182084588 	0.114461874645411 	101371.7257182266
-1.122372372372372 	300.0393104683094 	0.1138602070178865 	101371.480041073
-1.11986986986987 	300.0390955053437 	0.1132375957985279 	101371.2258255043
-1.117367367367367 	300.0388733342412 	0.1125941219314496 	101370.9630883008
-1.114864864864865 	300.0386439992154 	0.1119299091650673 	101370.6918810927
-1.112362362362362 	300.0384075688555 	0.1112451123750021 	101370.4122846773
-1.10985985985986 	300.0381640514605 	0.1105398086990116 	101370.1243087724
-1.107357357357357 	300.0379135027054 	0.1098141455102777 	101369.8280187768
-1.104854854854855 	300.0376559982824 	0.1090682947839778 	101369.5235038035
-1.102352352352353 	300.0373915403084 	0.1083023273530783 	101369.2107666358
-1.09984984984985 	300.0371201897241 	0.1075164067710462 	101368.8898797487
-1.097347347347347 	300.036842036102 	0.1067107338306574 	101368.5609486912
-1.094844844844845 	300.0365570787084 	0.1058853735624719 	101368.2239719168
-1.092342342342342 	300.0362653713817 	0.1050404847228778 	101367.8790137409
-1.08983983983984 	300.0359670236578 	0.1041763123636467 	101367.5262049819
-1.087337337337337 	300.0356620433126 	0.1032929353802038 	101367.1655541208
-1.084834834834835 	300.035350461344 	0.102390474680047 	101366.7970958145
-1.082332332332332 	300.0350324047883 	0.1014692145684534 	101366.420980856
-1.07982982982983 	300.0347079129161 	0.1005292926823215 	101366.0372589621
-1.077327327327327 	300.0343769778401 	0.09957076425324991 	101365.6459216101
-1.074824824824825 	300.0340397144607 	0.09859389959277511 	101365.2471006611
-1.072322322322323 	300.0336962388391 	0.0975989729814976 	101364.8409300242
-1.06981981981982 	300.0333465403777 	0.09658602857093108 	101364.4274003683
-1.067317317317317 	300.0329906381296 	0.09555517803226064 	101364.0065409453
-1.064814814814815 	300.032628683781 	0.0945067894298286 	101363.5785322037
-1.062312312312312 	300.0322607880267 	0.09344112026922698 	101363.1434978809
-1.05980980980981 	300.0318869088496 	0.09235812311675445 	101362.7013809166
-1.057307307307307 	300.0315070688628 	0.09125793278142584 	101362.2522097858
-1.054804804804805 	300.0311215001649 	0.09014110912390244 	101361.7962692269
-1.052302302302302 	300.0307303194194 	0.08900791945015379 	101361.3337054461
-1.0497997997998 	300.0303333403318 	0.08785803141131472 	101360.8642951138
-1.047297297297297 	300.0299305884828 	0.08669160535989523 	101360.3880565156
-1.044794794794795 	300.0295225367938 	0.08550966123348573 	101359.9055393227
-1.042292292292292 	300.0291093183943 	0.08431244640990329 	101359.4169025445
-1.03978978978979 	300.0286904290191 	0.08309900094926351 	101358.9215614536
-1.037287287287287 	300.0282658621439 	0.08186951873135304 	101358.419520514
-1.034784784784785 	300.0278365054834 	0.08062592697671901 	101357.91183327
-1.032282282282283 	300.0274025787067 	0.07936857545637949 	101357.3987525746
-1.02977977977978 	300.026963041954 	0.07809528505728852 	101356.8790359498
-1.027277277277277 	300.026517675161 	0.07680584212833791 	101356.3524125118
-1.024774774774775 	300.0260680858552 	0.07550381300737129 	101355.8207809046
-1.022272272272272 	300.0256150636256 	0.07419070872215444 	101355.2850818556
-1.01976976976977 	300.0251567450863 	0.07286240072029813 	101354.7431234651
-1.017267267267267 	300.0246916883606 	0.07151610643876129 	101354.193210757
-1.014764764764765 	300.0242221294428 	0.07015714517756502 	101353.6379932537
-1.012262262262262 	300.0237510257273 	0.06879190462414753 	101353.0809689743
-1.00975975975976 	300.0232767682029 	0.06741631268712632 	101352.5202322675
-1.007257257257257 	300.0227947829985 	0.06602012350206748 	101351.9503680176
-1.004754754754755 	300.0223049780708 	0.06460382003981908 	101351.3712594759
-1.002252252252252 	300.021813492806 	0.06318186958073389 	101350.7901613533
-0.9997497497497498 	300.0213244065816 	0.06176320702842752 	101350.2118972796
-0.9972472472472473 	300.0208326715867 	0.0603353665246092 	101349.6305001504
-0.9947447447447449 	300.0203296591158 	0.05887822685401008 	101349.035766074
-0.9922422422422421 	300.0198153761802 	0.05739274533791335 	101348.4277001414
-0.9897397397397399 	300.0193006667453 	0.05590538832744084 	101347.8191240404
-0.9872372372372376 	300.018794629888 	0.05443757722788616 	101347.2208012644
-0.9847347347347346 	300.0182921746821 	0.05297607208790586 	101346.6267180622
-0.9822322322322323 	300.0177779809649 	0.05148326359493761 	101346.0187608579
-0.9797297297297296 	300.0172438022811 	0.04993965328327928 	101345.3871743842
-0.9772272272272275 	300.0166995854392 	0.04837073727448936 	101344.743714777
-0.9747247247247248 	300.0161648663012 	0.04682527301640578 	101344.1114819399
-0.9722222222222224 	300.015648630654 	0.04532515257408579 	101343.5011072972
-0.9697197197197196 	300.0151386798397 	0.04383894188938886 	101342.8981737125
-0.9672172172172175 	300.0146117882189 	0.04230765962781617 	101342.2752196459
-0.9647147147147147 	300.0140552606006 	0.04069950944313288 	101341.6172279001
-0.9622122122122124 	300.013479802337 	0.03904256022261099 	101340.9368485994
-0.9597097097097099 	300.012911807589 	0.03740500294386219 	101340.2652875031
-0.9572072072072073 	300.0123718176424 	0.03583988023667332 	101339.6268375301
-0.9547047047047047 	300.0118575805134 	0.03434104943745013 	101339.0188447278
-0.9522022022022023 	300.0113449898802 	0.03284513189475229 	101338.412812329
-0.9496996996996998 	300.010805145377 	0.03127603354970148 	101337.7745681383
-0.9471971971971973 	300.0102245418117 	0.02959828839328306 	101337.0881367157
-0.9446946946946947 	300.0096146281012 	0.02784252527639383 	101336.3670462599
-0.9421921921921923 	300.0090050103265 	0.02608775311310629 	101335.6462970745
-0.93968968968969 	300.0084256304826 	0.02441431052395179 	101334.96129315
-0.9371871871871872 	300.0078897809665 	0.02285823805845279 	101334.3277577845
-0.9346846846846848 	300.007387420199 	0.02139253160908952 	101333.7338266101
-0.9321821821821823 	300.0068906808379 	0.01994119897094065 	101333.1465565606
-0.9296796796796799 	300.0063667841528 	0.01841420067865836 	101332.527193243
-0.9271771771771771 	300.0057915656221 	0.01674490396250036 	101331.8471627511
-0.9246746746746748 	300.0051585145269 	0.01491540143772884 	101331.0987608608
-0.9221721721721724 	300.0044809103954 	0.01296261295824527 	101330.2976812203
-0.9196696696696698 	300.0037872040388 	0.01096562422970092 	101329.4775562488
-0.9171671671671672 	300.0031119981159 	0.009021124323973211 	101328.679294233
-0.9146646646646649 	300.0024866782593 	0.007217968116693741 	101327.9400022205
-0.9121621621621623 	300.0019336021936 	0.005620499225784914 	101327.2861150362
-0.9096596596596597 	300.0014644879422 	0.004263126509787982 	101326.7314887481
-0.9071571571571573 	300.0010814783217 	0.003152873274646927 	101326.2786586684
-0.9046546546546547 	300.0007794910538 	0.002275887203924344 	101325.9216178722
-0.9021521521521524 	300.0005489106559 	0.001605063583722015 	101325.6489995435
-0.8996496496496498 	300.0003780109429 	0.001106988161952498 	101325.4469408453
-0.8971471471471473 	300.0002548057533 	0.0007472931057575895 	101325.3012713251
-0.894644644644645 	300.0001682596997 	0.0004941956829313762 	101325.1989443275
-0.892142142142142 	300.0001089319868 	0.0003204088754932055 	101325.1287981782
-0.8896396396396397 	300.0000691909675 	0.0002038081253861965 	101325.0818100094
-0.8871371371371374 	300.0000431472747 	0.0001272744476390274 	101325.0510168163
-0.8846346346346349 	300.0000264325088 	7.807905504801137e-05 	101325.0312536925
-0.8821321321321324 	300.0000159168282 	4.708183545972461e-05 	101325.0188201162
-0.8796296296296297 	300.0000094263181 	2.792110054907903e-05 	101325.0111457909
-0.8771271271271271 	300.0000054930514 	1.629262075698135e-05 	101325.0064951028
-0.8746246246246248 	300.0000031512208 	9.359090011280283e-06 	101325.0037260813
-0.8721221221221224 	300.0000017804394 	5.294831851680955e-06 	101325.002105239
-0.8696196196196196 	300.0000009911313 	2.951393239163909e-06 	101325.0011719608
-0.8671171171171175 	300.0000005438426 	1.621538120460432e-06 	101325.000643067
-0.8646146146146148 	300.0000002942171 	8.784418854761457e-07 	101325.0003479284
-0.8621121121121121 	300.0000001570208 	4.693898404789494e-07 	101325.0001856795
-0.8596096096096097 	300.0000000827017 	2.474765215107607e-07 	101325.0000977729
-0.857107107107107 	300.0000000429574 	1.287798852717075e-07 	101325.0000508143
-0.8546046046046049 	300.0000000220469 	6.616135744178326e-08 	101325.0000260727
-0.8521021021021022 	300.0000000111792 	3.356766493546848e-08 	101325.0000132107
-0.8495995995995997 	300.0000000055904 	1.682430690557727e-08 	101325.0000066114
-0.8470970970970974 	300.0000000027302 	8.331341077207718e-09 	101325.0000032683
-0.8445945945945946 	300.0000000013306 	4.078214618671251e-09 	101325.0000015958
-0.8420920920920922 	300.0000000006615 	1.972377506141059e-09 	101325.0000007691
-0.8395895895895897 	300.0000000003099 	9.446463264380592e-10 	101325.0000003655
-0.8370870870870872 	300.0000000001454 	4.460662318816018e-10 	101325.0000001706
-0.8345845845845846 	300.0000000000712 	2.090509952037209e-10 	101325.0000000775
-0.8320820820820823 	300.0000000000058 	9.616100675602812e-11 	101325.0000000338
-0.8295795795795798 	299.9999999999657 	4.379377957241805e-11 	101325.0000000134
-0.8270770770770772 	299.9999999999768 	1.997249054262172e-11 	101325.000000004
-0.8245745745745746 	299.9999999999601 	8.654967739963094e-12 	101324.9999999999
-0.8220720720720721 	299.9999999999768 	4.394654565030565e-12 	101324.9999999978
-0.8195695695695699 	299.9999999999969 	1.807902520874242e-12 	101324.9999999967
-0.817067067067067 	299.9999999999775 	2.267344325907178e-12 	101324.9999999962
-0.8145645645645651 	299.9999999999596 	1.320013292570277e-12 	101324.9999999961
-0.8120620620620621 	299.9999999999893 	9.821748010321584e-13 	101324.999999996
-0.8095595595595597 	300.0000000000023 	8.611455173501446e-13 	101324.9999999959
-0.8070570570570572 	299.9999999999658 	3.562420406273097e-13 	101324.9999999956
-0.8045545545545546 	299.9999999999628 	1.060063455787885e-12 	101324.9999999955
-0.8020520520520523 	299.9999999999927 	1.857956232870076e-12 	101324.9999999954
-0.7995495495495494 	300.0000000000101 	2.908610249725322e-12 	101324.9999999955
-0.7970470470470474 	299.9999999999978 	3.216498508181038e-12 	101324.9999999955
-0.7945445445445446 	300.0000000000026 	3.547285414767257e-12 	101324.9999999954
-0.7920420420420423 	300.0000000000081 	3.785055652406585e-12 	101324.9999999954
-0.7895395395395397 	300.0000000000065 	4.110525296155195e-12 	101324.9999999954
-0.7870370370370371 	300.0000000000042 	3.07059257853193e-12 	101324.9999999954
-0.7845345345345348 	299.9999999999837 	3.940290955436585e-12 	101324.9999999954
-0.7820320320320323 	299.9999999999818 	2.77421918247223e-12 	101324.9999999957
-0.7795295295295296 	299.9999999999548 	4.444678184366907e-12 	101324.9999999959
-0.7770270270270272 	299.9999999999455 	3.476369294148362e-12 	101324.999999996
-0.7745245245245247 	299.9999999999428 	4.050804826611116e-12 	101324.9999999958
-0.7720220220220222 	299.9999999999647 	2.990106781297463e-12 	101324.9999999958
-0.7695195195195199 	299.9999999999695 	3.618725966293504e-12 	101324.9999999961
-0.767017017017017 	299.9999999999877 	3.420250107343805e-12 	101324.9999999962
-0.7645145145145147 	300.0000000000093 	4.195967952494002e-12 	101324.9999999963
-0.7620120120120122 	300.0000000000135 	4.133440321071892e-12 	101324.9999999963
-0.7595095095095097 	299.9999999999624 	5.349510666938065e-12 	101324.9999999962
-0.7570070070070072 	299.9999999999645 	5.458653369266178e-12 	101324.9999999961
-0.7545045045045048 	299.9999999999943 	5.352670175046781e-12 	101324.999999996
-0.7520020020020022 	299.999999999977 	4.832672380575463e-12 	101324.9999999961
-0.7494994994994997 	299.9999999999748 	3.964962057848878e-12 	101324.999999996
-0.7469969969969972 	299.999999999999 	3.260959814930892e-12 	101324.9999999961
-0.7444944944944945 	299.9999999999895 	2.24639236700363e-12 	101324.999999996
-0.7419919919919924 	299.9999999999901 	1.998622413889384e-12 	101324.9999999959
-0.7394894894894897 	299.999999999974 	8.099372431616055e-13 	101324.9999999956
-0.7369869869869872 	299.999999999993 	1.195102169310911e-12 	101324.9999999956
-0.7344844844844846 	299.9999999999774 	2.065991425677141e-12 	101324.9999999956
-0.7319819819819822 	300.0000000000027 	8.539536109247374e-13 	101324.9999999956
-0.7294794794794797 	299.9999999999998 	2.084008218913283e-12 	101324.9999999957
-0.7269769769769773 	300.000000000006 	1.045902516359799e-12 	101324.9999999956
-0.7244744744744747 	300.000000000011 	1.384156934290591e-12 	101324.9999999955
-0.721971971971972 	299.9999999999746 	1.120385998807854e-12 	101324.9999999954
-0.7194694694694695 	299.9999999999899 	1.259816878541823e-12 	101324.9999999955
-0.7169669669669674 	299.9999999999607 	9.599126537843766e-13 	101324.9999999957
-0.7144644644644647 	299.999999999982 	6.35695061765654e-13 	101324.9999999957
-0.711961961961962 	300.0000000000043 	6.699922651963692e-13 	101324.9999999956
-0.7094594594594597 	300.0000000000136 	5.720921202323747e-13 	101324.9999999957
-0.7069569569569573 	300.0000000000163 	1.048209746530487e-12 	101324.9999999956
-0.7044544544544545 	300.0000000000164 	9.467379702556692e-13 	101324.9999999956
-0.7019519519519523 	300.0000000000065 	3.106447877327981e-13 	101324.9999999956
-0.6994494494494495 	299.9999999999589 	3.921203451183636e-14 	101324.9999999955
-0.6969469469469471 	299.9999999999681 	7.72915827530552e-13 	101324.9999999958
-0.6944444444444446 	299.9999999999798 	7.202965073358187e-13 	101324.999999996
-0.6919419419419421 	300.0000000000181 	8.281934476529951e-13 	101324.9999999962
-0.6894394394394396 	299.9999999999968 	5.451502672306547e-13 	101324.9999999962
-0.6869369369369374 	300.0000000000044 	1.156997974988198e-12 	101324.9999999963
-0.6844344344344344 	300.0000000000119 	6.601310286931485e-13 	101324.9999999964
-0.6819319319319321 	299.9999999999745 	1.047974040493687e-12 	101324.9999999965
-0.6794294294294296 	299.9999999999657 	1.324477623098375e-12 	101324.9999999963
-0.6769269269269272 	299.9999999999477 	1.820028458170726e-12 	101324.9999999963
-0.6744244244244245 	299.9999999999789 	2.076774125126934e-12 	101324.9999999963
-0.6719219219219222 	299.999999999974 	2.182428421507145e-12 	101324.9999999964
-0.6694194194194195 	299.9999999999955 	3.077563122091603e-12 	101324.9999999963
-0.6669169169169172 	300.0000000000051 	2.702502069930798e-12 	101324.9999999962
-0.6644144144144146 	299.9999999999777 	2.804407751221231e-12 	101324.999999996
-0.661911911911912 	299.9999999999814 	2.262705773204578e-12 	101324.9999999958
-0.6594094094094097 	299.9999999999865 	2.759882389951266e-12 	101324.9999999956
-0.656906906906907 	299.9999999999642 	2.085203352279442e-12 	101324.9999999953
-0.6544044044044046 	299.999999999969 	2.863161289081096e-12 	101324.9999999953
-0.6519019019019021 	299.9999999999937 	1.361079248093737e-12 	101324.9999999955
-0.6493993993993996 	300.000000000014 	2.48605671277232e-12 	101324.9999999957
-0.6468968968968971 	300.0000000000188 	1.726337717498568e-12 	101324.9999999958
-0.6443943943943946 	299.9999999999957 	2.356068605282519e-12 	101324.9999999957
-0.6418918918918921 	299.9999999999985 	1.123480636634525e-12 	101324.9999999956
-0.6393893893893897 	300.0000000000014 	1.349041127997725e-12 	101324.9999999958
-0.6368868868868871 	299.9999999999854 	8.117554087097707e-13 	101324.9999999959
-0.6343843843843846 	299.9999999999985 	1.284795944747729e-12 	101324.999999996
-0.6318818818818821 	299.9999999999761 	1.663184768651689e-12 	101324.9999999961
-0.6293793793793795 	300.0000000000033 	1.863547932362247e-12 	101324.9999999963
-0.6268768768768773 	300.0000000000102 	1.839790777465205e-12 	101324.9999999962
-0.6243743743743745 	299.9999999999871 	1.274370650426822e-12 	101324.9999999962
-0.6218718718718721 	300.0000000000024 	2.239843053298439e-12 	101324.9999999962
-0.6193693693693696 	299.9999999999642 	1.329991445734311e-12 	101324.9999999963
-0.6168668668668671 	299.9999999999907 	2.435755764037883e-12 	101324.9999999962
-0.6143643643643645 	300.0000000000064 	1.355189095870042e-12 	101324.9999999962
-0.6118618618618621 	299.9999999999895 	1.515150669600313e-12 	101324.9999999963
-0.6093593593593596 	299.9999999999908 	1.011898751513813e-12 	101324.9999999965
-0.6068568568568571 	299.99999999999 	1.001234005195434e-12 	101324.9999999966
-0.6043543543543546 	299.9999999999732 	6.13913488592703e-13 	101324.9999999966
-0.6018518518518521 	299.9999999999804 	7.468380254903242e-13 	101324.9999999966
-0.5993493493493496 	299.9999999999669 	4.73642541443402e-13 	101324.9999999967
-0.5968468468468471 	299.999999999974 	9.680426097359942e-13 	101324.9999999967
-0.5943443443443446 	299.9999999999961 	6.933521586149107e-13 	101324.9999999968
-0.591841841841842 	299.9999999999759 	2.000643922078464e-12 	101324.9999999967
-0.5893393393393397 	299.9999999999729 	8.906164442325743e-13 	101324.9999999969
-0.5868368368368371 	299.9999999999976 	2.562949787651297e-12 	101324.999999997
-0.5843343343343346 	300.0000000000051 	1.737793909056677e-12 	101324.9999999969
-0.5818318318318321 	300.0000000000201 	2.787310488640216e-12 	101324.9999999967
-0.5793293293293297 	299.9999999999926 	1.369316352344284e-12 	101324.9999999964
-0.5768268268268271 	299.9999999999996 	2.418095549268505e-12 	101324.9999999964
-0.5743243243243245 	300.0000000000111 	1.092014879552033e-12 	101324.9999999962
-0.5718218218218221 	300.0000000000119 	1.072890166383053e-12 	101324.999999996
-0.5693193193193196 	300.0000000000242 	1.066685773521306e-12 	101324.9999999959
-0.5668168168168171 	299.9999999999886 	5.392760303798107e-13 	101324.9999999958
-0.5643143143143147 	299.999999999967 	1.265266559602264e-12 	101324.9999999958
-0.5618118118118121 	300.0000000000052 	9.252316053346861e-13 	101324.9999999958
-0.5593093093093094 	300.0000000000179 	7.971558524660294e-13 	101324.9999999959
-0.5568068068068072 	300.0000000000113 	1.253537382260786e-12 	101324.9999999959
-0.5543043043043046 	300.0000000000118 	7.089819912743772e-13 	101324.999999996
-0.551801801801802 	299.9999999999742 	1.18611638361568e-12 	101324.9999999961
-0.5492992992992995 	299.9999999999973 	5.053068898029815e-13 	101324.9999999959
-0.5467967967967969 	300.0000000000061 	7.309408241212183e-13 	101324.999999996
-0.5442942942942947 	300.0000000000022 	4.175186953027194e-13 	101324.9999999959
-0.5417917917917919 	299.9999999999745 	6.303217678423517e-13 	101324.9999999959
-0.5392892892892895 	299.9999999999612 	6.962540846324997e-13 	101324.9999999958
-0.536786786786787 	299.9999999999755 	8.704703134971202e-13 	101324.9999999958
-0.5342842842842846 	299.9999999999803 	7.79868770540097e-13 	101324.9999999959
-0.531781781781782 	299.9999999999675 	1.304224881011853e-12 	101324.999999996
-0.5292792792792794 	299.9999999999643 	2.0432773136093e-12 	101324.9999999961
-0.526776776776777 	299.9999999999518 	1.769311235839284e-12 	101324.9999999963
-0.5242742742742745 	299.9999999999872 	3.542237562031472e-12 	101324.9999999963
-0.521771771771772 	300.000000000009 	2.640789448639439e-12 	101324.9999999964
-0.5192692692692695 	299.9999999999769 	5.150982874088541e-12 	101324.9999999963
-0.516766766766767 	300.0000000000024 	2.342854631955173e-12 	101324.9999999961
-0.5142642642642645 	299.9999999999854 	4.121541807473381e-12 	101324.999999996
-0.511761761761762 	299.999999999972 	1.998411679056206e-12 	101324.9999999959
-0.5092592592592596 	299.9999999999822 	3.449783820904838e-12 	101324.9999999958
-0.506756756756757 	299.999999999967 	1.040976726377485e-12 	101324.9999999956
-0.5042542542542544 	299.9999999999974 	2.804539459702301e-12 	101324.9999999958
-0.5017517517517521 	300.0000000000157 	7.864302951005304e-13 	101324.999999996
-0.4992492492492494 	300.000000000017 	1.408758260866732e-12 	101324.9999999962
-0.496746746746747 	299.9999999999957 	5.982088736116024e-13 	101324.9999999962
-0.4942442442442445 	299.9999999999678 	6.056839143795924e-13 	101324.9999999963
-0.4917417417417421 	299.9999999999667 	6.307189293883608e-13 	101324.9999999961
-0.4892392392392395 	299.9999999999779 	1.013153234692796e-12 	101324.9999999958
-0.486736736736737 	299.9999999999784 	5.115909380319993e-13 	101324.9999999959
-0.4842342342342345 	299.9999999999549 	1.752152688862706e-12 	101324.9999999961
-0.481731731731732 	300.0000000000182 	6.765771015031472e-13 	101324.9999999963
-0.4792292292292296 	300.0000000000128 	2.388809683800424e-12 	101324.9999999965
-0.4767267267267268 	299.999999999979 	1.040687521221067e-12 	101324.9999999965
-0.4742242242242246 	300.0000000000013 	3.150747784084636e-12 	101324.9999999965
-0.471721721721722 	299.9999999999773 	1.18642779021913e-12 	101324.9999999966
-0.4692192192192195 	299.9999999999845 	2.100522324656049e-12 	101324.9999999967
-0.4667167167167169 	299.9999999999476 	1.45280352280139e-12 	101324.9999999964
-0.4642142142142145 	299.9999999999975 	1.002364147182241e-12 	101324.9999999962
-0.461711711711712 	300.0000000000117 	1.401842752828407e-12 	101324.9999999962
-0.4592092092092094 	300.000000000008 	8.3135377161554e-13 	101324.9999999961
-0.456706706706707 	300.0000000000287 	4.117411316673299e-13 	101324.999999996
-0.4542042042042045 	299.999999999965 	6.034375916400026e-13 	101324.999999996
-0.451701701701702 	299.9999999999724 	1.503674374629576e-13 	101324.999999996
-0.4491991991991995 	299.9999999999799 	7.524924489105031e-13 	101324.9999999963
-0.4466966966966969 	299.9999999999795 	2.969020918414781e-13 	101324.9999999964
-0.4441941941941945 	299.9999999999951 	7.593118014255488e-13 	101324.9999999965
-0.441691691691692 	299.9999999999746 	1.525212917576857e-12 	101324.9999999963
-0.4391891891891895 	299.9999999999909 	1.862338184115866e-12 	101324.999999996
-0.436686686686687 	299.9999999999818 	2.291352334643857e-12 	101324.9999999958
-0.4341841841841846 	299.9999999999953 	2.603958832902633e-12 	101324.9999999956
-0.431681681681682 	299.9999999999706 	1.697343393985639e-12 	101324.9999999956
-0.4291791791791794 	299.9999999999521 	2.213586365761619e-12 	101324.9999999958
-0.426676676676677 	299.9999999999545 	8.374678984455835e-13 	101324.9999999961
-0.4241741741741744 	299.9999999999829 	2.030642158364804e-12 	101324.9999999961
-0.421671671671672 	300.0000000000024 	1.137190342149852e-12 	101324.9999999961
-0.4191691691691694 	300.0000000000265 	2.067933070908209e-12 	101324.9999999959
-0.4166666666666669 	300.0000000000316 	1.315629036837306e-12 	101324.9999999958
-0.4141641641641645 	299.9999999999673 	1.651756433545574e-12 	101324.9999999956
-0.411661661661662 	300.0000000000014 	1.5854280861667e-12 	101324.9999999955
-0.4091591591591594 	300.0000000000049 	1.640145087608356e-12 	101324.9999999957
-0.406656656656657 	299.99999999997 	1.508930223612407e-12 	101324.9999999956
-0.4041541541541545 	300.0000000000099 	1.997977622684758e-12 	101324.9999999956
-0.401651651651652 	299.9999999999598 	5.286848107088301e-13 	101324.9999999958
-0.3991491491491494 	300.0000000000002 	1.878538777651553e-12 	101324.9999999955
-0.396646646646647 	299.9999999999765 	2.287192339721568e-12 	101324.9999999955
-0.3941441441441444 	299.9999999999857 	1.853039987794881e-12 	101324.9999999957
-0.3916416416416419 	299.9999999999635 	2.556941930986383e-12 	101324.999999996
-0.3891391391391395 	299.9999999999793 	1.68450032977e-12 	101324.9999999959
-0.3866366366366368 	299.999999999975 	7.338861718647849e-13 	101324.9999999958
-0.3841341341341344 	299.9999999999995 	1.557424030313391e-12 	101324.9999999956
-0.381631631631632 	299.9999999999758 	1.352021000337595e-12 	101324.9999999956
-0.3791291291291294 	300.0000000000006 	1.380686489497731e-12 	101324.9999999959
-0.3766266266266269 	300.0000000000094 	1.256769323024683e-12 	101324.999999996
-0.3741241241241244 	300.0000000000112 	9.446995015324615e-13 	101324.9999999961
-0.371621621621622 	300.0000000000118 	1.316721406489661e-12 	101324.9999999959
-0.3691191191191194 	300.0000000000043 	1.818868698869624e-12 	101324.9999999961
-0.366616616616617 	300.0000000000014 	1.063593397395385e-12 	101324.9999999959
-0.3641141141141143 	299.9999999999827 	2.513965347514692e-12 	101324.9999999959
-0.3616116116116119 	299.9999999999685 	9.704906043614737e-13 	101324.9999999958
-0.3591091091091095 	299.999999999989 	1.512646969325458e-12 	101324.9999999958
-0.356606606606607 	299.9999999999956 	8.281221441655094e-13 	101324.999999996
-0.3541041041041044 	299.9999999999985 	6.383113751907972e-13 	101324.9999999959
-0.3516016016016019 	300.0000000000145 	1.381758691863616e-12 	101324.9999999959
-0.3490990990990994 	299.9999999999972 	7.569704617768791e-13 	101324.9999999958
-0.346596596596597 	300.0000000000177 	2.818165504064014e-12 	101324.9999999957
-0.3440940940940944 	300.0000000000211 	1.358534030487076e-12 	101324.9999999955
-0.3415915915915919 	300.0000000000171 	3.538302737358449e-12 	101324.9999999955
-0.3390890890890895 	299.999999999988 	2.686908992500528e-12 	101324.9999999953
-0.3365865865865869 	300.0000000000102 	3.54505187358342e-12 	101324.9999999956
-0.3340840840840844 	299.9999999999985 	3.232920915332427e-12 	101324.9999999956
-0.3315815815815819 	300.0000000000132 	3.785231357467934e-12 	101324.9999999957
-0.3290790790790794 	300.0000000000149 	3.930556098126647e-12 	101324.9999999956
-0.3265765765765769 	299.9999999999638 	3.97132498560473e-12 	101324.9999999958
-0.3240740740740744 	300.0000000000028 	3.214177103003857e-12 	101324.9999999957
-0.3215715715715718 	300.000000000009 	4.091662672585317e-12 	101324.9999999955
-0.3190690690690695 	299.9999999999666 	2.820071729161166e-12 	101324.9999999954
-0.3165665665665668 	299.9999999999937 	3.767745598239652e-12 	101324.9999999952
-0.3140640640640644 	299.999999999999 	2.563361124558655e-12 	101324.9999999953
-0.311561561561562 	299.9999999999613 	4.41653390187917e-12 	101324.9999999956
-0.3090590590590593 	299.9999999999961 	1.158312427466151e-12 	101324.9999999956
-0.3065565565565568 	299.9999999999995 	4.9806641425793e-12 	101324.9999999956
-0.3040540540540545 	299.9999999999988 	1.33829349539113e-12 	101324.9999999955
-0.3015515515515518 	300.0000000000146 	4.915018727331679e-12 	101324.9999999953
-0.2990490490490494 	299.9999999999685 	2.766822650168923e-12 	101324.9999999953
-0.2965465465465469 	299.9999999999954 	4.672555423684277e-12 	101324.9999999955
-0.2940440440440444 	299.9999999999983 	3.877312182500288e-12 	101324.9999999955
-0.2915415415415418 	300.0000000000069 	3.85194532580437e-12 	101324.9999999956
-0.2890390390390395 	300.0000000000084 	3.751442816927754e-12 	101324.9999999958
-0.2865365365365368 	299.9999999999849 	3.123472409690456e-12 	101324.9999999959
-0.2840340340340343 	299.9999999999951 	4.941454393500642e-12 	101324.9999999958
-0.2815315315315318 	299.9999999999592 	2.980173209250144e-12 	101324.9999999959
-0.2790290290290295 	299.9999999999816 	3.930384374612958e-12 	101324.9999999955
-0.2765265265265269 	300.0000000000088 	2.848504937982662e-12 	101324.9999999953
-0.2740240240240244 	300.0000000000115 	3.682156300778264e-12 	101324.9999999952
-0.2715215215215219 	300.0000000000052 	4.046084964314669e-12 	101324.9999999951
-0.2690190190190194 	299.9999999999663 	3.528485704847568e-12 	101324.9999999948
-0.2665165165165169 	299.9999999999945 	4.320180278691027e-12 	101324.9999999946
-0.2640140140140144 	299.9999999999856 	3.263996719601001e-12 	101324.9999999947
-0.2615115115115119 	299.9999999999976 	5.092773194214275e-12 	101324.9999999948
-0.2590090090090094 	299.9999999999583 	3.420415638217676e-12 	101324.9999999949
-0.2565065065065068 	299.9999999999948 	4.314533038754637e-12 	101324.9999999951
-0.2540040040040044 	299.9999999999945 	3.948885172081863e-12 	101324.9999999952
-0.2515015015015019 	300.0000000000157 	3.68801625428209e-12 	101324.9999999951
-0.2489989989989994 	300.0000000000248 	4.78438422109694e-12 	101324.999999995
-0.2464964964964968 	299.9999999999915 	3.378137518859299e-12 	101324.9999999949
-0.2439939939939944 	299.9999999999948 	5.735382606888134e-12 	101324.9999999948
-0.2414914914914919 	299.999999999981 	2.843325405980207e-12 	101324.9999999948
-0.2389889889889893 	299.999999999997 	5.488236157847548e-12 	101324.9999999949
-0.2364864864864869 	300.0000000000087 	4.158026088347253e-12 	101324.9999999946
-0.2339839839839843 	299.9999999999661 	7.06096944190772e-12 	101324.9999999944
-0.2314814814814819 	299.9999999999868 	4.020397997120907e-12 	101324.9999999946
-0.2289789789789792 	299.99999999996 	5.904008739584147e-12 	101324.9999999945
-0.2264764764764769 	299.9999999999667 	3.830015830853791e-12 	101324.9999999946
-0.2239739739739743 	299.9999999999761 	4.912865114394057e-12 	101324.9999999946
-0.2214714714714718 	299.9999999999683 	4.646763757305289e-12 	101324.9999999944
-0.2189689689689693 	299.9999999999822 	3.68405305194865e-12 	101324.9999999945
-0.2164664664664669 	299.9999999999858 	5.132387675955404e-12 	101324.9999999946
-0.2139639639639643 	299.99999999996 	3.201421907746226e-12 	101324.9999999944
-0.2114614614614618 	299.9999999999842 	4.390559155432803e-12 	101324.9999999943
-0.2089589589589593 	300.0000000000001 	3.790191941075472e-12 	101324.9999999946
-0.2064564564564568 	299.9999999999998 	3.876819906498216e-12 	101324.9999999949
-0.2039539539539543 	299.9999999999566 	4.519722624657247e-12 	101324.9999999948
-0.2014514514514518 	299.9999999999598 	3.078503018508754e-12 	101324.9999999946
-0.1989489489489494 	299.9999999999882 	5.390948567694709e-12 	101324.9999999945
-0.1964464464464468 	299.999999999996 	2.733691927631918e-12 	101324.9999999945
-0.1939439439439443 	299.9999999999922 	5.31990030232839e-12 	101324.999999995
-0.1914414414414418 	299.9999999999584 	3.535567362341417e-12 	101324.9999999948
-0.1889389389389393 	300.0000000000012 	4.47846865156299e-12 	101324.9999999948
-0.1864364364364368 	300.0000000000175 	4.196044043654983e-12 	101324.9999999948
-0.1839339339339343 	299.999999999985 	4.148667895241494e-12 	101324.9999999946
-0.1814314314314318 	299.9999999999944 	4.309503907464137e-12 	101324.9999999944
-0.1789289289289293 	299.9999999999468 	4.318305263868425e-12 	101324.9999999945
-0.1764264264264268 	299.999999999984 	3.897627955894288e-12 	101324.9999999944
-0.1739239239239243 	299.999999999948 	4.582760320965714e-12 	101324.9999999946
-0.1714214214214218 	299.999999999993 	3.112160165607608e-12 	101324.9999999945
-0.1689189189189193 	299.9999999999712 	5.016844721840047e-12 	101324.9999999946
-0.1664164164164168 	299.9999999999986 	2.297675726532877e-12 	101324.9999999947
-0.1639139139139143 	299.9999999999927 	6.101465823000828e-12 	101324.9999999947
-0.1614114114114118 	300.0000000000121 	1.168990582062483e-12 	101324.9999999947
-0.1589089089089093 	299.9999999999999 	7.941446984508428e-12 	101324.999999995
-0.1564064064064068 	299.9999999999866 	7.317645963313382e-13 	101324.9999999949
-0.1539039039039043 	299.9999999999973 	7.856527964472484e-12 	101324.9999999949
-0.1514014014014018 	300.0000000000145 	7.605387058818048e-13 	101324.999999995
-0.1488988988988993 	299.9999999999952 	7.659739894536022e-12 	101324.999999995
-0.1463963963963968 	299.9999999999992 	2.076229023254773e-12 	101324.9999999949
-0.1438938938938943 	299.9999999999783 	6.547262919790531e-12 	101324.999999995
-0.1413913913913918 	299.9999999999571 	2.533350728959495e-12 	101324.999999995
-0.1388888888888893 	299.999999999984 	4.849558335082853e-12 	101324.9999999948
-0.1363863863863868 	299.9999999999449 	3.02738038288082e-12 	101324.9999999947
-0.1338838838838843 	299.999999999962 	3.97757611063736e-12 	101324.9999999946
-0.1313813813813818 	299.9999999999905 	3.321878901157425e-12 	101324.9999999947
-0.1288788788788793 	299.9999999999772 	4.460973136951838e-12 	101324.9999999947
-0.1263763763763768 	299.9999999999837 	3.438223304317397e-12 	101324.9999999948
-0.1238738738738743 	299.9999999999612 	4.370550816633022e-12 	101324.9999999948
-0.1213713713713717 	299.9999999999901 	2.579511823483215e-12 	101324.9999999948
-0.1188688688688693 	300.0000000000049 	4.53902545561498e-12 	101324.9999999948
-0.1163663663663668 	299.9999999999487 	1.43015043956141e-12 	101324.999999995
-0.1138638638638643 	299.999999999995 	3.855589968988315e-12 	101324.9999999952
-0.1113613613613618 	299.9999999999941 	2.744161437882264e-13 	101324.9999999951
-0.1088588588588592 	299.999999999988 	4.187384308025935e-12 	101324.9999999951
-0.1063563563563568 	299.9999999999761 	5.690847522080248e-13 	101324.999999995
-0.1038538538538543 	299.9999999999905 	4.060976289464809e-12 	101324.999999995
-0.1013513513513517 	300.0000000000065 	1.92970744236332e-12 	101324.9999999951
-0.09884884884884926 	299.9999999999697 	3.473913853152987e-12 	101324.9999999951
-0.09634634634634676 	299.9999999999507 	2.119583688742616e-12 	101324.9999999949
-0.09384384384384425 	299.9999999999569 	2.996357566225981e-12 	101324.9999999948
-0.09134134134134177 	300.0000000000123 	2.622722593870062e-12 	101324.9999999948
-0.08883883883883925 	300.0000000000043 	4.001630252993145e-12 	101324.9999999949
-0.08633633633633674 	299.9999999999747 	3.669965284491331e-12 	101324.9999999951
-0.08383383383383426 	300.0000000000015 	3.313573412678056e-12 	101324.999999995
-0.08133133133133173 	299.999999999977 	3.870135911025733e-12 	101324.9999999949
-0.07882882882882926 	299.9999999999386 	3.24127987411946e-12 	101324.9999999948
-0.07632632632632676 	299.9999999999808 	2.770657024139885e-12 	101324.9999999946
-0.07382382382382424 	299.9999999999437 	2.572779106911604e-12 	101324.9999999946
-0.07132132132132173 	300.000000000003 	2.702245769577797e-12 	101324.9999999944
-0.06881881881881925 	299.999999999974 	3.527055449193553e-12 	101324.9999999939
-0.06631631631631671 	299.9999999999411 	3.397213039955122e-12 	101324.9999999942
-0.06381381381381425 	299.9999999999783 	3.083899341374723e-12 	101324.9999999942
-0.06131131131131173 	299.9999999999796 	3.429641435718738e-12 	101324.9999999944
-0.05880880880880923 	299.999999999955 	3.278592063848879e-12 	101324.9999999944
-0.05630630630630672 	299.9999999999829 	3.068509816269714e-12 	101324.9999999944
-0.05380380380380424 	300.0000000000086 	2.842397492728859e-12 	101324.9999999943
-0.05130130130130173 	300.000000000005 	2.480614565170053e-12 	101324.9999999945
-0.04879879879879922 	299.9999999999688 	2.34214087486481e-12 	101324.9999999946
-0.04629629629629672 	299.999999999965 	2.62315833446337e-12 	101324.9999999949
-0.04379379379379422 	299.9999999999552 	2.540839427446392e-12 	101324.9999999951
-0.04129129129129173 	299.9999999999907 	1.792985837178179e-12 	101324.999999995
-0.03878878878878922 	299.9999999999922 	1.948267854913029e-12 	101324.9999999947
-0.03628628628628671 	299.9999999999922 	1.569804555460028e-12 	101324.9999999948
-0.03378378378378422 	299.9999999999612 	1.530516249880394e-12 	101324.9999999947
-0.03128128128128172 	299.9999999999829 	6.214716779362874e-13 	101324.9999999948
-0.02877877877877922 	299.9999999999832 	1.068519678224571e-12 	101324.9999999949
-0.0262762762762767 	299.9999999999469 	6.218893373462583e-13 	101324.999999995
-0.02377377377377422 	300.0000000000101 	8.473827713286518e-13 	101324.9999999948
-0.0212712712712717 	299.9999999999488 	7.88885833739818e-13 	101324.999999995
-0.01876876876876921 	299.999999999987 	4.129065498480762e-13 	101324.999999995
-0.01626626626626671 	300.0000000000059 	1.029435164801375e-12 	101324.9999999947
-0.0137637637637642 	299.9999999999824 	7.74380134816033e-14 	101324.9999999947
-0.0112612612612617 	300.0000000000088 	2.178587427795181e-13 	101324.9999999948
-0.008758758758759198 	299.9999999999993 	5.766888784726593e-14 	101324.9999999952
-0.006256256256256697 	299.999999999939 	3.219745586445189e-13 	101324.9999999952
-0.003753753753754195 	299.9999999999744 	1.62455629313962e-14 	101324.9999999953
-0.001251251251251693 	299.9999999999629 	3.197825714107096e-13 	101324.999999995
0.00125125125125081 	299.9999999999707 	2.545671332232863e-13 	101324.999999995
0.003753753753753312 	299.9999999999815 	3.460517378041355e-13 	101324.9999999948
0.006256256256255817 	299.999999999943 	1.506220948071509e-12 	101324.9999999953
0.008758758758758317 	299.9999999999968 	1.477225507548472e-12 	101324.9999999955
0.01126126126126082 	300.000000000004 	1.027370869949075e-12 	101324.9999999954
0.01376376376376332 	299.9999999999837 	6.442206238687504e-13 	101324.9999999953
0.01626626626626582 	300.0000000000043 	7.636441124474791e-13 	101324.9999999954
0.01876876876876833 	299.9999999999708 	6.63817915942412e-13 	101324.9999999955
0.02127127127127083 	299.9999999999816 	1.005101806329835e-12 	101324.9999999952
0.02377377377377332 	299.9999999999985 	5.228418307680801e-13 	101324.9999999952
0.02627627627627583 	299.9999999999501 	6.318302716903572e-13 	101324.9999999949
0.02877877877877833 	300.0000000000044 	1.162892794927266e-12 	101324.9999999945
0.03128128128128083 	299.9999999999709 	1.083927901283387e-12 	101324.9999999948
0.03378378378378333 	299.9999999999488 	1.658033471603649e-12 	101324.9999999948
0.03628628628628584 	299.9999999999858 	1.848632459524841e-12 	101324.9999999951
0.03878878878878834 	299.9999999999918 	1.935227507622178e-12 	101324.9999999949
0.04129129129129084 	299.9999999999883 	2.255036675611266e-12 	101324.9999999948
0.04379379379379333 	299.9999999999725 	2.348756267025997e-12 	101324.999999995
0.04629629629629585 	299.9999999999419 	3.019329400928373e-12 	101324.999999995
0.04879879879879834 	299.9999999999773 	3.272256977726051e-12 	101324.9999999949
0.05130130130130085 	300.0000000000041 	3.252652975713476e-12 	101324.999999995
0.05380380380380335 	300.0000000000102 	2.770123768530189e-12 	101324.999999995
0.05630630630630584 	299.9999999999977 	2.339372291062578e-12 	101324.9999999952
0.05880880880880836 	299.999999999962 	2.075928474578241e-12 	101324.9999999952
0.06131131131131085 	299.9999999999824 	2.098133584391014e-12 	101324.9999999951
0.06381381381381336 	299.9999999999783 	2.367538413323975e-12 	101324.9999999951
0.06631631631631586 	299.9999999999423 	2.495270964150595e-12 	101324.999999995
0.06881881881881835 	299.9999999999722 	2.885424697429616e-12 	101324.9999999949
0.07132132132132088 	299.9999999999981 	2.18685148937269e-12 	101324.9999999951
0.07382382382382337 	299.9999999999473 	2.434876868649084e-12 	101324.9999999957
0.07632632632632587 	299.9999999999834 	2.332188878220751e-12 	101324.9999999957
0.07882882882882837 	299.9999999999629 	2.272038905123439e-12 	101324.9999999955
0.08133133133133086 	299.9999999999899 	2.790732871297401e-12 	101324.9999999955
0.08383383383383337 	299.9999999999976 	2.954132905895508e-12 	101324.9999999953
0.08633633633633589 	299.99999999995 	3.360725704209774e-12 	101324.9999999952
0.08883883883883838 	300.0000000000049 	3.902345873538972e-12 	101324.9999999952
0.09134134134134086 	299.9999999999903 	3.173747169864437e-12 	101324.9999999949
0.09384384384384339 	299.9999999999458 	3.926025662933546e-12 	101324.9999999945
0.09634634634634588 	299.99999999998 	4.605820418678683e-12 	101324.9999999948
0.09884884884884838 	299.9999999999851 	5.136397782314931e-12 	101324.9999999949
0.1013513513513509 	300.0000000000126 	5.149699801134766e-12 	101324.999999995
0.1038538538538534 	299.9999999999724 	5.232660269575863e-12 	101324.9999999948
0.1063563563563559 	300.0000000000024 	5.116069566626001e-12 	101324.9999999947
0.1088588588588584 	300.000000000014 	4.13921452716963e-12 	101324.9999999949
0.1113613613613609 	299.9999999999662 	4.153673564089092e-12 	101324.9999999951
0.1138638638638634 	299.9999999999729 	4.60878381365445e-12 	101324.9999999953
0.1163663663663659 	299.9999999999716 	5.289606675693283e-12 	101324.999999995
0.1188688688688684 	299.9999999999872 	5.686487485821836e-12 	101324.9999999949
0.1213713713713709 	299.9999999999976 	5.627103021708254e-12 	101324.9999999952
0.1238738738738734 	299.9999999999567 	5.39209941784424e-12 	101324.9999999951
0.1263763763763759 	299.999999999992 	5.380689287177394e-12 	101324.999999995
0.1288788788788784 	299.9999999999921 	4.902289847761974e-12 	101324.9999999949
0.1313813813813809 	299.9999999999906 	4.865562593440079e-12 	101324.9999999951
0.1338838838838834 	299.9999999999825 	4.785998591312676e-12 	101324.999999995
0.1363863863863859 	300.0000000000089 	4.26323706721377e-12 	101324.9999999949
0.1388888888888884 	300.0000000000246 	3.472454820608642e-12 	101324.9999999949
0.1413913913913909 	299.9999999999999 	2.905369818471123e-12 	101324.9999999951
0.1438938938938934 	299.9999999999905 	3.38907590376243e-12 	101324.9999999952
0.1463963963963959 	299.9999999999768 	3.016069888801996e-12 	101324.9999999952
0.1488988988988985 	299.9999999999503 	4.261340904329324e-12 	101324.9999999949
0.1514014014014009 	299.9999999999807 	3.665674809118318e-12 	101324.9999999949
0.1539039039039035 	299.9999999999809 	4.917115853928643e-12 	101324.9999999949
0.1564064064064059 	299.9999999999723 	3.089933454687565e-12 	101324.9999999949
0.1589089089089084 	299.9999999999901 	5.699941997123423e-12 	101324.999999995
0.1614114114114109 	299.999999999987 	3.498313641050636e-12 	101324.9999999952
0.1639139139139134 	299.9999999999532 	5.518815724305928e-12 	101324.9999999952
0.166416416416416 	300.0000000000001 	5.356793175940196e-12 	101324.9999999951
0.1689189189189185 	300.0000000000148 	4.971329291928862e-12 	101324.9999999951
0.1714214214214209 	299.9999999999966 	5.263375613351278e-12 	101324.9999999952
0.1739239239239235 	299.9999999999891 	3.517697524466986e-12 	101324.9999999953
0.1764264264264259 	299.9999999999812 	5.327048463058045e-12 	101324.999999995
0.1789289289289284 	300.0000000000018 	2.727534130890982e-12 	101324.999999995
0.181431431431431 	299.9999999999789 	5.064674995574197e-12 	101324.9999999949
0.1839339339339334 	299.9999999999805 	2.981746287627514e-12 	101324.9999999947
0.186436436436436 	299.9999999999646 	4.156353036380104e-12 	101324.9999999949
0.1889389389389385 	299.9999999999893 	3.288353439301408e-12 	101324.9999999948
0.191441441441441 	299.9999999999873 	2.94976370540085e-12 	101324.9999999948
0.1939439439439434 	299.9999999999578 	4.036460740159379e-12 	101324.9999999948
0.196446446446446 	299.9999999999691 	2.420977239467244e-12 	101324.9999999949
0.1989489489489485 	299.9999999999773 	4.654061345884281e-12 	101324.9999999948
0.2014514514514509 	299.9999999999895 	2.942380815218161e-12 	101324.9999999948
0.2039539539539535 	299.9999999999974 	4.582544845773248e-12 	101324.9999999949
0.2064564564564559 	299.9999999999765 	4.106203387875273e-12 	101324.999999995
0.2089589589589585 	299.9999999999902 	4.34888783723795e-12 	101324.999999995
0.211461461461461 	299.999999999967 	4.234118606750814e-12 	101324.999999995
0.2139639639639635 	299.9999999999924 	4.199752746286454e-12 	101324.9999999949
0.2164664664664659 	300.0000000000043 	5.167675102230306e-12 	101324.9999999951
0.2189689689689684 	300.0000000000038 	3.240322343884559e-12 	101324.9999999953
0.221471471471471 	299.9999999999985 	5.132927274336037e-12 	101324.9999999954
0.2239739739739735 	299.9999999999736 	3.146200114250201e-12 	101324.9999999954
0.226476476476476 	299.9999999999903 	4.191164456338663e-12 	101324.9999999953
0.2289789789789785 	299.9999999999993 	3.793005051790816e-12 	101324.9999999952
0.231481481481481 	299.9999999999947 	3.760380834268594e-12 	101324.9999999953
0.2339839839839835 	299.9999999999911 	4.163064072958671e-12 	101324.9999999953
0.236486486486486 	300.0000000000116 	3.305217808063621e-12 	101324.9999999952
0.2389889889889885 	300.0000000000015 	4.228848602543783e-12 	101324.9999999951
0.241491491491491 	299.9999999999585 	2.329582620044691e-12 	101324.9999999954
0.2439939939939935 	299.9999999999844 	5.736332510666834e-12 	101324.9999999954
0.246496496496496 	299.9999999999902 	4.002273470718779e-12 	101324.9999999954
0.2489989989989985 	300.0000000000168 	5.261398986526697e-12 	101324.9999999953
0.251501501501501 	300.0000000000135 	4.095967342291867e-12 	101324.9999999952
0.2540040040040035 	299.9999999999907 	3.796168527445784e-12 	101324.999999995
0.256506506506506 	300.0000000000154 	4.070379760095762e-12 	101324.999999995
0.2590090090090086 	299.9999999999548 	2.373160590844672e-12 	101324.9999999952
0.261511511511511 	300.0000000000031 	4.815082339010052e-12 	101324.999999995
0.2640140140140135 	299.9999999999951 	2.327973234995595e-12 	101324.999999995
0.2665165165165161 	299.9999999999631 	3.715760484176988e-12 	101324.9999999951
0.2690190190190185 	300.0000000000067 	2.785157657367517e-12 	101324.9999999949
0.271521521521521 	300.0000000000033 	3.030374600822744e-12 	101324.9999999949
0.2740240240240235 	300.0000000000107 	3.417606325971757e-12 	101324.9999999952
0.276526526526526 	300.0000000000044 	2.230794954453648e-12 	101324.9999999951
0.2790290290290286 	299.9999999999694 	2.84438149926099e-12 	101324.9999999953
0.281531531531531 	299.999999999956 	1.17051670940096e-12 	101324.9999999951
0.2840340340340335 	299.9999999999915 	3.481769161302516e-12 	101324.9999999949
0.2865365365365361 	299.9999999999753 	2.420391909455232e-12 	101324.999999995
0.2890390390390385 	299.9999999999982 	3.507451026207529e-12 	101324.9999999953
0.291541541541541 	299.9999999999984 	2.819515990725427e-12 	101324.9999999953
0.2940440440440436 	299.9999999999982 	2.626353798995563e-12 	101324.9999999952
0.296546546546546 	299.9999999999934 	3.236318137862892e-12 	101324.9999999953
0.2990490490490486 	299.999999999962 	2.546734702153553e-12 	101324.9999999954
0.3015515515515511 	300.0000000000184 	5.23731890721339e-12 	101324.9999999953
0.3040540540540535 	299.9999999999958 	2.052232085122843e-12 	101324.9999999954
0.3065565565565562 	299.9999999999977 	5.487959783338746e-12 	101324.9999999953
0.3090590590590585 	299.9999999999932 	1.240098325235497e-12 	101324.9999999957
0.3115615615615611 	299.9999999999619 	3.783708365424885e-12 	101324.9999999957
0.3140640640640635 	299.9999999999997 	1.497298780321048e-12 	101324.9999999958
0.316566566566566 	299.999999999994 	2.327280207274253e-12 	101324.9999999958
0.3190690690690687 	299.9999999999744 	1.003041261858054e-12 	101324.9999999958
0.3215715715715711 	300.0000000000079 	1.822971067385691e-12 	101324.9999999959
0.3240740740740735 	299.9999999999987 	9.412443631353729e-13 	101324.9999999959
0.326576576576576 	299.9999999999486 	1.653123904720612e-12 	101324.9999999957
0.3290790790790786 	300.0000000000023 	1.999761532620213e-12 	101324.9999999956
0.3315815815815811 	300.000000000021 	2.591008798799266e-12 	101324.9999999954
0.3340840840840836 	299.9999999999914 	2.294383700010581e-12 	101324.9999999953
0.3365865865865861 	300.000000000033 	2.148585138530248e-12 	101324.9999999952
0.3390890890890886 	300.0000000000252 	6.687537846258566e-13 	101324.9999999951
0.3415915915915911 	300.0000000000024 	9.147067895044969e-13 	101324.9999999951
0.3440940940940935 	299.9999999999783 	1.020146625069208e-12 	101324.9999999949
0.3465965965965962 	300.0000000000172 	7.001944037314566e-13 	101324.9999999951
0.3490990990990985 	300.0000000000138 	1.290833572236646e-12 	101324.999999995
0.3516016016016011 	299.9999999999919 	3.577676725976565e-13 	101324.999999995
0.3541041041041035 	300.0000000000033 	4.821653430049397e-13 	101324.9999999951
0.3566066066066061 	299.9999999999786 	5.668499477666164e-13 	101324.9999999953
0.3591091091091085 	299.9999999999578 	6.364528861465496e-13 	101324.9999999954
0.3616116116116112 	299.9999999999673 	1.341885576422269e-12 	101324.9999999956
0.3641141141141137 	299.9999999999619 	8.577243373314715e-13 	101324.9999999956
0.3666166166166161 	299.9999999999588 	2.079755799693199e-12 	101324.9999999955
0.3691191191191185 	300.0000000000169 	1.755188730360887e-12 	101324.9999999953
0.371621621621621 	300.000000000009 	1.56468225332994e-12 	101324.9999999953
0.3741241241241237 	300.0000000000254 	1.470628745911664e-12 	101324.9999999954
0.3766266266266261 	300.0000000000123 	6.120869184609784e-13 	101324.9999999955
0.3791291291291286 	299.9999999999914 	1.14226967113656e-12 	101324.9999999956
0.3816316316316311 	299.9999999999575 	6.815118066476117e-13 	101324.9999999957
0.3841341341341336 	300.0000000000042 	1.40228117106629e-12 	101324.9999999956
0.3866366366366362 	299.9999999999973 	3.519267525307813e-13 	101324.9999999957
0.3891391391391387 	299.9999999999777 	4.375398331153704e-13 	101324.9999999955
0.391641641641641 	299.9999999999965 	1.738576390802554e-13 	101324.9999999954
0.3941441441441436 	300.0000000000058 	2.128860056123066e-13 	101324.9999999955
0.3966466466466462 	300.0000000000003 	8.959264338398736e-13 	101324.9999999955
0.3991491491491486 	299.9999999999739 	8.001005757031192e-13 	101324.9999999955
0.4016516516516512 	299.999999999958 	1.496125314366315e-12 	101324.9999999955
0.4041541541541536 	299.9999999999764 	4.942316002231854e-13 	101324.9999999954
0.4066566566566561 	299.9999999999768 	1.780439731251043e-12 	101324.9999999952
0.4091591591591587 	299.9999999999986 	6.861010027735647e-13 	101324.9999999948
0.4116616616616612 	300.0000000000035 	1.892531116225147e-12 	101324.9999999946
0.4141641641641635 	300.0000000000161 	7.024437976802792e-13 	101324.9999999948
0.4166666666666662 	299.9999999999976 	1.417030801023009e-12 	101324.9999999952
0.4191691691691687 	299.9999999999719 	1.609320621326667e-12 	101324.9999999956
0.421671671671671 	300.0000000000032 	1.190109966283431e-12 	101324.9999999956
0.4241741741741737 	299.9999999999896 	3.174611612453169e-12 	101324.9999999958
0.4266766766766761 	299.9999999999742 	1.204203148862737e-12 	101324.9999999957
0.4291791791791785 	300.0000000000123 	4.442424798523234e-12 	101324.9999999956
0.4316816816816812 	300.0000000000049 	1.294466003151111e-12 	101324.9999999956
0.4341841841841836 	299.9999999999901 	4.516469615573204e-12 	101324.9999999955
0.4366866866866862 	299.9999999999602 	1.746952003863514e-12 	101324.9999999955
0.4391891891891885 	299.9999999999949 	3.685312070068769e-12 	101324.9999999955
0.4416916916916913 	299.9999999999937 	2.791519776403635e-12 	101324.9999999955
0.4441941941941936 	299.9999999999957 	3.520220652500244e-12 	101324.9999999957
0.4466966966966961 	299.9999999999594 	2.919197249353387e-12 	101324.9999999958
0.4491991991991987 	299.9999999999942 	2.632111110791307e-12 	101324.9999999959
0.4517017017017012 	299.9999999999939 	2.9014843573989e-12 	101324.9999999961
0.4542042042042035 	299.9999999999936 	2.520739894315418e-12 	101324.9999999961
0.4567067067067062 	299.9999999999997 	2.716813395853878e-12 	101324.999999996
0.4592092092092087 	299.9999999999662 	2.299173452537634e-12 	101324.9999999959
0.4617117117117112 	300.0000000000109 	2.653407532436518e-12 	101324.9999999959
0.4642142142142137 	299.9999999999833 	2.490629261578523e-12 	101324.9999999961
0.4667167167167162 	299.9999999999959 	1.814644202506857e-12 	101324.999999996
0.4692192192192187 	299.9999999999799 	1.515987092181027e-12 	101324.9999999958
0.4717217217217212 	300.0000000000021 	1.130731181606954e-12 	101324.9999999959
0.4742242242242236 	299.9999999999772 	1.13897920025504e-12 	101324.999999996
0.4767267267267262 	299.9999999999894 	8.939182231386432e-13 	101324.9999999959
0.4792292292292287 	300.0000000000096 	1.559205148555543e-12 	101324.9999999958
0.4817317317317312 	300.0000000000156 	2.42886625720726e-12 	101324.9999999957
0.4842342342342336 	299.9999999999911 	3.426979936421961e-12 	101324.9999999957
0.4867367367367362 	299.9999999999792 	3.777133457233102e-12 	101324.999999996
0.4892392392392387 	300.0000000000161 	3.434883723266072e-12 	101324.9999999962
0.4917417417417412 	300.0000000000026 	4.374087597653706e-12 	101324.9999999961
0.4942442442442437 	299.9999999999518 	3.650804270910483e-12 	101324.9999999961
0.4967467467467462 	299.999999999965 	4.362319186355739e-12 	101324.9999999959
0.4992492492492487 	299.9999999999572 	1.735948226076374e-12 	101324.9999999958
0.5017517517517511 	299.9999999999748 	2.487053725219081e-12 	101324.9999999958
0.5042542542542537 	299.9999999999818 	1.767249077337503e-12 	101324.9999999958
0.5067567567567562 	299.9999999999724 	2.425664114216607e-12 	101324.9999999956
0.5092592592592589 	299.9999999999807 	2.309617939780945e-12 	101324.9999999958
0.5117617617617611 	299.9999999999787 	1.571135200758955e-12 	101324.9999999959
0.5142642642642637 	299.9999999999948 	2.487470409615133e-12 	101324.9999999958
0.5167667667667663 	299.999999999987 	1.705492219197104e-12 	101324.9999999957
0.5192692692692688 	299.9999999999584 	4.221501508352679e-12 	101324.9999999956
0.5217717717717714 	299.9999999999686 	1.392304480470407e-12 	101324.9999999955
0.5242742742742736 	299.9999999999688 	3.966321651181068e-12 	101324.9999999954
0.5267767767767763 	299.9999999999806 	1.572497970325574e-12 	101324.9999999954
0.5292792792792789 	299.9999999999703 	4.111334893870336e-12 	101324.9999999952
0.5317817817817813 	299.9999999999496 	2.731588471250863e-12 	101324.9999999953
0.5342842842842837 	300.0000000000078 	3.331491958510649e-12 	101324.9999999953
0.5367867867867864 	299.9999999999997 	3.053852109660888e-12 	101324.9999999955
0.5392892892892888 	299.999999999978 	3.556245852976731e-12 	101324.9999999958
0.5417917917917912 	300.0000000000045 	2.97593244678072e-12 	101324.9999999958
0.5442942942942938 	299.9999999999901 	3.809464395311192e-12 	101324.9999999959
0.5467967967967964 	299.9999999999775 	4.000895606983017e-12 	101324.9999999959
0.5492992992992988 	299.999999999972 	4.290377223449051e-12 	101324.9999999959
0.5518018018018012 	299.999999999968 	3.418589286741088e-12 	101324.999999996
0.5543043043043039 	300.0000000000087 	3.574355156255619e-12 	101324.9999999962
0.5568068068068063 	299.9999999999944 	3.07059479760979e-12 	101324.9999999962
0.5593093093093087 	299.9999999999533 	3.117005165231093e-12 	101324.999999996
0.5618118118118114 	299.999999999982 	1.386090401545913e-12 	101324.9999999958
0.5643143143143137 	299.9999999999718 	2.351775722886345e-12 	101324.9999999954
0.5668168168168163 	299.9999999999965 	1.533675150216744e-12 	101324.9999999952
0.5693193193193188 	300.0000000000157 	1.898384810708015e-12 	101324.9999999953
0.5718218218218213 	300.0000000000124 	2.11681229420019e-12 	101324.9999999955
0.5743243243243239 	300.0000000000026 	1.936786448811969e-12 	101324.9999999955
0.5768268268268262 	300.0000000000015 	2.708533356111756e-12 	101324.9999999953
0.5793293293293288 	299.9999999999741 	1.175107220916572e-12 	101324.9999999954
0.5818318318318314 	299.999999999961 	3.041900576165164e-12 	101324.9999999956
0.5843343343343338 	299.9999999999921 	1.689263831947403e-12 	101324.9999999958
0.5868368368368363 	299.9999999999893 	3.275384285673544e-12 	101324.9999999957
0.5893393393393387 	299.999999999975 	1.528243691928258e-12 	101324.9999999958
0.5918418418418413 	299.9999999999725 	3.056700287155139e-12 	101324.9999999957
0.5943443443443439 	300.000000000006 	2.313205874430805e-12 	101324.9999999957
0.5968468468468463 	300.000000000006 	3.396592784174579e-12 	101324.9999999955
0.5993493493493487 	300.0000000000223 	3.104919842424183e-12 	101324.9999999954
0.6018518518518514 	299.9999999999884 	3.225261651267282e-12 	101324.9999999955
0.6043543543543537 	299.9999999999956 	3.025264427751458e-12 	101324.9999999955
0.6068568568568564 	299.9999999999898 	3.581807277901616e-12 	101324.9999999955
0.6093593593593587 	299.9999999999658 	3.493974572416279e-12 	101324.9999999956
0.6118618618618614 	299.9999999999607 	3.403797302186059e-12 	101324.9999999957
0.6143643643643638 	300.0000000000084 	2.665608348043279e-12 	101324.9999999957
0.6168668668668662 	299.9999999999927 	2.734218331910636e-12 	101324.9999999957
0.6193693693693688 	299.9999999999747 	1.148883460574287e-12 	101324.9999999955
0.6218718718718714 	299.9999999999819 	1.958976829137108e-12 	101324.9999999955
0.6243743743743737 	299.9999999999687 	8.549827359753327e-13 	101324.9999999955
0.6268768768768762 	299.9999999999609 	1.951573513560233e-12 	101324.9999999954
0.629379379379379 	299.9999999999713 	1.128335365306868e-12 	101324.9999999952
0.6318818818818812 	299.9999999999808 	1.928271718006272e-12 	101324.9999999952
0.6343843843843838 	300.0000000000098 	1.628386347038689e-12 	101324.9999999953
0.6368868868868864 	299.999999999991 	1.632772459544266e-12 	101324.9999999952
0.6393893893893888 	299.9999999999585 	2.350837554448093e-12 	101324.9999999955
0.6418918918918912 	300.0000000000034 	1.710156413583849e-12 	101324.9999999955
0.6443943943943939 	299.9999999999971 	3.09428438991987e-12 	101324.9999999956
0.6468968968968963 	299.999999999991 	2.112699714841644e-12 	101324.9999999957
0.6493993993993988 	299.9999999999873 	2.589165117355172e-12 	101324.9999999957
0.6519019019019012 	299.9999999999856 	1.162672901970491e-12 	101324.9999999956
0.6544044044044038 	299.9999999999538 	2.906255103870735e-12 	101324.9999999958
0.6569069069069065 	299.9999999999822 	1.393499605989807e-12 	101324.9999999959
0.6594094094094087 	299.9999999999812 	3.193570900623015e-12 	101324.999999996
0.6619119119119113 	299.9999999999733 	2.689812256008369e-12 	101324.999999996
0.664414414414414 	299.9999999999959 	3.750015912155233e-12 	101324.9999999957
0.6669169169169162 	300.0000000000063 	3.416424080369362e-12 	101324.9999999954
0.6694194194194188 	299.9999999999897 	3.975058980325587e-12 	101324.9999999952
0.6719219219219214 	299.9999999999628 	2.846354717531781e-12 	101324.9999999951
0.674424424424424 	299.9999999999883 	2.353242121015354e-12 	101324.999999995
0.6769269269269262 	299.9999999999587 	1.176884803390346e-12 	101324.999999995
0.679429429429429 	300.0000000000022 	1.149908355905337e-12 	101324.999999995
0.6819319319319311 	299.9999999999848 	6.239781850498311e-13 	101324.999999995
0.6844344344344341 	299.999999999998 	8.28278712693988e-13 	101324.9999999951
0.686936936936936 	299.9999999999964 	6.176304186075812e-13 	101324.9999999953
0.6894394394394392 	299.9999999999942 	2.962792466239286e-13 	101324.9999999953
0.6919419419419413 	299.9999999999922 	1.646157663384694e-13 	101324.9999999953
0.694444444444444 	299.9999999999711 	5.538579990925016e-13 	101324.9999999952
0.6969469469469463 	299.9999999999621 	7.946372666584138e-13 	101324.9999999953
0.6994494494494489 	299.9999999999586 	4.928113376820799e-13 	101324.9999999953
0.7019519519519515 	299.999999999992 	1.128760978700982e-12 	101324.9999999954
0.7044544544544538 	299.9999999999758 	1.042022108077187e-12 	101324.9999999953
0.7069569569569564 	299.9999999999949 	1.965535719495702e-12 	101324.9999999953
0.7094594594594589 	299.9999999999794 	7.817379580118532e-13 	101324.9999999952
0.7119619619619615 	299.9999999999538 	1.522011991367168e-12 	101324.9999999953
0.7144644644644638 	299.9999999999721 	3.14277540260649e-13 	101324.9999999952
0.7169669669669665 	299.9999999999576 	7.215764987616899e-13 	101324.999999995
0.7194694694694688 	299.9999999999931 	4.544317770176216e-13 	101324.9999999948
0.7219719719719715 	299.9999999999912 	1.682644304651287e-13 	101324.9999999949
0.7244744744744737 	299.9999999999978 	4.772923453410222e-13 	101324.9999999948
0.7269769769769764 	299.9999999999955 	8.285372772409347e-13 	101324.9999999949
0.7294794794794791 	299.9999999999943 	1.501951041414414e-12 	101324.9999999951
0.7319819819819813 	299.9999999999907 	1.281953918563251e-12 	101324.9999999951
0.7344844844844839 	299.9999999999612 	8.869863833684246e-13 	101324.9999999951
0.7369869869869864 	299.9999999999797 	7.275044384108586e-13 	101324.9999999952
0.739489489489489 	299.9999999999723 	2.585536454089827e-13 	101324.9999999954
0.7419919919919914 	299.9999999999665 	8.448015374561132e-13 	101324.9999999954
0.7444944944944939 	299.9999999999887 	1.405004919148784e-12 	101324.9999999953
0.7469969969969963 	299.9999999999835 	1.932793849928151e-12 	101324.9999999953
0.7494994994994989 	299.9999999999692 	2.593170554576539e-12 	101324.9999999951
0.7520020020020015 	299.9999999999844 	1.89340093085393e-12 	101324.9999999951
0.7545045045045039 	299.999999999984 	2.20174331506864e-12 	101324.9999999951
0.7570070070070062 	299.9999999999711 	6.029752605740196e-13 	101324.9999999951
0.7595095095095092 	299.9999999999635 	1.652959796230866e-12 	101324.9999999952
0.7620120120120112 	299.9999999999998 	8.100624421270104e-13 	101324.9999999951
0.7645145145145138 	299.9999999999939 	7.870855432642952e-13 	101324.9999999951
0.7670170170170165 	299.9999999999683 	1.513938141039525e-12 	101324.9999999952
0.7695195195195191 	299.9999999999603 	1.486637831773086e-12 	101324.9999999952
0.7720220220220213 	299.9999999999691 	1.96638720508547e-12 	101324.9999999953
0.7745245245245239 	299.999999999971 	9.799664008600712e-13 	101324.9999999953
0.7770270270270263 	299.9999999999885 	1.500217592158669e-12 	101324.9999999953
0.779529529529529 	299.9999999999914 	6.051895210660775e-13 	101324.9999999954
0.7820320320320313 	299.9999999999835 	1.32363970575894e-12 	101324.9999999955
0.784534534534534 	299.9999999999972 	9.859578916335709e-13 	101324.9999999954
0.7870370370370364 	299.9999999999949 	6.59920399094282e-13 	101324.9999999954
0.7895395395395389 	299.9999999999861 	1.322553267196429e-12 	101324.9999999952
0.7920420420420413 	299.9999999999866 	1.609279902266662e-12 	101324.9999999951
0.794544544544544 	299.9999999999923 	2.198576972642219e-12 	101324.999999995
0.7970470470470463 	300.0000000000022 	2.197372734220285e-12 	101324.9999999949
0.799549549549549 	299.9999999999882 	1.969048577174098e-12 	101324.9999999948
0.8020520520520515 	299.9999999999907 	1.489603821480985e-12 	101324.9999999947
0.8045545545545539 	299.999999999973 	8.679951301635376e-13 	101324.9999999947
0.8070570570570563 	299.9999999999923 	2.298885817615419e-13 	101324.9999999946
0.8095595595595589 	299.9999999999791 	4.305193606589422e-13 	101324.9999999943
0.8120620620620614 	299.999999999964 	8.095159538429567e-13 	101324.9999999942
0.8145645645645638 	299.9999999999937 	1.077500118972916e-12 	101324.9999999942
0.8170670670670666 	299.9999999999908 	1.969628891219715e-12 	101324.9999999943
0.8195695695695689 	299.9999999999854 	1.588036408523471e-12 	101324.9999999943
0.8220720720720714 	299.9999999999713 	2.931017230626427e-12 	101324.9999999944
0.8245745745745739 	299.9999999999998 	1.518862612768105e-12 	101324.9999999944
0.8270770770770765 	299.9999999999882 	2.675322846846513e-12 	101324.9999999946
0.8295795795795788 	299.9999999999769 	2.166534949275911e-12 	101324.9999999948
0.8320820820820815 	300.0000000000114 	2.539081756131986e-12 	101324.9999999948
0.834584584584584 	299.9999999999997 	1.67175130825957e-12 	101324.999999995
0.8370870870870865 	299.9999999999806 	1.024250678524258e-12 	101324.999999995
0.8395895895895891 	299.999999999962 	1.12528192597361e-12 	101324.9999999951
0.8420920920920915 	299.9999999999667 	4.820817370477801e-13 	101324.9999999953
0.844594594594594 	299.9999999999641 	6.590682702554408e-13 	101324.9999999953
0.8470970970970964 	299.9999999999695 	6.881823489404362e-13 	101324.9999999953
0.8495995995995991 	299.9999999999894 	1.090480358368155e-12 	101324.9999999954
0.8521021021021015 	299.9999999999869 	1.546024260187298e-12 	101324.9999999954
0.8546046046046039 	299.9999999999885 	1.592112804796259e-12 	101324.9999999953
0.8571071071071066 	299.9999999999983 	2.308889204412464e-12 	101324.9999999952
0.8596096096096089 	299.9999999999772 	1.353594151019835e-12 	101324.9999999953
0.8621121121121116 	299.9999999999613 	2.761549498233426e-12 	101324.9999999953
0.8646146146146139 	299.9999999999903 	1.757634471128492e-12 	101324.9999999953
0.8671171171171166 	299.999999999987 	2.441484495450183e-12 	101324.9999999954
0.8696196196196189 	299.9999999999765 	1.751663767929261e-12 	101324.9999999954
0.8721221221221216 	299.9999999999779 	2.203564410445894e-12 	101324.9999999955
0.874624624624624 	299.9999999999975 	2.401828594904863e-12 	101324.9999999955
0.8771271271271264 	300.0000000000023 	2.40416329011726e-12 	101324.9999999955
0.879629629629629 	300.0000000000014 	3.027592751955947e-12 	101324.9999999957
0.8821321321321317 	299.9999999999931 	1.698276606340739e-12 	101324.9999999958
0.8846346346346339 	299.9999999999631 	2.813855968681158e-12 	101324.9999999958
0.8871371371371364 	299.9999999999784 	1.22178451563914e-12 	101324.9999999958
0.8896396396396391 	299.9999999999775 	2.044883882288647e-12 	101324.9999999958
0.8921421421421414 	299.9999999999766 	1.408448818587214e-12 	101324.9999999958
0.8946446446446441 	299.99999999999 	1.892541114604834e-12 	101324.999999996
0.8971471471471464 	300.0000000000003 	1.684895747874858e-12 	101324.9999999961
0.8996496496496489 	299.999999999985 	1.522881640496059e-12 	101324.9999999961
0.9021521521521517 	299.9999999999783 	2.244638557394749e-12 	101324.999999996
0.9046546546546541 	299.9999999999942 	1.818948082677556e-12 	101324.9999999959
0.9071571571571564 	299.999999999973 	2.700047640266179e-12 	101324.9999999958
0.9096596596596589 	299.9999999999739 	3.227730111832206e-12 	101324.9999999957
0.9121621621621616 	300.0000000000036 	3.565536112104659e-12 	101324.9999999957
0.9146646646646639 	299.9999999999912 	3.511230416857562e-12 	101324.9999999956
0.9171671671671666 	299.9999999999745 	3.682001661116466e-12 	101324.9999999956
0.9196696696696689 	300.0000000000001 	3.384079144469659e-12 	101324.9999999957
0.9221721721721714 	300.0000000000007 	1.874693461291269e-12 	101324.9999999958
0.9246746746746741 	299.9999999999696 	2.923062942387254e-12 	101324.9999999957
0.9271771771771765 	299.999999999969 	1.661146251489804e-12 	101324.9999999957
0.9296796796796791 	299.9999999999923 	3.002109825131059e-12 	101324.9999999956
0.9321821821821816 	299.9999999999818 	2.441655061886614e-12 	101324.9999999957
0.9346846846846838 	299.9999999999711 	3.096328209680394e-12 	101324.9999999959
0.9371871871871866 	300.0000000000048 	2.594557740943465e-12 	101324.9999999959
0.9396896896896891 	300.0000000000059 	2.201562609143581e-12 	101324.9999999959
0.9421921921921914 	300.0000000000033 	2.531617746300429e-12 	101324.9999999959
0.9446946946946939 	299.999999999981 	1.749732671714453e-12 	101324.999999996
0.9471971971971965 	299.99999999996 	2.836374308058349e-12 	101324.9999999961
0.9496996996996991 	299.9999999999774 	1.816406485953442e-12 	101324.9999999962
0.9522022022022016 	299.9999999999851 	3.036563394742956e-12 	101324.9999999961
0.9547047047047038 	299.9999999999886 	2.467746404282677e-12 	101324.999999996
0.9572072072072064 	299.9999999999863 	2.701069900909294e-12 	101324.9999999961
0.9597097097097093 	299.9999999999849 	2.829902162985466e-12 	101324.9999999962
0.9622122122122114 	299.9999999999813 	2.938164448689619e-12 	101324.9999999961
0.964714714714714 	299.9999999999829 	3.795437439928378e-12 	101324.999999996
0.9672172172172167 	299.9999999999811 	3.233386618896814e-12 	101324.999999996
0.969719719719719 	299.9999999999915 	3.485083389833168e-12 	101324.999999996
0.9722222222222214 	299.9999999999869 	3.102385016077537e-12 	101324.9999999959
0.9747247247247239 	299.999999999982 	3.217226470636859e-12 	101324.9999999958
0.9772272272272267 	299.9999999999964 	2.859867472971139e-12 	101324.9999999958
0.9797297297297292 	299.9999999999916 	2.588778339987067e-12 	101324.9999999958
0.9822322322322313 	299.9999999999948 	3.048050505251066e-12 	101324.9999999957
0.9847347347347344 	299.9999999999948 	2.144866600663576e-12 	101324.9999999958
0.9872372372372363 	299.999999999979 	3.45170576569677e-12 	101324.9999999958
0.9897397397397389 	299.99999999999 	2.394195730896812e-12 	101324.9999999957
0.9922422422422417 	299.9999999999782 	3.702571503336266e-12 	101324.9999999958
0.9947447447447441 	299.9999999999778 	3.262179518251133e-12 	101324.9999999958
0.9972472472472468 	299.9999999999818 	4.095366424218907e-12 	101324.9999999958
0.999749749749749 	299.9999999999793 	3.938140572227983e-12 	101324.9999999959
1.002252252252252 	299.9999999999858 	4.465901041280992e-12 	101324.9999999959
1.004754754754754 	299.9999999999872 	4.6896908475282e-12 	101324.9999999959
1.007257257257256 	299.9999999999789 	3.968797250207631e-12 	101324.999999996
1.009759759759759 	299.9999999999731 	5.029569390406019e-12 	101324.9999999958
1.012262262262261 	299.9999999999771 	3.656120474291617e-12 	101324.9999999959
1.014764764764764 	299.9999999999618 	4.402008895148137e-12 	101324.999999996
1.017267267267267 	299.9999999999569 	4.04697822312739e-12 	101324.999999996
1.019769769769769 	299.9999999999844 	4.845858042382889e-12 	101324.9999999961
1.022272272272272 	299.9999999999886 	4.461866555029818e-12 	101324.9999999961
1.024774774774774 	299.9999999999839 	4.455181953599286e-12 	101324.9999999962
1.027277277277277 	299.9999999999853 	4.887209929936321e-12 	101324.9999999963
1.029779779779779 	300.0000000000005 	3.916643003844742e-12 	101324.9999999962
1.032282282282282 	300.0000000000005 	3.809289897785986e-12 	101324.9999999962
1.034784784784784 	299.9999999999974 	3.169870008719114e-12 	101324.9999999962
1.037287287287286 	299.9999999999833 	3.399924520984266e-12 	101324.9999999964
1.039789789789789 	299.9999999999845 	3.446360480736386e-12 	101324.9999999966
1.042292292292291 	300.000000000002 	3.365795572349704e-12 	101324.9999999968
1.044794794794794 	300.0000000000067 	3.087243812497103e-12 	101324.9999999969
1.047297297297296 	300.0000000000162 	2.456188514756513e-12 	101324.9999999969
1.049799799799799 	299.9999999999915 	3.64726349101335e-12 	101324.9999999968
1.052302302302302 	299.9999999999765 	3.021506759926388e-12 	101324.9999999968
1.054804804804804 	299.9999999999678 	4.25518085204967e-12 	101324.9999999968
1.057307307307306 	299.9999999999612 	3.796641266458228e-12 	101324.9999999969
1.059809809809809 	299.9999999999809 	4.755676782762836e-12 	101324.9999999968
1.062312312312312 	299.9999999999763 	4.630546457192097e-12 	101324.9999999967
1.064814814814814 	299.9999999999714 	5.281977713258006e-12 	101324.9999999968
1.067317317317317 	299.9999999999591 	5.347362874647899e-12 	101324.999999997
1.069819819819819 	299.9999999999636 	5.259232963634738e-12 	101324.9999999973
1.072322322322321 	299.9999999999965 	5.851808428479732e-12 	101324.9999999973
1.074824824824824 	300.0000000000019 	4.335785893727969e-12 	101324.9999999972
1.077327327327327 	300.0000000000124 	4.937821148925751e-12 	101324.9999999972
1.079829829829829 	300.0000000000186 	3.693015542639745e-12 	101324.9999999972
1.082332332332332 	300.0000000000032 	3.920368912842624e-12 	101324.9999999972
1.084834834834834 	299.9999999999934 	3.786412651378478e-12 	101324.9999999972
1.087337337337337 	299.9999999999722 	4.203155612352042e-12 	101324.9999999972
1.089839839839839 	299.9999999999654 	5.216846883404973e-12 	101324.9999999971
1.092342342342342 	299.9999999999832 	4.44625367844991e-12 	101324.9999999971
1.094844844844844 	299.9999999999859 	5.652261147379268e-12 	101324.9999999972
1.097347347347347 	299.9999999999739 	5.635899782414448e-12 	101324.9999999973
1.099849849849849 	299.9999999999702 	7.125636403250127e-12 	101324.9999999973
1.102352352352352 	299.9999999999807 	5.424995616567871e-12 	101324.9999999973
1.104854854854854 	299.9999999999902 	6.102898931068447e-12 	101324.9999999972
1.107357357357357 	299.9999999999815 	5.061788695538676e-12 	101324.9999999972
1.109859859859859 	299.9999999999756 	6.065261117943975e-12 	101324.9999999971
1.112362362362362 	300.0000000000086 	5.249476375261192e-12 	101324.9999999971
1.114864864864865 	300.0000000000071 	4.90044495058961e-12 	101324.9999999972
1.117367367367367 	299.9999999999828 	5.393769253240399e-12 	101324.999999997
1.119869869869869 	299.9999999999632 	4.526013776330037e-12 	101324.9999999968
1.122372372372372 	299.9999999999751 	5.569932806799104e-12 	101324.9999999969
1.124874874874874 	299.9999999999752 	4.96571892773778e-12 	101324.9999999969
1.127377377377377 	299.9999999999854 	5.538280488148747e-12 	101324.999999997
1.129879879879879 	300.0000000000126 	4.921250090230056e-12 	101324.9999999972
1.132382382382382 	300.0000000000168 	5.132986111315355e-12 	101324.9999999973
1.134884884884884 	300.0000000000042 	4.620937030287259e-12 	101324.9999999975
1.137387387387387 	300.0000000000077 	4.430615691174259e-12 	101324.9999999977
1.139889889889889 	299.9999999999849 	4.985239932010221e-12 	101324.9999999978
1.142392392392392 	299.99999999998 	4.429705168948773e-12 	101324.9999999978
1.144894894894894 	300.0000000000047 	5.44048362493696e-12 	101324.9999999978
1.147397397397397 	299.9999999999958 	5.072259045388267e-12 	101324.9999999979
1.149899899899899 	299.9999999999712 	6.185863271382052e-12 	101324.9999999981
1.152402402402402 	299.9999999999675 	6.261254621909392e-12 	101324.9999999981
1.154904904904904 	299.9999999999832 	6.72818378090459e-12 	101324.9999999979
1.157407407407407 	299.9999999999829 	6.365136185127034e-12 	101324.9999999979
1.159909909909909 	299.9999999999714 	6.65592744030716e-12 	101324.9999999981
1.162412412412412 	299.9999999999703 	7.497561444375278e-12 	101324.9999999982
1.164914914914914 	299.9999999999783 	6.52754348941824e-12 	101324.9999999982
1.167417417417417 	299.9999999999789 	7.562433673485151e-12 	101324.9999999981
1.169919919919919 	300.0000000000047 	7.046454893367882e-12 	101324.999999998
1.172422422422422 	300.0000000000206 	7.462812325821392e-12 	101324.999999998
1.174924924924925 	299.9999999999967 	6.313736490211533e-12 	101324.9999999981
1.177427427427427 	299.9999999999791 	6.468168703639629e-12 	101324.9999999981
1.179929929929929 	300.0000000000017 	7.068883180771304e-12 	101324.9999999981
1.182432432432432 	300.0000000000133 	5.895782576402785e-12 	101324.9999999983
1.184934934934934 	299.9999999999977 	6.214357261278786e-12 	101324.9999999983
1.187437437437437 	299.9999999999892 	5.556548246288598e-12 	101324.9999999983
1.189939939939939 	299.9999999999847 	6.509562893375702e-12 	101324.9999999983
1.192442442442442 	299.9999999999685 	6.469356607086577e-12 	101324.9999999983
1.194944944944944 	299.9999999999735 	7.41367676436403e-12 	101324.9999999984
1.197447447447447 	299.9999999999977 	6.89606502266934e-12 	101324.9999999983
1.199949949949949 	300.0000000000009 	7.098875246115166e-12 	101324.9999999983
1.202452452452452 	299.9999999999788 	7.667776335120897e-12 	101324.9999999983
1.204954954954955 	299.9999999999761 	6.770726265643813e-12 	101324.9999999983
1.207457457457457 	299.9999999999889 	7.580218681130656e-12 	101324.9999999984
1.20995995995996 	299.9999999999894 	7.027739239831906e-12 	101324.9999999985
1.212462462462462 	299.9999999999945 	7.510103796633007e-12 	101324.9999999986
1.214964964964964 	299.9999999999932 	6.986302917191181e-12 	101324.9999999987
1.217467467467467 	299.9999999999897 	7.770661375910559e-12 	101324.9999999987
1.219969969969969 	299.9999999999849 	7.193483818463074e-12 	101324.9999999987
1.222472472472472 	300.0000000000084 	7.543847604122594e-12 	101324.999999999
1.224974974974975 	300.0000000000209 	7.699196459041302e-12 	101324.9999999991
1.227477477477477 	299.9999999999993 	6.502311957338764e-12 	101324.9999999992
1.229979979979979 	299.9999999999917 	7.333376332133389e-12 	101324.999999999
1.232482482482482 	299.9999999999794 	6.61520760784162e-12 	101324.9999999989
1.234984984984984 	299.9999999999811 	7.752572782125614e-12 	101324.9999999988
1.237487487487487 	299.9999999999876 	7.069322988038231e-12 	101324.9999999989
1.239989989989989 	299.999999999986 	7.825413444907591e-12 	101324.9999999988
1.242492492492492 	300.0000000000015 	8.686545199977014e-12 	101324.9999999987
1.244994994994994 	299.9999999999881 	8.156241410928944e-12 	101324.9999999989
1.247497497497497 	299.9999999999951 	9.023487516661284e-12 	101324.999999999
1.249999999999999 	300.0000000000907 	8.403344565214995e-12 	101324.9999999991
