-1.25 	250.8856374635656 	0.002504280107365499 	101325.0075398223
-1.247497497497497 	300.1051602235763 	0.002384784269177969 	101325.0049706719
-1.244994994994995 	300.000989767163 	0.002173084412681995 	101325.0074623672
-1.242492492492492 	300.0000070132665 	0.001961460553484549 	101325.0045520632
-1.23998998998999 	300.0000061726239 	0.001757363324554829 	101325.007333706
-1.237487487487487 	300.000003680755 	0.001561211016074336 	101325.0043189116
-1.234984984984985 	300.0000060133704 	0.001373954882881528 	101325.007140438
-1.232482482482482 	300.0000035515584 	0.001196283182019788 	101325.0041666162
-1.22997997997998 	300.0000058364801 	0.001028097480950732 	101325.0069286042
-1.227477477477477 	300.000003552154 	0.0008700748960117687 	101325.0041724156
-1.224974974974975 	300.0000057435171 	0.0007225381870386102 	101325.0068160127
-1.222472472472472 	300.0000035670686 	0.0005845545633050418 	101325.00419707
-1.21996996996997 	300.0000054647163 	0.0004577130500428214 	101325.0064857469
-1.217467467467467 	300.0000033134625 	0.0003400058606067605 	101325.0038969824
-1.214964964964965 	300.0000050092773 	0.000233067856636586 	101325.0059422397
-1.212462462462462 	300.0000030702081 	0.0001349561659627172 	101325.003607859
-1.20995995995996 	300.0000047206133 	4.70963353236339e-05 	101325.0055983546
-1.207457457457457 	300.0000029561766 	5.003958327057823e-05 	101325.0034783404
-1.204954954954955 	300.0000044708737 	0.0001030321436760621 	101325.0053063159
-1.202452452452452 	300.0000028167755 	0.0001661945411501021 	101325.0033131282
-1.19994994994995 	300.0000043137347 	0.0002206175475225155 	101325.0051166403
-1.197447447447447 	300.0000028565026 	0.0002686551478340345 	101325.0033578185
-1.194944944944945 	300.0000042408159 	0.0003089762107044984 	101325.0050262058
-1.192442442442442 	300.0000027966828 	0.0003442838375268803 	101325.0032899202
-1.18993993993994 	300.0000041530487 	0.0003720784997881642 	101325.0049293585
-1.187437437437437 	300.0000026835988 	0.0003955206373153353 	101325.0031621543
-1.184934934934935 	300.0000039467769 	0.000413384612403825 	101325.0046843385
-1.182432432432432 	300.0000022234603 	0.0004287436770596583 	101325.0026144147
-1.17992992992993 	300.0000034329017 	0.0004399740168202125 	101325.0040717027
-1.177427427427427 	300.000002054269 	0.0004501746524050234 	101325.0024127186
-1.174924924924925 	300.0000033278485 	0.0004526821235502691 	101325.0039469829
-1.172422422422422 	300.0000019261218 	0.0004495801741895901 	101325.0022629734
-1.16991991991992 	300.0000028095631 	0.0004426845341537832 	101325.0033345455
-1.167417417417417 	300.0000018537287 	0.0004354498136618668 	101325.0021817026
-1.164914914914915 	300.0000030536387 	0.0004250539867372757 	101325.0036221014
-1.162412412412412 	300.0000017317711 	0.0004155295936807098 	101325.0020347086
-1.15990990990991 	300.0000028648429 	0.0004042497414141374 	101325.0033975091
-1.157407407407407 	300.0000014733111 	0.0003939518243620896 	101325.0017307326
-1.154904904904904 	300.0000029555631 	0.0003808907957341331 	101325.0035046202
-1.152402402402403 	300.0000013738625 	0.00036831037045756 	101325.0016155443
-1.1498998998999 	300.0000024945738 	0.0003540040156611181 	101325.002960246
-1.147397397397397 	300.0000009359893 	0.0003393767731293144 	101325.0011001795
-1.144894894894895 	300.0000020309519 	0.000324058312550865 	101325.0024102418
-1.142392392392392 	300.0000006991517 	0.0003091753585177388 	101325.0008178719
-1.13988988988989 	300.0000019425697 	0.0002931613716834196 	101325.0023024859
-1.137387387387387 	300.000000783473 	0.0002786924965086657 	101325.0009181274
-1.134884884884885 	300.0000020232739 	0.0002626168415965979 	101325.002395635
-1.132382382382382 	300.0000008716333 	0.0002485363175293732 	101325.0010244542
-1.12987987987988 	300.0000019648259 	0.0002332312124876588 	101325.0023319685
-1.127377377377377 	300.0000007401608 	0.0002193418559347532 	101325.0008705552
-1.124874874874875 	300.0000016369558 	0.0002052718044940932 	101325.0019399424
-1.122372372372372 	300.0000003560185 	0.0001917607409022588 	101325.0004179516
-1.11986986986987 	300.0000011733929 	0.0001788627407927305 	101325.0013912328
-1.117367367367367 	300.0000000281271 	0.0001662041869916007 	101325.0000295383
-1.114864864864865 	300.0000008984607 	0.000154169862254637 	101325.0010651573
-1.112362362362362 	299.9999999107327 	0.0001427014509019066 	101324.9998924692
-1.10985985985986 	300.0000007733125 	0.0001315054417707633 	101325.0009177506
-1.107357357357357 	299.9999998736459 	0.0001211074974035243 	101324.9998490425
-1.104854854854855 	300.0000006820109 	0.0001109596313064215 	101325.0008079642
-1.102352352352353 	299.9999998583619 	0.0001015472487214266 	101324.999829844
-1.09984984984985 	300.0000006167703 	9.237246137187093e-05 	101325.0007290393
-1.097347347347347 	299.9999998712433 	8.393315525745576e-05 	101324.9998447792
-1.094844844844845 	300.0000005464277 	7.579305723282994e-05 	101325.0006457385
-1.092342342342342 	299.9999997866905 	6.811331790684031e-05 	101324.9997468831
-1.08983983983984 	300.0000002638097 	6.134531930305886e-05 	101325.0003140285
-1.087337337337337 	299.9999994338963 	5.373504224129194e-05 	101324.9993319639
-1.084834834834835 	299.9999997035023 	4.868285534899297e-05 	101324.9996509278
-1.082332332332332 	299.9999988918053 	4.166453862464186e-05 	101324.9986899319
-1.07982982982983 	299.9999993388467 	3.704553686106934e-05 	101324.9992178388
-1.077327327327327 	299.9999990604849 	3.152030915880674e-05 	101324.9988878687
-1.074824824824825 	299.9999996147747 	2.69081861898452e-05 	101324.9995430837
-1.072322322322323 	299.9999991712108 	2.250353429008115e-05 	101324.9990193191
-1.06981981981982 	299.9999995073705 	1.944645940568315e-05 	101324.9994169654
-1.067317317317317 	299.9999992075038 	1.448340896794305e-05 	101324.9990625909
-1.064814814814815 	299.999999093771 	1.131419263394504e-05 	101324.9989279974
-1.062312312312312 	299.9999991273003 	6.340582131055131e-06 	101324.9989678929
-1.05980980980981 	299.9999987891567 	4.632304998166746e-06 	101324.9985682463
-1.057307307307307 	299.9999987715176 	4.341933918623513e-06 	101324.9985478478
-1.054804804804805 	299.9999985631461 	3.753080412082397e-06 	101324.9983014617
-1.052302302302302 	299.9999985009092 	4.396653798412446e-06 	101324.9982277342
-1.0497997997998 	299.9999984462395 	4.490679818832841e-06 	101324.9981630182
-1.047297297297297 	299.9999984207465 	4.57001663343273e-06 	101324.9981329279
-1.044794794794795 	299.9999984098375 	4.606721166982386e-06 	101324.9981201745
-1.042292292292292 	299.9999983987105 	4.642287723463159e-06 	101324.9981069829
-1.03978978978979 	299.9999983779355 	4.703715599010895e-06 	101324.9980822062
-1.037287287287287 	299.9999983449256 	4.799550285725777e-06 	101324.9980429806
-1.034784784784785 	299.999998300488 	4.928734482358885e-06 	101324.9979903906
-1.032282282282283 	299.9999982443665 	5.092226857708883e-06 	101324.9979241774
-1.02977977977978 	299.9999981739422 	5.297440474084575e-06 	101324.9978410352
-1.027277277277277 	299.9999980856927 	5.553737646889194e-06 	101324.9977367097
-1.024774774774775 	299.9999979786475 	5.862693116725543e-06 	101324.9976099635
-1.022272272272272 	299.9999978578179 	6.207910793063055e-06 	101324.9974670703
-1.01976976976977 	299.9999977365151 	6.550703185389261e-06 	101324.9973240802
-1.017267267267267 	299.999997634237 	6.837866557544626e-06 	101324.9972038715
-1.014764764764765 	299.9999975699279 	7.019758751653865e-06 	101324.9971281493
-1.012262262262262 	299.999997552902 	7.072606747514047e-06 	101324.9971075634
-1.00975975975976 	299.9999975765816 	7.014685047966559e-06 	101324.9971346015
-1.007257257257257 	299.9999976187834 	6.9051219917866e-06 	101324.9971837732
-1.004754754754755 	299.9999976496496 	6.825197112708487e-06 	101324.9972203918
-1.002252252252252 	299.9999976429796 	6.847475066657861e-06 	101324.997213494
-0.9997497497497498 	299.9999975862647 	7.008134858886359e-06 	101324.9971473118
-0.9972472472472473 	299.9999974849704 	7.29442338700544e-06 	101324.9970273841
-0.9947447447447449 	299.9999973594744 	7.650533484842212e-06 	101324.9968778922
-0.9922422422422421 	299.9999972359357 	8.002697089559828e-06 	101324.9967306515
-0.9897397397397399 	299.9999971360537 	8.287699211708742e-06 	101324.996612557
-0.9872372372372376 	299.9999970717663 	8.471148321448174e-06 	101324.9965378092
-0.9847347347347346 	299.9999970437781 	8.552131980915023e-06 	101324.9965062705
-0.9822322322322323 	299.999997044192 	8.554672352848631e-06 	101324.9965072327
-0.9797297297297296 	299.9999970610726 	8.512520711737779e-06 	101324.9965262305
-0.9772272272272275 	299.999997083178 	8.455665279156642e-06 	101324.9965507781
-0.9747247247247248 	299.9999971019795 	8.406363447908126e-06 	101324.9965719935
-0.9722222222222224 	299.9999971102974 	8.38423015258528e-06 	101324.9965822284
-0.9697197197197196 	299.9999971006119 	8.41207819427494e-06 	101324.9965721205
-0.9672172172172175 	299.9999970648773 	8.513556537610769e-06 	101324.9965313545
-0.9647147147147147 	299.9999969986097 	8.701838228165545e-06 	101324.9964537714
-0.9622122122122124 	299.99999690558 	8.965776860023023e-06 	101324.9963435715
-0.9597097097097099 	299.9999968006119 	9.262669040774655e-06 	101324.9962185089
-0.9572072072072073 	299.9999967070424 	9.526970757074057e-06 	101324.9961066502
-0.9547047047047047 	299.9999966490884 	9.691516298291977e-06 	101324.9960369435
-0.9522022022022023 	299.9999966418537 	9.714015405149692e-06 	101324.9960277115
-0.9496996996996998 	299.9999966845494 	9.597695998118898e-06 	101324.9960779274
-0.9471971971971973 	299.999996759132 	9.392742250976258e-06 	101324.996165984
-0.9446946946946947 	299.9999968369424 	9.177743475884958e-06 	101324.9962580206
-0.9421921921921923 	299.9999968904481 	9.029608031392064e-06 	101324.9963212189
-0.93968968968969 	299.9999969021609 	8.997001195551738e-06 	101324.9963350188
-0.9371871871871872 	299.999996869446 	9.087751324056588e-06 	101324.9962964475
-0.9346846846846848 	299.9999968031848 	9.272506519544276e-06 	101324.9962184334
-0.9321821821821823 	299.9999967219035 	9.500349341804285e-06 	101324.9961227533
-0.9296796796796799 	299.9999966446729 	9.718126104969558e-06 	101324.9960318227
-0.9271771771771771 	299.999996586211 	9.883363858695212e-06 	101324.9959630992
-0.9246746746746748 	299.999996555644 	9.969819748994726e-06 	101324.9959271956
-0.9221721721721724 	299.9999965565229 	9.967487830380393e-06 	101324.9959283197
-0.9196696696696698 	299.9999965877074 	9.878817705413796e-06 	101324.9959652264
-0.9171671671671672 	299.999996644047 	9.719337614128429e-06 	101324.9960317725
-0.9146646646646649 	299.9999967162702 	9.515359225262137e-06 	101324.9961169055
-0.9121621621621623 	299.9999967910234 	9.304219088433386e-06 	101324.9962050781
-0.9096596596596597 	299.9999968526959 	9.13107562978039e-06 	101324.9962780257
-0.9071571571571573 	299.9999968870407 	9.035354724630424e-06 	101324.9963186612
-0.9046546546546547 	299.9999968850346 	9.041452807182216e-06 	101324.9963164179
-0.9021521521521524 	299.9999968472131 	9.146666596037478e-06 	101324.9962719847
-0.8996496496496498 	299.9999967850174 	9.318904413129738e-06 	101324.9961986119
-0.8971471471471473 	299.9999967177962 	9.505282494545259e-06 	101324.9961192013
-0.894644644644645 	299.9999966675468 	9.643501719017003e-06 	101324.9960598591
-0.892142142142142 	299.9999966527554 	9.68149337189117e-06 	101324.9960424781
-0.8896396396396397 	299.9999966835763 	9.591555247592057e-06 	101324.9960790112
-0.8871371371371374 	299.9999967594003 	9.375579009018236e-06 	101324.9961688125
-0.8846346346346349 	299.9999968695064 	9.064108377656655e-06 	101324.9962989449
-0.8821321321321324 	299.9999969950069 	8.709198018692319e-06 	101324.9964471845
-0.8796296296296297 	299.9999971138795 	8.371667746446905e-06 	101324.9965876772
-0.8771271271271271 	299.9999972074351 	8.104018407994227e-06 	101324.9966983784
-0.8746246246246248 	299.9999972652943 	7.937066924388737e-06 	101324.9967668756
-0.8721221221221224 	299.9999972854607 	7.877275906067151e-06 	101324.9967907781
-0.8696196196196196 	299.9999972725516 	7.910768766943027e-06 	101324.9967755226
-0.8671171171171175 	299.999997237089 	8.007873649909725e-06 	101324.9967335489
-0.8646146146146148 	299.9999971937224 	8.127675713338502e-06 	101324.9966824558
-0.8621121121121121 	299.9999971576858 	8.228035105088278e-06 	101324.9966399804
-0.8596096096096097 	299.9999971398177 	8.277909749954102e-06 	101324.9966188232
-0.857107107107107 	299.9999971446475 	8.263611177329224e-06 	101324.996624381
-0.8546046046046049 	299.9999971725659 	8.183398280117041e-06 	101324.9966570736
-0.8521021021021022 	299.9999972221574 	8.040821419460163e-06 	101324.9967155603
-0.8495995995995997 	299.999997290648 	7.844380061059977e-06 	101324.9967967191
-0.8470970970970974 	299.9999973729021 	7.60739240100189e-06 	101324.9968943657
-0.8445945945945946 	299.9999974624113 	7.35052378247769e-06 	101324.9970002979
-0.8420920920920922 	299.9999975520772 	7.094435220900548e-06 	101324.9971060229
-0.8395895895895897 	299.9999976365082 	6.852023129733949e-06 	101324.9972054756
-0.8370870870870872 	299.9999977133866 	6.630489431854198e-06 	101324.9972961156
-0.8345845845845846 	299.9999977820622 	6.431220529684783e-06 	101324.9973773575
-0.8320820820820823 	299.9999978421182 	6.255309444650204e-06 	101324.9974487467
-0.8295795795795798 	299.9999978951239 	6.099370001426154e-06 	101324.9975118362
-0.8270770770770772 	299.9999979458041 	5.949149649212791e-06 	101324.9975718781
-0.8245745745745746 	299.9999980012762 	5.785941471150992e-06 	101324.9976374071
-0.8220720720720721 	299.9999980672003 	5.594532406981275e-06 	101324.9977150553
-0.8195695695695699 	299.9999981435724 	5.375698447304591e-06 	101324.9978050464
-0.817067067067067 	299.9999982246533 	5.144289268930824e-06 	101324.9979008181
-0.8145645645645651 	299.9999983034699 	4.91782725255934e-06 	101324.9979940636
-0.8120620620620621 	299.9999983754398 	4.709444236563855e-06 	101324.9980791987
-0.8095595595595597 	299.9999984398247 	4.521308730005492e-06 	101324.9981555189
-0.8070570570570572 	299.9999984994204 	4.345907329994976e-06 	101324.9982263104
-0.8045545545545546 	299.9999985597265 	4.169114491077491e-06 	101324.9982977032
-0.8020520520520523 	299.999998626514 	3.975448779392829e-06 	101324.9983762886
-0.7995495495495494 	299.9999987028588 	3.756237307063725e-06 	101324.9984659374
-0.7970470470470474 	299.9999987874642 	3.513957467921611e-06 	101324.998565532
-0.7945445445445446 	299.9999988758598 	3.259628029437605e-06 	101324.998670054
-0.7920420420420423 	299.9999989635726 	3.004826995577171e-06 	101324.9987744338
-0.7895395395395397 	299.9999990487832 	2.755560539185046e-06 	101324.9988762315
-0.7870370370370371 	299.9999991318216 	2.512966022523725e-06 	101324.9989751882
-0.7845345345345348 	299.9999992133183 	2.276650746906525e-06 	101324.9990715182
-0.7820320320320323 	299.9999992935414 	2.046039767676155e-06 	101324.9991653654
-0.7795295295295296 	299.9999993728965 	1.818374864087714e-06 	101324.9992578043
-0.7770270270270272 	299.9999994532982 	1.587331326852647e-06 	101324.9993516434
-0.7745245245245247 	299.9999995370295 	1.345484291696157e-06 	101324.9994502337
-0.7720220220220222 	299.9999996253091 	1.089241748325505e-06 	101324.9995550989
-0.7695195195195199 	299.9999997175029 	8.202367939360469e-07 	101324.9996652343
-0.767017017017017 	299.9999998127464 	5.419878953525725e-07 	101324.999778916
-0.7645145145145147 	299.9999999107639 	2.565420179004315e-07 	101324.9998953948
-0.7620120120120122 	300.0000000110369 	1.369556726365692e-07 	101325.0000141928
-0.7595095095095097 	300.0000001112709 	3.242900742872287e-07 	101325.0001331175
-0.7570070070070072 	300.0000002077644 	6.043516423131963e-07 	101325.0002479288
-0.7545045045045048 	300.0000002975631 	8.671812360293874e-07 	101325.0003551311
-0.7520020020020022 	300.0000003817703 	1.115548653066323e-06 	101325.0004557529
-0.7494994994994997 	300.0000004659371 	1.362333568153885e-06 	101325.0005555898
-0.7469969969969972 	300.0000005554684 	1.620800135792115e-06 	101325.0006607091
-0.7444944944944945 	300.0000006514321 	1.894881732910473e-06 	101325.0007727791
-0.7419919919919924 	300.000000751155 	2.179181050053754e-06 	101325.0008891104
-0.7394894894894897 	300.0000008516982 	2.467804949419646e-06 	101325.0010069339
-0.7369869869869872 	300.0000009531934 	2.760737226907205e-06 	101325.0011264448
-0.7344844844844846 	300.0000010567842 	3.06055268993535e-06 	101325.0012491027
-0.7319819819819822 	300.0000011619027 	3.36475276003243e-06 	101325.0013738748
-0.7294794794794797 	300.0000012649693 	3.66410758033592e-06 	101325.0014965022
-0.7269769769769773 	300.0000013627905 	3.949965127286573e-06 	101325.0016129544
-0.7244744744744747 	300.000001455716 	4.222767590041756e-06 	101325.0017234564
-0.721971971971972 	300.0000015481788 	4.49318734020485e-06 	101325.001832941
-0.7194694694694695 	300.0000016456718 	4.774185453061478e-06 	101325.0019473474
-0.7169669669669674 	300.0000017498132 	5.070544228514805e-06 	101325.0020688558
-0.7144644644644647 	300.0000018574574 	5.374660990208839e-06 	101325.0021939451
-0.711961961961962 	300.0000019624803 	5.672875338365873e-06 	101325.0023162503
-0.7094594594594597 	300.0000020613664 	5.957805799832092e-06 	101325.002432268
-0.7069569569569573 	300.0000021563896 	6.23535334742814e-06 	101325.0025447603
-0.7044544544544545 	300.0000022530553 	6.518636118552075e-06 	101325.0026599332
-0.7019519519519523 	300.0000023544017 	6.814366769769254e-06 	101325.0027809132
-0.6994494494494495 	300.0000024583216 	7.116984135502594e-06 	101325.0029048695
-0.6969469469469471 	300.000002561326 	7.41735245143441e-06 	101325.0030273152
-0.6944444444444446 	300.0000026630536 	7.714688575324557e-06 	101325.003148071
-0.6919419419419421 	300.0000027664777 	8.015376727813337e-06 	101325.0032707356
-0.6894394394394396 	300.000002871826 	8.319563126249288e-06 	101325.003395904
-0.6869369369369374 	300.0000029741215 	8.614122343820405e-06 	101325.0035174074
-0.6844344344344344 	300.0000030671771 	8.884412845485241e-06 	101325.0036278894
-0.6819319319319321 	300.0000031516863 	9.133132483270636e-06 	101325.0037281176
-0.6794294294294296 	300.000003236859 	9.383277445356269e-06 	101325.0038286478
-0.6769269269269272 	300.0000033322743 	9.659427060394618e-06 	101325.003940904
-0.6744244244244245 	300.0000034398618 	9.966740144917822e-06 	101325.0040671542
-0.6719219219219222 	300.0000035526777 	1.028899322340468e-05 	101325.0041997319
-0.6694194194194195 	300.0000036625484 	1.060510784422512e-05 	101325.0043290666
-0.6669169169169172 	300.0000037657127 	1.090494760599303e-05 	101325.0044510407
-0.6644144144144146 	300.0000038633177 	1.119020981070488e-05 	101325.0045670157
-0.661911911911912 	300.0000039575317 	1.146503257350596e-05 	101325.004679069
-0.6594094094094097 	300.0000040485903 	1.172994722246893e-05 	101325.0047871807
-0.656906906906907 	300.0000041362612 	1.198497035798991e-05 	101325.0048909497
-0.6544044044044046 	300.0000042223691 	1.223518720100719e-05 	101325.0049924734
-0.6519019019019021 	300.0000043104247 	1.249010160755687e-05 	101325.0050961058
-0.6493993993993996 	300.0000044028218 	1.275629783386817e-05 	101325.005204941
-0.6468968968968971 	300.0000044985453 	1.303146882136695e-05 	101325.00531789
-0.6443943943943946 	300.000004594213 	1.330680477234487e-05 	101325.0054307867
-0.6418918918918921 	300.0000046875984 	1.357616567171275e-05 	101325.0055406746
-0.6393893893893897 	300.0000047796466 	1.384187198789834e-05 	101325.0056487375
-0.6368868868868871 	300.0000048727929 	1.411015905383221e-05 	101325.0057581899
-0.6343843843843846 	300.0000049667331 	1.43803744125322e-05 	101325.0058690594
-0.6318818818818821 	300.0000050567905 	1.464122625248718e-05 	101325.0059761516
-0.6293793793793795 	300.0000051385297 	1.488114647108299e-05 	101325.0060738243
-0.6268768768768773 	300.000005213226 	1.510323584933704e-05 	101325.0061632524
-0.6243743743743745 	300.0000052889839 	1.532656548315504e-05 	101325.0062533475
-0.6218718718718721 	300.0000053728707 	1.556821570853649e-05 	101325.0063523526
-0.6193693693693696 	300.000005462619 	1.582352221042724e-05 	101325.0064582519
-0.6168668668668671 	300.0000055485488 	1.606805851054551e-05 	101325.0065594186
-0.6143643643643645 	300.0000056224743 	1.628344450417447e-05 	101325.0066467778
-0.6118618618618621 	300.0000056884386 	1.648077183460404e-05 	101325.0067252374
-0.6093593593593596 	300.0000057604113 	1.669386141048575e-05 	101325.0068107852
-0.6068568568568571 	300.0000058478676 	1.694495181435079e-05 	101325.0069142897
-0.6043543543543546 	300.0000059447262 	1.72175217937905e-05 	101325.007028363
-0.6018518518518521 	300.0000060333896 	1.746723992497544e-05 	101325.0071322828
-0.5993493493493496 	300.0000061011278 	1.766344759854944e-05 	101325.0072115321
-0.5968468468468471 	300.0000061529876 	1.781968650861756e-05 	101325.0072724307
-0.5943443443443446 	300.0000062066175 	1.798036333181703e-05 	101325.0073359822
-0.591841841841842 	300.0000062740277 	1.817538927310538e-05 	101325.0074163824
-0.5893393393393397 	300.0000063494837 	1.838970121420786e-05 	101325.0075064259
-0.5868368368368371 	300.000006416056 	1.858083108226381e-05 	101325.0075856965
-0.5843343343343346 	300.0000064650644 	1.872834105097945e-05 	101325.0076439229
-0.5818318318318321 	300.0000065086301 	1.886373688479012e-05 	101325.0076954318
-0.5793293293293297 	300.0000065701216 	1.904637825917823e-05 	101325.0077681384
-0.5768268268268271 	300.0000066611909 	1.930368293003636e-05 	101325.0078756857
-0.5743243243243245 	300.0000067658311 	1.959294420689968e-05 	101325.0079991737
-0.5718218218218221 	300.0000068499528 	1.982600275499607e-05 	101325.0080982227
-0.5693193193193196 	300.0000068894625 	1.99415791545518e-05 	101325.0081441386
-0.5668168168168171 	300.0000068928486 	1.996368319019926e-05 	101325.0081472086
-0.5643143143143147 	300.0000068982002 	1.999154259547048e-05 	101325.0081525039
-0.5618118118118121 	300.0000069435712 	2.012379433157968e-05 	101325.0082051825
-0.5593093093093094 	300.0000070354903 	2.037774746857132e-05 	101325.0083135168
-0.5568068068068072 	300.0000071424186 	2.067141883891304e-05 	101325.0084403412
-0.5543043043043046 	300.000007218636 	2.088554846063052e-05 	101325.0085314192
-0.551801801801802 	300.0000072399594 	2.095731832807131e-05 	101325.0085579881
-0.5492992992992995 	300.0000072239563 	2.093131491961103e-05 	101325.0085401993
-0.5467967967967969 	300.0000072163767 	2.092654418664252e-05 	101325.0085321169
-0.5442942942942947 	300.0000072563448 	2.104457076347649e-05 	101325.0085799302
-0.5417917917917919 	300.0000073457235 	2.128999872020828e-05 	101325.0086859591
-0.5392892892892895 	300.00000744676 	2.156385652178128e-05 	101325.0088055691
-0.536786786786787 	300.0000075093208 	2.173481347908201e-05 	101325.0088795217
-0.5342842842842846 	300.0000075072994 	2.173525383814054e-05 	101325.0088770736
-0.531781781781782 	300.0000074587876 	2.161326377122047e-05 	101325.0088195374
-0.5292792792792794 	300.0000074147086 	2.150298059126476e-05 	101325.0087669599
-0.526776776776777 	300.000007424321 	2.153472696016344e-05 	101325.0087776022
-0.5242742742742745 	300.0000075025078 	2.174731498782879e-05 	101325.0088689812
-0.521771771771772 	300.0000076190408 	2.206114045918598e-05 	101325.0090056227
-0.5192692692692695 	300.0000077182409 	2.232873533054985e-05 	101325.0091219679
-0.516766766766767 	300.0000077545045 	2.242829375950861e-05 	101325.0091639054
-0.5142642642642645 	300.0000077198379 	2.233958638489926e-05 	101325.0091223566
-0.511761761761762 	300.0000076496496 	2.215674908286125e-05 	101325.0090390965
-0.5092592592592596 	300.0000076003254 	2.203038960607978e-05 	101325.0089808101
-0.506756756756757 	300.0000076152589 	2.207689806596173e-05 	101325.0089989543
-0.5042542542542544 	300.0000076994997 	2.230866590140269e-05 	101325.0090992574
-0.5017517517517521 	300.0000078153193 	2.26243132434392e-05 	101325.0092372106
-0.4992492492492494 	300.0000079030846 	2.286260166955263e-05 	101325.0093422211
-0.496746746746747 	300.0000079128301 	2.288839544704819e-05 	101325.0093550615
-0.4942442442442445 	300.0000078309266 	2.266540098802407e-05 	101325.009259377
-0.4917417417417421 	300.000007689263 	2.228061755883913e-05 	101325.0090927076
-0.4892392392392395 	300.0000075515422 	2.190758018374576e-05 	101325.008930295
-0.486736736736737 	300.0000074842893 	2.172862582969818e-05 	101325.0088508801
-0.4842342342342345 	300.0000075279864 	2.185418579472901e-05 	101325.0089024576
-0.481731731731732 	300.0000076787518 	2.227199066213646e-05 	101325.0090802629
-0.4792292292292296 	300.0000078869364 	2.284659573416034e-05 	101325.0093261298
-0.4767267267267268 	300.0000080772621 	2.337017775099898e-05 	101325.0095510288
-0.4742242242242246 	300.0000081764833 	2.363895731422721e-05 	101325.0096681199
-0.471721721721722 	300.0000081378271 	2.352440331026758e-05 	101325.0096223538
-0.4692192192192195 	300.0000079581912 	2.301854096233506e-05 	101325.009409835
-0.4667167167167169 	300.0000076801582 	2.224030263081423e-05 	101325.0090810377
-0.4642142142142145 	300.0000073792212 	2.139841032788654e-05 	101325.008724872
-0.461711711711712 	300.0000071387366 	2.072706651998787e-05 	101325.0084401918
-0.4592092092092094 	300.0000070282198 	2.042179065357107e-05 	101325.0083091461
-0.456706706706707 	300.000007086787 	2.059181370349081e-05 	101325.0083779477
-0.4542042042042045 	300.0000073132083 	2.123338857323509e-05 	101325.0086454746
-0.451701701701702 	300.0000076662329 	2.222980196742074e-05 	101325.0090626025
-0.4491991991991995 	300.0000080741847 	2.338118403261462e-05 	101325.0095448277
-0.4466966966966969 	300.000008454308 	2.445411483170821e-05 	101325.0099942967
-0.4441941941941945 	300.0000087298339 	2.5229682542244e-05 	101325.010320143
-0.441691691691692 	300.0000088409182 	2.553729005854816e-05 	101325.0104517829
-0.4391891891891895 	300.0000087518749 	2.527411364332274e-05 	101325.0103467715
-0.436686686686687 	300.0000084530627 	2.441251566026018e-05 	101325.0099938459
-0.4341841841841846 	300.000007960097 	2.299590832395222e-05 	101325.0094112798
-0.431681681681682 	300.0000073084478 	2.112507826493629e-05 	101325.0086411685
-0.4291791791791794 	300.000006546758 	1.893747708044999e-05 	101325.007740849
-0.426676676676677 	300.0000057280715 	1.65838480609403e-05 	101325.006773074
-0.4241741741741744 	300.0000049023132 	1.420611650064076e-05 	101325.0057967534
-0.421671671671672 	300.0000041100322 	1.192110851062507e-05 	101325.0048599845
-0.4191691691691694 	300.0000033801397 	9.812782492744498e-06 	101325.0039969345
-0.4166666666666669 	300.0000027301046 	7.932624756779481e-06 	101325.0032283168
-0.4141641641641645 	300.00000216769 	6.304336195519246e-06 	101325.0025634871
-0.411661661661662 	300.0000016938014 	4.9300892192972e-06 	101325.0020030229
-0.4091591591591594 	300.0000013033303 	3.79674358431278e-06 	101325.001541306
-0.406656656656657 	300.0000009882755 	2.881509734314065e-06 	101325.0011688259
-0.4041541541541545 	300.0000007391219 	2.156542344239962e-06 	101325.0008740706
-0.401651651651652 	300.0000005452512 	1.592493648670096e-06 	101325.000644954
-0.3991491491491494 	300.0000003972478 	1.160919592306388e-06 	101325.0004698105
-0.396646646646647 	300.0000002857581 	8.358807251278417e-07 	101325.0003380139
-0.3941441441441444 	300.0000002031595 	5.94678528011697e-07 	101325.0002402988
-0.3916416416416419 	300.0000001426999 	4.182186660962661e-07 	101325.0001688673
-0.3891391391391395 	300.0000000991735 	2.908375689538731e-07 	101325.0001173479
-0.3866366366366368 	300.0000000681591 	2.000738439710411e-07 	101325.000080665
-0.3841341341341344 	300.0000000463949 	1.3618881595171e-07 	101325.0000548672
-0.381631631631632 	300.0000000311779 	9.175971725344834e-08 	101325.0000369381
-0.3791291291291294 	300.0000000208345 	6.120982296455253e-08 	101325.0000246201
-0.3766266266266269 	300.0000000137812 	4.043675893949196e-08 	101325.0000162499
-0.3741241241241244 	300.0000000090263 	2.646289278786944e-08 	101325.0000106233
-0.371621621621622 	300.0000000058499 	1.715728555957694e-08 	101325.0000068798
-0.3691191191191194 	300.0000000037513 	1.102763544545775e-08 	101325.0000044144
-0.366616616616617 	300.0000000023897 	7.021572238902121e-09 	101325.0000028062
-0.3641141141141143 	300.0000000014501 	4.43593063167139e-09 	101325.0000017675
-0.3616116116116119 	300.0000000008764 	2.775654414801512e-09 	101325.0000011027
-0.3591091091091095 	300.0000000005684 	1.724955772163025e-09 	101325.0000006808
-0.356606606606607 	300.0000000003363 	1.061432608028858e-09 	101325.0000004154
-0.3541041041041044 	300.0000000002066 	6.487785421611477e-10 	101325.0000002501
-0.3516016016016019 	300.0000000001392 	3.942931422118913e-10 	101325.0000001479
-0.3490990990990994 	300.0000000000706 	2.363240144528218e-10 	101325.0000000847
-0.346596596596597 	300.0000000001027 	1.430344213275422e-10 	101325.0000000463
-0.3440940940940944 	300.0000000000931 	8.343656886794418e-11 	101325.0000000229
-0.3415915915915919 	300.0000000000418 	5.236042989173983e-11 	101325.0000000092
-0.3390890890890895 	299.9999999999843 	3.000388965813125e-11 	101325.0000000008
-0.3365865865865869 	300.0000000000314 	1.988627710689055e-11 	101324.9999999959
-0.3340840840840844 	300.0000000000075 	1.139080152415082e-11 	101324.999999993
-0.3315815815815819 	300.0000000000293 	8.864537181713581e-12 	101324.9999999916
-0.3290790790790794 	300.0000000000284 	5.758756424772293e-12 	101324.9999999908
-0.3265765765765769 	299.9999999999065 	5.859010511079382e-12 	101324.9999999901
-0.3240740740740744 	299.9999999999944 	2.544372277461737e-12 	101324.9999999898
-0.3215715715715718 	300.0000000000077 	4.526027629735307e-12 	101324.9999999896
-0.3190690690690695 	299.9999999999144 	1.648931933501616e-12 	101324.9999999896
-0.3165665665665668 	299.9999999999911 	4.536135393873958e-12 	101324.9999999894
-0.3140640640640644 	300.0000000000107 	1.1819139466215e-12 	101324.9999999894
-0.311561561561562 	299.9999999999026 	5.362127864946409e-12 	101324.9999999895
-0.3090590590590593 	299.999999999992 	1.162199805176057e-12 	101324.9999999893
-0.3065565565565568 	300.0000000000068 	6.413052810761556e-12 	101324.9999999893
-0.3040540540540545 	300.0000000000023 	2.02273733038897e-12 	101324.9999999893
-0.3015515515515518 	300.0000000000428 	5.388104867546521e-12 	101324.9999999893
-0.2990490490490494 	299.9999999999364 	1.182705037257979e-12 	101324.9999999895
-0.2965465465465469 	299.999999999985 	3.668225618024831e-12 	101324.9999999899
-0.2940440440440444 	299.999999999999 	2.312197126891288e-12 	101324.9999999901
-0.2915415415415418 	300.0000000000042 	4.062157016760151e-12 	101324.9999999901
-0.2890390390390395 	300.000000000004 	4.37617831887228e-12 	101324.99999999
-0.2865365365365368 	299.9999999999765 	3.840571679073795e-12 	101324.99999999
-0.2840340340340343 	300.0000000000025 	5.494197833163719e-12 	101324.9999999903
-0.2815315315315318 	299.9999999999135 	3.858879339395717e-12 	101324.9999999903
-0.2790290290290295 	299.999999999955 	6.005793784369285e-12 	101324.99999999
-0.2765265265265269 	300.000000000016 	5.365824497380926e-12 	101324.9999999899
-0.2740240240240244 	300.0000000000297 	6.718871976832536e-12 	101324.9999999895
-0.2715215215215219 	300.0000000000258 	6.719162618046906e-12 	101324.9999999889
-0.2690190190190194 	299.9999999999264 	6.117665554151435e-12 	101324.999999989
-0.2665165165165169 	299.9999999999977 	7.021922161968829e-12 	101324.999999989
-0.2640140140140144 	299.9999999999512 	5.52958058795462e-12 	101324.9999999891
-0.2615115115115119 	299.9999999999996 	6.377191512805386e-12 	101324.9999999893
-0.2590090090090094 	299.9999999999127 	3.906877289917468e-12 	101324.9999999894
-0.2565065065065068 	299.9999999999914 	4.161687069012963e-12 	101324.9999999893
-0.2540040040040044 	299.9999999999959 	3.985053181995541e-12 	101324.9999999892
-0.2515015015015019 	300.0000000000476 	2.011071442825324e-12 	101324.9999999891
-0.2489989989989994 	300.0000000000546 	3.745321555538535e-12 	101324.999999989
-0.2464964964964968 	299.9999999999883 	4.277063495840846e-13 	101324.9999999887
-0.2439939939939944 	299.999999999998 	4.070118412204206e-12 	101324.9999999886
-0.2414914914914919 	299.9999999999654 	1.433214718642719e-12 	101324.9999999889
-0.2389889889889893 	299.9999999999995 	4.852108290385082e-12 	101324.9999999889
-0.2364864864864869 	300.0000000000302 	9.502123488329768e-13 	101324.999999989
-0.2339839839839843 	299.9999999999104 	5.76786865124521e-12 	101324.9999999893
-0.2314814814814819 	299.9999999999771 	1.371082314109092e-12 	101324.9999999895
-0.2289789789789792 	299.9999999998947 	5.019362748495551e-12 	101324.9999999893
-0.2264764764764769 	299.9999999999329 	2.140862952492463e-12 	101324.9999999894
-0.2239739739739743 	299.999999999948 	4.508964631013257e-12 	101324.9999999894
-0.2214714714714718 	299.9999999999234 	3.936413842137172e-12 	101324.9999999899
-0.2189689689689693 	299.9999999999595 	3.981670217368197e-12 	101324.9999999899
-0.2164664664664669 	299.9999999999753 	4.711999305230796e-12 	101324.9999999899
-0.2139639639639643 	299.9999999999069 	3.444544115900204e-12 	101324.9999999895
-0.2114614614614618 	299.9999999999691 	3.631276186020514e-12 	101324.9999999895
-0.2089589589589593 	299.9999999999913 	3.311398355326683e-12 	101324.9999999895
-0.2064564564564568 	299.9999999999886 	2.210065679141182e-12 	101324.9999999893
-0.2039539539539543 	299.9999999998806 	3.552300345787913e-12 	101324.9999999892
-0.2014514514514518 	299.9999999999401 	7.395209136965412e-13 	101324.9999999891
-0.1989489489489494 	299.9999999999653 	4.157568017929862e-12 	101324.9999999889
-0.1964464464464468 	299.9999999999932 	1.101186565374356e-12 	101324.9999999888
-0.1939439439439443 	299.9999999999839 	5.048840270557916e-12 	101324.9999999886
-0.1914414414414418 	299.9999999998948 	2.058659068671436e-12 	101324.9999999886
-0.1889389389389393 	300.0000000000139 	4.397087305020942e-12 	101324.9999999887
-0.1864364364364368 	300.0000000000568 	2.62993534143889e-12 	101324.9999999885
-0.1839339339339343 	299.999999999967 	4.640472419448043e-12 	101324.9999999885
-0.1814314314314318 	299.9999999999908 	2.439485101992363e-12 	101324.9999999889
-0.1789289289289293 	299.9999999998755 	5.296075454048935e-12 	101324.9999999889
-0.1764264264264268 	299.9999999999728 	1.550974419304901e-12 	101324.999999989
-0.1739239239239243 	299.9999999998748 	5.762001834258671e-12 	101324.9999999891
-0.1714214214214218 	299.9999999999816 	4.572715387177777e-13 	101324.9999999894
-0.1689189189189193 	299.9999999999368 	6.245420333397875e-12 	101324.9999999895
-0.1664164164164168 	299.9999999999969 	2.521753669206405e-12 	101324.9999999896
-0.1639139139139143 	299.9999999999822 	7.104495660332206e-12 	101324.9999999898
-0.1614114114114118 	300.0000000000341 	3.85314198145718e-12 	101324.9999999895
-0.1589089089089093 	299.9999999999987 	9.303297928855563e-12 	101324.9999999895
-0.1564064064064068 	299.9999999999814 	4.199955509283021e-12 	101324.9999999897
-0.1539039039039043 	299.9999999999865 	9.768047427021827e-12 	101324.9999999897
-0.1514014014014018 	300.0000000000294 	3.961774793750671e-12 	101324.9999999896
-0.1488988988988993 	299.9999999999806 	9.408626245668969e-12 	101324.9999999891
-0.1463963963963968 	299.9999999999932 	2.092862357562589e-12 	101324.999999989
-0.1438938938938943 	299.9999999999427 	8.772702492890032e-12 	101324.9999999888
-0.1413913913913918 	299.9999999999054 	6.879160270248777e-13 	101324.9999999886
-0.1388888888888893 	299.9999999999745 	6.391264338610241e-12 	101324.9999999888
-0.1363863863863868 	299.9999999998611 	5.337511175623026e-13 	101324.9999999889
-0.1338838838838843 	299.999999999886 	5.359271322999392e-12 	101324.999999989
-0.1313813813813818 	299.9999999999982 	8.251185040756523e-13 	101324.9999999889
-0.1288788788788793 	299.9999999999466 	4.381155574089388e-12 	101324.9999999889
-0.1263763763763768 	299.9999999999623 	4.675128611539505e-13 	101324.9999999887
-0.1238738738738743 	299.9999999999038 	3.597528711466679e-12 	101324.9999999889
-0.1213713713713717 	299.999999999965 	1.271368877678111e-12 	101324.9999999891
-0.1188688688688693 	300.0000000000048 	5.15982401879854e-12 	101324.999999989
-0.1163663663663668 	299.999999999883 	1.06561294584394e-12 	101324.9999999889
-0.1138638638638643 	299.9999999999895 	5.484125693522704e-12 	101324.999999989
-0.1113613613613618 	299.9999999999825 	1.334428503134107e-12 	101324.9999999889
-0.1088588588588592 	299.9999999999657 	6.468158308261599e-12 	101324.999999989
-0.1063563563563568 	299.9999999999368 	9.300777755796318e-13 	101324.9999999892
-0.1038538538538543 	299.9999999999634 	5.672784178243632e-12 	101324.9999999893
-0.1013513513513517 	300.0000000000177 	1.066638635512327e-12 	101324.9999999892
-0.09884884884884926 	299.9999999999246 	5.480033644745939e-12 	101324.9999999891
-0.09634634634634676 	299.9999999998578 	1.071514629114869e-12 	101324.9999999891
-0.09384384384384425 	299.9999999999131 	3.099271168421861e-12 	101324.9999999889
-0.09134134134134177 	300.0000000000314 	1.756247348446867e-13 	101324.9999999891
-0.08883883883883925 	300.0000000000128 	1.76539023890696e-12 	101324.9999999892
-0.08633633633633674 	299.9999999999392 	1.760530167698837e-13 	101324.9999999891
-0.08383383383383426 	300.0000000000147 	7.952240427098579e-13 	101324.9999999889
-0.08133133133133173 	299.999999999957 	1.108922204664947e-12 	101324.9999999887
-0.07882882882882926 	299.9999999998469 	1.522760837788576e-12 	101324.9999999889
-0.07632632632632676 	299.9999999999478 	1.741654813332012e-12 	101324.999999989
-0.07382382382382424 	299.9999999998708 	1.671650443458152e-12 	101324.9999999888
-0.07132132132132173 	300.0000000000175 	1.775492992941527e-12 	101324.999999989
-0.06881881881881925 	299.9999999999408 	2.295665956715888e-12 	101324.999999989
-0.06631631631631671 	299.9999999998647 	2.252778078757871e-12 	101324.999999989
-0.06381381381381425 	299.9999999999501 	2.305801743504226e-12 	101324.9999999891
-0.06131131131131173 	299.9999999999519 	1.95951336601614e-12 	101324.9999999891
-0.05880880880880923 	299.9999999999033 	1.960227021325376e-12 	101324.9999999888
-0.05630630630630672 	299.9999999999659 	1.789319747869336e-12 	101324.999999989
-0.05380380380380424 	300.0000000000228 	2.255915072652324e-12 	101324.9999999889
-0.05130130130130173 	300.0000000000181 	2.478303742758341e-12 	101324.9999999887
-0.04879879879879922 	299.9999999999174 	2.856383067387744e-12 	101324.9999999887
-0.04629629629629672 	299.9999999998921 	1.739832342174639e-12 	101324.9999999887
-0.04379379379379422 	299.9999999999167 	1.226240533798815e-12 	101324.9999999886
-0.04129129129129173 	299.9999999999682 	2.865683438544688e-13 	101324.9999999888
-0.03878878878878922 	299.9999999999817 	1.567027718391733e-13 	101324.9999999888
-0.03628628628628671 	299.9999999999811 	4.980005562534459e-13 	101324.9999999884
-0.03378378378378422 	299.9999999999028 	4.83139588999123e-13 	101324.9999999884
-0.03128128128128172 	299.9999999999538 	8.694245540004483e-13 	101324.9999999882
-0.02877877877877922 	299.9999999999555 	8.012898305611338e-13 	101324.9999999882
-0.0262762762762767 	299.9999999998727 	9.243770992800975e-13 	101324.9999999884
-0.02377377377377422 	300.0000000000229 	1.256811581434351e-12 	101324.9999999884
-0.0212712712712717 	299.9999999998733 	8.974786167782186e-13 	101324.9999999884
-0.01876876876876921 	299.999999999958 	1.325104875169023e-12 	101324.9999999882
-0.01626626626626671 	300.0000000000221 	5.073323123317309e-13 	101324.9999999885
-0.0137637637637642 	299.999999999961 	8.619891873229726e-13 	101324.9999999885
-0.0112612612612617 	300.0000000000198 	1.346843141183959e-13 	101324.999999989
-0.008758758758759198 	299.9999999999882 	2.761138634735887e-13 	101324.9999999891
-0.006256256256256697 	299.999999999854 	4.804065324354262e-13 	101324.9999999892
-0.003753753753754195 	299.9999999999401 	1.647477416515563e-15 	101324.9999999893
-0.001251251251251693 	299.9999999999137 	1.612429495243693e-12 	101324.9999999896
0.00125125125125081 	299.9999999999421 	1.357437372183936e-12 	101324.9999999897
0.003753753753753312 	299.9999999999489 	2.655333029937178e-12 	101324.9999999895
0.006256256256255817 	299.9999999998502 	2.101572188141878e-12 	101324.9999999893
0.008758758758758317 	299.9999999999934 	2.151296994984467e-12 	101324.9999999894
0.01126126126126082 	300.0000000000082 	1.640672474692096e-12 	101324.9999999894
0.01376376376376332 	299.9999999999601 	1.858143286796543e-12 	101324.9999999893
0.01626626626626582 	300.0000000000187 	7.84246589504878e-13 	101324.9999999893
0.01876876876876833 	299.9999999999402 	1.157581987324944e-12 	101324.9999999889
0.02127127127127083 	299.9999999999664 	1.046870303860999e-12 	101324.9999999887
0.02377377377377332 	299.9999999999945 	1.6114897528094e-12 	101324.9999999886
0.02627627627627583 	299.9999999998724 	1.295872477059301e-12 	101324.9999999887
0.02877877877877833 	300.0000000000118 	6.244886785645526e-13 	101324.9999999886
0.03128128128128083 	299.9999999999343 	9.271901902797e-13 	101324.9999999884
0.03378378378378333 	299.9999999998747 	6.159132471668007e-13 	101324.9999999882
0.03628628628628584 	299.9999999999533 	8.088463176952802e-13 	101324.9999999882
0.03878878878878834 	299.9999999999752 	1.17389640162655e-12 	101324.9999999881
0.04129129129129084 	299.9999999999699 	1.161584474773084e-12 	101324.9999999877
0.04379379379379333 	299.9999999999217 	4.085161940709542e-13 	101324.9999999876
0.04629629629629585 	299.9999999998613 	7.784538275045558e-13 	101324.9999999876
0.04879879879879834 	299.9999999999472 	6.875172332092174e-14 	101324.9999999875
0.05130130130130085 	300.0000000000131 	3.056045898479884e-13 	101324.9999999874
0.05380380380380335 	300.0000000000256 	3.581277653386899e-13 	101324.9999999873
0.05630630630630584 	299.9999999999923 	7.389610422172092e-14 	101324.9999999874
0.05880880880880836 	299.9999999998993 	1.793915739657178e-13 	101324.9999999877
0.06131131131131085 	299.99999999996 	1.884039343750691e-13 	101324.9999999875
0.06381381381381336 	299.9999999999445 	2.016792231388442e-13 	101324.9999999877
0.06631631631631586 	299.9999999998633 	3.063787161952877e-13 	101324.9999999878
0.06881881881881835 	299.9999999999437 	7.340489016095855e-13 	101324.9999999878
0.07132132132132088 	299.9999999999851 	3.015359142152695e-13 	101324.9999999878
0.07382382382382337 	299.9999999998714 	2.903713375932907e-13 	101324.999999988
0.07632632632632587 	299.9999999999575 	2.225511630211031e-13 	101324.999999988
0.07882882882882837 	299.9999999999235 	1.175792840263499e-13 	101324.999999988
0.08133133133133086 	299.9999999999761 	9.516647728975952e-13 	101324.9999999881
0.08383383383383337 	299.9999999999844 	1.643824943403191e-12 	101324.9999999883
0.08633633633633589 	299.9999999998817 	2.400069067014414e-12 	101324.9999999883
0.08883883883883838 	300.0000000000052 	2.901793796387168e-12 	101324.9999999884
0.09134134134134086 	299.9999999999768 	2.167553832119828e-12 	101324.9999999885
0.09384384384384339 	299.9999999998656 	2.614496226119185e-12 	101324.9999999884
0.09634634634634588 	299.9999999999576 	2.600235764620606e-12 	101324.9999999886
0.09884884884884838 	299.9999999999644 	2.738218908095369e-12 	101324.9999999888
0.1013513513513509 	300.0000000000269 	2.369075058309911e-12 	101324.999999989
0.1038538538538534 	299.9999999999407 	1.649230887383351e-12 	101324.9999999889
0.1063563563563559 	300.0000000000116 	1.270805001349232e-12 	101324.9999999891
0.1088588588588584 	300.0000000000254 	4.037115926873237e-13 	101324.9999999891
0.1113613613613609 	299.9999999998921 	4.414626573779077e-13 	101324.9999999889
0.1138638638638634 	299.9999999999345 	3.69269007693761e-13 	101324.9999999888
0.1163663663663659 	299.9999999999399 	3.537043254245719e-14 	101324.9999999888
0.1188688688688684 	299.9999999999573 	5.97525920951966e-14 	101324.9999999888
0.1213713713713709 	299.9999999999909 	1.006367205802982e-12 	101324.999999989
0.1238738738738734 	299.9999999999116 	4.976481310710177e-13 	101324.9999999888
0.1263763763763759 	299.9999999999792 	6.878983950766311e-13 	101324.9999999888
0.1288788788788784 	299.999999999981 	5.79824676996529e-13 	101324.9999999888
0.1313813813813809 	299.9999999999798 	1.860215121402323e-13 	101324.9999999885
0.1338838838838834 	299.9999999999675 	9.257250381649853e-13 	101324.9999999886
0.1363863863863859 	300.0000000000306 	9.890535680814163e-13 	101324.9999999887
0.1388888888888884 	300.0000000000588 	1.756422402986217e-12 	101324.999999989
0.1413913913913909 	300.0000000000085 	1.600145092997889e-12 	101324.999999989
0.1438938938938934 	299.9999999999892 	2.435120723992258e-12 	101324.999999989
0.1463963963963959 	299.9999999999409 	1.032068330784414e-12 	101324.999999989
0.1488988988988985 	299.9999999998867 	2.854357117472647e-12 	101324.999999989
0.1514014014014009 	299.9999999999622 	9.648737765029876e-13 	101324.9999999889
0.1539039039039035 	299.9999999999538 	3.401225052279862e-12 	101324.9999999886
0.1564064064064059 	299.9999999999074 	7.086288870727956e-13 	101324.9999999889
0.1589089089089084 	299.9999999999678 	4.814823647841466e-12 	101324.9999999888
0.1614114114114109 	299.9999999999619 	1.764917672097625e-12 	101324.9999999888
0.1639139139139134 	299.9999999998971 	3.464687229602522e-12 	101324.9999999886
0.166416416416416 	299.9999999999994 	1.33008029339595e-12 	101324.9999999885
0.1689189189189185 	300.0000000000437 	1.144002609112757e-12 	101324.9999999885
0.1714214214214209 	300.0000000000062 	8.631695145775727e-13 	101324.9999999884
0.1739239239239235 	299.9999999999903 	4.70813879399885e-13 	101324.9999999885
0.1764264264264259 	299.9999999999579 	9.448685706879533e-13 	101324.9999999885
0.1789289289289284 	300.0000000000144 	1.36941721663211e-12 	101324.9999999886
0.181431431431431 	299.9999999999569 	6.843343914842892e-13 	101324.9999999885
0.1839339339339334 	299.9999999999652 	5.826076418777402e-13 	101324.9999999886
0.186436436436436 	299.9999999999155 	4.18989438674654e-13 	101324.9999999888
0.1889389389389385 	299.9999999999807 	4.113484520213076e-13 	101324.9999999889
0.191441441441441 	299.9999999999736 	2.407869026213971e-13 	101324.999999989
0.1939439439439434 	299.9999999998929 	1.93562808941219e-12 	101324.9999999891
0.196446446446446 	299.9999999999334 	9.981500044053769e-13 	101324.9999999894
0.1989489489489485 	299.9999999999633 	3.504401350089436e-12 	101324.9999999893
0.2014514514514509 	299.9999999999754 	1.365840352203835e-12 	101324.999999989
0.2039539539539535 	299.9999999999879 	2.679808699669585e-12 	101324.999999989
0.2064564564564559 	299.9999999999459 	1.895057055475081e-12 	101324.9999999888
0.2089589589589585 	299.9999999999791 	2.230336823564029e-12 	101324.9999999888
0.211461461461461 	299.9999999999183 	2.056163067153907e-12 	101324.9999999886
0.2139639639639635 	299.9999999999798 	1.600899471694517e-12 	101324.9999999886
0.2164664664664659 	300.0000000000033 	2.609751840527818e-12 	101324.9999999887
0.2189689689689684 	299.9999999999981 	4.714966435601176e-13 	101324.9999999888
0.221471471471471 	299.9999999999996 	2.33449975547103e-12 	101324.9999999888
0.2239739739739735 	299.9999999999451 	3.294396445965402e-13 	101324.999999989
0.226476476476476 	299.9999999999841 	1.66260085640332e-12 	101324.9999999891
0.2289789789789785 	299.9999999999935 	1.099120855546758e-12 	101324.9999999891
0.231481481481481 	299.9999999999607 	2.200103787191413e-12 	101324.9999999889
0.2339839839839835 	299.9999999999943 	3.171075576438031e-12 	101324.9999999887
0.236486486486486 	300.0000000000292 	2.68853293773248e-12 	101324.9999999888
0.2389889889889885 	300.0000000000007 	3.768220963300921e-12 	101324.999999989
0.241491491491491 	299.9999999998964 	1.893318123101268e-12 	101324.9999999888
0.2439939939939935 	299.9999999999786 	4.217407137269212e-12 	101324.9999999886
0.246496496496496 	299.999999999988 	2.342437684982123e-12 	101324.9999999885
0.2489989989989985 	300.0000000000423 	3.838160792803922e-12 	101324.9999999884
0.251501501501501 	300.000000000035 	3.107963771793019e-12 	101324.9999999882
0.2540040040040035 	299.9999999999794 	3.048722830387674e-12 	101324.9999999882
0.256506506506506 	300.0000000000273 	4.125686582344085e-12 	101324.9999999882
0.2590090090090086 	299.999999999882 	2.843552705458845e-12 	101324.999999988
0.261511511511511 	300.0000000000018 	4.999518724452398e-12 	101324.9999999882
0.2640140140140135 	299.999999999987 	2.194150288429973e-12 	101324.9999999883
0.2665165165165161 	299.9999999999105 	4.601706416614338e-12 	101324.9999999882
0.2690190190190185 	300.0000000000155 	3.707902872866825e-12 	101324.9999999888
0.271521521521521 	300.0000000000177 	4.595376710363892e-12 	101324.999999989
0.2740240240240235 	300.000000000018 	4.062822791457982e-12 	101324.9999999891
0.276526526526526 	300.0000000000075 	3.252204813167902e-12 	101324.9999999894
0.2790290290290286 	299.9999999999243 	3.506191432450799e-12 	101324.9999999894
0.281531531531531 	299.9999999999117 	1.69218116929207e-12 	101324.9999999896
0.2840340340340335 	299.9999999999768 	2.809145002200623e-12 	101324.9999999892
0.2865365365365361 	299.9999999999455 	1.653413931535529e-12 	101324.9999999888
0.2890390390390385 	299.999999999993 	1.556254440840706e-12 	101324.9999999885
0.291541541541541 	299.9999999999939 	1.51514416202859e-12 	101324.9999999883
0.2940440440440436 	299.9999999999887 	2.820778761639892e-13 	101324.9999999882
0.296546546546546 	299.9999999999853 	2.150435581707806e-12 	101324.9999999882
0.2990490490490486 	299.9999999999226 	1.96955638017688e-12 	101324.9999999885
0.3015515515515511 	300.0000000000441 	3.457329439832948e-12 	101324.9999999884
0.3040540540540535 	300.0000000000122 	3.259941232005647e-12 	101324.9999999885
0.3065565565565562 	299.9999999999845 	3.970885557770525e-12 	101324.9999999887
0.3090590590590585 	299.9999999999812 	3.020635374344294e-12 	101324.9999999885
0.3115615615615611 	299.9999999999193 	3.229036867901548e-12 	101324.9999999887
0.3140640640640635 	300.000000000009 	1.846670678167686e-12 	101324.9999999885
0.316566566566566 	299.9999999999919 	2.324031531224238e-12 	101324.9999999887
0.3190690690690687 	299.9999999999326 	1.632164366665952e-12 	101324.9999999886
0.3215715715715711 	300.0000000000148 	1.988774157448791e-12 	101324.9999999884
0.3240740740740735 	299.9999999999904 	1.841766578147624e-12 	101324.9999999884
0.326576576576576 	299.999999999882 	1.214271931536311e-12 	101324.9999999886
0.3290790790790786 	300.0000000000106 	9.902851566789312e-13 	101324.9999999888
0.3315815815815811 	300.0000000000433 	1.048864834675021e-12 	101324.9999999886
0.3340840840840836 	299.9999999999854 	5.303893058985393e-13 	101324.9999999886
0.3365865865865861 	300.0000000000642 	1.403145704107222e-12 	101324.9999999885
0.3390890890890886 	300.0000000000547 	1.077289291555584e-12 	101324.9999999886
0.3415915915915911 	299.999999999997 	4.430827763341903e-13 	101324.9999999885
0.3440940940940935 	299.999999999944 	1.665544088556982e-12 	101324.9999999885
0.3465965965965962 	300.0000000000416 	3.266552365380663e-13 	101324.9999999885
0.3490990990990985 	300.0000000000323 	1.685798728590421e-12 	101324.9999999884
0.3516016016016011 	299.9999999999865 	9.568319982582719e-13 	101324.9999999885
0.3541041041041035 	300.000000000006 	6.803714211239119e-13 	101324.9999999885
0.3566066066066061 	299.9999999999457 	1.668796305679765e-12 	101324.9999999884
0.3591091091091085 	299.9999999999076 	7.38580030068413e-13 	101324.9999999883
0.3616116116116112 	299.999999999927 	1.969239445449306e-12 	101324.9999999882
0.3641141141141137 	299.9999999999183 	2.217816286286756e-12 	101324.9999999881
0.3666166166166161 	299.9999999999123 	2.62702309594706e-12 	101324.9999999883
0.3691191191191185 	300.0000000000504 	3.342918979916922e-12 	101324.9999999883
0.371621621621621 	300.0000000000139 	2.008238551374074e-12 	101324.9999999886
0.3741241241241237 	300.0000000000633 	3.189817795312371e-12 	101324.9999999887
0.3766266266266261 	300.0000000000388 	1.858590370806248e-12 	101324.9999999888
0.3791291291291286 	299.9999999999779 	1.88797415705333e-12 	101324.9999999887
0.3816316316316311 	299.9999999999096 	1.961638253769061e-12 	101324.9999999888
0.3841341341341336 	300.0000000000159 	1.533466757756473e-12 	101324.9999999888
0.3866366366366362 	299.9999999999986 	1.762656044518852e-12 	101324.9999999886
0.3891391391391387 	299.9999999999438 	8.786247898286365e-13 	101324.9999999887
0.391641641641641 	300.0000000000011 	2.333557757982456e-12 	101324.9999999888
0.3941441441441436 	300.0000000000101 	1.513299394609945e-12 	101324.9999999889
0.3966466466466462 	299.9999999999985 	3.16977065257934e-12 	101324.9999999887
0.3991491491491486 	299.9999999999382 	1.79299477421484e-12 	101324.9999999886
0.4016516516516512 	299.999999999893 	2.657856318078653e-12 	101324.9999999887
0.4041541541541536 	299.9999999999334 	4.465765376625788e-13 	101324.999999989
0.4066566566566561 	299.9999999999328 	1.562948902679877e-12 	101324.9999999892
0.4091591591591587 	299.9999999999876 	1.078157102525077e-12 	101324.9999999893
0.4116616616616612 	300.000000000006 	8.815990925503834e-14 	101324.9999999893
0.4141641641641635 	300.0000000000605 	5.278389211774127e-13 	101324.9999999892
0.4166666666666662 	299.9999999999931 	8.604905220356452e-13 	101324.9999999891
0.4191691691691687 	299.9999999999234 	9.669190795626066e-13 	101324.9999999889
0.421671671671671 	300.0000000000182 	3.189352922002695e-12 	101324.9999999888
0.4241741741741737 	299.9999999999763 	1.745998845219505e-12 	101324.9999999888
0.4266766766766761 	299.9999999999469 	4.004790589692939e-12 	101324.9999999889
0.4291791791791785 	300.0000000000215 	2.551811067585187e-12 	101324.9999999889
0.4316816816816812 	300.00000000001 	3.942616609494774e-12 	101324.9999999887
0.4341841841841836 	299.9999999999807 	3.053543354795855e-12 	101324.9999999886
0.4366866866866862 	299.9999999998967 	2.569894471078395e-12 	101324.9999999888
0.4391891891891885 	299.9999999999757 	2.39878208555317e-12 	101324.9999999891
0.4416916916916913 	299.9999999999779 	1.763503957234738e-12 	101324.9999999894
0.4441941941941936 	299.999999999986 	1.755152398920408e-12 	101324.9999999896
0.4466966966966961 	299.9999999999004 	1.244803714714645e-12 	101324.9999999897
0.4491991991991987 	299.9999999999728 	6.927959911688283e-13 	101324.9999999898
0.4517017017017012 	299.9999999999669 	1.924059451463988e-12 	101324.99999999
0.4542042042042035 	299.9999999999835 	1.529603911966893e-12 	101324.9999999899
0.4567067067067062 	299.999999999992 	1.221533342302549e-12 	101324.9999999898
0.4592092092092087 	299.9999999999094 	1.474275694194005e-12 	101324.9999999895
0.4617117117117112 	300.0000000000208 	1.310782258470966e-12 	101324.9999999894
0.4642142142142137 	299.9999999999566 	1.137768416553189e-12 	101324.9999999892
0.4667167167167162 	299.9999999999918 	1.207755396450526e-12 	101324.9999999891
0.4692192192192187 	299.9999999999501 	1.273900186696676e-12 	101324.9999999892
0.4717217217217212 	300.0000000000202 	1.23897505152163e-12 	101324.9999999894
0.4742242242242236 	299.9999999999487 	1.211486173174546e-12 	101324.9999999895
0.4767267267267262 	299.9999999999733 	1.963032277155419e-12 	101324.9999999894
0.4792292292292287 	300.0000000000237 	2.227366035252753e-12 	101324.9999999893
0.4817317317317312 	300.000000000045 	1.423656058596627e-12 	101324.9999999893
0.4842342342342336 	299.9999999999826 	1.607573302216807e-12 	101324.9999999896
0.4867367367367362 	299.9999999999422 	1.016146016747511e-12 	101324.9999999898
0.4892392392392387 	300.0000000000342 	2.160785807032274e-12 	101324.9999999898
0.4917417417417412 	300.0000000000082 	6.658995480668361e-13 	101324.9999999899
0.4942442442442437 	299.999999999893 	1.983542348946618e-12 	101324.99999999
0.4967467467467462 	299.999999999913 	9.22225568110767e-13 	101324.99999999
0.4992492492492487 	299.9999999999023 	2.15797362010873e-12 	101324.9999999898
0.5017517517517511 	299.9999999999515 	1.088141453580128e-12 	101324.9999999897
0.5042542542542537 	299.9999999999631 	1.616472139550163e-12 	101324.9999999896
0.5067567567567562 	299.9999999999346 	1.308904095010393e-12 	101324.9999999894
0.5092592592592589 	299.9999999999557 	1.168249825537253e-12 	101324.9999999894
0.5117617617617611 	299.9999999999507 	2.561688951699661e-12 	101324.9999999894
0.5142642642642637 	299.9999999999877 	1.45417005728729e-12 	101324.9999999894
0.5167667667667663 	299.9999999999696 	4.038703457794599e-12 	101324.9999999896
0.5192692692692688 	299.999999999903 	1.897675807389709e-12 	101324.9999999898
0.5217717717717714 	299.9999999999307 	5.712305867531131e-12 	101324.9999999899
0.5242742742742736 	299.9999999999329 	1.323655220650285e-12 	101324.9999999897
0.5267767767767763 	299.9999999999515 	4.977984242707721e-12 	101324.9999999895
0.5292792792792789 	299.9999999999317 	1.708404190688605e-12 	101324.9999999893
0.5317817817817813 	299.9999999998931 	4.73918002529405e-12 	101324.9999999891
0.5342842842842837 	300.0000000000168 	2.739972663792876e-12 	101324.9999999891
0.5367867867867864 	300.0000000000002 	4.215516903144432e-12 	101324.9999999893
0.5392892892892888 	299.9999999999497 	2.511673372439988e-12 	101324.9999999896
0.5417917917917912 	300.0000000000059 	4.004343683634283e-12 	101324.9999999899
0.5442942942942938 	299.9999999999808 	2.897960902225336e-12 	101324.9999999901
0.5467967967967964 	299.999999999933 	4.232958501495025e-12 	101324.9999999902
0.5492992992992988 	299.9999999999299 	2.971013364560881e-12 	101324.99999999
0.5518018018018012 	299.9999999999327 	3.9771589008761e-12 	101324.9999999898
0.5543043043043039 	300.0000000000235 	2.833089509031227e-12 	101324.9999999896
0.5568068068068063 	299.9999999999891 	3.641899957626829e-12 	101324.9999999895
0.5593093093093087 	299.9999999998898 	2.22020069268299e-12 	101324.9999999896
0.5618118118118114 	299.9999999999532 	4.215274202951506e-12 	101324.9999999897
0.5643143143143137 	299.9999999999348 	3.087527087520932e-12 	101324.9999999898
0.5668168168168163 	299.9999999999922 	4.185091064372641e-12 	101324.9999999899
0.5693193193193188 	300.0000000000315 	3.694167696235196e-12 	101324.99999999
0.5718218218218213 	300.0000000000266 	3.100101184985843e-12 	101324.99999999
0.5743243243243239 	300.0000000000092 	4.324651373279223e-12 	101324.99999999
0.5768268268268262 	300.0000000000006 	2.816815169740159e-12 	101324.99999999
0.5793293293293288 	299.9999999999314 	5.773643129027165e-12 	101324.9999999899
0.5818318318318314 	299.9999999999083 	3.058640572740193e-12 	101324.9999999899
0.5843343343343338 	299.9999999999831 	7.617375471281215e-12 	101324.9999999899
0.5868368368368363 	299.9999999999756 	3.33646859215113e-12 	101324.9999999897
0.5893393393393387 	299.9999999999362 	6.385556048113932e-12 	101324.9999999895
0.5918418418418413 	299.999999999935 	3.005148431660542e-12 	101324.9999999893
0.5943443443443439 	300.0000000000131 	5.36454875844404e-12 	101324.9999999893
0.5968468468468463 	300.0000000000186 	3.760789136123446e-12 	101324.9999999895
0.5993493493493487 	300.0000000000428 	5.532338466422992e-12 	101324.9999999898
0.6018518518518514 	299.9999999999811 	3.964758631728126e-12 	101324.99999999
0.6043543543543537 	299.9999999999949 	5.598410019626503e-12 	101324.9999999899
0.6068568568568564 	299.9999999999818 	4.34319141661906e-12 	101324.9999999897
0.6093593593593587 	299.9999999999264 	5.934770849319171e-12 	101324.9999999896
0.6118618618618614 	299.9999999999162 	5.055965875253024e-12 	101324.9999999896
0.6143643643643638 	300.0000000000176 	6.536472731771415e-12 	101324.9999999894
0.6168668668668662 	299.9999999999831 	4.822130028473385e-12 	101324.9999999891
0.6193693693693688 	299.9999999999516 	6.773415895475944e-12 	101324.9999999892
0.6218718718718714 	299.9999999999608 	4.264230594679668e-12 	101324.9999999892
0.6243743743743737 	299.9999999999268 	6.197670086799433e-12 	101324.9999999894
0.6268768768768762 	299.9999999999113 	4.772130558060545e-12 	101324.9999999898
0.629379379379379 	299.999999999952 	5.964483371517422e-12 	101324.9999999902
0.6318818818818812 	299.9999999999781 	5.39898531164923e-12 	101324.9999999906
0.6343843843843838 	300.0000000000151 	4.994897795794777e-12 	101324.9999999908
0.6368868868868864 	299.9999999999802 	5.684570388472376e-12 	101324.9999999909
0.6393893893893888 	299.9999999999091 	4.158389072835986e-12 	101324.9999999907
0.6418918918918912 	299.9999999999973 	6.4100940042093e-12 	101324.9999999906
0.6443943943943939 	299.9999999999744 	2.538060823373804e-12 	101324.9999999907
0.6468968968968963 	299.9999999999816 	6.957050945878089e-12 	101324.9999999907
0.6493993993993988 	299.9999999999731 	2.805023572711102e-12 	101324.9999999907
0.6519019019019012 	299.9999999999789 	6.595565975929853e-12 	101324.9999999906
0.6544044044044038 	299.9999999998926 	3.562606120992192e-12 	101324.9999999905
0.6569069069069065 	299.9999999999437 	7.35710829907436e-12 	101324.9999999904
0.6594094094094087 	299.9999999999565 	5.036494794457419e-12 	101324.9999999903
0.6619119119119113 	299.9999999999511 	7.450913117058769e-12 	101324.9999999904
0.664414414414414 	300.0000000000108 	6.000661729857141e-12 	101324.9999999906
0.6669169169169162 	300.0000000000183 	7.824952214902351e-12 	101324.9999999907
0.6694194194194188 	299.9999999999818 	6.030651517820747e-12 	101324.9999999907
0.6719219219219214 	299.9999999999129 	7.60963413335653e-12 	101324.9999999909
0.674424424424424 	299.9999999999628 	6.939422260878445e-12 	101324.999999991
0.6769269269269262 	299.9999999999033 	8.049542759584435e-12 	101324.9999999908
0.679429429429429 	300.0000000000063 	6.706063199346661e-12 	101324.9999999907
0.6819319319319311 	299.9999999999717 	7.198700815245498e-12 	101324.9999999911
0.6844344344344341 	299.9999999999853 	5.917550066149526e-12 	101324.9999999912
0.686936936936936 	299.9999999999846 	7.121274092651756e-12 	101324.9999999908
0.6894394394394392 	299.9999999999957 	6.210142886047331e-12 	101324.9999999907
0.6919419419419413 	299.9999999999802 	6.679336177699201e-12 	101324.999999991
0.694444444444444 	299.9999999999147 	7.070232662536613e-12 	101324.999999991
0.6969469469469463 	299.9999999999101 	7.731977936895037e-12 	101324.9999999911
0.6994494494494489 	299.9999999999098 	9.366448587086941e-12 	101324.9999999911
0.7019519519519515 	299.9999999999797 	8.904105806561699e-12 	101324.9999999911
0.7044544544544538 	299.9999999999424 	1.072583861275764e-11 	101324.9999999911
0.7069569569569564 	299.9999999999959 	8.646140211811207e-12 	101324.999999991
0.7094594594594589 	299.9999999999588 	1.149029640083001e-11 	101324.9999999911
0.7119619619619615 	299.9999999998979 	9.150220841186071e-12 	101324.9999999911
0.7144644644644638 	299.9999999999492 	1.116824738177853e-11 	101324.9999999908
0.7169669669669665 	299.9999999999129 	9.488135714445309e-12 	101324.9999999908
0.7194694694694688 	299.9999999999964 	1.012989920417928e-11 	101324.9999999911
0.7219719719719715 	299.9999999999901 	9.420931383753804e-12 	101324.9999999913
0.7244744744744737 	300.0000000000065 	1.006495854439744e-11 	101324.9999999915
0.7269769769769764 	299.9999999999979 	1.031450103639225e-11 	101324.9999999914
0.7294794794794791 	299.9999999999869 	9.329023058696579e-12 	101324.9999999912
0.7319819819819813 	299.9999999999744 	1.16475914582596e-11 	101324.9999999911
0.7344844844844839 	299.9999999999071 	9.920813863253107e-12 	101324.9999999911
0.7369869869869864 	299.9999999999431 	1.099413187621366e-11 	101324.9999999913
0.739489489489489 	299.9999999999333 	1.024248971133544e-11 	101324.9999999915
0.7419919919919914 	299.9999999999185 	9.719935907685518e-12 	101324.9999999915
0.7444944944944939 	299.999999999979 	1.013971193165124e-11 	101324.9999999915
0.7469969969969963 	299.9999999999657 	8.080733126112445e-12 	101324.9999999915
0.7494994994994989 	299.999999999932 	1.051702130375923e-11 	101324.9999999914
0.7520020020020015 	299.9999999999658 	7.507695755718805e-12 	101324.9999999915
0.7545045045045039 	299.9999999999618 	1.134543566328039e-11 	101324.9999999916
0.7570070070070062 	299.9999999999328 	8.338384695373479e-12 	101324.9999999917
0.7595095095095092 	299.9999999999253 	1.047004259798023e-11 	101324.9999999919
0.7620120120120112 	300.0000000000132 	9.098122188242028e-12 	101324.9999999921
0.7645145145145138 	299.9999999999897 	9.195690269888852e-12 	101324.9999999923
0.7670170170170165 	299.9999999999241 	9.671574012435243e-12 	101324.9999999923
0.7695195195195191 	299.9999999999113 	8.660316236041661e-12 	101324.9999999927
0.7720220220220213 	299.9999999999222 	1.155246534719854e-11 	101324.9999999928
0.7745245245245239 	299.9999999999164 	9.472113280361966e-12 	101324.9999999927
0.7770270270270263 	299.9999999999606 	1.191808017484008e-11 	101324.9999999924
0.779529529529529 	299.9999999999797 	1.126717935122824e-11 	101324.9999999924
0.7820320320320313 	299.9999999999674 	1.249492296074891e-11 	101324.9999999924
0.784534534534534 	300.0000000000029 	1.263869739492091e-11 	101324.9999999924
0.7870370370370364 	299.9999999999968 	1.233696411039765e-11 	101324.9999999924
0.7895395395395389 	299.999999999987 	1.343455874035349e-11 	101324.9999999921
0.7920420420420413 	299.9999999999742 	1.240716983253623e-11 	101324.9999999919
0.794544544544544 	299.9999999999616 	1.414070097870096e-11 	101324.999999992
0.7970470470470463 	300.0000000000006 	1.111513786841006e-11 	101324.9999999923
0.799549549549549 	299.9999999999855 	1.426223899691169e-11 	101324.9999999923
0.8020520520520515 	299.9999999999862 	1.122538476836056e-11 	101324.9999999924
0.8045545545545539 	299.9999999999401 	1.373333381397497e-11 	101324.9999999926
0.8070570570570563 	299.9999999999718 	1.27178394254525e-11 	101324.999999993
0.8095595595595589 	299.9999999999475 	1.312363676700055e-11 	101324.9999999934
0.8120620620620614 	299.9999999999331 	1.250787741261605e-11 	101324.9999999935
0.8145645645645638 	300.0000000000039 	1.187500697038548e-11 	101324.9999999935
0.8170670670670666 	300.0000000000012 	1.235028091003994e-11 	101324.9999999934
0.8195695695695689 	299.999999999976 	1.062911122113541e-11 	101324.9999999934
0.8220720720720714 	299.9999999999368 	1.356652287991021e-11 	101324.9999999932
0.8245745745745739 	299.9999999999948 	1.10680663735783e-11 	101324.9999999932
0.8270770770770765 	299.9999999999667 	1.31313352252242e-11 	101324.9999999933
0.8295795795795788 	299.9999999999455 	1.197620157423132e-11 	101324.9999999934
0.8320820820820815 	300.0000000000183 	1.297114351409335e-11 	101324.9999999935
0.834584584584584 	300.0000000000102 	1.236959130022457e-11 	101324.9999999936
0.8370870870870865 	299.9999999999673 	1.172342976501679e-11 	101324.9999999937
0.8395895895895891 	299.9999999999254 	1.233649967326349e-11 	101324.9999999936
0.8420920920920915 	299.999999999937 	1.133785719506786e-11 	101324.9999999936
0.844594594594594 	299.9999999999338 	1.213118932603933e-11 	101324.9999999936
0.8470970970970964 	299.9999999999563 	1.20141091182813e-11 	101324.9999999935
0.8495995995995991 	299.9999999999937 	1.204292474693168e-11 	101324.9999999933
0.8521021021021015 	299.9999999999811 	1.210552852347133e-11 	101324.9999999933
0.8546046046046039 	299.9999999999725 	1.140397243452994e-11 	101324.9999999934
0.8571071071071066 	300.0000000000032 	1.277508804151914e-11 	101324.9999999936
0.8596096096096089 	299.9999999999643 	1.119444435407649e-11 	101324.9999999936
0.8621121121121116 	299.9999999999253 	1.463718458683007e-11 	101324.9999999934
0.8646146146146139 	299.9999999999932 	1.21733428238748e-11 	101324.9999999933
0.8671171171171166 	299.9999999999674 	1.358371745484973e-11 	101324.9999999932
0.8696196196196189 	299.9999999999334 	1.246549825706972e-11 	101324.999999993
0.8721221221221216 	299.9999999999751 	1.338119817563432e-11 	101324.999999993
0.874624624624624 	299.9999999999982 	1.345055386478029e-11 	101324.999999993
0.8771271271271264 	299.9999999999991 	1.349957296491393e-11 	101324.9999999931
0.879629629629629 	300.0000000000148 	1.483869939950705e-11 	101324.9999999933
0.8821321321321317 	299.9999999999802 	1.337393332224748e-11 	101324.9999999935
0.8846346346346339 	299.9999999999199 	1.631824017304915e-11 	101324.9999999936
0.8871371371371364 	299.9999999999552 	1.345718695024661e-11 	101324.9999999938
0.8896396396396391 	299.999999999954 	1.534407535218763e-11 	101324.9999999941
0.8921421421421414 	299.9999999999584 	1.393121072816907e-11 	101324.9999999943
0.8946446446446441 	299.9999999999837 	1.503613473890274e-11 	101324.9999999946
0.8971471471471464 	300.0000000000016 	1.417614635193611e-11 	101324.9999999945
0.8996496496496489 	299.9999999999789 	1.339919883945719e-11 	101324.9999999946
0.9021521521521517 	299.9999999999621 	1.39946206179859e-11 	101324.9999999945
0.9046546546546541 	299.9999999999918 	1.262979970918912e-11 	101324.9999999943
0.9071571571571564 	299.9999999999461 	1.3684030860906e-11 	101324.9999999942
0.9096596596596589 	299.9999999999429 	1.372191333203401e-11 	101324.9999999941
0.9121621621621616 	300.0000000000101 	1.386761672682873e-11 	101324.9999999942
0.9146646646646639 	299.9999999999753 	1.359113437920259e-11 	101324.9999999943
0.9171671671671666 	299.9999999999383 	1.313785493797373e-11 	101324.9999999945
0.9196696696696689 	299.9999999999967 	1.419802562439239e-11 	101324.9999999946
0.9221721721721714 	299.9999999999921 	1.253889403320828e-11 	101324.9999999948
0.9246746746746741 	299.9999999999316 	1.581208854390127e-11 	101324.9999999951
0.9271771771771765 	299.9999999999494 	1.343243242522404e-11 	101324.9999999953
0.9296796796796791 	299.9999999999899 	1.549745884538115e-11 	101324.9999999954
0.9321821821821816 	299.9999999999653 	1.37542717526056e-11 	101324.9999999955
0.9346846846846838 	299.9999999999437 	1.487292584934039e-11 	101324.9999999954
0.9371871871871866 	300.0000000000105 	1.406255832071291e-11 	101324.9999999953
0.9396896896896891 	300.0000000000123 	1.434724237976148e-11 	101324.9999999954
0.9421921921921914 	300.0000000000114 	1.461208997309382e-11 	101324.9999999953
0.9446946946946939 	299.9999999999679 	1.370252924450944e-11 	101324.9999999952
0.9471971971971965 	299.9999999999186 	1.653823516797167e-11 	101324.9999999951
0.9496996996996991 	299.9999999999583 	1.474409580297883e-11 	101324.9999999952
0.9522022022022016 	299.9999999999734 	1.684050325237556e-11 	101324.9999999954
0.9547047047047038 	299.9999999999718 	1.553713259303981e-11 	101324.9999999955
0.9572072072072064 	299.9999999999595 	1.601226513204401e-11 	101324.9999999955
0.9597097097097093 	299.9999999999592 	1.570774912526764e-11 	101324.9999999954
0.9622122122122114 	299.9999999999574 	1.583090500961413e-11 	101324.9999999953
0.964714714714714 	299.99999999995 	1.689487507329232e-11 	101324.9999999952
0.9672172172172167 	299.9999999999545 	1.5690460381938e-11 	101324.9999999955
0.969719719719719 	299.9999999999877 	1.649154893842227e-11 	101324.9999999958
0.9722222222222214 	299.9999999999802 	1.621578670253125e-11 	101324.9999999956
0.9747247247247239 	299.9999999999731 	1.648202130884458e-11 	101324.9999999955
0.9772272272272267 	300.0000000000072 	1.622382121541756e-11 	101324.9999999957
0.9797297297297292 	299.9999999999866 	1.54544967675703e-11 	101324.9999999958
0.9822322322322313 	299.9999999999861 	1.634255341830426e-11 	101324.9999999959
0.9847347347347344 	299.9999999999856 	1.529842087497634e-11 	101324.9999999959
0.9872372372372363 	299.9999999999338 	1.883797746530863e-11 	101324.9999999957
0.9897397397397389 	299.9999999999622 	1.693684753424698e-11 	101324.9999999959
0.9922422422422417 	299.9999999999488 	1.930423706595258e-11 	101324.9999999959
0.9947447447447441 	299.9999999999561 	1.774339668274729e-11 	101324.9999999959
0.9972472472472468 	299.9999999999701 	1.860195781342424e-11 	101324.999999996
0.999749749749749 	299.99999999996 	1.740614212568031e-11 	101324.9999999961
1.002252252252252 	299.9999999999688 	1.784305093157131e-11 	101324.9999999962
1.004754754754754 	299.999999999992 	1.822929629662661e-11 	101324.9999999962
1.007257257257256 	299.999999999965 	1.737545690334136e-11 	101324.9999999963
1.009759759759759 	299.9999999999521 	1.920948466077568e-11 	101324.9999999964
1.012262262262261 	299.999999999954 	1.634933332669387e-11 	101324.9999999965
1.014764764764764 	299.9999999999273 	1.779127495838658e-11 	101324.9999999965
1.017267267267267 	299.9999999999155 	1.660219582175694e-11 	101324.9999999965
1.019769769769769 	299.999999999959 	1.780639500556134e-11 	101324.9999999966
1.022272272272272 	299.9999999999778 	1.714682891332735e-11 	101324.9999999966
1.024774774774774 	299.9999999999877 	1.72757108878758e-11 	101324.9999999967
1.027277277277277 	299.9999999999795 	1.84651790854845e-11 	101324.9999999969
1.029779779779779 	300.0000000000034 	1.732081822736067e-11 	101324.9999999968
1.032282282282282 	300.0000000000051 	1.803811663925403e-11 	101324.9999999968
1.034784784784784 	299.9999999999962 	1.705803035889619e-11 	101324.9999999969
1.037287287287286 	299.9999999999604 	1.752609026722637e-11 	101324.9999999971
1.039789789789789 	299.9999999999692 	1.785213299975606e-11 	101324.9999999972
1.042292292292291 	300.0000000000085 	1.82645045969728e-11 	101324.9999999969
1.044794794794794 	300.0000000000256 	1.843633823543919e-11 	101324.9999999967
1.047297297297296 	300.0000000000445 	1.727907614717139e-11 	101324.9999999968
1.049799799799799 	299.9999999999927 	1.952234970989053e-11 	101324.9999999967
1.052302302302302 	299.9999999999528 	1.730333493648684e-11 	101324.9999999967
1.054804804804804 	299.9999999999338 	1.945442716671441e-11 	101324.9999999969
1.057307307307306 	299.9999999999195 	1.808015347492092e-11 	101324.9999999971
1.059809809809809 	299.999999999955 	1.931847515183346e-11 	101324.9999999973
1.062312312312312 	299.9999999999467 	1.838298061395451e-11 	101324.9999999974
1.064814814814814 	299.9999999999414 	1.87559262323568e-11 	101324.9999999974
1.067317317317317 	299.9999999999197 	1.832649826917213e-11 	101324.9999999974
1.069819819819819 	299.9999999999195 	1.840126422607547e-11 	101324.9999999973
1.072322322322321 	299.999999999986 	2.099082806421772e-11 	101324.999999997
1.074824824824824 	300.0000000000077 	1.8965949920289e-11 	101324.999999997
1.077327327327327 	300.0000000000348 	2.032617115943676e-11 	101324.9999999972
1.079829829829829 	300.0000000000523 	1.892173216669679e-11 	101324.9999999975
1.082332332332332 	300.0000000000076 	1.969890461213422e-11 	101324.9999999977
1.084834834834834 	299.999999999975 	1.92133259070846e-11 	101324.9999999979
1.087337337337337 	299.9999999999347 	1.954059088784117e-11 	101324.9999999981
1.089839839839839 	299.9999999999222 	2.113774109482171e-11 	101324.9999999983
1.092342342342342 	299.9999999999643 	1.935530779212243e-11 	101324.9999999983
1.094844844844844 	299.9999999999643 	2.066356986646876e-11 	101324.9999999982
1.097347347347347 	299.9999999999302 	1.904758217382427e-11 	101324.9999999983
1.099849849849849 	299.9999999999138 	2.247607679532639e-11 	101324.9999999985
1.102352352352352 	299.9999999999462 	2.015347808791294e-11 	101324.9999999985
1.104854854854854 	299.9999999999739 	2.261355803455409e-11 	101324.9999999985
1.107357357357357 	299.9999999999601 	2.041998841762956e-11 	101324.9999999984
1.109859859859859 	299.9999999999504 	2.209585282651469e-11 	101324.999999998
1.112362362362362 	300.0000000000212 	2.108784428282881e-11 	101324.9999999979
1.114864864864865 	300.0000000000213 	2.17099967041408e-11 	101324.9999999981
1.117367367367367 	299.9999999999628 	2.281729241400386e-11 	101324.9999999983
1.119869869869869 	299.9999999999214 	2.116398930628545e-11 	101324.9999999984
1.122372372372372 	299.9999999999632 	2.300394480217746e-11 	101324.9999999983
1.124874874874874 	299.9999999999569 	2.220190261971002e-11 	101324.9999999983
1.127377377377377 	299.9999999999664 	2.356924017157263e-11 	101324.9999999981
1.129879879879879 	300.0000000000222 	2.274966384806782e-11 	101324.999999998
1.132382382382382 	300.0000000000389 	2.318371668645443e-11 	101324.999999998
1.134884884884884 	300.0000000000128 	2.249514740310661e-11 	101324.999999998
1.137387387387387 	300.000000000019 	2.194783165508108e-11 	101324.999999998
1.139889889889889 	299.9999999999602 	2.315584600855373e-11 	101324.9999999981
1.142392392392392 	299.9999999999477 	2.138425575715992e-11 	101324.9999999983
1.144894894894894 	300.0000000000186 	2.26187911255139e-11 	101324.9999999987
1.147397397397397 	299.9999999999995 	2.078420147477489e-11 	101324.9999999988
1.149899899899899 	299.999999999936 	2.194819558857199e-11 	101324.9999999987
1.152402402402402 	299.9999999999241 	2.162154403546118e-11 	101324.9999999986
1.154904904904904 	299.999999999962 	2.338107952232306e-11 	101324.9999999988
1.157407407407407 	299.9999999999619 	2.303537562856625e-11 	101324.9999999991
1.159909909909909 	299.999999999926 	2.283273431283795e-11 	101324.9999999991
1.162412412412412 	299.99999999992 	2.443526465015917e-11 	101324.9999999991
1.164914914914914 	299.9999999999637 	2.296935746859429e-11 	101324.999999999
1.167417417417417 	299.9999999999725 	2.482648681167977e-11 	101324.9999999988
1.169919919919919 	300.0000000000205 	2.341768203603294e-11 	101324.9999999988
1.172422422422422 	300.0000000000499 	2.465451346947655e-11 	101324.9999999985
1.174924924924925 	299.999999999993 	2.356063744923177e-11 	101324.9999999983
1.177427427427427 	299.9999999999633 	2.484815256910758e-11 	101324.9999999983
1.179929929929929 	300.0000000000191 	2.631771492572971e-11 	101324.9999999982
1.182432432432432 	300.000000000049 	2.452645403706441e-11 	101324.9999999981
1.184934934934934 	300.0000000000077 	2.606626302615879e-11 	101324.9999999983
1.187437437437437 	299.9999999999678 	2.484111941234128e-11 	101324.9999999985
1.189939939939939 	299.9999999999537 	2.597353598341063e-11 	101324.9999999985
1.192442442442442 	299.9999999999227 	2.500103649687402e-11 	101324.9999999985
1.194944944944944 	299.9999999999276 	2.600008888541106e-11 	101324.9999999987
1.197447447447447 	299.9999999999903 	2.457965008340759e-11 	101324.999999999
1.199949949949949 	300.0000000000138 	2.453933092567342e-11 	101324.9999999991
1.202452452452452 	299.999999999954 	2.572048691813664e-11 	101324.9999999992
1.204954954954955 	299.9999999999437 	2.406580912486407e-11 	101324.9999999994
1.207457457457457 	299.9999999999746 	2.552946225125395e-11 	101324.9999999994
1.20995995995996 	299.9999999999735 	2.431541458583307e-11 	101324.9999999995
1.212462462462462 	299.9999999999889 	2.549849391858915e-11 	101324.9999999997
1.214964964964964 	299.9999999999888 	2.452423745490639e-11 	101324.9999999995
1.217467467467467 	299.9999999999971 	2.586137701900916e-11 	101324.9999999993
1.219969969969969 	299.9999999999675 	2.504518965662042e-11 	101324.9999999991
1.222472472472472 	300.0000000000083 	2.62776907004546e-11 	101324.999999999
1.224974974974975 	300.0000000000526 	2.781056490318694e-11 	101324.999999999
1.227477477477477 	299.9999999999916 	2.642639533169793e-11 	101324.9999999989
1.229979979979979 	299.9999999999778 	2.828348097808898e-11 	101324.9999999987
1.232482482482482 	299.9999999999519 	2.695998756235303e-11 	101324.9999999985
1.234984984984984 	299.9999999999524 	2.887618332776203e-11 	101324.9999999987
1.237487487487487 	299.9999999999812 	2.729305614996658e-11 	101324.9999999989
1.239989989989989 	299.9999999999857 	2.803910304936671e-11 	101324.9999999989
1.242492492492492 	300.000000000023 	2.8663622417401e-11 	101324.9999999989
1.244994994994994 	299.9999999999849 	2.669237164610508e-11 	101324.999999999
1.247497497497497 	299.9999999999911 	2.791916072420319e-11 	101324.9999999992
1.249999999999999 	300.0000000003191 	2.675916812936013e-11 	101324.9999999994
