-1.25 	300 	0.1178485127065189 	101372.5528258148
-1.247497497497497 	300.0377268521726 	0.1111166567247471 	101370.4712926105
-1.244994994994995 	300.0354746086402 	0.1017070489715262 	101366.9366569715
-1.242492492492492 	300.0319213552252 	0.09298426822806345 	101362.7413130887
-1.23998998998999 	300.0277583841607 	0.08017431976597292 	101357.8198150097
-1.237487487487487 	300.0230987304809 	0.06681421962318251 	101352.3099738029
-1.234984984984985 	300.0181112329567 	0.05231300553011757 	101346.4128448624
-1.232482482482482 	300.0127690756734 	0.03687406080144212 	101340.0966004903
-1.22997997997998 	300.0071830078406 	0.02071686029613353 	101333.4922427411
-1.227477477477477 	300.0014848798839 	0.008174916746182086 	101326.755722549
-1.224974974974975 	299.9957743800499 	0.01224593384922622 	101320.0048851738
-1.222472472472472 	299.9901048674054 	0.02867266204226961 	101313.3028270733
-1.21996996996997 	299.9845694047638 	0.04468087057796742 	101306.7595369844
-1.217467467467467 	299.9793315123445 	0.05984987871096106 	101300.5682442594
-1.214964964964965 	299.974464715727 	0.07391219766653016 	101294.815827267
-1.212462462462462 	299.9700273928343 	0.08668046644180646 	101289.5712175464
-1.20995995995996 	299.9661606513005 	0.09784809754428039 	101285.0011495016
-1.207457457457457 	299.9629705156635 	0.1070806930414695 	101281.2308586665
-1.204954954954955 	299.960478143179 	0.1142794827505657 	101278.2852609697
-1.202452452452452 	299.9586968082543 	0.1194036871450166 	101276.1799694963
-1.19994994994995 	299.9576621805292 	0.1223752430595419 	101274.9571688328
-1.197447447447447 	299.9574019711199 	0.12315728567993 	101274.6496256603
-1.194944944944945 	299.957925381815 	0.1216586037554344 	101275.2681394818
-1.192442442442442 	299.9592462391845 	0.1178209075400009 	101276.8290408099
-1.18993993993994 	299.9613611363919 	0.1116858654496469 	101279.3283399769
-1.187437437437437 	299.9642119993148 	0.1034424761140793 	101282.6974938476
-1.184934934934935 	299.9677074621641 	0.09334553277903539 	101286.828569119
-1.182432432432432 	299.9717725086509 	0.0815784187310041 	101291.6329740285
-1.17992992992993 	299.9763314652895 	0.06837769785902115 	101297.021336262
-1.177427427427427 	299.981302773063 	0.05397027272861181 	101302.8972921672
-1.174924924924925 	299.9866194101712 	0.03859939506738787 	101309.1817161366
-1.172422422422422 	299.9921842078902 	0.02257953279026117 	101315.7597746273
-1.16991991991992 	299.9978506692063 	0.00781309202546742 	101322.4583446366
-1.167417417417417 	300.0035359991193 	0.01027740093795382 	101329.1795515762
-1.164914914914915 	300.009190424657 	0.02662624215745854 	101335.864522566
-1.162412412412412 	300.0147136478701 	0.04261734449215022 	101342.3947157006
-1.15990990990991 	300.0199963805323 	0.05787077103776479 	101348.6408544429
-1.157407407407407 	300.0249200632427 	0.07208825184698961 	101354.4627338298
-1.154904904904904 	300.0293677519435 	0.08496136972607943 	101359.7220146025
-1.152402402402403 	300.0332577370604 	0.09620292999346608 	101364.3219769738
-1.1498998998999 	300.0365275459261 	0.1056438190374438 	101368.1887177533
-1.147397397397397 	300.0391304015986 	0.1131518096994715 	101371.2668286094
-1.144894894894895 	300.0410404802722 	0.1186361917638196 	101373.5257398726
-1.142392392392392 	300.0422101246741 	0.1219918783634405 	101374.9090506216
-1.13988988988989 	300.0425917999876 	0.1231158586831986 	101375.3604545674
-1.137387387387387 	300.042162871912 	0.12189056359669 	101374.8532539995
-1.134884884884885 	300.0409135328624 	0.1182787529694617 	101373.3758966288
-1.132382382382382 	300.0388796220073 	0.1124290624113266 	101370.9707310258
-1.12987987987988 	300.0361503222616 	0.1045146010728479 	101367.7432355629
-1.127377377377377 	300.0327767707109 	0.09474532743110607 	101363.7539544487
-1.124874874874875 	300.0288033082282 	0.08328179978871082 	101359.0554073407
-1.122372372372372 	300.0243002020683 	0.07022113196289452 	101353.7307199223
-1.11986986986987 	300.0193400786807 	0.05584330904553358 	101347.8658728497
-1.117367367367367 	300.0140162580504 	0.04047718881048722 	101341.5712525109
-1.114864864864865 	300.0084685720279 	0.02444617812932167 	101335.0122129215
-1.112362362362362 	300.0027900195086 	0.008089676749439039 	101328.2987678449
-1.10985985985986 	299.9970758396836 	0.009125477499451628 	101321.5434980854
-1.107357357357357 	299.9913888817269 	0.02494033522986813 	101314.8207471751
-1.104854854854855 	299.9858115957133 	0.04107010000065647 	101308.227941741
-1.102352352352353 	299.9804880256602 	0.05646556541857291 	101301.9353061312
-1.09984984984985 	299.9755410597112 	0.07076258054820821 	101296.0880832633
-1.097347347347347 	299.9710630130646 	0.08370087997176241 	101290.7952852433
-1.094844844844845 	299.9671202179735 	0.09512623164229542 	101286.135302983
-1.092342342342342 	299.9637595646598 	0.1048050214121218 	101282.1634593661
-1.08983983983984 	299.961044864933 	0.1125904167656527 	101278.9550952061
-1.087337337337337 	299.9590565348665 	0.1183032955861959 	101276.6051905182
-1.084834834834835 	299.9578523223105 	0.1217835219116584 	101275.1819367318
-1.082332332332332 	299.95745551936 	0.1229810587704511 	101274.7129719362
-1.07982982982983 	299.957862203696 	0.1218236918160091 	101275.1935619331
-1.077327327327327 	299.9590449571363 	0.1184025174015381 	101276.5912323869
-1.074824824824825 	299.96097884518 	0.1128077762992954 	101278.8766321852
-1.072322322322323 	299.9636307807569 	0.1051442958772598 	101282.0106705516
-1.06981981981982 	299.9669428518234 	0.09557266028099927 	101285.9249725128
-1.067317317317317 	299.9708571026945 	0.08419490913594201 	101290.5511295829
-1.064814814814815 	299.9753089333731 	0.07129703878293595 	101295.81281066
-1.062312312312312 	299.9802057049595 	0.05712937734297701 	101301.6006260976
-1.05980980980981 	299.9854514032934 	0.04198264448665507 	101307.8011367959
-1.057307307307307 	299.9909380120454 	0.026190485660985 	101314.2867013471
-1.054804804804805 	299.9965481538018 	0.009937204811016636 	101320.9186276491
-1.052302302302302 	300.0022199884118 	0.009005910871664094 	101327.6237848667
-1.0497997997998 	300.0078898231109 	0.02283348559748569 	101334.3269108636
-1.047297297297297 	300.0134361113755 	0.03888707687489518 	101340.8843011925
-1.044794794794795 	300.0187362487386 	0.05419287551708758 	101347.150948115
-1.042292292292292 	300.0236802101626 	0.06852521986813498 	101352.9967509928
-1.03978978978979 	300.0281932058567 	0.08160016284898211 	101358.3331762755
-1.037287287287287 	300.0322146966408 	0.09320890219316273 	101363.0886087731
-1.034784784784785 	300.0356680863503 	0.1031830927992466 	101367.1724040468
-1.032282282282283 	300.0384729820568 	0.1112571351989132 	101370.4894103691
-1.02977977977978 	300.0405771739576 	0.1173014281201457 	101372.9778820806
-1.027277277277277 	300.0419229841442 	0.1211589489220774 	101374.5694970956
-1.024774774774775 	300.0424793523249 	0.122757882853328 	101375.2275197834
-1.022272272272272 	300.042233475416 	0.1220707164426801 	101374.9367731388
-1.01976976976977 	300.0411885130662 	0.1190559628728515 	101373.7010854885
-1.017267267267267 	300.0393690064989 	0.1138350548939923 	101371.5494842436
-1.014764764764765 	300.0368331476545 	0.1064852044654853 	101368.5507196793
-1.012262262262262 	300.0336145589717 	0.09718355155352211 	101364.744674807
-1.00975975975976 	300.0297786587461 	0.08611946972854084 	101360.2087682017
-1.007257257257257 	300.025397739849 	0.07340875593988636 	101355.0285133353
-1.004754754754755 	300.020552347277 	0.05935584046961706 	101349.2992819702
-1.002252252252252 	300.0153222825678 	0.04422367895441769 	101343.1154358748
-0.9997497497497498 	300.0098166960442 	0.02829302087009899 	101336.6061104086
-0.9972472472472473 	300.0041278507418 	0.01192608459868103 	101329.8804335934
-0.9947447447447449 	299.9983828745663 	0.008946386164167557 	101323.0886823254
-0.9922422422422421 	299.9926649126089 	0.02124232996935242 	101316.3292108743
-0.9897397397397399 	299.9870730508633 	0.03739408349427986 	101309.7190906075
-0.9872372372372376 	299.9817219323279 	0.05289168258757476 	101303.3938366323
-0.9847347347347346 	299.9767017690254 	0.06737673480378052 	101297.4600452435
-0.9822322322322323 	299.97210613956 	0.08067154471444039 	101292.0282328726
-0.9797297297297296 	299.9680138124976 	0.09254380753580158 	101287.1914852057
-0.9772272272272275 	299.9645007486352 	0.1026604370254584 	101283.0394696462
-0.9747247247247248 	299.9616542615517 	0.1108911100887707 	101279.6753462139
-0.9722222222222224 	299.9595337250531 	0.1169783333971808 	101277.1692025736
-0.9697197197197196 	299.9581755484368 	0.1208738852899876 	101275.5639883103
-0.9672172172172175 	299.9576075758886 	0.122555610273118 	101274.8927359646
-0.9647147147147147 	299.95782611638 	0.1219124484736316 	101275.1509614687
-0.9622122122122124 	299.9588187555014 	0.119048763961562 	101276.323980239
-0.9597097097097099 	299.9605799616446 	0.1139458930477396 	101278.4052908946
-0.9572072072072073 	299.9630676625683 	0.1067641553807443 	101281.3452256365
-0.9547047047047047 	299.9662268110504 	0.09764792033466045 	101285.0787910729
-0.9522022022022023 	299.9700074450797 	0.08669453682223877 	101289.5469637663
-0.9496996996996998 	299.9743293289991 	0.07420362003448511 	101294.6550371481
-0.9471971971971973 	299.9791097607181 	0.06031437859635546 	101300.3052908632
-0.9446946946946947 	299.9842720884803 	0.0454105267646064 	101306.4071888592
-0.9421921921921923 	299.9896971285266 	0.02978298240214947 	101312.8199250651
-0.93968968968969 	299.9952716806026 	0.01362663545076212 	101319.4096784317
-0.9371871871871872 	300.0009126263537 	0.008266915499805415 	101326.0782668262
-0.9346846846846848 	300.0065341121472 	0.0189361861675144 	101332.7241646192
-0.9321821821821823 	300.0120499164509 	0.03490378936797291 	101339.2454190377
-0.9296796796796799 	300.0173814768526 	0.05023151927083159 	101345.5491640819
-0.9271771771771771 	300.0224091857332 	0.06481049624660971 	101351.4938882576
-0.9246746746746748 	300.0270483113694 	0.07823103546902106 	101356.9794098967
-0.9221721721721724 	300.0312137127273 	0.09029615196748492 	101361.9049873976
-0.9196696696696698 	300.0348054799972 	0.1006797751113167 	101366.1523598862
-0.9171671671671672 	300.0377539850784 	0.109147619076194 	101369.6391951179
-0.9146646646646649 	300.0400211510054 	0.115681161678018 	101372.3203476919
-0.9121621621621623 	300.0415458168159 	0.1200676522840278 	101374.1234811911
-0.9096596596596597 	300.0423043647039 	0.1222814417560567 	101375.0206376619
-0.9071571571571573 	300.0422685331066 	0.1221535502955522 	101374.9782478381
-0.9046546546546547 	300.0414220945707 	0.11968057707391 	101373.9773418022
-0.9021521521521524 	300.0397972909456 	0.115034263990385 	101372.055982696
-0.8996496496496498 	300.0374449264905 	0.1082174163957719 	101369.2742043433
-0.8971471471471473 	300.0343999832272 	0.09946087442207779 	101365.673501609
-0.894644644644645 	300.0307250719544 	0.08882519468395017 	101361.3279134857
-0.892142142142142 	300.0264645840673 	0.07643380153508013 	101356.2900436578
-0.8896396396396397 	300.0216790105168 	0.06261221094367643 	101350.6314902396
-0.8871371371371374 	300.0164833050242 	0.0475660036962253 	101344.4882046367
-0.8846346346346349 	300.0109970014958 	0.03171695286952033 	101338.0016307799
-0.8821321321321324 	300.005335705738 	0.01540180106711503 	101331.3084398464
-0.8796296296296297 	299.9996224430386 	0.007920144809830099 	101324.5541245515
-0.8771271271271271 	299.9939168280259 	0.0176604566653838 	101317.8091803667
-0.8746246246246248 	299.9883103002567 	0.03383416635362479 	101311.1816473976
-0.8721221221221224 	299.9829331798697 	0.04936552167261069 	101304.825613039
-0.8696196196196196 	299.9778610740813 	0.06402348271581125 	101298.8303518763
-0.8671171171171175 	299.9731546544041 	0.07766049527436794 	101293.2675571241
-0.8646146146146148 	299.9689076851618 	0.08997584256455535 	101288.2480036559
-0.8621121121121121 	299.9652156928333 	0.1006517906476398 	101283.8844848132
-0.8596096096096097 	299.9622084707486 	0.109289379127214 	101280.3303949614
-0.857107107107107 	299.9599844889501 	0.1156988357837531 	101277.7019774287
-0.8546046046046049 	299.9585332775243 	0.1199283259948638 	101275.9868239065
-0.8521021021021022 	299.9578095283679 	0.1219919537109392 	101275.1314508846
-0.8495995995995997 	299.9578165986066 	0.1219941967984926 	101275.1397875065
-0.8470970970970974 	299.9585642069719 	0.1197829378274918 	101276.0232365169
-0.8445945945945946 	299.9601078165755 	0.1152460834838037 	101277.8473719823
-0.8420920920920922 	299.9624586253472 	0.1085280230272827 	101280.6255124461
-0.8395895895895897 	299.9655284044049 	0.09968846865575409 	101284.2534178333
-0.8370870870870872 	299.9692025345009 	0.08909448749826186 	101288.5957152031
-0.8345845845845846 	299.9733728806203 	0.07707078511162004 	101293.5246492436
-0.8320820820820823 	299.9779314519115 	0.06380053861201927 	101298.9126125019
-0.8295795795795798 	299.9828584979293 	0.04951501435437596 	101304.7363417084
-0.8270770770770772 	299.9881482699834 	0.03422092021375189 	101310.9890796622
-0.8245745745745746 	299.9937335386482 	0.01805251680905389 	101317.591414685
-0.8220720720720721 	299.9995226532552 	0.006986032266367835 	101324.4350680325
-0.8195695695695699 	300.0053658159775 	0.01552124693237687 	101331.3429560976
-0.817067067067067 	300.0110394314128 	0.03187625557304657 	101338.0507533501
-0.8145645645645651 	300.0163271451464 	0.04715059393863563 	101344.3026133324
-0.8120620620620621 	300.0211206737757 	0.06104312897730685 	101349.9704140346
-0.8095595595595597 	300.0254440932635 	0.07360360898850862 	101355.0825666095
-0.8070570570570572 	300.0293973671821 	0.08508621373838532 	101359.7571977318
-0.8045545545545546 	300.0330629673118 	0.09570016581263913 	101364.0917976918
-0.8020520520520523 	300.0364284267984 	0.1053986356117887 	101368.0716194353
-0.7995495495495494 	300.0393596910036 	0.1138019831068064 	101371.538086723
-0.7970470470470474 	300.0416281408372 	0.1202695186783459 	101374.2208194276
-0.7945445445445446 	300.0429733656045 	0.1240730307376686 	101375.8117967712
-0.7920420420420423 	300.043177109051 	0.1246037562656374 	101376.0527564293
-0.7895395395395397 	300.042126032472 	0.1215502173514748 	101374.8098465351
-0.7870370370370371 	300.0398497787299 	0.1150029654464035 	101372.1181472884
-0.7845345345345348 	300.0365242753739 	0.1054628327996171 	101368.1856221993
-0.7820320320320323 	300.0324406275994 	0.09375387320017599 	101363.3566273529
-0.7795295295295296 	300.0279497029318 	0.08086748439858346 	101358.046173956
-0.7770270270270272 	300.0233968570398 	0.06778134872800087 	101352.6626753638
-0.7745245245245247 	300.019066015176 	0.05530688475336666 	101347.5418536563
-0.7720220220220222 	300.0151519466759 	0.04400953098519066 	101342.9139714137
-0.7695195195195199 	300.0117616468842 	0.03420548732381068 	101338.9054884641
-0.767017017017017 	300.0089300783036 	0.02600294251670313 	101335.5576929622
-0.7645145145145147 	300.0066397608066 	0.019357518866508 	101332.8498759011
-0.7620120120120122 	300.0048397263988 	0.014126640348994 	101330.7217466122
-0.7595095095095097 	300.0034615447586 	0.01011579625256071 	101329.0923800362
-0.7570070070070072 	300.0024314527045 	0.007113767218878878 	101327.8745550002
-0.7545045045045048 	300.0016785618561 	0.004916623775844195 	101326.9844556705
-0.7520020020020022 	300.0011396769622 	0.003341948491358234 	101326.3473656054
-0.7494994994994997 	300.0007614987718 	0.002235468079611392 	101325.900270035
-0.7469969969969972 	300.0005010099068 	0.001472380743382273 	101325.5923112372
-0.7444944944944945 	300.000324742611 	0.0009553913075334673 	101325.3839221458
-0.7419919919919924 	300.0002074705847 	0.0006110273392501466 	101325.2452792074
-0.7394894894894897 	300.0001307045499 	0.000385346305918623 	101325.1545237991
-0.7369869869869872 	300.0000812308356 	0.0002397353418131541 	101325.0960342023
-0.7344844844844846 	300.0000498211008 	0.0001471871809613761 	101325.058900491
-0.7319819819819822 	300.0000301664455 	8.921147018053304e-05 	101325.0356639808
-0.7294794794794797 	300.0000180384023 	5.339861352916347e-05 	101325.0213257465
-0.7269769769769773 	300.0000106554758 	3.157437304367954e-05 	101325.0125973403
-0.7244744744744747 	300.0000062198015 	1.844861246200737e-05 	101325.0073532995
-0.721971971971972 	300.0000035885948 	1.065462957285628e-05 	101325.0042426347
-0.7194694694694695 	300.0000020471196 	6.083778079550764e-06 	101325.0024202125
-0.7169669669669674 	300.0000011548306 	3.435400634395432e-06 	101325.0013653505
-0.7144644644644647 	300.0000006444527 	1.918904654468783e-06 	101325.0007619214
-0.711961961961962 	300.0000003558435 	1.06047199900812e-06 	101325.0004206771
-0.7094594594594597 	300.000000194442 	5.799745235454299e-07 	101325.0002298542
-0.7069569569569573 	300.0000001051735 	3.139570805158194e-07 	101325.0001243107
-0.7044544544544545 	300.0000000563271 	1.682568081518415e-07 	101325.0000665579
-0.7019519519519523 	300.0000000298575 	8.928768703886672e-08 	101325.0000352857
-0.6994494494494495 	300.0000000156182 	4.692592592363908e-08 	101325.0000185256
-0.6969469469469471 	300.0000000081044 	2.442841353654406e-08 	101325.0000096333
-0.6944444444444446 	300.000000004162 	1.259896399978875e-08 	101325.0000049616
-0.6919419419419421 	300.0000000021676 	6.438471180222793e-09 	101325.0000025308
-0.6894394394394396 	300.0000000010822 	3.2611366821608e-09 	101325.0000012781
-0.6869369369369374 	300.0000000005541 	1.636139973638365e-09 	101325.0000006385
-0.6844344344344344 	300.0000000002896 	8.141726623148026e-10 	101325.0000003147
-0.6819319319319321 	300.0000000000999 	4.010012077109721e-10 	101325.0000001523
-0.6794294294294296 	300.0000000000184 	1.958837966845471e-10 	101325.0000000718
-0.6769269269269272 	299.9999999999627 	9.480241112555015e-11 	101325.0000000321
-0.6744244244244245 	299.9999999999871 	4.528801020155531e-11 	101325.0000000126
-0.6719219219219222 	299.9999999999695 	2.129196810364366e-11 	101325.0000000032
-0.6694194194194195 	299.9999999999994 	9.024747063340654e-12 	101324.9999999986
-0.6669169169169172 	300.0000000000148 	4.104276754788035e-12 	101324.9999999967
-0.6644144144144146 	299.9999999999717 	1.156083745435185e-12 	101324.9999999956
-0.661911911911912 	299.9999999999717 	4.141686438629045e-13 	101324.9999999951
-0.6594094094094097 	299.9999999999782 	1.829492571079542e-12 	101324.9999999948
-0.656906906906907 	299.9999999999498 	1.327398835103913e-12 	101324.9999999945
-0.6544044044044046 	299.9999999999549 	3.020384223664963e-12 	101324.9999999943
-0.6519019019019021 	299.9999999999879 	1.075320333424509e-12 	101324.9999999944
-0.6493993993993996 	300.0000000000186 	2.399594379321697e-12 	101324.9999999943
-0.6468968968968971 	300.0000000000259 	2.378707897534974e-12 	101324.9999999942
-0.6443943943943946 	299.9999999999959 	2.653064904520221e-12 	101324.9999999944
-0.6418918918918921 	299.9999999999943 	1.746766368087551e-12 	101324.9999999946
-0.6393893893893897 	299.999999999997 	1.680842561954137e-12 	101324.9999999947
-0.6368868868868871 	299.9999999999796 	1.021317231879852e-12 	101324.9999999947
-0.6343843843843846 	299.9999999999953 	1.086730716205246e-12 	101324.9999999948
-0.6318818818818821 	299.9999999999577 	6.959107849267001e-13 	101324.9999999949
-0.6293793793793795 	300.0000000000031 	8.312073657882459e-13 	101324.9999999948
-0.6268768768768773 	300.0000000000189 	7.916466602905228e-13 	101324.9999999947
-0.6243743743743745 	299.9999999999823 	6.990054764525796e-13 	101324.9999999948
-0.6218718718718721 	300.0000000000022 	1.067899494943026e-12 	101324.9999999948
-0.6193693693693696 	299.9999999999485 	1.02521609303757e-12 	101324.9999999947
-0.6168668668668671 	299.9999999999873 	9.218368130552779e-13 	101324.9999999945
-0.6143643643643645 	300.0000000000153 	1.350896383759415e-12 	101324.9999999944
-0.6118618618618621 	299.9999999999883 	6.834677032019861e-13 	101324.9999999943
-0.6093593593593596 	299.9999999999893 	7.445091380181799e-13 	101324.9999999945
-0.6068568568568571 	299.9999999999894 	3.998662885475506e-13 	101324.9999999946
-0.6043543543543546 	299.9999999999664 	1.407956139376164e-12 	101324.9999999948
-0.6018518518518521 	299.9999999999729 	8.206899864147386e-13 	101324.9999999947
-0.5993493493493496 	299.9999999999543 	1.659682363973654e-12 	101324.9999999949
-0.5968468468468471 	299.9999999999645 	8.977829841191766e-13 	101324.9999999949
-0.5943443443443446 	299.9999999999958 	1.811528674310253e-12 	101324.9999999951
-0.591841841841842 	299.9999999999667 	1.405535603801381e-12 	101324.9999999949
-0.5893393393393397 	299.9999999999546 	1.412651883721138e-12 	101324.9999999947
-0.5868368368368371 	299.9999999999898 	2.873831492570034e-12 	101324.9999999946
-0.5843343343343346 	300.0000000000024 	1.966238248134892e-12 	101324.9999999943
-0.5818318318318321 	300.000000000026 	3.176073482132995e-12 	101324.9999999941
-0.5793293293293297 	299.9999999999887 	1.714804619260086e-12 	101324.9999999939
-0.5768268268268271 	299.9999999999991 	1.963540066017535e-12 	101324.9999999939
-0.5743243243243245 	300.000000000016 	1.676164941689584e-12 	101324.9999999939
-0.5718218218218221 	300.0000000000154 	6.242082761965806e-13 	101324.9999999939
-0.5693193193193196 	300.0000000000361 	4.288031270616896e-13 	101324.999999994
-0.5668168168168171 	299.9999999999879 	7.445596418430025e-13 	101324.999999994
-0.5643143143143147 	299.9999999999543 	5.983767768951115e-13 	101324.9999999939
-0.5618118118118121 	300.0000000000092 	9.260832918409947e-13 	101324.999999994
-0.5593093093093094 	300.0000000000273 	4.489016876231701e-13 	101324.999999994
-0.5568068068068072 	300.0000000000123 	1.520616734033627e-12 	101324.9999999939
-0.5543043043043046 	300.0000000000119 	1.197745292014222e-12 	101324.9999999941
-0.551801801801802 	299.9999999999617 	1.849161208346985e-12 	101324.999999994
-0.5492992992992995 	299.9999999999967 	1.190806152336209e-12 	101324.9999999939
-0.5467967967967969 	300.0000000000107 	2.271969608375676e-12 	101324.9999999938
-0.5442942942942947 	300.0000000000072 	1.928910666145789e-12 	101324.9999999937
-0.5417917917917919 	299.9999999999673 	3.093958889186946e-12 	101324.9999999936
-0.5392892892892895 	299.9999999999409 	1.272817035948306e-12 	101324.9999999936
-0.536786786786787 	299.9999999999623 	2.468115974034204e-12 	101324.9999999935
-0.5342842842842846 	299.9999999999692 	1.110902434803809e-12 	101324.9999999936
-0.531781781781782 	299.9999999999457 	2.222121438233448e-12 	101324.9999999936
-0.5292792792792794 	299.9999999999401 	2.702506681093567e-12 	101324.9999999935
-0.526776776776777 	299.9999999999242 	3.181876152103783e-12 	101324.9999999936
-0.5242742742742745 	299.9999999999816 	4.317847773762143e-12 	101324.9999999936
-0.521771771771772 	300.0000000000129 	4.311350382310029e-12 	101324.9999999937
-0.5192692692692695 	299.999999999967 	4.893963379023452e-12 	101324.9999999936
-0.516766766766767 	300.0000000000024 	4.817474092039617e-12 	101324.9999999935
-0.5142642642642645 	299.9999999999733 	4.160787688933311e-12 	101324.9999999936
-0.511761761761762 	299.9999999999596 	4.429252084252248e-12 	101324.9999999934
-0.5092592592592596 	299.999999999977 	2.898269542085243e-12 	101324.9999999936
-0.506756756756757 	299.9999999999509 	3.871113567926068e-12 	101324.9999999937
-0.5042542542542544 	299.9999999999946 	2.368742748151166e-12 	101324.9999999937
-0.5017517517517521 	300.0000000000243 	2.836212831663082e-12 	101324.9999999937
-0.4992492492492494 	300.0000000000267 	1.416780949089186e-12 	101324.9999999937
-0.496746746746747 	299.99999999999 	2.04186706279497e-12 	101324.9999999938
-0.4942442442442445 	299.9999999999524 	1.129303486937515e-12 	101324.9999999937
-0.4917417417417421 	299.999999999952 	1.158534794544205e-12 	101324.9999999935
-0.4892392392392395 	299.9999999999653 	1.149764905578319e-12 	101324.9999999933
-0.486736736736737 	299.9999999999645 	1.474895054424126e-12 	101324.9999999931
-0.4842342342342345 	299.9999999999377 	1.598711986046411e-12 	101324.9999999932
-0.481731731731732 	300.0000000000286 	2.041731471386412e-12 	101324.9999999932
-0.4792292292292296 	300.0000000000146 	1.503970122178416e-12 	101324.9999999932
-0.4767267267267268 	299.999999999965 	3.560683766121535e-12 	101324.9999999933
-0.4742242242242246 	299.9999999999982 	1.833668807915664e-12 	101324.9999999934
-0.471721721721722 	299.999999999967 	3.747663186704317e-12 	101324.9999999935
-0.4692192192192195 	299.9999999999837 	1.231591199421113e-12 	101324.9999999936
-0.4667167167167169 	299.999999999927 	2.539662740479399e-12 	101324.9999999935
-0.4642142142142145 	299.9999999999952 	1.034943244291822e-12 	101324.9999999937
-0.461711711711712 	300.0000000000135 	2.120684945247963e-12 	101324.9999999939
-0.4592092092092094 	300.000000000007 	8.492341496265674e-13 	101324.999999994
-0.456706706706707 	300.0000000000389 	1.984149527839729e-12 	101324.999999994
-0.4542042042042045 	299.9999999999515 	1.01679920298109e-12 	101324.9999999938
-0.451701701701702 	299.9999999999596 	1.972777908606254e-12 	101324.9999999936
-0.4491991991991995 	299.9999999999706 	6.94779221397905e-13 	101324.9999999935
-0.4466966966966969 	299.9999999999733 	1.670002263301719e-12 	101324.9999999933
-0.4441941941941945 	299.9999999999962 	7.988813761185068e-13 	101324.9999999933
-0.441691691691692 	299.9999999999676 	2.065913921137018e-12 	101324.9999999936
-0.4391891891891895 	299.9999999999886 	1.821580261965381e-12 	101324.9999999937
-0.436686686686687 	299.9999999999739 	2.843701765705964e-12 	101324.9999999939
-0.4341841841841846 	299.9999999999969 	2.734329526208054e-12 	101324.9999999939
-0.431681681681682 	299.9999999999585 	2.925072861724235e-12 	101324.999999994
-0.4291791791791794 	299.9999999999417 	1.431813142748724e-12 	101324.9999999942
-0.426676676676677 	299.9999999999337 	2.38283129133671e-12 	101324.9999999941
-0.4241741741741744 	299.9999999999753 	1.215103806719087e-12 	101324.999999994
-0.421671671671672 	300.0000000000037 	2.076864704176334e-12 	101324.9999999938
-0.4191691691691694 	300.0000000000364 	5.858668558819927e-13 	101324.9999999936
-0.4166666666666669 	300.0000000000431 	8.302042405495572e-13 	101324.9999999935
-0.4141641641641645 	299.9999999999516 	7.361326638749775e-13 	101324.9999999934
-0.411661661661662 	299.9999999999995 	3.925900146305873e-13 	101324.9999999934
-0.4091591591591594 	300.0000000000073 	3.491524770348385e-13 	101324.9999999933
-0.406656656656657 	299.99999999996 	7.267520085124173e-13 	101324.9999999933
-0.4041541541541545 	300.0000000000083 	3.984981323806587e-13 	101324.9999999934
-0.401651651651652 	299.999999999942 	1.953743640888775e-12 	101324.9999999936
-0.3991491491491494 	300.000000000006 	1.473043062464834e-12 	101324.9999999937
-0.396646646646647 	299.9999999999657 	3.360423016547582e-12 	101324.9999999937
-0.3941441441441444 	299.9999999999838 	1.690812731329928e-12 	101324.9999999934
-0.3916416416416419 	299.9999999999484 	3.389747024689178e-12 	101324.9999999934
-0.3891391391391395 	299.9999999999629 	1.133336892274268e-12 	101324.9999999934
-0.3866366366366368 	299.9999999999653 	1.974630111796313e-12 	101324.9999999932
-0.3841341341341344 	300.0000000000012 	7.739748349587693e-13 	101324.9999999931
-0.381631631631632 	299.9999999999581 	1.489876624109654e-12 	101324.9999999931
-0.3791291291291294 	299.9999999999977 	1.470905041340091e-12 	101324.999999993
-0.3766266266266269 	300.0000000000143 	2.18862464755364e-12 	101324.9999999929
-0.3741241241241244 	300.0000000000176 	3.35562753582762e-12 	101324.9999999928
-0.371621621621622 	300.000000000016 	1.818872698745358e-12 	101324.999999993
-0.3691191191191194 	300.0000000000027 	3.791182339297991e-12 	101324.9999999931
-0.366616616616617 	300.0000000000033 	8.565259162150804e-13 	101324.9999999931
-0.3641141141141143 	299.9999999999773 	2.698664124607205e-12 	101324.9999999929
-0.3616116116116119 	299.9999999999587 	1.00868200514411e-12 	101324.9999999929
-0.3591091091091095 	299.9999999999856 	2.384664963177615e-12 	101324.9999999926
-0.356606606606607 	299.9999999999877 	2.198668417429293e-12 	101324.9999999927
-0.3541041041041044 	299.9999999999947 	2.800278161999208e-12 	101324.9999999927
-0.3516016016016019 	300.0000000000114 	4.056377230227332e-12 	101324.999999993
-0.3490990990990994 	299.9999999999951 	2.953764670287922e-12 	101324.999999993
-0.346596596596597 	300.0000000000276 	4.608624041950805e-12 	101324.9999999931
-0.3440940940940944 	300.0000000000327 	1.941901061783541e-12 	101324.999999993
-0.3415915915915919 	300.0000000000172 	3.878611281383326e-12 	101324.999999993
-0.3390890890890895 	299.9999999999846 	2.669041015512063e-12 	101324.9999999927
-0.3365865865865869 	300.000000000013 	3.918388353443801e-12 	101324.9999999929
-0.3340840840840844 	299.9999999999961 	3.202274607109926e-12 	101324.999999993
-0.3315815815815819 	300.0000000000138 	3.617992796700333e-12 	101324.9999999929
-0.3290790790790794 	300.0000000000137 	3.551692841440145e-12 	101324.9999999926
-0.3265765765765769 	299.9999999999431 	4.545252393655452e-12 	101324.9999999926
-0.3240740740740744 	299.9999999999965 	3.949460102335601e-12 	101324.9999999925
-0.3215715715715718 	300.0000000000061 	5.402996846251022e-12 	101324.9999999925
-0.3190690690690695 	299.9999999999484 	4.273140136826987e-12 	101324.9999999926
-0.3165665665665668 	299.9999999999917 	5.917846641216264e-12 	101324.9999999928
-0.3140640640640644 	299.9999999999997 	4.584906716581511e-12 	101324.9999999928
-0.311561561561562 	299.9999999999447 	7.320861236217334e-12 	101324.999999993
-0.3090590590590593 	299.9999999999941 	3.461728406674329e-12 	101324.999999993
-0.3065565565565568 	300.0000000000025 	7.964579879367545e-12 	101324.9999999931
-0.3040540540540545 	300.0000000000016 	2.825492965386426e-12 	101324.9999999929
-0.3015515515515518 	300.0000000000242 	7.138139456299574e-12 	101324.9999999928
-0.2990490490490494 	299.9999999999573 	3.972132817874545e-12 	101324.9999999926
-0.2965465465465469 	299.9999999999868 	5.738061565106366e-12 	101324.9999999924
-0.2940440440440444 	299.9999999999935 	4.508756561662135e-12 	101324.9999999923
-0.2915415415415418 	300.0000000000057 	4.696119250861044e-12 	101324.9999999926
-0.2890390390390395 	300.0000000000069 	5.270783609107072e-12 	101324.9999999928
-0.2865365365365368 	299.999999999983 	4.425024097341164e-12 	101324.9999999929
-0.2840340340340343 	299.9999999999972 	6.850161108992851e-12 	101324.999999993
-0.2815315315315318 	299.9999999999418 	4.333881223623907e-12 	101324.999999993
-0.2790290290290295 	299.9999999999697 	5.528174329801662e-12 	101324.9999999931
-0.2765265265265269 	300.0000000000051 	4.185023158464234e-12 	101324.9999999931
-0.2740240240240244 	300.0000000000171 	5.14820614990906e-12 	101324.9999999929
-0.2715215215215219 	300.0000000000118 	4.917431646659398e-12 	101324.9999999929
-0.2690190190190194 	299.9999999999567 	4.058786598434422e-12 	101324.9999999929
-0.2665165165165169 	299.999999999996 	4.361682182250311e-12 	101324.9999999929
-0.2640140140140144 	299.9999999999773 	3.113860441951448e-12 	101324.999999993
-0.2615115115115119 	299.9999999999998 	5.052253992812528e-12 	101324.9999999931
-0.2590090090090094 	299.9999999999486 	2.956456245963298e-12 	101324.9999999931
-0.2565065065065068 	299.9999999999933 	3.765565981896879e-12 	101324.9999999931
-0.2540040040040044 	299.9999999999945 	3.535772808101884e-12 	101324.9999999931
-0.2515015015015019 	300.000000000028 	3.027094895237878e-12 	101324.9999999928
-0.2489989989989994 	300.0000000000325 	5.086661275007681e-12 	101324.9999999931
-0.2464964964964968 	299.9999999999888 	2.726661823073054e-12 	101324.999999993
-0.2439939939939944 	299.9999999999947 	5.527691370140689e-12 	101324.9999999933
-0.2414914914914919 	299.9999999999728 	1.898771479545593e-12 	101324.9999999932
-0.2389889889889893 	300 	5.556077456152894e-12 	101324.999999993
-0.2364864864864869 	300.0000000000186 	2.660410699113227e-12 	101324.999999993
-0.2339839839839843 	299.9999999999513 	6.213449036576213e-12 	101324.9999999932
-0.2314814814814819 	299.999999999985 	2.597065042694518e-12 	101324.999999993
-0.2289789789789792 	299.9999999999373 	5.751532548759648e-12 	101324.9999999932
-0.2264764764764769 	299.9999999999588 	3.41813058187558e-12 	101324.9999999933
-0.2239739739739743 	299.9999999999705 	4.735353759973208e-12 	101324.9999999932
-0.2214714714714718 	299.9999999999519 	4.018790338396217e-12 	101324.9999999932
-0.2189689689689693 	299.9999999999763 	3.183456222965687e-12 	101324.9999999933
-0.2164664664664669 	299.9999999999878 	5.033175058040552e-12 	101324.9999999934
-0.2139639639639643 	299.9999999999515 	3.881266849077748e-12 	101324.9999999935
-0.2114614614614618 	299.9999999999804 	5.313846145499995e-12 	101324.9999999937
-0.2089589589589593 	299.999999999993 	4.96435370463327e-12 	101324.9999999935
-0.2064564564564568 	299.9999999999922 	4.706964234148347e-12 	101324.9999999933
-0.2039539539539543 	299.9999999999337 	5.496770895686836e-12 	101324.9999999931
-0.2014514514514518 	299.9999999999577 	3.132838864872717e-12 	101324.9999999931
-0.1989489489489494 	299.999999999976 	6.077504459677891e-12 	101324.9999999927
-0.1964464464464468 	299.9999999999937 	2.661996858637403e-12 	101324.9999999926
-0.1939439439439443 	299.999999999991 	5.751948473650914e-12 	101324.999999993
-0.1914414414414418 	299.999999999941 	3.056341725432198e-12 	101324.9999999934
-0.1889389389389393 	300.0000000000032 	4.945328663458614e-12 	101324.9999999934
-0.1864364364364368 	300.0000000000266 	4.522207049518486e-12 	101324.9999999936
-0.1839339339339343 	299.9999999999821 	5.171741361495376e-12 	101324.9999999935
-0.1814314314314318 	299.9999999999969 	4.428141277595715e-12 	101324.9999999936
-0.1789289289289293 	299.9999999999268 	4.604290768236828e-12 	101324.9999999939
-0.1764264264264268 	299.9999999999861 	2.995893909399649e-12 	101324.9999999937
-0.1739239239239243 	299.9999999999266 	4.183181516349015e-12 	101324.9999999937
-0.1714214214214218 	299.9999999999899 	2.338492690167036e-12 	101324.9999999937
-0.1689189189189193 	299.9999999999645 	5.49974137690687e-12 	101324.9999999936
-0.1664164164164168 	300.0000000000025 	1.459167986349083e-12 	101324.9999999935
-0.1639139139139143 	299.9999999999886 	6.682842705160715e-12 	101324.9999999936
-0.1614114114114118 	300.0000000000182 	8.00731341955273e-13 	101324.9999999936
-0.1589089089089093 	299.9999999999966 	8.094774230961262e-12 	101324.9999999935
-0.1564064064064068 	299.999999999986 	2.343490225699886e-12 	101324.9999999933
-0.1539039039039043 	299.9999999999938 	8.197370497197306e-12 	101324.9999999934
-0.1514014014014018 	300.0000000000198 	1.333610487952792e-12 	101324.9999999935
-0.1488988988988993 	299.9999999999901 	7.881776138513042e-12 	101324.9999999934
-0.1463963963963968 	300.0000000000012 	6.850986515877005e-13 	101324.9999999935
-0.1438938938938943 	299.9999999999667 	6.146460683943596e-12 	101324.9999999936
-0.1413913913913918 	299.9999999999466 	1.262958294329924e-12 	101324.9999999939
-0.1388888888888893 	299.9999999999832 	4.468053163563789e-12 	101324.9999999939
-0.1363863863863868 	299.9999999999189 	1.228359897026491e-12 	101324.9999999938
-0.1338838838838843 	299.9999999999401 	1.976880125513882e-12 	101324.9999999938
-0.1313813813813818 	299.9999999999951 	3.898935552441094e-13 	101324.9999999937
-0.1288788788788793 	299.99999999997 	1.552615501587521e-12 	101324.9999999936
-0.1263763763763768 	299.9999999999787 	3.048182536071418e-13 	101324.9999999937
-0.1238738738738743 	299.9999999999503 	2.463435426162747e-12 	101324.9999999936
-0.1213713713713717 	299.9999999999883 	4.661361940421783e-13 	101324.9999999936
-0.1188688688688693 	300.000000000008 	4.00030790470673e-12 	101324.9999999935
-0.1163663663663668 	299.9999999999309 	1.053828228848768e-12 	101324.9999999938
-0.1138638638638643 	299.9999999999927 	5.127389581869854e-12 	101324.9999999936
-0.1113613613613618 	299.999999999989 	8.716246317494254e-13 	101324.9999999936
-0.1088588588588592 	299.9999999999849 	4.729445370911776e-12 	101324.9999999936
-0.1063563563563568 	299.9999999999681 	7.251836720217745e-13 	101324.9999999934
-0.1038538538538543 	299.9999999999835 	3.421412670389108e-12 	101324.9999999931
-0.1013513513513517 	300.0000000000102 	8.773561896003994e-13 	101324.999999993
-0.09884884884884926 	299.9999999999609 	4.038454004109288e-12 	101324.9999999931
-0.09634634634634676 	299.9999999999232 	1.778823752818248e-12 	101324.999999993
-0.09384384384384425 	299.9999999999427 	2.58020655697913e-12 	101324.999999993
-0.09134134134134177 	300.0000000000146 	1.382584353241962e-12 	101324.9999999931
-0.08883883883883925 	300.0000000000052 	2.428651065569691e-12 	101324.9999999929
-0.08633633633633674 	299.9999999999631 	2.05733632755582e-12 	101324.9999999928
-0.08383383383383426 	300.0000000000031 	1.75428406996472e-12 	101324.9999999928
-0.08133133133133173 	299.9999999999767 	1.568403834643616e-12 	101324.9999999928
-0.07882882882882926 	299.9999999999133 	1.100794749951272e-12 	101324.9999999928
-0.07632632632632676 	299.9999999999697 	7.338967598493944e-13 	101324.9999999928
-0.07382382382382424 	299.9999999999253 	5.738612659518482e-13 	101324.9999999928
-0.07132132132132173 	300.0000000000078 	1.824019723126548e-13 	101324.9999999928
-0.06881881881881925 	299.9999999999706 	2.279612368431893e-14 	101324.9999999931
-0.06631631631631671 	299.999999999921 	5.018479170031444e-13 	101324.9999999932
-0.06381381381381425 	299.9999999999666 	4.6499096744205e-13 	101324.9999999934
-0.06131131131131173 	299.9999999999667 	2.774519233430497e-13 	101324.9999999934
-0.05880880880880923 	299.999999999941 	4.446498329297653e-13 	101324.9999999934
-0.05630630630630672 	299.9999999999744 	2.093566708707794e-13 	101324.9999999937
-0.05380380380380424 	300.000000000011 	3.459878448934171e-13 	101324.9999999938
-0.05130130130130173 	300.0000000000067 	5.889734739878354e-13 	101324.9999999936
-0.04879879879879922 	299.9999999999596 	7.921694367121596e-13 	101324.9999999935
-0.04629629629629672 	299.9999999999511 	3.141536099714877e-13 	101324.9999999932
-0.04379379379379422 	299.9999999999378 	5.676386400882026e-13 	101324.9999999931
-0.04129129129129173 	299.9999999999831 	4.197212751668436e-13 	101324.9999999932
-0.03878878878878922 	299.9999999999872 	8.042496026203658e-13 	101324.9999999933
-0.03628628628628671 	299.9999999999845 	1.468904121269018e-13 	101324.9999999931
-0.03378378378378422 	299.9999999999475 	4.095221357370733e-13 	101324.9999999931
-0.03128128128128172 	299.9999999999774 	6.617888222620111e-13 	101324.9999999932
-0.02877877877877922 	299.9999999999758 	2.04970706344273e-13 	101324.9999999932
-0.0262762762762767 	299.9999999999262 	1.610777464356409e-13 	101324.999999993
-0.02377377377377422 	300.0000000000134 	2.381837603972292e-13 	101324.9999999929
-0.0212712712712717 	299.9999999999262 	2.362183862377372e-13 	101324.9999999928
-0.01876876876876921 	299.9999999999787 	3.593045176857353e-13 	101324.9999999932
-0.01626626626626671 	300.0000000000097 	6.631223023202411e-13 	101324.9999999933
-0.0137637637637642 	299.9999999999731 	2.594877947808433e-13 	101324.9999999934
-0.0112612612612617 	300.0000000000113 	6.471617574354244e-13 	101324.9999999934
-0.008758758758759198 	299.9999999999973 	2.491641471445057e-13 	101324.9999999938
-0.006256256256256697 	299.9999999999173 	1.707450335396963e-13 	101324.9999999939
-0.003753753753754195 	299.9999999999642 	4.993096993191627e-13 	101324.9999999935
-0.001251251251251693 	299.9999999999456 	2.243627242809397e-14 	101324.9999999931
0.00125125125125081 	299.9999999999646 	4.675803010435965e-13 	101324.9999999929
0.003753753753753312 	299.9999999999733 	4.734687305706834e-14 	101324.9999999928
0.006256256256255817 	299.9999999999169 	3.318816450557305e-13 	101324.999999993
0.008758758758758317 	299.9999999999902 	9.934506085763509e-15 	101324.999999993
0.01126126126126082 	300.0000000000061 	2.764647650551297e-14 	101324.9999999931
0.01376376376376332 	299.9999999999758 	4.13183239195087e-13 	101324.9999999933
0.01626626626626582 	300.0000000000065 	8.145224057729654e-13 	101324.9999999934
0.01876876876876833 	299.9999999999667 	1.619158873774594e-13 	101324.9999999935
0.02127127127127083 	299.9999999999762 	4.167344205571336e-13 	101324.9999999936
0.02377377377377332 	299.9999999999964 	5.777937605548e-13 	101324.9999999936
0.02627627627627583 	299.9999999999312 	8.036492878351128e-13 	101324.9999999937
0.02877877877877833 	300.0000000000058 	1.182106642717055e-12 	101324.9999999938
0.03128128128128083 	299.9999999999577 	7.985367067054887e-13 	101324.9999999937
0.03378378378378333 	299.999999999928 	1.551691287997942e-12 	101324.9999999935
0.03628628628628584 	299.9999999999807 	1.257360822316405e-12 	101324.9999999935
0.03878878878878834 	299.9999999999847 	1.467498980764868e-12 	101324.9999999934
0.04129129129129084 	299.9999999999841 	1.839796799623122e-12 	101324.9999999934
0.04379379379379333 	299.9999999999545 	1.517577930034976e-12 	101324.9999999934
0.04629629629629585 	299.9999999999167 	8.282063581616282e-13 	101324.999999993
0.04879879879879834 	299.9999999999649 	4.52869502850202e-13 	101324.9999999931
0.05130130130130085 	300.0000000000098 	1.286971428246844e-13 	101324.999999993
0.05380380380380335 	300.0000000000126 	4.162462479843216e-13 	101324.9999999931
0.05630630630630584 	299.9999999999918 	9.195432680605246e-13 	101324.9999999931
0.05880880880880836 	299.999999999943 	7.738448799070572e-13 	101324.9999999932
0.06131131131131085 	299.9999999999812 	1.103114968399988e-12 	101324.9999999932
0.06381381381381336 	299.9999999999741 	1.146577159379065e-12 	101324.9999999933
0.06631631631631586 	299.9999999999179 	8.516733407904838e-13 	101324.9999999932
0.06881881881881835 	299.9999999999596 	2.702167037172529e-13 	101324.9999999933
0.07132132132132088 	299.9999999999905 	3.706438053410766e-13 	101324.9999999933
0.07382382382382337 	299.9999999999298 	4.734123986359525e-13 	101324.9999999931
0.07632632632632587 	299.9999999999782 	7.240510763935251e-13 	101324.9999999932
0.07882882882882837 	299.9999999999544 	9.419674937411448e-13 	101324.9999999932
0.08133133133133086 	299.9999999999901 	2.074015370082837e-12 	101324.9999999933
0.08383383383383337 	299.9999999999877 	2.387246396766513e-12 	101324.9999999933
0.08633633633633589 	299.9999999999307 	2.697628371900384e-12 	101324.9999999934
0.08883883883883838 	300.0000000000072 	3.046354049098864e-12 	101324.9999999931
0.09134134134134086 	299.999999999993 	2.054281689247915e-12 	101324.9999999932
0.09384384384384339 	299.999999999925 	2.420365405496264e-12 	101324.9999999931
0.09634634634634588 	299.9999999999745 	2.295202424033052e-12 	101324.9999999934
0.09884884884884838 	299.9999999999791 	2.151510706145027e-12 	101324.9999999932
0.1013513513513509 	300.0000000000153 	1.688832101844049e-12 	101324.9999999932
0.1038538538538534 	299.9999999999608 	1.848237938931509e-12 	101324.9999999933
0.1063563563563559 	300.0000000000113 	2.527846129217774e-12 	101324.9999999932
0.1088588588588584 	300.0000000000203 	2.091867961128577e-12 	101324.9999999933
0.1113613613613609 	299.9999999999431 	2.546888547435492e-12 	101324.9999999933
0.1138638638638634 	299.9999999999609 	2.647985341052247e-12 	101324.9999999934
0.1163663663663659 	299.9999999999576 	3.102257405111313e-12 	101324.9999999934
0.1188688688688684 	299.9999999999762 	2.947554175423097e-12 	101324.9999999933
0.1213713713713709 	299.9999999999935 	1.745566459147469e-12 	101324.9999999936
0.1238738738738734 	299.9999999999438 	1.764909730695814e-12 	101324.9999999934
0.1263763763763759 	299.9999999999871 	2.476160930007014e-12 	101324.9999999937
0.1288788788788784 	299.9999999999905 	2.76507979364693e-12 	101324.9999999938
0.1313813813813809 	299.99999999999 	3.017285748668957e-12 	101324.9999999937
0.1338838838838834 	299.999999999982 	2.801581145487891e-12 	101324.9999999934
0.1363863863863859 	300.0000000000206 	2.902242817903754e-12 	101324.9999999934
0.1388888888888884 	300.0000000000331 	3.012391772788778e-12 	101324.9999999935
0.1413913913913909 	299.9999999999995 	3.110740030128557e-12 	101324.9999999933
0.1438938938938934 	299.9999999999947 	3.286653369517515e-12 	101324.9999999936
0.1463963963963959 	299.9999999999704 	2.609694002290454e-12 	101324.9999999933
0.1488988988988985 	299.9999999999363 	3.640105530607774e-12 	101324.9999999933
0.1514014014014009 	299.999999999975 	2.487602194380808e-12 	101324.9999999934
0.1539039039039035 	299.9999999999698 	3.641163043937553e-12 	101324.9999999933
0.1564064064064059 	299.9999999999561 	1.645256712701886e-12 	101324.9999999932
0.1589089089089084 	299.9999999999849 	4.960268577224171e-12 	101324.9999999935
0.1614114114114109 	299.9999999999815 	2.722127718460305e-12 	101324.9999999936
0.1639139139139134 	299.9999999999317 	4.873064903653393e-12 	101324.9999999936
0.166416416416416 	300.000000000005 	4.429553653990577e-12 	101324.9999999934
0.1689189189189185 	300.0000000000182 	4.015731715985081e-12 	101324.9999999935
0.1714214214214209 	299.9999999999932 	4.533977236252394e-12 	101324.9999999934
0.1739239239239235 	299.9999999999872 	3.11079628862276e-12 	101324.9999999934
0.1764264264264259 	299.9999999999757 	4.696137543003833e-12 	101324.9999999935
0.1789289289289284 	300.0000000000019 	2.535164555138776e-12 	101324.9999999937
0.181431431431431 	299.9999999999708 	5.180466999933496e-12 	101324.9999999936
0.1839339339339334 	299.9999999999744 	3.084770823056727e-12 	101324.9999999934
0.186436436436436 	299.9999999999454 	4.546153579497881e-12 	101324.9999999934
0.1889389389389385 	299.9999999999856 	4.09727608980443e-12 	101324.9999999931
0.191441441441441 	299.9999999999828 	3.690834398035226e-12 	101324.9999999933
0.1939439439439434 	299.9999999999411 	5.23421910485474e-12 	101324.9999999935
0.196446446446446 	299.9999999999634 	3.533101990121426e-12 	101324.9999999933
0.1989489489489485 	299.9999999999711 	5.870375022173987e-12 	101324.9999999934
0.2014514514514509 	299.9999999999878 	3.388226962672521e-12 	101324.9999999933
0.2039539539539535 	299.9999999999969 	4.401976191790265e-12 	101324.9999999933
0.2064564564564559 	299.9999999999678 	3.374877268283061e-12 	101324.9999999933
0.2089589589589585 	299.9999999999883 	4.002387199299038e-12 	101324.999999993
0.211461461461461 	299.9999999999476 	4.76341162069041e-12 	101324.9999999928
0.2139639639639635 	299.9999999999867 	4.072569114641811e-12 	101324.9999999928
0.2164664664664659 	299.9999999999976 	5.223131934519362e-12 	101324.9999999926
0.2189689689689684 	299.9999999999961 	3.534499213527375e-12 	101324.9999999927
0.221471471471471 	299.999999999992 	5.469849739983077e-12 	101324.999999993
0.2239739739739735 	299.9999999999685 	2.660010543043594e-12 	101324.9999999931
0.226476476476476 	299.999999999986 	3.382825843484611e-12 	101324.9999999932
0.2289789789789785 	299.9999999999931 	2.283802998864059e-12 	101324.9999999931
0.231481481481481 	299.9999999999915 	2.51650626127872e-12 	101324.999999993
0.2339839839839835 	299.9999999999894 	3.581127985319219e-12 	101324.9999999931
0.236486486486486 	300.0000000000161 	2.530638193221528e-12 	101324.9999999929
0.2389889889889885 	300.0000000000034 	4.365376894450676e-12 	101324.9999999929
0.241491491491491 	299.9999999999449 	2.636016474270144e-12 	101324.9999999927
0.2439939939939935 	299.9999999999808 	6.261696542676705e-12 	101324.9999999927
0.246496496496496 	299.9999999999914 	3.85135509516206e-12 	101324.9999999926
0.2489989989989985 	300.0000000000254 	5.119308523575548e-12 	101324.9999999925
0.251501501501501 	300.0000000000206 	3.834121457341826e-12 	101324.9999999925
0.2540040040040035 	299.9999999999923 	3.69901143652719e-12 	101324.9999999926
0.256506506506506 	300.0000000000165 	4.228846620253815e-12 	101324.9999999927
0.2590090090090086 	299.9999999999307 	3.14304315205725e-12 	101324.9999999925
0.261511511511511 	299.9999999999991 	5.424480316897266e-12 	101324.9999999928
0.2640140140140135 	299.9999999999941 	2.531247036535934e-12 	101324.9999999927
0.2665165165165161 	299.99999999995 	3.803334791721836e-12 	101324.9999999929
0.2690190190190185 	300.0000000000027 	2.433606509832589e-12 	101324.9999999928
0.271521521521521 	300.0000000000016 	2.584663505022111e-12 	101324.999999993
0.2740240240240235 	300.0000000000105 	2.282131986727898e-12 	101324.9999999929
0.276526526526526 	300.0000000000044 	9.845648230744384e-13 	101324.9999999927
0.2790290290290286 	299.999999999956 	2.079903628787452e-12 	101324.9999999928
0.281531531531531 	299.9999999999464 	6.462677238887427e-13 	101324.9999999931
0.2840340340340335 	299.9999999999829 	2.945032479959368e-12 	101324.999999993
0.2865365365365361 	299.9999999999682 	1.68118951737921e-12 	101324.9999999928
0.2890390390390385 	299.9999999999977 	3.267137422310637e-12 	101324.9999999926
0.291541541541541 	299.9999999999974 	3.120146948004444e-12 	101324.9999999927
0.2940440440440436 	299.9999999999915 	2.832763697073848e-12 	101324.9999999928
0.296546546546546 	299.9999999999944 	3.78729617002877e-12 	101324.9999999928
0.2990490490490486 	299.9999999999513 	1.815564653075698e-12 	101324.9999999929
0.3015515515515511 	300.0000000000246 	4.614772727859586e-12 	101324.9999999927
0.3040540540540535 	299.9999999999955 	1.382058471239963e-12 	101324.9999999928
0.3065565565565562 	299.9999999999974 	4.384679325674186e-12 	101324.9999999931
0.3090590590590585 	299.9999999999916 	1.500408470308622e-12 	101324.9999999932
0.3115615615615611 	299.9999999999536 	3.478706960107585e-12 	101324.9999999933
0.3140640640640635 	300.000000000003 	7.186647311945304e-13 	101324.9999999934
0.316566566566566 	299.9999999999948 	2.98352920305428e-12 	101324.9999999935
0.3190690690690687 	299.999999999965 	1.531793654802426e-12 	101324.9999999932
0.3215715715715711 	300.0000000000118 	3.216212489235825e-12 	101324.9999999931
0.3240740740740735 	300.0000000000002 	1.959277244715188e-12 	101324.9999999931
0.326576576576576 	299.9999999999319 	3.541459581591528e-12 	101324.9999999931
0.3290790790790786 	300.0000000000027 	2.674858293990721e-12 	101324.9999999934
0.3315815815815811 	300.0000000000217 	3.271237222447984e-12 	101324.9999999932
0.3340840840840836 	299.9999999999937 	2.443085903174652e-12 	101324.9999999932
0.3365865865865861 	300.0000000000391 	2.572915621035203e-12 	101324.9999999931
0.3390890890890886 	300.0000000000364 	1.201029095772195e-12 	101324.9999999931
0.3415915915915911 	299.9999999999982 	2.137401899172857e-12 	101324.999999993
0.3440940940940935 	299.999999999962 	9.389128940752063e-13 	101324.9999999931
0.3465965965965962 	300.0000000000244 	2.842264630890405e-12 	101324.9999999931
0.3490990990990985 	300.0000000000182 	1.287319428505884e-12 	101324.9999999931
0.3516016016016011 	299.9999999999913 	1.951444871569689e-12 	101324.9999999932
0.3541041041041035 	300.0000000000034 	1.750424175858425e-12 	101324.999999993
0.3566066066066061 	299.9999999999674 	1.63936098834111e-12 	101324.999999993
0.3591091091091085 	299.9999999999416 	2.637051555268445e-12 	101324.9999999928
0.3616116116116112 	299.9999999999549 	1.487486138485474e-12 	101324.9999999926
0.3641141141141137 	299.9999999999491 	3.525668805188803e-12 	101324.9999999925
0.3666166166166161 	299.9999999999461 	1.084625470252076e-12 	101324.9999999927
0.3691191191191185 	300.0000000000279 	4.17659136700109e-12 	101324.9999999926
0.371621621621621 	300.0000000000083 	9.034711328572015e-13 	101324.9999999924
0.3741241241241237 	300.0000000000337 	2.529095373302603e-12 	101324.9999999925
0.3766266266266261 	300.0000000000198 	6.774172652529054e-13 	101324.9999999927
0.3791291291291286 	299.9999999999892 	1.392244361332724e-12 	101324.9999999928
0.3816316316316311 	299.999999999942 	8.395842243066521e-13 	101324.9999999927
0.3841341341341336 	300.0000000000062 	1.931950628306431e-12 	101324.9999999928
0.3866366366366362 	299.9999999999973 	8.519560424498432e-13 	101324.9999999927
0.3891391391391387 	299.9999999999682 	1.75395183207901e-12 	101324.9999999928
0.391641641641641 	299.9999999999941 	8.801730429716027e-13 	101324.9999999929
0.3941441441441436 	300.0000000000035 	1.2493506980927e-12 	101324.9999999931
0.3966466466466462 	299.9999999999978 	3.183783157432187e-13 	101324.9999999932
0.3991491491491486 	299.9999999999607 	8.037926678857077e-13 	101324.999999993
0.4016516516516512 	299.9999999999398 	5.640641226530319e-13 	101324.999999993
0.4041541541541536 	299.9999999999656 	1.378928325402639e-12 	101324.9999999929
0.4066566566566561 	299.9999999999634 	7.917891319044936e-13 	101324.9999999929
0.4091591591591587 	299.9999999999968 	1.351456547631656e-12 	101324.9999999929
0.4116616616616612 	300.0000000000043 	5.210148100903859e-13 	101324.9999999928
0.4141641641641635 	300.0000000000285 	2.565310791342083e-13 	101324.9999999928
0.4166666666666662 	299.9999999999944 	6.002244875905569e-13 	101324.9999999926
0.4191691691691687 	299.9999999999566 	1.520867221890488e-12 	101324.9999999926
0.421671671671671 	300.0000000000052 	1.035917749081227e-12 	101324.9999999924
0.4241741741741737 	299.9999999999829 	2.786674035785428e-12 	101324.9999999925
0.4266766766766761 	299.9999999999628 	1.984236252396156e-12 	101324.9999999925
0.4291791791791785 	300.0000000000159 	2.910743554518463e-12 	101324.9999999926
0.4316816816816812 	300.0000000000071 	2.488218856187481e-12 	101324.9999999929
0.4341841841841836 	299.9999999999844 	2.975190051241544e-12 	101324.999999993
0.4366866866866862 	299.9999999999405 	1.127439575307042e-12 	101324.9999999932
0.4391891891891885 	299.9999999999931 	1.675975308423346e-12 	101324.9999999933
0.4416916916916913 	299.9999999999858 	9.027164732820127e-13 	101324.9999999931
0.4441941941941936 	299.9999999999927 	1.362078806019879e-12 	101324.9999999929
0.4466966966966961 	299.9999999999427 	2.550066504066083e-13 	101324.9999999929
0.4491991991991987 	299.9999999999898 	2.495664625671734e-13 	101324.9999999929
0.4517017017017012 	299.9999999999881 	4.768708657738958e-13 	101324.9999999931
0.4542042042042035 	299.9999999999893 	3.860475876294291e-13 	101324.999999993
0.4567067067067062 	299.9999999999982 	7.963358171088711e-13 	101324.9999999931
0.4592092092092087 	299.9999999999483 	3.368574254633847e-13 	101324.9999999933
0.4617117117117112 	300.0000000000122 	8.124836292846115e-13 	101324.9999999931
0.4642142142142137 	299.9999999999754 	1.01575622038727e-12 	101324.9999999929
0.4667167167167162 	299.9999999999944 	1.213184101779879e-12 	101324.9999999932
0.4692192192192187 	299.9999999999717 	1.403105027813853e-12 	101324.9999999929
0.4717217217217212 	300.0000000000065 	1.548987150185076e-12 	101324.9999999929
0.4742242242242236 	299.9999999999686 	2.083783634789335e-12 	101324.9999999932
0.4767267267267262 	299.9999999999816 	1.680221003264497e-12 	101324.999999993
0.4792292292292287 	300.0000000000108 	1.528415091346419e-12 	101324.9999999932
0.4817317317317312 	300.0000000000204 	1.149465032673366e-12 	101324.9999999934
0.4842342342342336 	299.9999999999892 	7.845135687757e-13 	101324.9999999933
0.4867367367367362 	299.9999999999669 	1.271907641672138e-12 	101324.9999999935
0.4892392392392387 	300.0000000000216 	6.543198675141476e-13 	101324.9999999934
0.4917417417417412 	300.0000000000033 	2.260961747187689e-12 	101324.9999999935
0.4942442442442437 	299.9999999999345 	1.326385112314796e-12 	101324.9999999935
0.4967467467467462 	299.9999999999484 	2.40657815389717e-12 	101324.9999999934
0.4992492492492487 	299.9999999999442 	5.944112106962597e-13 	101324.9999999933
0.5017517517517511 	299.9999999999678 	1.680661263047242e-12 	101324.9999999934
0.5042542542542537 	299.9999999999764 	8.876605222818461e-13 	101324.9999999935
0.5067567567567562 	299.9999999999649 	1.146098955200073e-12 	101324.9999999933
0.5092592592592589 	299.9999999999819 	1.127590027461922e-12 	101324.9999999934
0.5117617617617611 	299.9999999999708 	8.068691446014229e-13 	101324.9999999932
0.5142642642642637 	299.9999999999891 	2.464394406376256e-12 	101324.9999999931
0.5167667667667663 	299.9999999999789 	1.410692930161722e-12 	101324.9999999929
0.5192692692692688 	299.9999999999456 	3.991994666488734e-12 	101324.9999999929
0.5217717717717714 	299.9999999999564 	2.373970125565066e-12 	101324.9999999929
0.5242742742742736 	299.9999999999565 	3.498687790622867e-12 	101324.9999999928
0.5267767767767763 	299.9999999999743 	1.412059786702481e-12 	101324.999999993
0.5292792792792789 	299.9999999999596 	2.541826978232693e-12 	101324.999999993
0.5317817817817813 	299.9999999999384 	8.344497562639464e-13 	101324.9999999932
0.5342842842842837 	300.0000000000161 	1.532986092792958e-12 	101324.9999999933
0.5367867867867864 	300.0000000000052 	1.052262166550427e-12 	101324.9999999933
0.5392892892892888 	299.9999999999737 	1.884820064346046e-12 	101324.9999999935
0.5417917917917912 	300.0000000000048 	1.2042951733342e-12 	101324.9999999933
0.5442942942942938 	299.999999999987 	1.429514271652385e-12 	101324.9999999934
0.5467967967967964 	299.9999999999649 	5.952327416148334e-13 	101324.9999999937
0.5492992992992988 	299.999999999958 	8.299583703328226e-13 	101324.9999999939
0.5518018018018012 	299.9999999999554 	4.362544492287748e-13 	101324.9999999938
0.5543043043043039 	300.000000000016 	9.02733085741425e-13 	101324.9999999938
0.5568068068068063 	299.9999999999949 	1.032456962071069e-12 	101324.999999994
0.5593093093093087 	299.999999999932 	2.033254318291583e-12 	101324.9999999941
0.5618118118118114 	299.9999999999703 	6.413000766817056e-13 	101324.9999999939
0.5643143143143137 	299.9999999999621 	1.45228779920785e-12 	101324.9999999938
0.5668168168168163 	299.9999999999918 	5.191932968464039e-13 	101324.9999999938
0.5693193193193188 	300.000000000023 	1.156001488788818e-12 	101324.9999999939
0.5718218218218213 	300.0000000000183 	1.831053554369337e-12 	101324.9999999938
0.5743243243243239 	300.0000000000048 	1.726777396166507e-12 	101324.9999999936
0.5768268268268262 	300.0000000000043 	3.174504411704637e-12 	101324.9999999935
0.5793293293293288 	299.999999999964 	1.828356798225773e-12 	101324.9999999933
0.5818318318318314 	299.9999999999442 	4.287664539151379e-12 	101324.9999999935
0.5843343343343338 	299.9999999999851 	1.361779252598541e-12 	101324.9999999935
0.5868368368368363 	299.9999999999803 	3.831683834846927e-12 	101324.9999999934
0.5893393393393387 	299.9999999999586 	1.130907981918998e-12 	101324.9999999936
0.5918418418418413 	299.9999999999599 	2.519830037518651e-12 	101324.9999999937
0.5943443443443439 	300.0000000000155 	9.430605245461195e-13 	101324.9999999938
0.5968468468468463 	300.0000000000153 	1.989276968228798e-12 	101324.9999999938
0.5993493493493487 	300.0000000000281 	1.388726485420516e-12 	101324.9999999937
0.6018518518518514 	299.9999999999874 	1.889594023347219e-12 	101324.9999999935
0.6043543543543537 	299.9999999999952 	1.081560588668004e-12 	101324.9999999935
0.6068568568568564 	299.999999999987 	1.898452557161993e-12 	101324.9999999936
0.6093593593593587 	299.9999999999545 	1.77638012079598e-12 	101324.9999999936
0.6118618618618614 	299.9999999999495 	2.461817772557119e-12 	101324.9999999937
0.6143643643643638 	300.0000000000088 	1.842788697146014e-12 	101324.9999999939
0.6168668668668662 	299.9999999999903 	2.718084045834728e-12 	101324.9999999939
0.6193693693693688 	299.9999999999707 	1.645000841170311e-12 	101324.9999999937
0.6218718718718714 	299.9999999999768 	3.20557161916256e-12 	101324.9999999936
0.6243743743743737 	299.9999999999532 	1.796825142474306e-12 	101324.9999999936
0.6268768768768762 	299.9999999999475 	3.307717756726232e-12 	101324.9999999933
0.629379379379379 	299.9999999999661 	2.561826387192748e-12 	101324.9999999931
0.6318818818818812 	299.9999999999811 	3.593988727899235e-12 	101324.9999999931
0.6343843843843838 	300.0000000000099 	3.727936214529054e-12 	101324.9999999931
0.6368868868868864 	299.9999999999872 	3.570480586118709e-12 	101324.999999993
0.6393893893893888 	299.9999999999456 	4.404569711746189e-12 	101324.9999999932
0.6418918918918912 	300.0000000000061 	2.789186186674771e-12 	101324.9999999934
0.6443943943943939 	299.9999999999943 	5.757499900140738e-12 	101324.9999999935
0.6468968968968963 	299.9999999999887 	2.979785427718279e-12 	101324.9999999935
0.6493993993993988 	299.9999999999807 	6.415299661972398e-12 	101324.9999999935
0.6519019019019012 	299.9999999999795 	4.380959098336292e-12 	101324.9999999932
0.6544044044044038 	299.9999999999309 	8.176060318181643e-12 	101324.9999999928
0.6569069069069065 	299.9999999999678 	9.365333019011079e-12 	101324.9999999914
0.6594094094094087 	299.9999999999653 	1.894412444152743e-11 	101324.9999999881
0.6619119119119113 	299.9999999999562 	3.484035980593535e-11 	101324.999999981
0.664414414414414 	299.9999999999782 	7.348626652902233e-11 	101324.9999999662
0.6669169169169162 	299.9999999999602 	1.521771216377069e-10 	101324.9999999351
0.6694194194194188 	299.9999999998842 	3.191472216987315e-10 	101324.99999987
0.6719219219219214 	299.9999999997317 	6.616573338292461e-10 	101324.9999997355
0.674424424424424 	299.9999999995323 	1.36592173644402e-09 	101324.9999994596
0.6769269269269262 	299.9999999990154 	2.795164879984022e-09 	101324.9999988982
0.679429429429429 	299.9999999981192 	5.674089302620735e-09 	101324.9999977669
0.6819319319319311 	299.9999999961899 	1.141726197021391e-08 	101324.999995507
0.6844344344344341 	299.9999999924177 	2.277370346106889e-08 	101324.9999910343
0.686936936936936 	299.9999999849991 	4.501705845537777e-08 	101324.9999822656
0.6894394394394392 	299.9999999705923 	8.817760449095306e-08 	101324.9999652369
0.6919419419419413 	299.9999999428898 	1.711122414136836e-07 	101324.9999324856
0.694444444444444 	299.9999998901014 	3.289136670997474e-07 	101324.9998701114
0.6969469469469463 	299.9999997906184 	6.261606038331018e-07 	101324.9997525085
0.6994494494494489 	299.9999996049697 	1.180357485806877e-06 	101324.9995330384
0.7019519519519515 	299.9999992621921 	2.202838681846988e-06 	101324.9991277332
0.7044544544544538 	299.9999986358061 	4.069170246070304e-06 	101324.9983872132
0.7069569569569564 	299.9999975038988 	7.438615244075436e-06 	101324.9970489795
0.7094594594594589 	299.999995481113 	1.345379116697542e-05 	101324.9946575718
0.7119619619619615 	299.9999919077515 	2.406923077002196e-05 	101324.9904330235
0.7144644644644638 	299.9999856693538 	4.25830763272685e-05 	101324.9830576789
0.7169669669669665 	299.9999749092887 	7.448269884276142e-05 	101324.9703366879
0.7194694694694688 	299.9999565802555 	0.0001287646051008991 	101324.9486672745
0.7219719719719715 	299.999925755855 	0.00021995401192541 	101324.9122254253
0.7244744744744737 	299.9998745992261 	0.0003711287992758765 	101324.8517460733
0.7269769769769764 	299.9997908511863 	0.0006183417260717485 	101324.7527360886
0.7294794794794791 	299.9996556727752 	0.001016920386425892 	101324.5929235684
0.7319819819819813 	299.9994406543367 	0.001650181502634452 	101324.3387221201
0.7344844844844839 	299.9991038070286 	0.002641081998835844 	101323.9404922408
0.7369869869869864 	299.9985844011512 	0.004167179833419759 	101323.3264395726
0.739489489489489 	299.9977966396971 	0.006478905628399249 	101322.3951374648
0.7419919919919914 	299.9966223946504 	0.009920446539774383 	101321.0069422684
0.7444944944944939 	299.994903618961 	0.01495141111975848 	101318.9750284827
0.7469969969969963 	299.9924356129521 	0.02216580537658386 	101316.057438822
0.7494994994994989 	299.9889630618353 	0.03230272249225899 	101311.9524175648
0.7520020020020015 	299.9841816125669 	0.04624071180906912 	101306.3003037885
0.7545045045045039 	299.9777485813688 	0.0649654740067318 	101298.6962322204
0.7570070070070062 	299.9693069214558 	0.08949906913269852 	101288.7185215292
0.7595095095095092 	299.9585264665102 	0.1207792798166318 	101275.9774870428
0.7620120120120112 	299.9451652557245 	0.1594814185953416 	101260.1879684132
0.7645145145145138 	299.9291509972805 	0.2057829493677245 	101241.2655935706
0.7670170170170165 	299.9106781394125 	0.259084660188028 	101219.4413597852
0.7695195195195191 	299.8903095155929 	0.317723781825081 	101195.3814320816
0.7720220220220213 	299.8690575821527 	0.3787659914011371 	101170.2826248945
0.7745245245245239 	299.8483820688601 	0.4380502694068222 	101145.8690434555
0.7770270270270263 	299.8300264148383 	0.490650577428532 	101124.1985072882
0.779529529529529 	299.8157103489095 	0.5317201937449204 	101107.2996417797
0.7820320320320313 	299.8067683136689 	0.5575019711044055 	101096.745607073
0.784534534534534 	299.8038219674641 	0.5662562249144564 	101093.2676032512
0.7870370370370364 	299.8065569633882 	0.5588872152060953 	101096.4947500793
0.7895395395395389 	299.8136704925532 	0.539092736714344 	101104.8931630967
0.7920420420420413 	299.8230309032485 	0.5129401335237901 	101115.9429693598
0.794544544544544 	299.8320228352596 	0.4877797768078382 	101126.5579221187
0.7970470470470463 	299.838192893444 	0.4704098913692834 	101133.8417565927
0.799549549549549 	299.8400654996796 	0.4649107146732849 	101136.0529605457
0.8020520520520515 	299.8376815004255 	0.4712168880068018 	101133.2389646446
0.8045545545545539 	299.8325393451634 	0.4852184294731205 	101127.1665946721
0.8070570570570563 	299.8270204577171 	0.5003317180427209 	101120.6512372996
0.8095595595595589 	299.8234958917977 	0.5100713259521039 	101116.4907627174
0.8120620620620614 	299.8232970207953 	0.5107975785094774 	101116.2553687292
0.8145645645645638 	299.8261205117902 	0.5032791232537308 	101119.5885249538
0.8170670670670666 	299.8302589350217 	0.4921221453131827 	101124.4751182547
0.8195695695695689 	299.833494063478 	0.4833276318382921 	101128.2942405646
0.8220720720720714 	299.8342596696291 	0.4811065020428078 	101129.1984051031
0.8245745745745739 	299.8325091348781 	0.4856275925339374 	101127.1319828793
0.8270770770770765 	299.8296626127134 	0.4931382736165968 	101123.7705820366
0.8295795795795788 	299.8276709505716 	0.4984512950924441 	101121.4193233855
0.8320820820820815 	299.8277689261792 	0.4982858877795163 	101121.5347102423
0.834584584584584 	299.8296885343116 	0.4932983371023827 	101123.8009521861
0.8370870870870865 	299.8319438409539 	0.4873638927387707 	101126.4639731956
0.8395895895895891 	299.8329540814886 	0.4846240162870952 	101127.6568576564
0.8420920920920915 	299.8322060840381 	0.4864458067990396 	101126.7739736967
0.844594594594594 	299.8305802076722 	0.4905891546413221 	101124.8540143448
0.8470970970970964 	299.8295573614619 	0.4932366838424754 	101123.6462039734
0.8495995995995991 	299.829978331453 	0.4922033712124794 	101124.1430263516
0.8521021021021015 	299.8313820328189 	0.488624530706875 	101125.8006020981
0.8546046046046039 	299.8325085701606 	0.4856984746934593 	101127.1305184075
0.8571071071071066 	299.8324756472074 	0.4856817565643313 	101127.0918984136
0.8596096096096089 	299.831557897512 	0.4879204383181003 	101126.008576066
0.8621121121121116 	299.8308333794146 	0.48972398398137 	101125.1526422397
0.8646146146146139 	299.831073771549 	0.4891398103108851 	101125.4361928525
0.8671171171171166 	299.8320062836704 	0.4868083061147938 	101126.5375556447
0.8696196196196189 	299.8326856474729 	0.4850623074835348 	101127.3396642888
0.8721221221221216 	299.8325371226352 	0.4853417152565129 	101127.1643324257
0.874624624624624 	299.8319370800676 	0.4867554361638192 	101126.455958165
0.8771271271271264 	299.8317119476682 	0.4872901768522481 	101126.1898547876
0.879629629629629 	299.8321700048133 	0.4861683119350642 	101126.7304517071
0.8821321321321317 	299.8328000662396 	0.4845986125561353 	101127.4747097967
0.8846346346346339 	299.8329527853774 	0.4841537896547404 	101127.6550266753
0.8871371371371364 	299.8326276202208 	0.4848632975874267 	101127.2711210984
0.8896396396396391 	299.8324075533567 	0.4853526692612204 	101127.0111392023
0.8921421421421414 	299.8326708999795 	0.4847062233744721 	101127.3218223697
0.8946446446446441 	299.8331331921165 	0.4835684318139918 	101127.867871149
0.8971471471471464 	299.8332896016414 	0.4831276007047879 	101128.0526335019
0.8996496496496489 	299.8331043622293 	0.4834915270816789 	101127.8338089192
0.9021521521521517 	299.8330058962375 	0.4836771432102283 	101127.7174826679
0.9046546546546541 	299.8332462704353 	0.4830856315726575 	101128.0012638261
0.9071571571571564 	299.8335706596642 	0.4822828964724037 	101128.3842358916
0.9096596596596589 	299.8336397339283 	0.4820502326717498 	101128.4659095132
0.9121621621621616 	299.8335298153621 	0.4822350466378511 	101128.3361123699
0.9146646646646639 	299.8335695089436 	0.4820983991159992 	101128.3827343583
0.9171671671671666 	299.8338168325729 	0.4814911875059891 	101128.6748681747
0.9196696696696689 	299.8340063377081 	0.4809977104432605 	101128.8987360671
0.9221721721721714 	299.8340001758366 	0.480937753276112 	101128.8911650848
0.9246746746746741 	299.8339868697512 	0.4809060306680802 	101128.8755755607
0.9271771771771765 	299.8341388352865 	0.4805168834458609 	101129.0550964304
0.9296796796796791 	299.8343352032009 	0.4800209085547487 	101129.2867635471
0.9321821821821816 	299.8344000672701 	0.4798031358002221 	101129.3633612823
0.9346846846846838 	299.834403357027 	0.4797258414524488 	101129.3673515348
0.9371871871871866 	299.8345084771293 	0.4794381000305266 	101129.491311944
0.9396896896896891 	299.8346785245197 	0.4790059683148128 	101129.6920833696
0.9421921921921914 	299.8347693421383 	0.4787346040863081 	101129.799343958
0.9446946946946939 	299.8347990152934 	0.4785965830754558 	101129.8343189118
0.9471971971971965 	299.8348920264551 	0.4783323927384689 	101129.9441728745
0.9496996996996991 	299.8350381357601 	0.4779543818007969 	101130.1167006292
0.9522022022022016 	299.8351310164072 	0.4776810714813799 	101130.2262295476
0.9547047047047038 	299.8351802601456 	0.4774999466388368 	101130.2844830301
0.9572072072072064 	299.8352764020767 	0.4772281884184398 	101130.3979752877
0.9597097097097093 	299.8354053657167 	0.4768872545577683 	101130.5501181732
0.9622122122122114 	299.8354916139188 	0.4766282415580149 	101130.652006688
0.964714714714714 	299.835555698538 	0.4764166039623025 	101130.7277335188
0.9672172172172167 	299.8356587444716 	0.476131005338008 	101130.8492262852
0.969719719719719 	299.8357731568771 	0.4758196555011927 	101130.9843603442
0.9722222222222214 	299.8358527799872 	0.4755744924402396 	101131.0784526961
0.9747247247247239 	299.835930693452 	0.4753361484502541 	101131.1702480775
0.9772272272272267 	299.8360376991344 	0.4750422056138993 	101131.2966173696
0.9797297297297292 	299.836138067705 	0.4747580179421194 	101131.4152704477
0.9822322322322313 	299.8362161620664 	0.4745169050534196 	101131.5073302177
0.9847347347347344 	299.8363067747745 	0.4742546192245991 	101131.6142261706
0.9872372372372363 	299.8364114006791 	0.4739647932417531 	101131.7379098651
0.9897397397397389 	299.8365004241688 	0.4737026445217669 	101131.8429148612
0.9922422422422417 	299.8365837169706 	0.4734525570421448 	101131.9411859906
0.9947447447447441 	299.8366822291891 	0.4731753772837072 	101132.0575674026
0.9972472472472468 	299.8367786877222 	0.4729006526263587 	101132.1713725298
0.999749749749749 	299.8368632428869 	0.4726472759852721 	101132.2712350607
1.002252252252252 	299.8369551790873 	0.4723820078402267 	101132.3798860139
1.004754754754754 	299.8370532116213 	0.4721058264578435 	101132.4954202052
1.007257257257256 	299.8371416726184 	0.4718454852172085 	101132.599845853
1.009759759759759 	299.8372302025197 	0.4715857273552533 	101132.7045875244
1.012262262262261 	299.837326533101 	0.4713132333541771 	101132.8181311365
1.014764764764764 	299.8374179611575 	0.4710482393790104 	101132.9259463528
1.017267267267267 	299.837505874492 	0.4707893705288058 	101133.0299344008
1.019769769769769 	299.8375999642706 	0.4705209693030434 	101133.1409664107
1.022272272272272 	299.837692652199 	0.4702544107236684 	101133.2502653189
1.024774774774774 	299.8377810220976 	0.4699948390285473 	101133.3547772917
1.027277277277277 	299.8378735154159 	0.469729312752016 	101133.4639464645
1.029779779779779 	299.8379664101858 	0.4694628442548071 	101133.5734627287
1.032282282282282 	299.8380555109367 	0.4692022138349308 	101133.678723241
1.034784784784784 	299.8381470607882 	0.4689383542938499 	101133.7868385027
1.037287287287286 	299.8382395778769 	0.4686729768835849 	101133.895987624
1.039789789789789 	299.8383291469306 	0.4684119076029907 	101134.0017526871
1.042292292292291 	299.8384202162117 	0.4681488658051304 	101134.1093290504
1.044794794794794 	299.8385123111007 	0.4678845884259979 	101134.21794979
1.047297297297296 	299.8386021623894 	0.4676236350376339 	101134.3239975761
1.049799799799799 	299.838692971036 	0.4673612249493533 	101134.4313372546
1.052302302302302 	299.8387846360933 	0.4670978230108015 	101134.5394074608
1.054804804804804 	299.8388745918469 	0.4668369126867419 	101134.6455362012
1.057307307307306 	299.8389651879528 	0.4665750012666487 	101134.7527348538
1.059809809809809 	299.8390563790009 	0.4663126458797568 	101134.8602721486
1.062312312312312 	299.839146393332 	0.4660521051668408 	101134.9664046942
1.064814814814814 	299.8392369952764 	0.4657907421652692 	101135.0734942016
1.067317317317317 	299.8393276555357 	0.4655293742043399 	101135.1805298973
1.069819819819819 	299.839417609836 	0.4652691773899594 	101135.2866426332
1.072322322322321 	299.8395081756508 	0.4650082898057544 	101135.3935983864
1.074824824824824 	299.8395984145493 	0.4647477939174093 	101135.5001948751
1.077327327327327 	299.8396883912249 	0.4644879678467125 	101135.6063150014
1.079829829829829 	299.839778851643 	0.4642277737711796 	101135.7130579481
1.082332332332332 	299.8398686908582 	0.4639683034292489 	101135.8192552485
1.084834834834834 	299.8399586947182 	0.463708959008079 	101135.9253703359
1.087337337337337 	299.840048956182 	0.4634491941212048 	101136.0318175226
1.089839839839839 	299.8401385124682 	0.4631901897762772 	101136.137742251
1.092342342342342 	299.8402284299272 	0.4629314607604732 	101136.2438561254
1.094844844844844 	299.8403183897825 	0.4626727399049527 	101136.3499725832
1.097347347347347 	299.8404079177783 	0.462414329403487 	101136.4557309766
1.099849849849849 	299.8404975826062 	0.4621559235310817 	101136.5617194278
1.102352352352352 	299.8405873107864 	0.4618979472651588 	101136.6674748061
1.104854854854854 	299.8406769207089 	0.4616402660164119 	101136.7731350194
1.107357357357357 	299.8407663592789 	0.4613825865151223 	101136.8789092687
1.109859859859859 	299.8408557617234 	0.4611253033979952 	101136.9844221648
1.112362362362362 	299.8409453151238 	0.4608682396836896 	101137.0900105915
1.114864864864865 	299.8410346573356 	0.4606113189100567 	101137.1955103044
1.117367367367367 	299.8411238365341 	0.4603546250879739 	101137.3008652625
1.119869869869869 	299.8412131941992 	0.4600982571934707 	101137.4062776147
1.122372372372372 	299.8413023739627 	0.4598423038822628 	101137.5115141328
1.124874874874874 	299.8413914199563 	0.4595864142428226 	101137.6167568017
1.127377377377377 	299.8414806116986 	0.459330602338624 	101137.7219388915
1.129879879879879 	299.841569703913 	0.4590750329436224 	101137.8270056693
1.132382382382382 	299.841658629369 	0.4588198579576678 	101137.9320784478
1.134884884884884 	299.841747448419 	0.4585651226885098 	101138.037017938
1.137387387387387 	299.8418363514254 	0.4583104240203542 	101138.1419384408
1.139889889889889 	299.8419252422052 	0.458055922911218 	101138.2467836632
1.142392392392392 	299.8420140318701 	0.4578018245253355 	101138.3515502547
1.144894894894894 	299.842102782143 	0.4575480364674276 	101138.4562983744
1.147397397397397 	299.8421914462698 	0.4572945544178544 	101138.560954006
1.149899899899899 	299.8422800836755 	0.4570411682247362 	101138.6655869181
1.152402402402402 	299.8423686103812 	0.4567881433980785 	101138.7701320361
1.154904904904904 	299.8424571957005 	0.4565356844540648 	101138.8746154678
1.157407407407407 	299.8425457219527 	0.4562834862215005 	101138.9790416753
1.159909909909909 	299.8426340814941 	0.4560314005984638 	101139.0833998987
1.162412412412412 	299.8427224642051 	0.4557795333899854 	101139.1877278144
1.164914914914914 	299.8428107853833 	0.4555280549528445 	101139.291982959
1.167417417417417 	299.842899077291 	0.4552770466385877 	101139.396191549
1.169919919919919 	299.8429872590239 	0.4550265580758319 	101139.5003265258
1.172422422422422 	299.8430754671972 	0.454776339991048 	101139.6044092598
1.174924924924925 	299.8431637216285 	0.454526314823812 	101139.708436051
1.177427427427427 	299.8432518729709 	0.4542767270673066 	101139.8124063028
1.179929929929929 	299.8433398811352 	0.4540274681971747 	101139.9163313048
1.182432432432432 	299.8434278507847 	0.4537786956408696 	101140.0201966613
1.184934934934934 	299.8435158610293 	0.4535305702480046 	101140.1240133325
1.187437437437437 	299.8436038971334 	0.4532826653398148 	101140.2277689958
1.189939939939939 	299.8436917306316 	0.4530350100649602 	101140.3314835151
1.192442442442442 	299.8437793803327 	0.4527879160182807 	101140.4351535086
1.194944944944944 	299.8438672861818 	0.4525412996679494 	101140.5387845479
1.197447447447447 	299.8439552422536 	0.4522952418169096 	101140.6423623878
1.199949949949949 	299.8440431142314 	0.4520498626212802 	101140.7458810201
1.202452452452452 	299.8441307479599 	0.4518047691380058 	101140.8493429055
1.204954954954955 	299.8442182443044 	0.4515600892967287 	101140.9527610716
1.207457457457457 	299.8443058923782 	0.4513161601993674 	101141.0561500537
1.20995995995996 	299.8443936399584 	0.451072857340699 	101141.1595127145
1.212462462462462 	299.8444813460421 	0.4508294957247434 	101141.2628486119
1.214964964964964 	299.8445691009813 	0.4505879780722818 	101141.3661470382
1.217467467467467 	299.8446567178163 	0.4503444019852008 	101141.4694012303
1.219969969969969 	299.8447440865422 	0.4501068902183326 	101141.5726141984
1.222472472472472 	299.8448316125414 	0.4498547299785171 	101141.6757868838
1.224974974974975 	299.8449192333976 	0.4496434272874621 	101141.7789664764
1.227477477477477 	299.8450068567312 	0.4493152555122197 	101141.8820540995
1.229979979979979 	299.8450947329449 	0.4493067106508715 	101141.985436034
1.232482482482482 	299.8451819397536 	0.4480015265099762 	101142.0876981309
1.234984984984984 	299.8452705423382 	0.4495339225751758 	101142.192791121
1.237487487487487 	299.8453594615265 	0.4467719348328715 	101142.2944627148
1.239989989989989 	299.845440384479 	0.4488534651376906 	101142.3946130052
1.242492492492492 	299.8455391024739 	0.448728864830754 	101142.5027181007
1.244994994994994 	299.8443035412577 	0.4450848779296809 	101142.5962506385
1.247497497497497 	299.2980769059976 	0.4486230720399867 	101142.7024495944
1.249999999999999 	302.7206959950979 	0.4471194842320784 	101142.8073605161
