-1.25 	300 	0.03047685363690954 	101312.5655056418
-1.247497497497497 	299.9890168288567 	0.02903744477502241 	101313.2217492606
-1.244994994994995 	299.9905790552048 	0.02710921641370376 	101313.8823325961
-1.242492492492492 	299.9911572555018 	0.02568531795700128 	101314.5461484294
-1.23998998998999 	299.9917157588677 	0.02397475384203789 	101315.2070988929
-1.237487487487487 	299.9922820707741 	0.02236851605502001 	101315.8765775599
-1.234984984984985 	299.9928529094119 	0.02072031641657035 	101316.5513809823
-1.232482482482482 	299.9934179063462 	0.01908060319491749 	101317.219279946
-1.22997997997998 	299.993980497571 	0.01745084876436408 	101317.8843423387
-1.227477477477477 	299.9945456914111 	0.0158152559464732 	101318.5524875384
-1.224974974974975 	299.9951127194191 	0.01416700159435624 	101319.2228024942
-1.222472472472472 	299.9956831518181 	0.01251066381426956 	101319.8971448315
-1.21996996996997 	299.9962609974386 	0.01083708887566696 	101320.5802570951
-1.217467467467467 	299.9968433238452 	0.009149235515429205 	101321.2686651426
-1.214964964964965 	299.9974222568424 	0.007478245189259537 	101321.9530590314
-1.212462462462462 	299.9979923909472 	0.005829350102377878 	101322.6270544961
-1.20995995995996 	299.9985553705155 	0.004195180127029297 	101323.2925984731
-1.207457457457457 	299.9991198217893 	0.002560379808693726 	101323.9598899742
-1.204954954954955 	299.9996894050876 	0.0009081312231936801 	101324.6332552377
-1.202452452452452 	300.0002645824448 	0.0008611010614345879 	101325.3132337227
-1.19994994994995 	300.0008420212424 	0.002425991728330908 	101325.9958843399
-1.197447447447447 	300.0014173009184 	0.004092753073082118 	101326.6759864942
-1.194944944944945 	300.0019914240059 	0.00575608167227351 	101327.3547250049
-1.192442442442442 	300.002564773829 	0.007417114926158723 	101328.0325526251
-1.18993993993994 	300.0031374830182 	0.009076249785854529 	101328.7096261805
-1.187437437437437 	300.003709545929 	0.01073348604922645 	101329.3859388537
-1.184934934934935 	300.0042808940833 	0.0123886378803694 	101330.0614095955
-1.182432432432432 	300.0048514348052 	0.01404144925467214 	101330.7359287307
-1.17992992992993 	300.0054210669788 	0.01569163865888099 	101331.4093770142
-1.177427427427427 	300.0059896871505 	0.01733891082418709 	101332.0816326714
-1.174924924924925 	300.0065571925901 	0.01898296374141013 	101332.7525735656
-1.172422422422422 	300.0071234811916 	0.02062349598265806 	101333.4220776613
-1.16991991991992 	300.0076884498024 	0.0222602071696153 	101334.0900229864
-1.167417417417417 	300.0082519933637 	0.02389279473859852 	101334.7562875144
-1.164914914914915 	300.0088140068782 	0.02552095619106679 	101335.4207491777
-1.162412412412412 	300.0093743884798 	0.02714439253679301 	101336.0832859911
-1.15990990990991 	300.0099330386465 	0.02876280623104293 	101336.7437761878
-1.157407407407407 	300.0104898565652 	0.03037589838265077 	101337.402098311
-1.154904904904904 	300.0110447375598 	0.03198337152356195 	101338.058131328
-1.152402402402403 	300.0115975751663 	0.03358493151210217 	101338.7117546446
-1.1498998998999 	300.0121482654092 	0.03518028393666599 	101339.3628481007
-1.147397397397397 	300.0126967085184 	0.03676913373836393 	101340.0112919758
-1.144894894894895 	300.0132428079683 	0.03835118921029788 	101340.6569670243
-1.142392392392392 	300.013786467443 	0.03992616116891021 	101341.2997545034
-1.13988988988989 	300.0143275886228 	0.04149375917402871 	101341.9395362109
-1.137387387387387 	300.0148660708563 	0.04305369420230497 	101342.5761945519
-1.134884884884885 	300.0154018124113 	0.04460568064958596 	101343.2096125006
-1.132382382382382 	300.015934712469 	0.04614943352460499 	101343.8396736144
-1.12987987987988 	300.0164646714138 	0.04768466824018654 	101344.4662620288
-1.127377377377377 	300.0169915912447 	0.04921110335056801 	101345.089262578
-1.124874874874875 	300.0175153753139 	0.05072845949994152 	101345.708560855
-1.122372372372372 	300.0180359277912 	0.05223645675588615 	101346.3240431083
-1.11986986986987 	300.0185531536354 	0.05373481795305325 	101346.9355962343
-1.117367367367367 	300.0190669581453 	0.05522326939652324 	101347.5431077722
-1.114864864864865 	300.0195772472958 	0.05670153726025621 	101348.1464660576
-1.112362362362362 	300.0200839276811 	0.05816934927590799 	101348.7455602839
-1.10985985985986 	300.0205869064226 	0.0596264368670604 	101349.3402804955
-1.107357357357357 	300.0210860915078 	0.06107253289718495 	101349.930517533
-1.104854854854855 	300.0215813912004 	0.06250737123376746 	101350.5161629503
-1.102352352352353 	300.0220727146079 	0.06393068898664112 	101351.0971091675
-1.09984984984985 	300.0225599716807 	0.06534222547045658 	101351.6732494631
-1.097347347347347 	300.0230430728498 	0.06674172075266356 	101352.2444780537
-1.094844844844845 	300.0235219295107 	0.06812891812999514 	101352.8106900885
-1.092342342342342 	300.0239964537821 	0.06950356389176453 	101353.3717815372
-1.08983983983984 	300.0244665585645 	0.07086540479007147 	101353.9276493131
-1.087337337337337 	300.0249321573802 	0.07221419047019295 	101354.4781911758
-1.084834834834835 	300.0253931646746 	0.07354967428778925 	101355.0233058904
-1.082332332332332 	300.0258494959367 	0.07487161041966175 	101355.5628933216
-1.07982982982983 	300.0263010672114 	0.07617975550442861 	101356.0968543015
-1.077327327327327 	300.0267477956356 	0.07747387034438664 	101356.6250907886
-1.074824824824825 	300.0271895992694 	0.07875371750122784 	101357.147505766
-1.072322322322323 	300.0276263970655 	0.08001906186175761 	101357.6640033488
-1.06981981981982 	300.0280581089967 	0.08126967180583643 	101358.1744887861
-1.067317317317317 	300.0284846556739 	0.08250531788223518 	101358.678868314
-1.064814814814815 	300.028905959143 	0.08372577331586298 	101359.1770494893
-1.062312312312312 	300.0293219421659 	0.08493081507759867 	101359.6689409432
-1.05980980980981 	300.0297325283006 	0.08612022238685652 	101360.1544523671
-1.057307307307307 	300.0301376424708 	0.08729377634889017 	101360.6334947517
-1.054804804804805 	300.0305372103044 	0.08845126209579182 	101361.1059800859
-1.052302302302302 	300.0309311585373 	0.08959246829132921 	101361.5718217344
-1.0497997997998 	300.0313194149361 	0.09071718523569604 	101362.0309343703
-1.047297297297297 	300.0317019084447 	0.09182520662435818 	101362.4832336579
-1.044794794794795 	300.0320785690803 	0.09291632989241988 	101362.9286366383
-1.042292292292292 	300.0324493272592 	0.09399035430267202 	101363.3670614103
-1.03978978978979 	300.032814114879 	0.09504708297529137 	101363.7984274818
-1.037287287287287 	300.0331728658638 	0.09608632312018955 	101364.2226560763
-1.034784784784785 	300.0335255145374 	0.09710788361496003 	101364.6396692055
-1.032282282282283 	300.0338719953945 	0.09811157707170205 	101365.0493901546
-1.02977977977978 	300.0342122444811 	0.09909721984737063 	101365.4517437493
-1.027277277277277 	300.034546200254 	0.100064630303534 	101365.8466559502
-1.024774774774775 	300.0348738023392 	0.1010136315882565 	101366.2340546043
-1.022272272272272 	300.0351949896351 	0.101944050668131 	101366.6138687587
-1.01976976976977 	300.035509701827 	0.1028557160434642 	101366.9860283373
-1.017267267267267 	300.0358178826368 	0.1037484605591655 	101367.3504652349
-1.014764764764765 	300.0361194773767 	0.1046221205898796 	101367.7071123325
-1.012262262262262 	300.0364144291389 	0.1054765347048038 	101368.0559036696
-1.00975975975976 	300.0367026811916 	0.1063115466781835 	101368.3967756507
-1.007257257257257 	300.0369841807692 	0.1071270042002494 	101368.7296657343
-1.004754754754755 	300.0372588802154 	0.1079227577067041 	101369.0545128499
-1.002252252252252 	300.0375267319102 	0.1086986618819009 	101369.3712579341
-0.9997497497497498 	300.0377876823135 	0.1094545737046786 	101369.6798421237
-0.9972472472472473 	300.0380416777524 	0.1101903531069281 	101369.9802081893
-0.9947447447447449 	300.0382886729845 	0.1109058654077355 	101370.2723014533
-0.9922422422422421 	300.0385286295291 	0.1116009788589594 	101370.5560676486
-0.9897397397397399 	300.0387615078141 	0.1122755652908978 	101370.8314544502
-0.9872372372372376 	300.0389872605851 	0.1129295020866505 	101371.0984120871
-0.9847347347347346 	300.0392058363081 	0.1135626690173308 	101371.3568909413
-0.9822322322322323 	300.039417192157 	0.1141749498501655 	101371.6068436539
-0.9797297297297296 	300.0396212990192 	0.1147662343630465 	101371.8482256548
-0.9772272272272275 	300.0398181302255 	0.1153364136913221 	101372.0809918314
-0.9747247247247248 	300.0400076506475 	0.1158853815737061 	101372.3050987468
-0.9722222222222224 	300.0401898154882 	0.1164130378316364 	101372.5205060759
-0.9697197197197196 	300.0403645773805 	0.1169192845341366 	101372.7271732305
-0.9672172172172175 	300.040531901099 	0.1174040276502003 	101372.9250615742
-0.9647147147147147 	300.0406917682869 	0.1178671803208533 	101373.1141363463
-0.9622122122122124 	300.0408441641561 	0.1183086567489026 	101373.2943621552
-0.9597097097097099 	300.0409890656859 	0.1187283732011451 	101373.4657042815
-0.9572072072072073 	300.0411264388798 	0.1191262536705884 	101373.6281322999
-0.9547047047047047 	300.0412562422997 	0.1195022242339556 	101373.7816159982
-0.9522022022022023 	300.0413784386699 	0.1198562128968096 	101373.9261252568
-0.9496996996996998 	300.0414930077242 	0.1201881572124763 	101374.0616349487
-0.9471971971971973 	300.0415999423095 	0.1204979981446313 	101374.188121441
-0.9446946946946947 	300.041699236778 	0.1207856751664359 	101374.3055593981
-0.9421921921921923 	300.0417908818496 	0.1210511353307157 	101374.4139270408
-0.93968968968969 	300.0418748589064 	0.1212943319506421 	101374.5132059292
-0.9371871871871872 	300.0419511385257 	0.121515216876642 	101374.603376069
-0.9346846846846848 	300.0420196908961 	0.1217137467797926 	101374.6844191772
-0.9321821821821823 	300.0420804952854 	0.1218898876958653 	101374.7563220073
-0.9296796796796799 	300.0421335397929 	0.1220436074910334 	101374.81907176
-0.9271771771771771 	300.0421788195016 	0.1221748742327788 	101374.8726546051
-0.9246746746746748 	300.0422163375063 	0.1222836636628204 	101374.9170605774
-0.9221721721721724 	300.0422461011053 	0.1223699598015063 	101374.9522839337
-0.9196696696696698 	300.0422681128243 	0.1224337468618294 	101374.9783181398
-0.9171671671671672 	300.0422823686768 	0.1224750083808868 	101374.9951556599
-0.9146646646646649 	300.0422888636871 	0.1224937377786659 	101375.0027938937
-0.9121621621621623 	300.0422875936565 	0.1224899356982112 	101375.0012344949
-0.9096596596596597 	300.042278547905 	0.122463594746813 	101374.9904735717
-0.9071571571571573 	300.0422617184089 	0.1224147095626266 	101374.9705072176
-0.9046546546546547 	300.0422371087338 	0.122343298063008 	101374.941343754
-0.9021521521521524 	300.0422047269755 	0.1222493845563188 	101374.9029959507
-0.8996496496496498 	300.0421645717073 	0.1221329725146519 	101374.8554632483
-0.8971471471471473 	300.0421166431151 	0.1219940713799478 	101374.7987458701
-0.894644644644645 	300.0420609615836 	0.1218327289541483 	101374.7328672791
-0.892142142142142 	300.0419975453773 	0.1216489856983716 	101374.6578478854
-0.8896396396396397 	300.0419263892371 	0.1214428387926369 	101374.5736802354
-0.8871371371371374 	300.0418475002318 	0.1212143151428201 	101374.4803716303
-0.8846346346346349 	300.0417609183927 	0.1209635055455618 	101374.3779683093
-0.8821321321321324 	300.0416666634194 	0.1206904572491797 	101374.2664927613
-0.8796296296296297 	300.0415647179603 	0.1203951496951723 	101374.1459239162
-0.8771271271271271 	300.0414551013909 	0.1200776435548859 	101374.016284291
-0.8746246246246248 	300.0413378803456 	0.1197380891667695 	101373.8776523206
-0.8721221221221224 	300.0412130703568 	0.119376528585259 	101373.7300462173
-0.8696196196196196 	300.0410806337979 	0.1189929068692723 	101373.573421376
-0.8671171171171175 	300.0409406071855 	0.1185873283373707 	101373.407820922
-0.8646146146146148 	300.0407930944886 	0.118160024934605 	101373.2333678547
-0.8621121121121121 	300.0406381046714 	0.1177110258207514 	101373.0500725574
-0.8596096096096097 	300.0404755644836 	0.1172402060515532 	101372.8578484858
-0.857107107107107 	300.0403055249259 	0.1167477105160174 	101372.6567562243
-0.8546046046046049 	300.0401281479925 	0.1162338985779661 	101372.4469871731
-0.8521021021021022 	300.039943446006 	0.1156988034201415 	101372.2285558413
-0.8495995995995997 	300.0397512835527 	0.1151421693877774 	101372.0013022358
-0.8470970970970974 	300.0395517030409 	0.114564136209906 	101371.7652766869
-0.8445945945945946 	300.0393449563034 	0.1139652662825381 	101371.5207769658
-0.8420920920920922 	300.039131104303 	0.113345690782765 	101371.2678749755
-0.8395895895895897 	300.0389099175992 	0.112704942798344 	101371.0062995795
-0.8370870870870872 	300.0386813538627 	0.1120429934471735 	101370.7360009434
-0.8345845845845846 	300.0384457740316 	0.1113606676155003 	101370.457405995
-0.8320820820820823 	300.0382034032551 	0.1106584491264306 	101370.1707808156
-0.8295795795795798 	300.0379539343065 	0.1099356715485544 	101369.8757618779
-0.8270770770770772 	300.0376970809643 	0.1091917761059508 	101369.5720110677
-0.8245745745745746 	300.0374332240175 	0.1084276792658 	101369.259979156
-0.8220720720720721 	300.0371629406641 	0.1076446619668366 	101368.9403484067
-0.8195695695695699 	300.0368860585314 	0.1068423089582542 	101368.6129145501
-0.817067067067067 	300.0366018825404 	0.1060191106924889 	101368.2768559147
-0.8145645645645651 	300.0363104287101 	0.1051752198413619 	101367.9321920924
-0.8120620620620621 	300.0360126597836 	0.1043128668146514 	101367.5800617015
-0.8095595595595597 	300.0357091011425 	0.1034331883862469 	101367.221085398
-0.8070570570570572 	300.0353989167496 	0.1025342428665592 	101366.8542741344
-0.8045545545545546 	300.0350811186831 	0.101613872240298 	101366.4784602406
-0.8020520520520523 	300.034756292499 	0.1006735792790591 	101366.0943372367
-0.7995495495495494 	300.0344260818617 	0.0997171836017727 	101365.7038487088
-0.7970470470470474 	300.0340908466222 	0.09874540500918336 	101365.3074189015
-0.7945445445445446 	300.0337489000115 	0.09775426833478831 	101364.9030526191
-0.7920420420420423 	300.0333988085295 	0.09674057700924842 	101364.4890560509
-0.7895395395395397 	300.0330417512541 	0.09570731052658812 	101364.0668251167
-0.7870370370370371 	300.0326803788085 	0.09466073807930693 	101363.6394938469
-0.7845345345345348 	300.0323152792739 	0.09360207615781228 	101363.2077555208
-0.7820320320320323 	300.0319438080608 	0.09252493345744014 	101362.7684818633
-0.7795295295295296 	300.0315633238578 	0.09142317159366706 	101362.3185514075
-0.7770270270270272 	300.0311749739271 	0.09029983226133063 	101361.8593233786
-0.7745245245245247 	300.0307829162671 	0.08916501550567331 	101361.3957147641
-0.7720220220220222 	300.0303893790287 	0.08802390637226867 	101360.9303574518
-0.7695195195195199 	300.0299914971359 	0.08686932880268305 	101360.4598610034
-0.767017017017017 	300.029584232082 	0.08568907541396539 	101359.9782685104
-0.7645145145145147 	300.0291664463602 	0.08448070524313939 	101359.4842390342
-0.7620120120120122 	300.0287430058062 	0.08325643288482694 	101358.9835288801
-0.7595095095095097 	300.0283199170792 	0.08203098495036062 	101358.4832385975
-0.7570070070070072 	300.0278975126782 	0.0808048701018384 	101357.9837563827
-0.7545045045045048 	300.0274693693519 	0.07956195695939826 	101357.4774847412
-0.7520020020020022 	300.0270287182726 	0.0782855638298879 	101356.9564231844
-0.7494994994994997 	300.0265759331356 	0.0769770275670129 	101356.4210192781
-0.7469969969969972 	300.0261190932026 	0.07565686401631987 	101355.880829001
-0.7444944944944945 	300.0256664838427 	0.07434581354782858 	101355.3456458173
-0.7419919919919924 	300.0252182095256 	0.07304380288763072 	101354.8155865425
-0.7394894894894897 	300.024765309523 	0.07172790414642542 	101354.2800524447
-0.7369869869869872 	300.0242976735921 	0.0703725423622189 	101353.727092269
-0.7344844844844846 	300.0238136497621 	0.06897389117744263 	101353.1547604473
-0.7319819819819822 	300.023322438143 	0.0675558061329922 	101352.5739403222
-0.7294794794794797 	300.0228367474398 	0.06615092183778291 	101351.9996568668
-0.7269769769769773 	300.0223619118266 	0.06477272345092282 	101351.4382092987
-0.7244744744744747 	300.0218908284392 	0.0634025717334335 	101350.8811920728
-0.721971971971972 	300.0214091080408 	0.0620030947757348 	101350.3115909385
-0.7194694694694695 	300.0209063964542 	0.06054758925348602 	101349.717169988
-0.7169669669669674 	300.0203849361888 	0.05904224253966554 	101349.1005901735
-0.7144644644644647 	300.0198586483554 	0.05752367261476213 	101348.4783160542
-0.711961961961962 	300.019343336557 	0.05603331957293377 	101347.8690299866
-0.7094594594594597 	300.0188452890434 	0.05458756018263151 	101347.2801577508
-0.7069569569569573 	300.0183564919727 	0.0531650431026401 	101346.7022153729
-0.7044544544544545 	300.0178596329603 	0.05171983948890154 	101346.1147312468
-0.7019519519519523 	300.0173393267399 	0.05021119874328007 	101345.4995204853
-0.6994494494494495 	300.0167921828065 	0.04863032361266016 	101344.8525846546
-0.6969469469469471 	300.0162293972429 	0.04700729078053307 	101344.187169653
-0.6944444444444446 	300.015670414263 	0.04539420958467643 	101343.5262666779
-0.6919419419419421 	300.0151317265847 	0.04383533523372347 	101342.8893692906
-0.6894394394394396 	300.0146175476559 	0.04234196523603925 	101342.2814490618
-0.6869369369369374 	300.0141174404174 	0.04088583959581892 	101341.6901570403
-0.6844344344344344 	300.0136116693832 	0.03941343040568814 	101341.0921568941
-0.6819319319319321 	300.0130810284288 	0.03787257911590111 	101340.4647454771
-0.6794294294294296 	300.0125161465534 	0.03623787721610536 	101339.7968527227
-0.6769269269269272 	300.0119220086376 	0.03452305543976143 	101339.0943824624
-0.6744244244244245 	300.0113158980675 	0.03277545628908945 	101338.3777749882
-0.6719219219219222 	300.0107200364361 	0.03105605579584823 	101337.673302777
-0.6694194194194195 	300.0101525005655 	0.02941465016769208 	101337.0023315301
-0.6669169169169172 	300.0096203455411 	0.02787079647049115 	101336.3731929961
-0.6644144144144146 	300.0091172755508 	0.0264071506886433 	101335.778434734
-0.661911911911912 	300.0086261131481 	0.02497601722448074 	101335.1977423613
-0.6594094094094097 	300.0081245037983 	0.02351503740656585 	101334.6046858036
-0.656906906906907 	300.0075915740242 	0.02196580965874325 	101333.9745908052
-0.6544044044044046 	300.0070135971194 	0.02028987222471153 	101333.2912358123
-0.6519019019019021 	300.0063874044931 	0.01847838066982202 	101332.5508833483
-0.6493993993993996 	300.0057210217878 	0.01655395770913291 	101331.7630297943
-0.6468968968968971 	300.0050316957178 	0.01456519413535569 	101330.9480707019
-0.6443943943943946 	300.0043420498256 	0.01257591674727526 	101330.1327547251
-0.6418918918918921 	300.0036755106214 	0.01065253770440247 	101329.3447760654
-0.6393893893893897 	300.0030524317947 	0.008853265961137526 	101328.6081937098
-0.6368868868868871 	300.0024879021291 	0.007221621905120281 	101327.940841054
-0.6343843843843846 	300.0019910609756 	0.005784222897823097 	101327.3535176145
-0.6318818818818821 	300.0015654230544 	0.004551573601864891 	101326.850374056
-0.6293793793793795 	300.0012098133442 	0.00352066046216617 	101326.4300173774
-0.6268768768768773 	300.0009195795263 	0.002678396550645635 	101326.0869451465
-0.6243743743743745 	300.0006877998225 	0.002005168956644478 	101325.8130138679
-0.6218718718718721 	300.000506510779 	0.001478020715723769 	101325.5987478126
-0.6193693693693696 	300.0003674894319 	0.001073211373248707 	101325.4343770667
-0.6168668668668671 	300.0002627687262 	0.0007680264991052373 	101325.3105816594
-0.6143643643643645 	300.0001852550247 	0.0005419371936039104 	101325.2189619012
-0.6118618618618621 	300.0001288360738 	0.0003772159085743577 	101325.1522764285
-0.6093593593593596 	300.0000884198819 	0.0002591034407980919 	101325.1045061274
-0.6068568568568571 	300.0000599057552 	0.0001756954455985065 	101325.0708038986
-0.6043543543543546 	300.0000400819548 	0.0001176541768594184 	101325.0473734255
-0.6018518518518521 	300.0000264936901 	7.78329733753406e-05 	101325.0313130492
-0.5993493493493496 	300.000017305733 	5.088279434950297e-05 	101325.0204536414
-0.5968468468468471 	300.0000111743905 	3.288220570514134e-05 	101325.0132069316
-0.5943443443443446 	300.0000071345706 	2.101146498805431e-05 	101325.0084322139
-0.591841841841842 	300.0000045053702 	1.327922126163982e-05 	101325.0053248224
-0.5893393393393397 	300.0000028146602 	8.302704782630232e-06 	101325.0033266112
-0.5868368368368371 	300.0000017400911 	5.13690121928235e-06 	101325.002056537
-0.5843343343343346 	300.0000010647677 	3.145701317244687e-06 	101325.0012583682
-0.5818318318318321 	300.0000006450218 	1.907047685462589e-06 	101325.0007622716
-0.5793293293293297 	300.0000003868688 	1.14478981414697e-06 	101325.0004572274
-0.5768268268268271 	300.0000002298387 	6.806016714478347e-07 	101325.0002716188
-0.5743243243243245 	300.0000001352732 	4.008207415003285e-07 	101325.0001598357
-0.5718218218218221 	300.0000000788755 	2.338681789266078e-07 	101325.0000931858
-0.5693193193193196 	300.000000045603 	1.352187208350713e-07 	101325.0000538339
-0.5668168168168171 	300.0000000260706 	7.748556248400559e-08 	101325.0000308217
-0.5643143143143147 	300.0000000147513 	4.401349294404144e-08 	101325.0000174905
-0.5618118118118121 	300.0000000083466 	2.478777753014281e-08 	101325.0000098389
-0.5593093093093094 	300.0000000046847 	1.384222745102924e-08 	101325.0000054868
-0.5568068068068072 	300.0000000025934 	7.668033515473152e-09 	101325.0000030329
-0.5543043043043046 	300.0000000014352 	4.212715009724973e-09 	101325.0000016612
-0.551801801801802 	300.0000000007232 	2.297505151402928e-09 	101325.000000901
-0.5492992992992995 	300.0000000004121 	1.241639669538485e-09 	101325.0000004831
-0.5467967967967969 	300.0000000002371 	6.674511735003e-10 	101325.000000255
-0.5442942942942947 	300.0000000001272 	3.54859951789955e-10 	101325.0000001315
-0.5417917917917919 	300.0000000000225 	1.893295720755142e-10 	101325.0000000654
-0.5392892892892895 	299.9999999999602 	9.773867471116506e-11 	101325.0000000301
-0.536786786786787 	299.9999999999674 	5.289463267377947e-11 	101325.0000000115
-0.5342842842842846 	299.999999999964 	2.524699803426376e-11 	101325.0000000016
-0.531781781781782 	299.9999999999328 	1.580583759367815e-11 	101324.9999999966
-0.5292792792792794 	299.9999999999254 	5.170022996121363e-12 	101324.9999999942
-0.526776776776777 	299.9999999999105 	6.887110285377927e-12 	101324.9999999932
-0.5242742742742745 	299.9999999999769 	3.350498776734601e-12 	101324.9999999925
-0.521771771771772 	300.0000000000242 	7.018160564806402e-12 	101324.9999999922
-0.5192692692692695 	299.9999999999597 	4.320019383828536e-12 	101324.999999992
-0.516766766766767 	300.0000000000038 	7.179521980335687e-12 	101324.9999999917
-0.5142642642642645 	299.9999999999775 	3.928565910421901e-12 	101324.9999999915
-0.511761761761762 	299.999999999953 	5.941895921828673e-12 	101324.9999999914
-0.5092592592592596 	299.9999999999681 	3.347636625928527e-12 	101324.9999999911
-0.506756756756757 	299.9999999999339 	4.888236988783388e-12 	101324.9999999908
-0.5042542542542544 	299.9999999999915 	2.232723534158098e-12 	101324.9999999908
-0.5017517517517521 	300.0000000000254 	4.540388255559394e-12 	101324.9999999909
-0.4992492492492494 	300.0000000000315 	1.604218942733707e-12 	101324.9999999913
-0.496746746746747 	299.9999999999863 	3.382891603247998e-12 	101324.9999999916
-0.4942442442442445 	299.9999999999458 	1.035110992510613e-12 	101324.9999999919
-0.4917417417417421 	299.9999999999428 	4.107433155635375e-12 	101324.9999999918
-0.4892392392392395 	299.9999999999571 	1.970883981075674e-12 	101324.9999999916
-0.486736736736737 	299.9999999999604 	4.61456914629235e-12 	101324.9999999915
-0.4842342342342345 	299.9999999999258 	2.178027188194362e-12 	101324.9999999916
-0.481731731731732 	300.0000000000297 	5.499865228909464e-12 	101324.9999999914
-0.4792292292292296 	300.0000000000188 	2.945345334046804e-12 	101324.9999999915
-0.4767267267267268 	299.9999999999455 	7.020725713708965e-12 	101324.9999999914
-0.4742242242242246 	299.9999999999886 	2.086165542674181e-12 	101324.9999999915
-0.471721721721722 	299.9999999999509 	5.734532509645083e-12 	101324.9999999917
-0.4692192192192195 	299.9999999999665 	1.859174784517894e-12 	101324.9999999918
-0.4667167167167169 	299.9999999999119 	4.154723349753824e-12 	101324.9999999917
-0.4642142142142145 	299.9999999999955 	1.32532783745032e-12 	101324.9999999918
-0.461711711711712 	300.0000000000149 	4.404934740389243e-12 	101324.999999992
-0.4592092092092094 	300.0000000000124 	2.42212235766344e-12 	101324.9999999922
-0.456706706706707 	300.0000000000488 	4.142029587385134e-12 	101324.9999999921
-0.4542042042042045 	299.9999999999383 	2.625400948546631e-12 	101324.9999999918
-0.451701701701702 	299.9999999999534 	4.131664856854433e-12 	101324.9999999917
-0.4491991991991995 	299.9999999999573 	2.485722839463442e-12 	101324.9999999916
-0.4466966966966969 	299.9999999999432 	4.599850571376405e-12 	101324.9999999917
-0.4441941941941945 	299.9999999999934 	2.230619770646934e-12 	101324.9999999914
-0.441691691691692 	299.9999999999566 	5.486089930911397e-12 	101324.9999999916
-0.4391891891891895 	299.9999999999846 	1.361902166730473e-12 	101324.9999999915
-0.436686686686687 	299.9999999999667 	5.713592774629405e-12 	101324.9999999915
-0.4341841841841846 	299.9999999999968 	1.822472696052966e-12 	101324.9999999915
-0.431681681681682 	299.9999999999503 	5.181899958127419e-12 	101324.9999999917
-0.4291791791791794 	299.9999999999093 	1.329288954951915e-12 	101324.9999999919
-0.426676676676677 	299.9999999999166 	4.428326290741664e-12 	101324.9999999918
-0.4241741741741744 	299.9999999999666 	1.749999531857645e-12 	101324.9999999916
-0.421671671671672 	300.0000000000031 	3.704705180013149e-12 	101324.9999999915
-0.4191691691691694 	300.000000000045 	1.810753780446284e-12 	101324.9999999914
-0.4166666666666669 	300.0000000000528 	3.974394121143543e-12 	101324.9999999913
-0.4141641641641645 	299.9999999999347 	2.626736691545224e-12 	101324.9999999912
-0.411661661661662 	300.0000000000042 	3.161322114660543e-12 	101324.9999999915
-0.4091591591591594 	300.0000000000059 	2.091381375977523e-12 	101324.9999999913
-0.406656656656657 	299.9999999999395 	3.443880919234402e-12 	101324.9999999915
-0.4041541541541545 	300.0000000000127 	1.871225481597949e-12 	101324.9999999916
-0.401651651651652 	299.9999999999231 	4.023253396081597e-12 	101324.9999999915
-0.3991491491491494 	300.0000000000007 	1.714658780117041e-12 	101324.9999999914
-0.396646646646647 	299.9999999999563 	3.972612475508488e-12 	101324.9999999913
-0.3941441441441444 	299.9999999999739 	2.36952203262199e-12 	101324.9999999913
-0.3916416416416419 	299.999999999931 	4.171545070793043e-12 	101324.9999999909
-0.3891391391391395 	299.9999999999588 	1.285915002827679e-12 	101324.9999999909
-0.3866366366366368 	299.9999999999559 	2.789111861261131e-12 	101324.9999999909
-0.3841341341341344 	299.9999999999967 	1.218467464496889e-12 	101324.999999991
-0.381631631631632 	299.9999999999552 	2.63677754777381e-12 	101324.9999999912
-0.3791291291291294 	300.0000000000048 	1.904059652714437e-12 	101324.9999999913
-0.3766266266266269 	300.0000000000188 	2.210296726790786e-12 	101324.9999999915
-0.3741241241241244 	300.0000000000214 	3.239215212808351e-12 	101324.9999999918
-0.371621621621622 	300.0000000000144 	1.765297552151886e-12 	101324.9999999918
-0.3691191191191194 	300.000000000003 	4.693203636785383e-12 	101324.999999992
-0.366616616616617 	300.0000000000081 	2.125937172046811e-12 	101324.9999999921
-0.3641141141141143 	299.9999999999683 	4.685269478646e-12 	101324.999999992
-0.3616116116116119 	299.9999999999482 	2.279296797295586e-12 	101324.9999999922
-0.3591091091091095 	299.9999999999883 	3.043335669652949e-12 	101324.999999992
-0.356606606606607 	299.9999999999862 	2.526363343296981e-12 	101324.9999999921
-0.3541041041041044 	299.9999999999833 	2.549102981002008e-12 	101324.9999999919
-0.3516016016016019 	300.0000000000036 	3.747344242363472e-12 	101324.9999999919
-0.3490990990990994 	299.9999999999851 	2.38178663957727e-12 	101324.9999999919
-0.346596596596597 	300.0000000000406 	4.113909525046203e-12 	101324.9999999922
-0.3440940940940944 	300.0000000000496 	1.976904957532407e-12 	101324.9999999921
-0.3415915915915919 	300.0000000000182 	4.58553275421281e-12 	101324.999999992
-0.3390890890890895 	299.9999999999795 	3.074260184470893e-12 	101324.9999999918
-0.3365865865865869 	300.0000000000205 	4.928529125635432e-12 	101324.999999992
-0.3340840840840844 	300.0000000000053 	4.084495602243658e-12 	101324.9999999922
-0.3315815815815819 	300.000000000025 	4.903205074125885e-12 	101324.9999999922
-0.3290790790790794 	300.0000000000162 	4.136503716082382e-12 	101324.999999992
-0.3265765765765769 	299.9999999999331 	5.173468993544552e-12 	101324.9999999919
-0.3240740740740744 	299.9999999999982 	3.626970682155935e-12 	101324.999999992
-0.3215715715715718 	300.000000000007 	5.699986428570606e-12 	101324.9999999921
-0.3190690690690695 	299.99999999993 	3.446070486110844e-12 	101324.9999999919
-0.3165665665665668 	299.9999999999901 	5.424170123587116e-12 	101324.9999999921
-0.3140640640640644 	300.0000000000014 	2.915641207434886e-12 	101324.9999999921
-0.311561561561562 	299.9999999999291 	6.180888220476836e-12 	101324.9999999919
-0.3090590590590593 	299.9999999999948 	1.640470137381088e-12 	101324.9999999918
-0.3065565565565568 	300.0000000000031 	6.260677200159753e-12 	101324.999999992
-0.3040540540540545 	300.0000000000174 	1.730499482192166e-12 	101324.9999999919
-0.3015515515515518 	300.0000000000301 	5.373016381040598e-12 	101324.9999999917
-0.2990490490490494 	299.999999999946 	1.071118299335198e-12 	101324.9999999918
-0.2965465465465469 	299.9999999999822 	3.43332009859773e-12 	101324.9999999916
-0.2940440440440444 	299.9999999999999 	2.348282749539691e-12 	101324.9999999917
-0.2915415415415418 	299.9999999999997 	4.103889682319639e-12 	101324.9999999916
-0.2890390390390395 	300.0000000000017 	3.563916265122871e-12 	101324.9999999915
-0.2865365365365368 	299.9999999999773 	2.679933090107837e-12 	101324.9999999915
-0.2840340340340343 	300.000000000002 	4.13391559550476e-12 	101324.9999999915
-0.2815315315315318 	299.9999999999304 	1.76980712234726e-12 	101324.9999999915
-0.2790290290290295 	299.9999999999602 	3.12216027591768e-12 	101324.9999999914
-0.2765265265265269 	300.0000000000119 	2.524761710765355e-12 	101324.9999999916
-0.2740240240240244 	300.00000000003 	3.038824232017626e-12 	101324.9999999915
-0.2715215215215219 	300.0000000000128 	3.201564223764899e-12 	101324.9999999915
-0.2690190190190194 	299.9999999999458 	2.868184537770208e-12 	101324.9999999915
-0.2665165165165169 	299.9999999999964 	3.539587179548372e-12 	101324.9999999915
-0.2640140140140144 	299.9999999999708 	1.787346291983582e-12 	101324.9999999914
-0.2615115115115119 	299.9999999999974 	3.484683513346384e-12 	101324.9999999913
-0.2590090090090094 	299.9999999999383 	1.414724090401707e-12 	101324.9999999917
-0.2565065065065068 	299.9999999999938 	2.451324382629365e-12 	101324.9999999917
-0.2540040040040044 	300.0000000000011 	2.261854057038813e-12 	101324.9999999918
-0.2515015015015019 	300.000000000037 	2.005506351734554e-12 	101324.999999992
-0.2489989989989994 	300.0000000000442 	4.153415776269137e-12 	101324.9999999919
-0.2464964964964968 	299.9999999999927 	2.226665571055851e-12 	101324.9999999917
-0.2439939939939944 	299.999999999999 	6.109750789759587e-12 	101324.9999999919
-0.2414914914914919 	299.9999999999762 	2.664465866507579e-12 	101324.9999999917
-0.2389889889889893 	300.0000000000034 	7.059137137148481e-12 	101324.9999999916
-0.2364864864864869 	300.0000000000219 	2.892788793006139e-12 	101324.9999999919
-0.2339839839839843 	299.9999999999289 	6.855280166816464e-12 	101324.9999999916
-0.2314814814814819 	299.9999999999806 	2.455817303086412e-12 	101324.9999999915
-0.2289789789789792 	299.999999999926 	5.462951844318959e-12 	101324.9999999914
-0.2264764764764769 	299.999999999948 	2.757503944021963e-12 	101324.9999999915
-0.2239739739739743 	299.9999999999609 	4.657811959069132e-12 	101324.9999999914
-0.2214714714714718 	299.9999999999412 	3.396963846350623e-12 	101324.9999999913
-0.2189689689689693 	299.9999999999732 	2.836698534141353e-12 	101324.9999999911
-0.2164664664664669 	299.9999999999806 	3.960601186156364e-12 	101324.9999999913
-0.2139639639639643 	299.9999999999332 	1.866346318437833e-12 	101324.9999999915
-0.2114614614614618 	299.9999999999744 	2.404572579387636e-12 	101324.9999999913
-0.2089589589589593 	299.9999999999923 	2.180988184370824e-12 	101324.9999999915
-0.2064564564564568 	299.9999999999907 	2.329650648166665e-12 	101324.9999999917
-0.2039539539539543 	299.9999999999136 	2.736351824233945e-12 	101324.9999999916
-0.2014514514514518 	299.9999999999537 	4.493890777073569e-13 	101324.9999999916
-0.1989489489489494 	299.9999999999758 	2.55219658180218e-12 	101324.9999999917
-0.1964464464464468 	299.9999999999916 	1.198398201405128e-12 	101324.9999999917
-0.1939439439439443 	299.9999999999832 	2.929633786597464e-12 	101324.999999992
-0.1914414414414418 	299.9999999999213 	9.825592946491825e-13 	101324.9999999922
-0.1889389389389393 	300.0000000000058 	2.948173472044351e-12 	101324.9999999921
-0.1864364364364368 	300.0000000000351 	1.810729054857424e-12 	101324.9999999921
-0.1839339339339343 	299.9999999999745 	2.98694468739403e-12 	101324.9999999917
-0.1814314314314318 	299.9999999999957 	1.894514459444595e-12 	101324.9999999917
-0.1789289289289293 	299.9999999999104 	2.507333594504509e-12 	101324.9999999918
-0.1764264264264268 	299.9999999999799 	6.313728430400316e-13 	101324.9999999918
-0.1739239239239243 	299.9999999999029 	3.018605955660712e-12 	101324.9999999917
-0.1714214214214218 	299.9999999999869 	1.042638131369575e-12 	101324.9999999917
-0.1689189189189193 	299.9999999999565 	3.953436530057487e-12 	101324.9999999918
-0.1664164164164168 	300.0000000000083 	1.941286871370738e-12 	101324.9999999919
-0.1639139139139143 	299.9999999999914 	5.919955776191351e-12 	101324.9999999921
-0.1614114114114118 	300.000000000031 	3.067259718396088e-12 	101324.9999999921
-0.1589089089089093 	299.9999999999986 	7.097391800070454e-12 	101324.9999999922
-0.1564064064064068 	299.9999999999891 	4.709659844420314e-12 	101324.9999999923
-0.1539039039039043 	299.9999999999932 	7.65093414868377e-12 	101324.9999999923
-0.1514014014014018 	300.0000000000253 	4.102054333321107e-12 	101324.9999999925
-0.1488988988988993 	299.9999999999977 	6.56853418214496e-12 	101324.9999999923
-0.1463963963963968 	300.0000000000057 	3.114394903012915e-12 	101324.9999999928
-0.1438938938938943 	299.9999999999534 	5.164025757314988e-12 	101324.9999999926
-0.1413913913913918 	299.9999999999296 	1.878943117462495e-12 	101324.9999999927
-0.1388888888888893 	299.9999999999833 	3.335300996122007e-12 	101324.9999999926
-0.1363863863863868 	299.9999999998998 	1.096516928424516e-12 	101324.9999999924
-0.1338838838838843 	299.9999999999256 	2.367003196119236e-12 	101324.9999999925
-0.1313813813813818 	299.9999999999917 	6.779475301268086e-13 	101324.9999999926
-0.1288788788788793 	299.9999999999719 	3.26173702528731e-12 	101324.9999999927
-0.1263763763763768 	299.9999999999712 	5.000126367766234e-13 	101324.9999999923
-0.1238738738738743 	299.9999999999325 	3.264455554679102e-12 	101324.9999999924
-0.1213713713713717 	299.9999999999755 	7.160040013019113e-13 	101324.9999999923
-0.1188688688688693 	300.0000000000047 	3.461156994149155e-12 	101324.9999999924
-0.1163663663663668 	299.9999999999131 	9.847739725503453e-13 	101324.9999999925
-0.1138638638638643 	299.9999999999935 	4.580297862637713e-12 	101324.9999999922
-0.1113613613613618 	299.999999999989 	9.78911431876423e-13 	101324.9999999921
-0.1088588588588592 	299.9999999999799 	5.37521113616948e-12 	101324.9999999919
-0.1063563563563568 	299.9999999999507 	7.455043037501357e-13 	101324.9999999919
-0.1038538538538543 	299.9999999999755 	4.144988426141496e-12 	101324.9999999919
-0.1013513513513517 	300.000000000017 	5.927899518116776e-13 	101324.999999992
-0.09884884884884926 	299.9999999999416 	4.271174577554825e-12 	101324.999999992
-0.09634634634634676 	299.9999999999013 	1.545247973701592e-12 	101324.9999999922
-0.09384384384384425 	299.9999999999333 	3.483433547891294e-12 	101324.9999999918
-0.09134134134134177 	300.0000000000241 	1.13934493885953e-12 	101324.999999992
-0.08883883883883925 	300.000000000006 	2.176941393147481e-12 	101324.9999999921
-0.08633633633633674 	299.9999999999609 	1.117185541603967e-12 	101324.9999999923
-0.08383383383383426 	300.0000000000074 	1.006509841273114e-12 	101324.9999999921
-0.08133133133133173 	299.9999999999687 	1.417368665542745e-12 	101324.9999999922
-0.07882882882882926 	299.9999999998938 	1.844291244392194e-12 	101324.9999999922
-0.07632632632632676 	299.9999999999595 	1.689962214701228e-12 	101324.9999999922
-0.07382382382382424 	299.9999999999009 	1.605982432332785e-12 	101324.9999999921
-0.07132132132132173 	300.0000000000147 	1.316663413946139e-12 	101324.9999999922
-0.06881881881881925 	299.9999999999648 	1.861994277559052e-12 	101324.9999999924
-0.06631631631631671 	299.9999999999039 	1.436233229788053e-12 	101324.9999999928
-0.06381381381381425 	299.9999999999617 	1.303071831300269e-12 	101324.9999999929
-0.06131131131131173 	299.9999999999625 	1.731224294322356e-12 	101324.9999999929
-0.05880880880880923 	299.9999999999175 	1.673788087037826e-12 	101324.9999999929
-0.05630630630630672 	299.9999999999703 	1.607207975290867e-12 	101324.999999993
-0.05380380380380424 	300.0000000000153 	1.409311248155099e-12 	101324.9999999929
-0.05130130130130173 	300.0000000000111 	1.800426635039218e-12 	101324.9999999928
-0.04879879879879922 	299.9999999999451 	2.513862861832092e-12 	101324.9999999929
-0.04629629629629672 	299.9999999999398 	1.930316265762909e-12 	101324.9999999931
-0.04379379379379422 	299.9999999999199 	2.026595306589184e-12 	101324.9999999928
-0.04129129129129173 	299.9999999999827 	1.751556636357146e-12 	101324.999999993
-0.03878878878878922 	299.9999999999873 	2.495693138151145e-12 	101324.9999999927
-0.03628628628628671 	299.9999999999871 	2.031514704771194e-12 	101324.9999999925
-0.03378378378378422 	299.9999999999271 	2.250007308071162e-12 	101324.9999999923
-0.03128128128128172 	299.9999999999653 	1.288059575870817e-12 	101324.9999999922
-0.02877877877877922 	299.9999999999642 	1.827853679493724e-12 	101324.999999992
-0.0262762762762767 	299.9999999999072 	1.401033520925279e-12 	101324.9999999917
-0.02377377377377422 	300.0000000000194 	1.305834705802925e-12 	101324.9999999915
-0.0212712712712717 	299.9999999999105 	1.829033799808652e-12 	101324.9999999916
-0.01876876876876921 	299.9999999999718 	2.371440967183225e-12 	101324.9999999914
-0.01626626626626671 	300.0000000000119 	3.119371406645252e-12 	101324.9999999912
-0.0137637637637642 	299.9999999999662 	2.415419492067255e-12 	101324.9999999909
-0.0112612612612617 	300.0000000000151 	2.045501955319821e-12 	101324.9999999912
-0.008758758758759198 	299.9999999999957 	1.214360594003543e-12 	101324.9999999917
-0.006256256256256697 	299.9999999998913 	5.678128294282117e-13 	101324.9999999923
-0.003753753753754195 	299.9999999999599 	5.391849385648451e-13 	101324.9999999921
-0.001251251251251693 	299.9999999999349 	2.523644905500093e-13 	101324.9999999921
0.00125125125125081 	299.999999999959 	8.16600507498768e-13 	101324.999999992
0.003753753753753312 	299.9999999999644 	6.572933047270915e-13 	101324.9999999922
0.006256256256255817 	299.999999999897 	9.550893726306122e-13 	101324.9999999921
0.008758758758758317 	299.9999999999864 	7.589854836685341e-13 	101324.9999999921
0.01126126126126082 	300.000000000003 	6.458861035526125e-13 	101324.9999999923
0.01376376376376332 	299.9999999999737 	1.039855387879913e-12 	101324.9999999925
0.01626626626626582 	300.0000000000107 	1.094281782547995e-12 	101324.9999999926
0.01876876876876833 	299.9999999999578 	7.880930832632656e-13 	101324.9999999927
0.02127127127127083 	299.9999999999702 	8.075009157249215e-13 	101324.9999999931
0.02377377377377332 	299.9999999999973 	6.436580873276702e-13 	101324.9999999928
0.02627627627627583 	299.9999999999082 	2.526228300707716e-13 	101324.9999999929
0.02877877877877833 	300.0000000000086 	7.839709052438034e-13 	101324.9999999928
0.03128128128128083 	299.9999999999533 	1.439070166891479e-13 	101324.9999999923
0.03378378378378333 	299.9999999999069 	1.082093842339289e-12 	101324.9999999919
0.03628628628628584 	299.9999999999722 	6.37304720564753e-13 	101324.9999999919
0.03878878878878834 	299.9999999999843 	3.626674492330943e-13 	101324.9999999916
0.04129129129129084 	299.9999999999826 	1.644276506267207e-14 	101324.9999999915
0.04379379379379333 	299.9999999999495 	1.40623413794442e-13 	101324.9999999913
0.04629629629629585 	299.9999999998966 	2.538464660685933e-13 	101324.9999999915
0.04879879879879834 	299.9999999999598 	1.808432040609626e-12 	101324.9999999915
0.05130130130130085 	300.000000000013 	1.709025063596886e-12 	101324.9999999915
0.05380380380380335 	300.0000000000188 	1.359140849312176e-12 	101324.9999999915
0.05630630630630584 	299.9999999999969 	8.693813000107176e-13 	101324.9999999917
0.05880880880880836 	299.9999999999272 	1.532393530605341e-12 	101324.9999999918
0.06131131131131085 	299.999999999969 	1.223412328901591e-12 	101324.9999999917
0.06381381381381336 	299.9999999999636 	1.486673692135838e-12 	101324.9999999919
0.06631631631631586 	299.9999999998982 	1.835670123425427e-12 	101324.999999992
0.06881881881881835 	299.9999999999625 	3.096775696582753e-12 	101324.999999992
0.07132132132132088 	299.9999999999865 	2.705257643842085e-12 	101324.9999999917
0.07382382382382337 	299.9999999999032 	2.800890420459083e-12 	101324.9999999919
0.07632632632632587 	299.9999999999715 	2.171948196040154e-12 	101324.999999992
0.07882882882882837 	299.9999999999421 	2.242778746157787e-12 	101324.9999999921
0.08133133133133086 	299.9999999999821 	2.209373097097134e-12 	101324.9999999917
0.08383383383383337 	299.999999999987 	1.725270872857508e-12 	101324.9999999916
0.08633633633633589 	299.9999999999101 	1.360002520234664e-12 	101324.9999999916
0.08883883883883838 	300.0000000000036 	1.96813906003516e-12 	101324.9999999918
0.09134134134134086 	299.9999999999753 	1.589287030956088e-12 	101324.9999999918
0.09384384384384339 	299.9999999998996 	1.991282186794248e-12 	101324.9999999915
0.09634634634634588 	299.9999999999654 	2.276324174913405e-12 	101324.9999999912
0.09884884884884838 	299.9999999999768 	2.850363833904576e-12 	101324.999999991
0.1013513513513509 	300.0000000000201 	2.823852909751726e-12 	101324.9999999912
0.1038538538538534 	299.9999999999605 	2.779022641807463e-12 	101324.9999999917
0.1063563563563559 	300.0000000000044 	2.723447539684303e-12 	101324.9999999915
0.1088588588588584 	300.0000000000231 	1.494292719163513e-12 	101324.9999999914
0.1113613613613609 	299.9999999999302 	1.709388170529228e-12 	101324.9999999911
0.1138638638638634 	299.9999999999454 	2.271889501580759e-12 	101324.9999999913
0.1163663663663659 	299.9999999999485 	2.481873833840374e-12 	101324.9999999914
0.1188688688688684 	299.9999999999766 	2.84122911878878e-12 	101324.9999999917
0.1213713713713709 	300.0000000000005 	2.787459557235804e-12 	101324.9999999922
0.1238738738738734 	299.9999999999325 	3.43112755101964e-12 	101324.9999999924
0.1263763763763759 	299.9999999999862 	2.928299912899794e-12 	101324.9999999923
0.1288788788788784 	299.9999999999864 	2.703567164817823e-12 	101324.9999999921
0.1313813813813809 	299.9999999999829 	2.459310703679218e-12 	101324.999999992
0.1338838838838834 	299.9999999999748 	2.620899240724486e-12 	101324.9999999921
0.1363863863863859 	300.0000000000153 	2.300051424621622e-12 	101324.9999999922
0.1388888888888884 	300.0000000000418 	2.818827992017839e-12 	101324.9999999921
0.1413913913913909 	300.0000000000029 	2.454338275063607e-12 	101324.9999999919
0.1438938938938934 	299.9999999999941 	3.148803179502976e-12 	101324.999999992
0.1463963963963959 	299.9999999999567 	2.064298275220356e-12 	101324.9999999919
0.1488988988988985 	299.9999999999172 	3.824323903624426e-12 	101324.999999992
0.1514014014014009 	299.9999999999708 	2.528628853501246e-12 	101324.9999999918
0.1539039039039035 	299.9999999999687 	4.884633629436235e-12 	101324.9999999919
0.1564064064064059 	299.9999999999343 	3.25068485687221e-12 	101324.9999999916
0.1589089089089084 	299.9999999999745 	7.284926359423959e-12 	101324.9999999915
0.1614114114114109 	299.9999999999714 	4.532220205442613e-12 	101324.9999999915
0.1639139139139134 	299.9999999999145 	6.628177206678814e-12 	101324.9999999914
0.166416416416416 	300.0000000000042 	6.485975919267433e-12 	101324.9999999913
0.1689189189189185 	300.0000000000285 	5.99275147808816e-12 	101324.9999999912
0.1714214214214209 	300.0000000000009 	6.117782385249773e-12 	101324.9999999913
0.1739239239239235 	299.999999999987 	4.547158187277203e-12 	101324.9999999915
0.1764264264264259 	299.9999999999733 	6.321175475321655e-12 	101324.9999999916
0.1789289289289284 	300.0000000000004 	3.409572685104959e-12 	101324.9999999917
0.181431431431431 	299.9999999999609 	5.385985559091101e-12 	101324.9999999915
0.1839339339339334 	299.9999999999657 	2.997498744106952e-12 	101324.9999999916
0.186436436436436 	299.9999999999367 	4.244897388770638e-12 	101324.9999999917
0.1889389389389385 	299.999999999973 	4.011359777211387e-12 	101324.9999999919
0.191441441441441 	299.9999999999771 	3.870136730960332e-12 	101324.9999999918
0.1939439439439434 	299.9999999999258 	5.168447474330656e-12 	101324.9999999918
0.196446446446446 	299.999999999952 	3.587420179585382e-12 	101324.9999999921
0.1989489489489485 	299.9999999999617 	5.241612295640933e-12 	101324.999999992
0.2014514514514509 	299.9999999999869 	3.23811889526197e-12 	101324.9999999921
0.2039539539539535 	299.9999999999931 	4.757242432968762e-12 	101324.999999992
0.2064564564564559 	299.9999999999575 	4.121686734122894e-12 	101324.9999999917
0.2089589589589585 	299.9999999999891 	4.215379770362175e-12 	101324.9999999921
0.211461461461461 	299.9999999999291 	4.01764188090406e-12 	101324.9999999919
0.2139639639639635 	299.9999999999758 	3.759976512092698e-12 	101324.999999992
0.2164664664664659 	300.0000000000035 	5.110695579408376e-12 	101324.9999999916
0.2189689689689684 	299.9999999999998 	2.894162097006667e-12 	101324.9999999915
0.221471471471471 	299.9999999999942 	4.723109848510458e-12 	101324.9999999916
0.2239739739739735 	299.9999999999623 	2.434917043912266e-12 	101324.9999999917
0.226476476476476 	299.9999999999809 	3.440623371809472e-12 	101324.9999999916
0.2289789789789785 	299.9999999999926 	1.941280656613981e-12 	101324.9999999918
0.231481481481481 	299.9999999999892 	1.989482406192358e-12 	101324.9999999917
0.2339839839839835 	299.9999999999869 	2.263041888136358e-12 	101324.9999999916
0.236486486486486 	300.0000000000281 	1.45845249544356e-12 	101324.9999999916
0.2389889889889885 	300.0000000000077 	2.938100653393479e-12 	101324.9999999917
0.241491491491491 	299.9999999999231 	1.534919740289547e-12 	101324.9999999919
0.2439939939939935 	299.9999999999758 	4.355446320394921e-12 	101324.9999999919
0.246496496496496 	299.9999999999927 	1.956346975063081e-12 	101324.999999992
0.2489989989989985 	300.0000000000383 	3.679950756054469e-12 	101324.999999992
0.251501501501501 	300.0000000000317 	2.81164227303496e-12 	101324.9999999919
0.2540040040040035 	299.999999999997 	2.885514423870656e-12 	101324.9999999918
0.256506506506506 	300.0000000000298 	3.242520992723429e-12 	101324.9999999917
0.2590090090090086 	299.9999999999237 	1.64745631099085e-12 	101324.9999999918
0.261511511511511 	300.0000000000014 	3.773142682870869e-12 	101324.9999999919
0.2640140140140135 	299.9999999999927 	1.317931477251047e-12 	101324.9999999917
0.2665165165165161 	299.9999999999341 	3.101968801782136e-12 	101324.9999999916
0.2690190190190185 	300.0000000000115 	1.877498014851451e-12 	101324.9999999916
0.271521521521521 	300.0000000000196 	1.831876714019503e-12 	101324.9999999917
0.2740240240240235 	300.000000000023 	1.89508372130227e-12 	101324.9999999919
0.276526526526526 	300.0000000000142 	7.261683138139772e-13 	101324.9999999917
0.2790290290290286 	299.9999999999474 	1.843664751223251e-12 	101324.9999999918
0.281531531531531 	299.9999999999363 	5.346795406330558e-13 	101324.9999999916
0.2840340340340335 	299.9999999999829 	2.51081196224127e-12 	101324.9999999915
0.2865365365365361 	299.999999999964 	1.175402874748675e-12 	101324.9999999913
0.2890390390390385 	299.9999999999978 	1.649190927519628e-12 	101324.9999999912
0.291541541541541 	299.9999999999969 	9.531921351198479e-13 	101324.9999999911
0.2940440440440436 	299.9999999999915 	3.729571393102944e-13 	101324.9999999912
0.296546546546546 	299.9999999999955 	1.633609762669703e-12 	101324.9999999913
0.2990490490490486 	299.9999999999442 	1.58818299068303e-12 	101324.9999999916
0.3015515515515511 	300.0000000000317 	3.673643843822809e-12 	101324.9999999913
0.3040540540540535 	299.999999999998 	3.012027294983083e-12 	101324.9999999911
0.3065565565565562 	299.9999999999995 	3.998789623400087e-12 	101324.9999999911
0.3090590590590585 	299.9999999999922 	2.752002427874065e-12 	101324.9999999909
0.3115615615615611 	299.9999999999469 	2.806162476738807e-12 	101324.9999999907
0.3140640640640635 	300.0000000000065 	9.677046189007735e-13 	101324.9999999907
0.316566566566566 	299.9999999999974 	2.754636645565219e-12 	101324.9999999906
0.3190690690690687 	299.9999999999566 	8.770411057367701e-13 	101324.9999999907
0.3215715715715711 	300.0000000000101 	3.391682342228349e-12 	101324.9999999911
0.3240740740740735 	299.9999999999971 	1.344173762411365e-12 	101324.9999999912
0.326576576576576 	299.9999999999067 	3.329621964156144e-12 	101324.9999999913
0.3290790790790786 	300.0000000000108 	2.434649512721001e-12 	101324.9999999916
0.3315815815815811 	300.000000000036 	3.47780542977207e-12 	101324.999999992
0.3340840840840836 	299.9999999999868 	2.054771812881188e-12 	101324.9999999918
0.3365865865865861 	300.0000000000489 	2.552110218585135e-12 	101324.9999999916
0.3390890890890886 	300.0000000000464 	6.864118639633345e-13 	101324.9999999916
0.3415915915915911 	300.0000000000012 	1.920166815732592e-12 	101324.9999999916
0.3440940940940935 	299.9999999999606 	5.725596965079928e-13 	101324.9999999915
0.3465965965965962 	300.0000000000322 	2.375070006590631e-12 	101324.9999999914
0.3490990990990985 	300.0000000000263 	8.612534146859022e-13 	101324.9999999913
0.3516016016016011 	299.9999999999894 	1.316618339552772e-12 	101324.9999999911
0.3541041041041035 	300.0000000000049 	1.02161198192304e-12 	101324.9999999911
0.3566066066066061 	299.9999999999598 	6.976520999374922e-13 	101324.9999999911
0.3591091091091085 	299.9999999999243 	1.77534903015283e-12 	101324.999999991
0.3616116116116112 	299.9999999999484 	9.623653523214925e-13 	101324.9999999911
0.3641141141141137 	299.9999999999392 	2.377260687944741e-12 	101324.9999999912
0.3666166166166161 	299.9999999999303 	1.625659700394782e-12 	101324.9999999912
0.3691191191191185 	300.0000000000345 	3.628780616901426e-12 	101324.9999999911
0.371621621621621 	300.0000000000109 	1.836704607853175e-12 	101324.999999991
0.3741241241241237 	300.0000000000458 	2.728043004624662e-12 	101324.9999999908
0.3766266266266261 	300.0000000000265 	5.431148863271155e-13 	101324.9999999908
0.3791291291291286 	299.9999999999873 	2.843410768010665e-12 	101324.9999999909
0.3816316316316311 	299.9999999999241 	8.692721104836825e-13 	101324.9999999908
0.3841341341341336 	300.0000000000121 	2.141206196818214e-12 	101324.9999999906
0.3866366366366362 	299.9999999999984 	5.888894369657107e-13 	101324.9999999904
0.3891391391391387 	299.9999999999624 	2.03751327866942e-12 	101324.9999999905
0.391641641641641 	299.9999999999966 	5.920224550224972e-13 	101324.9999999907
0.3941441441441436 	300.0000000000055 	8.636925080807008e-13 	101324.9999999905
0.3966466466466462 	299.9999999999977 	8.484501711024436e-13 	101324.9999999903
0.3991491491491486 	299.9999999999495 	5.936553534906443e-13 	101324.9999999904
0.4016516516516512 	299.9999999999201 	8.304086576747483e-13 	101324.9999999905
0.4041541541541536 	299.9999999999571 	1.313214638458487e-12 	101324.9999999908
0.4066566566566561 	299.9999999999507 	9.29246858845397e-13 	101324.9999999913
0.4091591591591587 	299.9999999999839 	1.169526696598945e-12 	101324.9999999915
0.4116616616616612 	299.999999999994 	3.327565102750016e-13 	101324.9999999914
0.4141641641641635 	300.0000000000423 	1.094097682627946e-13 	101324.9999999915
0.4166666666666662 	299.9999999999996 	3.178450533531125e-13 	101324.9999999913
0.4191691691691687 	299.9999999999488 	1.372340986235758e-12 	101324.9999999913
0.421671671671671 	300.0000000000098 	1.713592704321852e-12 	101324.9999999912
0.4241741741741737 	299.9999999999829 	2.727678018515035e-12 	101324.9999999911
0.4266766766766761 	299.9999999999575 	1.864560475146283e-12 	101324.9999999912
0.4291791791791785 	300.0000000000193 	3.661447835127965e-12 	101324.9999999911
0.4316816816816812 	300.0000000000118 	2.092100194480544e-12 	101324.9999999911
0.4341841841841836 	299.9999999999878 	3.422773507568655e-12 	101324.9999999912
0.4366866866866862 	299.9999999999247 	9.606066309465543e-13 	101324.9999999913
0.4391891891891885 	299.9999999999869 	2.953736927757202e-12 	101324.9999999913
0.4416916916916913 	299.9999999999807 	9.085961957312593e-13 	101324.9999999912
0.4441941941941936 	299.9999999999887 	2.355785509945289e-12 	101324.9999999911
0.4466966966966961 	299.9999999999242 	8.343846956834489e-13 	101324.9999999911
0.4491991991991987 	299.9999999999806 	1.117276016142228e-12 	101324.9999999911
0.4517017017017012 	299.9999999999834 	8.444591377325945e-13 	101324.9999999911
0.4542042042042035 	299.9999999999952 	6.880539083582301e-13 	101324.9999999914
0.4567067067067062 	299.9999999999962 	5.481216577558133e-13 	101324.9999999916
0.4592092092092087 	299.9999999999346 	5.195947861550263e-13 	101324.9999999914
0.4617117117117112 	300.0000000000167 	4.351228130547176e-13 	101324.9999999913
0.4642142142142137 	299.9999999999666 	3.378840483830887e-13 	101324.9999999911
0.4667167167167162 	299.9999999999923 	5.673466091225624e-13 	101324.9999999913
0.4692192192192187 	299.999999999962 	2.64024632654308e-13 	101324.9999999912
0.4717217217217212 	300.0000000000107 	1.841864692250413e-13 	101324.9999999912
0.4742242242242236 	299.9999999999593 	5.549884801819475e-13 	101324.999999991
0.4767267267267262 	299.9999999999735 	4.268128191444082e-13 	101324.9999999908
0.4792292292292287 	300.0000000000131 	3.727507153383982e-13 	101324.9999999907
0.4817317317317312 	300.0000000000252 	5.958635891970059e-13 	101324.9999999906
0.4842342342342336 	299.9999999999868 	2.213123991107351e-13 	101324.9999999905
0.4867367367367362 	299.9999999999576 	9.787881410875775e-13 	101324.9999999907
0.4892392392392387 	300.0000000000275 	7.763060771522751e-13 	101324.999999991
0.4917417417417412 	300.0000000000065 	1.924065251187598e-12 	101324.9999999913
0.4942442442442437 	299.9999999999212 	8.96621989585131e-13 	101324.9999999914
0.4967467467467462 	299.9999999999354 	1.977622353812166e-12 	101324.9999999911
0.4992492492492487 	299.9999999999254 	1.07088394209635e-12 	101324.9999999913
0.5017517517517511 	299.9999999999577 	1.233922765201884e-12 	101324.9999999914
0.5042542542542537 	299.9999999999704 	1.150224801729156e-12 	101324.9999999915
0.5067567567567562 	299.9999999999557 	1.813633816375856e-12 	101324.9999999915
0.5092592592592589 	299.9999999999739 	1.996070388932215e-12 	101324.9999999915
0.5117617617617611 	299.9999999999642 	1.681012279855327e-12 	101324.9999999913
0.5142642642642637 	299.9999999999844 	3.29217800055866e-12 	101324.9999999912
0.5167667667667663 	299.9999999999713 	1.449092521439477e-12 	101324.9999999913
0.5192692692692688 	299.9999999999278 	4.273203028267477e-12 	101324.9999999914
0.5217717717717714 	299.9999999999477 	2.71867523891402e-12 	101324.9999999915
0.5242742742742736 	299.999999999946 	3.657001589083968e-12 	101324.9999999916
0.5267767767767763 	299.999999999962 	1.655953386181199e-12 	101324.9999999917
0.5292792792792789 	299.999999999945 	3.296642822443337e-12 	101324.9999999917
0.5317817817817813 	299.9999999999187 	9.158396525120525e-13 	101324.9999999915
0.5342842842842837 	300.0000000000131 	1.684208834923366e-12 	101324.9999999915
0.5367867867867864 	299.9999999999995 	9.166587445377039e-13 	101324.9999999916
0.5392892892892888 	299.9999999999621 	1.509303140875019e-12 	101324.9999999914
0.5417917917917912 	300.0000000000032 	8.093384293300031e-13 	101324.9999999912
0.5442942942942938 	299.9999999999851 	9.92826353228617e-13 	101324.9999999911
0.5467967967967964 	299.9999999999591 	5.219546927700074e-13 	101324.9999999914
0.5492992992992988 	299.9999999999519 	1.130687008140806e-12 	101324.9999999916
0.5518018018018012 	299.9999999999495 	6.102456910671782e-13 	101324.9999999916
0.5543043043043039 	300.0000000000152 	1.006236528508175e-12 	101324.9999999915
0.5568068068068063 	299.9999999999909 	8.229677991252207e-13 	101324.9999999915
0.5593093093093087 	299.9999999999205 	1.42041712322086e-12 	101324.9999999915
0.5618118118118114 	299.999999999966 	1.322005419180208e-12 	101324.9999999917
0.5643143143143137 	299.9999999999555 	3.502442597512294e-13 	101324.9999999918
0.5668168168168163 	299.9999999999949 	3.143619375959105e-13 	101324.9999999919
0.5693193193193188 	300.0000000000319 	6.104733916906817e-13 	101324.999999992
0.5718218218218213 	300.0000000000271 	1.291021369435683e-12 	101324.9999999921
0.5743243243243239 	300.0000000000096 	1.10018112614239e-12 	101324.9999999921
0.5768268268268262 	300.0000000000026 	2.479481540370922e-12 	101324.999999992
0.5793293293293288 	299.9999999999502 	1.754515781124512e-12 	101324.9999999918
0.5818318318318314 	299.9999999999265 	3.303093632204356e-12 	101324.9999999918
0.5843343343343338 	299.9999999999829 	2.587899037796465e-12 	101324.9999999916
0.5868368368368363 	299.9999999999773 	2.687003923429199e-12 	101324.9999999913
0.5893393393393387 	299.9999999999525 	2.098577120243847e-12 	101324.9999999911
0.5918418418418413 	299.9999999999485 	1.805918712559233e-12 	101324.9999999911
0.5943443443443439 	300.0000000000141 	1.931463790747377e-12 	101324.999999991
0.5968468468468463 	300.0000000000136 	1.121003758712342e-12 	101324.999999991
0.5993493493493487 	300.000000000029 	1.338618080347169e-12 	101324.9999999913
0.6018518518518514 	299.9999999999847 	8.834321491974769e-13 	101324.9999999913
0.6043543543543537 	299.999999999997 	1.080079396241407e-12 	101324.9999999913
0.6068568568568564 	299.9999999999855 	1.091067260951947e-12 	101324.9999999914
0.6093593593593587 	299.9999999999399 	6.750382680386222e-13 	101324.9999999916
0.6118618618618614 	299.9999999999362 	1.115421017444927e-12 	101324.9999999918
0.6143643643643638 	300.0000000000157 	1.17339979041541e-12 	101324.9999999919
0.6168668668668662 	299.9999999999926 	1.981010485205902e-12 	101324.999999992
0.6193693693693688 	299.9999999999667 	8.428001984068381e-13 	101324.9999999921
0.6218718718718714 	299.9999999999683 	2.005254428553282e-12 	101324.9999999922
0.6243743743743737 	299.9999999999441 	9.334531241406819e-13 	101324.9999999924
0.6268768768768762 	299.9999999999363 	9.260899069507554e-13 	101324.9999999924
0.629379379379379 	299.9999999999634 	3.359378294191035e-13 	101324.9999999922
0.6318818818818812 	299.999999999979 	4.108714438984364e-13 	101324.999999992
0.6343843843843838 	300.0000000000143 	7.469963370539957e-13 	101324.9999999923
0.6368868868868864 	299.9999999999832 	1.437158346694844e-12 	101324.9999999925
0.6393893893893888 	299.9999999999313 	2.536206039391455e-12 	101324.9999999926
0.6418918918918912 	300.0000000000018 	2.587032798116524e-12 	101324.9999999927
0.6443943943943939 	299.9999999999776 	3.504790606238257e-12 	101324.9999999927
0.6468968968968963 	299.9999999999855 	3.436472333061985e-12 	101324.9999999928
0.6493993993993988 	299.9999999999782 	2.790883854146901e-12 	101324.9999999925
0.6519019019019012 	299.9999999999797 	3.20478235065121e-12 	101324.9999999923
0.6544044044044038 	299.9999999999137 	2.278688617204212e-12 	101324.9999999923
0.6569069069069065 	299.9999999999529 	2.656784212442643e-12 	101324.9999999921
0.6594094094094087 	299.9999999999649 	1.794308938584704e-12 	101324.999999992
0.6619119119119113 	299.9999999999594 	1.8992356174045e-12 	101324.9999999921
0.664414414414414 	300.0000000000031 	1.095747869948517e-12 	101324.9999999922
0.6669169169169162 	300.0000000000176 	1.412702147791517e-12 	101324.9999999921
0.6694194194194188 	299.9999999999895 	9.56947519729849e-13 	101324.9999999921
0.6719219219219214 	299.9999999999304 	1.700981715967804e-12 	101324.9999999921
0.674424424424424 	299.9999999999752 	8.911219747944425e-13 	101324.9999999924
0.6769269269269262 	299.9999999999286 	1.629102697418258e-12 	101324.9999999925
0.679429429429429 	300.0000000000013 	9.273371617641741e-13 	101324.9999999927
0.6819319319319311 	299.9999999999808 	1.718184829078692e-12 	101324.9999999929
0.6844344344344341 	299.9999999999951 	1.066620750189871e-12 	101324.9999999932
0.686936936936936 	299.9999999999913 	1.929549070160384e-12 	101324.9999999933
0.6894394394394392 	299.9999999999879 	1.62307005607063e-12 	101324.9999999932
0.6919419419419413 	299.999999999985 	2.163286049819576e-12 	101324.9999999934
0.694444444444444 	299.9999999999371 	2.219165716865534e-12 	101324.9999999932
0.6969469469469463 	299.999999999938 	2.235293738131083e-12 	101324.9999999929
0.6994494494494489 	299.9999999999339 	2.929831357492255e-12 	101324.9999999931
0.7019519519519515 	299.9999999999899 	1.832406504865618e-12 	101324.9999999931
0.7044544544544538 	299.9999999999612 	2.95665701878492e-12 	101324.9999999932
0.7069569569569564 	299.9999999999993 	1.387322048495523e-12 	101324.9999999933
0.7094594594594589 	299.9999999999729 	2.457160027535716e-12 	101324.9999999933
0.7119619619619615 	299.9999999999228 	8.757429305074466e-13 	101324.9999999932
0.7144644644644638 	299.999999999957 	1.861909418807865e-12 	101324.9999999932
0.7169669669669665 	299.9999999999319 	9.003128144334786e-13 	101324.9999999931
0.7194694694694688 	299.9999999999936 	1.790553799454537e-12 	101324.9999999933
0.7219719719719715 	299.999999999988 	1.134745024412197e-12 	101324.9999999934
0.7244744744744737 	300.0000000000032 	1.585054148744123e-12 	101324.9999999935
0.7269769769769764 	299.9999999999953 	1.584113797514843e-12 	101324.9999999937
0.7294794794794791 	299.9999999999901 	1.08625155595517e-12 	101324.9999999938
0.7319819819819813 	299.9999999999864 	2.275573992472119e-12 	101324.9999999936
0.7344844844844839 	299.9999999999316 	1.417853521729772e-12 	101324.9999999937
0.7369869869869864 	299.9999999999592 	2.689179516308993e-12 	101324.9999999937
0.739489489489489 	299.999999999947 	2.797012446659577e-12 	101324.9999999936
0.7419919919919914 	299.9999999999342 	2.908079816524509e-12 	101324.9999999939
0.7444944944944939 	299.9999999999792 	3.423741209552131e-12 	101324.9999999943
0.7469969969969963 	299.999999999978 	1.880146643806969e-12 	101324.9999999949
0.7494994994994989 	299.99999999995 	3.382448304424033e-12 	101324.999999995
0.7520020020020015 	299.9999999999749 	1.752085462289507e-12 	101324.9999999949
0.7545045045045039 	299.9999999999708 	3.30763296823574e-12 	101324.9999999946
0.7570070070070062 	299.9999999999484 	1.756823662443855e-12 	101324.9999999946
0.7595095095095092 	299.9999999999421 	3.231494455861085e-12 	101324.9999999945
0.7620120120120112 	300.0000000000082 	2.386603259568737e-12 	101324.9999999942
0.7645145145145138 	299.999999999994 	2.431139413728393e-12 	101324.999999994
0.7670170170170165 	299.9999999999413 	2.492292279827939e-12 	101324.999999994
0.7695195195195191 	299.9999999999346 	1.53253726736891e-12 	101324.9999999943
0.7720220220220213 	299.9999999999415 	2.607259343452191e-12 	101324.9999999944
0.7745245245245239 	299.9999999999403 	9.006261418815516e-13 	101324.9999999946
0.7770270270270263 	299.9999999999725 	2.216826800829924e-12 	101324.9999999948
0.779529529529529 	299.9999999999874 	1.423907438287427e-12 	101324.999999995
0.7820320320320313 	299.9999999999753 	2.185667326674867e-12 	101324.9999999951
0.784534534534534 	300.0000000000005 	2.524459968742948e-12 	101324.9999999951
0.7870370370370364 	299.9999999999976 	2.610778427417305e-12 	101324.9999999949
0.7895395395395389 	299.9999999999853 	4.059491524632672e-12 	101324.9999999949
0.7920420420420413 	299.9999999999844 	3.91687469248137e-12 	101324.999999995
0.794544544544544 	299.9999999999823 	6.23043419523919e-12 	101324.9999999951
0.7970470470470463 	300.0000000000023 	4.764269576785608e-12 	101324.9999999952
0.799549549549549 	299.9999999999856 	7.379123986522384e-12 	101324.9999999952
0.8020520520520515 	299.9999999999873 	5.085697200702344e-12 	101324.9999999952
0.8045545545545539 	299.9999999999503 	7.166998918714859e-12 	101324.9999999953
0.8070570570570563 	299.9999999999844 	6.210872122961164e-12 	101324.9999999952
0.8095595595595589 	299.9999999999598 	6.580560562651167e-12 	101324.9999999952
0.8120620620620614 	299.9999999999446 	6.274260681698928e-12 	101324.9999999954
0.8145645645645638 	300.0000000000003 	5.868255147390348e-12 	101324.9999999955
0.8170670670670666 	299.9999999999966 	6.575901910341894e-12 	101324.9999999954
0.8195695695695689 	299.9999999999807 	5.25030601728612e-12 	101324.9999999955
0.8220720720720714 	299.9999999999513 	6.676356534355749e-12 	101324.9999999954
0.8245745745745739 	299.9999999999989 	4.480436154771037e-12 	101324.9999999952
0.8270770770770765 	299.999999999978 	5.970975672472181e-12 	101324.9999999951
0.8295795795795788 	299.9999999999586 	5.35012405899258e-12 	101324.9999999949
0.8320820820820815 	300.0000000000115 	6.074459006103423e-12 	101324.9999999949
0.834584584584584 	300.0000000000041 	5.771316421731626e-12 	101324.999999995
0.8370870870870865 	299.9999999999692 	5.243876260230447e-12 	101324.9999999949
0.8395895895895891 	299.9999999999393 	4.935680973316863e-12 	101324.9999999947
0.8420920920920915 	299.9999999999553 	4.012371464966697e-12 	101324.9999999947
0.844594594594594 	299.9999999999492 	4.311694545704214e-12 	101324.9999999949
0.8470970970970964 	299.9999999999555 	4.898398428786582e-12 	101324.9999999951
0.8495995995995991 	299.9999999999938 	5.24594660320919e-12 	101324.9999999952
0.8521021021021015 	299.9999999999835 	6.021676038300565e-12 	101324.9999999952
0.8546046046046039 	299.9999999999736 	5.877634989334215e-12 	101324.9999999953
0.8571071071071066 	299.9999999999952 	7.509871831513926e-12 	101324.9999999953
0.8596096096096089 	299.9999999999671 	5.889458453554766e-12 	101324.9999999953
0.8621121121121116 	299.9999999999419 	8.343501059461061e-12 	101324.9999999953
0.8646146146146139 	299.9999999999969 	5.730355366166392e-12 	101324.9999999953
0.8671171171171166 	299.9999999999808 	6.180547649726415e-12 	101324.9999999951
0.8696196196196189 	299.9999999999558 	4.511848710034018e-12 	101324.999999995
0.8721221221221216 	299.9999999999794 	5.059757396828594e-12 	101324.9999999951
0.874624624624624 	300.0000000000081 	5.237167700787035e-12 	101324.999999995
0.8771271271271264 	300.0000000000031 	5.991541468695796e-12 	101324.999999995
0.879629629629629 	299.9999999999995 	7.108454395648084e-12 	101324.999999995
0.8821321321321317 	299.9999999999827 	6.028747209649499e-12 	101324.999999995
0.8846346346346339 	299.9999999999377 	9.126928780291982e-12 	101324.9999999948
0.8871371371371364 	299.9999999999643 	7.754650724478082e-12 	101324.9999999948
0.8896396396396391 	299.9999999999674 	9.826854139529585e-12 	101324.9999999948
0.8921421421421414 	299.9999999999728 	9.089442443075111e-12 	101324.9999999949
0.8946446446446441 	299.9999999999892 	1.020668638106854e-11 	101324.999999995
0.8971471471471464 	300.0000000000039 	9.744328161007603e-12 	101324.9999999949
0.8996496496496489 	299.9999999999816 	9.733954044683214e-12 	101324.9999999951
0.9021521521521517 	299.9999999999631 	1.111694227440606e-11 	101324.9999999956
0.9046546546546541 	299.9999999999902 	1.05375753168872e-11 	101324.999999996
0.9071571571571564 	299.9999999999545 	1.074527928045257e-11 	101324.999999996
0.9096596596596589 	299.9999999999522 	1.046060682651269e-11 	101324.9999999958
0.9121621621621616 	300.0000000000069 	1.083866537691981e-11 	101324.9999999956
0.9146646646646639 	299.9999999999822 	1.10841622898524e-11 	101324.9999999958
0.9171671671671666 	299.999999999954 	1.10174367077998e-11 	101324.999999996
0.9196696696696689 	300.0000000000006 	1.074464037301522e-11 	101324.999999996
0.9221721721721714 	300.0000000000018 	8.312318863954712e-12 	101324.999999996
0.9246746746746741 	299.9999999999519 	1.033536061615113e-11 	101324.9999999962
0.9271771771771765 	299.9999999999598 	8.211565922777718e-12 	101324.9999999964
0.9296796796796791 	299.9999999999961 	9.544803861200665e-12 	101324.9999999965
0.9321821821821816 	299.9999999999719 	8.148205460916224e-12 	101324.9999999967
0.9346846846846838 	299.9999999999557 	9.22522041446453e-12 	101324.9999999966
0.9371871871871866 	300.0000000000119 	9.521305317044957e-12 	101324.9999999965
0.9396896896896891 	300.0000000000123 	9.716288025059444e-12 	101324.9999999967
0.9421921921921914 	300.0000000000098 	9.638981914831556e-12 	101324.9999999969
0.9446946946946939 	299.9999999999729 	8.24943067856907e-12 	101324.9999999972
0.9471971971971965 	299.9999999999328 	1.031076257467505e-11 	101324.9999999972
0.9496996996996991 	299.9999999999669 	8.898282454352137e-12 	101324.9999999967
0.9522022022022016 	299.999999999981 	1.088814363127328e-11 	101324.9999999964
0.9547047047047038 	299.9999999999808 	1.047259768847579e-11 	101324.9999999962
0.9572072072072064 	299.9999999999698 	1.191578379557673e-11 	101324.9999999959
0.9597097097097093 	299.9999999999685 	1.150547949023145e-11 	101324.9999999958
0.9622122122122114 	299.9999999999604 	1.130556263757521e-11 	101324.9999999957
0.964714714714714 	299.999999999958 	1.257266947004792e-11 	101324.9999999955
0.9672172172172167 	299.9999999999658 	1.212481432406092e-11 	101324.9999999959
0.969719719719719 	299.9999999999873 	1.291781368104904e-11 	101324.9999999962
0.9722222222222214 	299.9999999999811 	1.250432981219884e-11 	101324.999999996
0.9747247247247239 	299.9999999999757 	1.290146759025164e-11 	101324.9999999958
0.9772272272272267 	300.0000000000018 	1.293380542014755e-11 	101324.9999999958
0.9797297297297292 	299.9999999999879 	1.269307233276355e-11 	101324.9999999957
0.9822322322322313 	299.9999999999887 	1.301839742354616e-11 	101324.9999999957
0.9847347347347344 	299.9999999999884 	1.187836648872301e-11 	101324.9999999959
0.9872372372372363 	299.999999999956 	1.442675108472331e-11 	101324.9999999958
0.9897397397397389 	299.9999999999768 	1.246596405378141e-11 	101324.9999999961
0.9922422422422417 	299.9999999999608 	1.41308293677094e-11 	101324.9999999964
0.9947447447447441 	299.9999999999646 	1.258449149440326e-11 	101324.9999999965
0.9972472472472468 	299.9999999999746 	1.297825147449001e-11 	101324.9999999966
0.999749749749749 	299.9999999999673 	1.242693055145897e-11 	101324.9999999965
1.002252252252252 	299.9999999999724 	1.322347907887457e-11 	101324.9999999965
1.004754754754754 	299.9999999999913 	1.375365655294811e-11 	101324.9999999964
1.007257257257256 	299.9999999999778 	1.337483268753522e-11 	101324.9999999964
1.009759759759759 	299.9999999999633 	1.503502893428546e-11 	101324.9999999965
1.012262262262261 	299.9999999999575 	1.303072272137158e-11 	101324.9999999966
1.014764764764764 	299.9999999999388 	1.494920460453727e-11 	101324.9999999967
1.017267267267267 	299.9999999999358 	1.441157539419496e-11 	101324.9999999967
1.019769769769769 	299.9999999999758 	1.537360724277943e-11 	101324.9999999965
1.022272272272272 	299.9999999999867 	1.484603860651558e-11 	101324.9999999962
1.024774774774774 	299.9999999999843 	1.467509248261666e-11 	101324.9999999963
1.027277277277277 	299.9999999999778 	1.527794154367697e-11 	101324.9999999964
1.029779779779779 	300.0000000000022 	1.431250865633767e-11 	101324.9999999964
1.032282282282282 	300.0000000000045 	1.503125834795221e-11 	101324.9999999965
1.034784784784784 	299.9999999999991 	1.444455622904649e-11 	101324.9999999967
1.037287287287286 	299.9999999999754 	1.461986680815318e-11 	101324.9999999968
1.039789789789789 	299.9999999999765 	1.410704404788404e-11 	101324.9999999969
1.042292292292291 	300.000000000004 	1.428464550346018e-11 	101324.9999999971
1.044794794794794 	300.0000000000219 	1.454429673379361e-11 	101324.9999999972
1.047297297297296 	300.0000000000387 	1.358921666704472e-11 	101324.9999999974
1.049799799799799 	299.9999999999951 	1.476215298423582e-11 	101324.9999999977
1.052302302302302 	299.9999999999616 	1.27420073479922e-11 	101324.9999999977
1.054804804804804 	299.9999999999445 	1.470692872291849e-11 	101324.9999999974
1.057307307307306 	299.9999999999341 	1.3742320639316e-11 	101324.9999999972
1.059809809809809 	299.9999999999652 	1.459839015970337e-11 	101324.9999999975
1.062312312312312 	299.9999999999602 	1.407787534701531e-11 	101324.9999999976
1.064814814814814 	299.9999999999556 	1.485328908821125e-11 	101324.9999999976
1.067317317317317 	299.9999999999386 	1.501636683746726e-11 	101324.9999999976
1.069819819819819 	299.9999999999376 	1.503546894941951e-11 	101324.9999999974
1.072322322322321 	299.9999999999962 	1.693612446674294e-11 	101324.9999999972
1.074824824824824 	300.0000000000233 	1.548748092794263e-11 	101324.9999999971
1.077327327327327 	300.0000000000357 	1.750569920086774e-11 	101324.9999999972
1.079829829829829 	300.0000000000352 	1.677089637142545e-11 	101324.999999997
1.082332332332332 	300.000000000005 	1.797331622628159e-11 	101324.9999999967
1.084834834834834 	299.9999999999829 	1.786904029390647e-11 	101324.9999999967
1.087337337337337 	299.9999999999505 	1.78070637052259e-11 	101324.9999999969
1.089839839839839 	299.9999999999409 	1.869385743665651e-11 	101324.9999999971
1.092342342342342 	299.999999999977 	1.691254484449972e-11 	101324.9999999972
1.094844844844844 	299.9999999999766 	1.767340737125006e-11 	101324.9999999973
1.097347347347347 	299.9999999999502 	1.612545815330237e-11 	101324.9999999977
1.099849849849849 	299.9999999999332 	1.831088579228594e-11 	101324.9999999978
1.102352352352352 	299.999999999956 	1.578831235851119e-11 	101324.9999999978
1.104854854854854 	299.9999999999798 	1.712114812307251e-11 	101324.9999999981
1.107357357357357 	299.9999999999715 	1.52741288619186e-11 	101324.9999999982
1.109859859859859 	299.99999999996 	1.667062081750647e-11 	101324.9999999983
1.112362362362362 	300.0000000000105 	1.5732063159519e-11 	101324.9999999983
1.114864864864865 	300.000000000011 	1.600462403527343e-11 	101324.9999999984
1.117367367367367 	299.9999999999677 	1.774953258477754e-11 	101324.9999999985
1.119869869869869 	299.9999999999379 	1.715698802443658e-11 	101324.9999999983
1.122372372372372 	299.999999999967 	1.892213290300144e-11 	101324.9999999983
1.124874874874874 	299.9999999999714 	1.764020401445712e-11 	101324.9999999983
1.127377377377377 	299.9999999999824 	1.827076742749893e-11 	101324.9999999981
1.129879879879879 	300.0000000000196 	1.767618870961568e-11 	101324.999999998
1.132382382382382 	300.0000000000309 	1.85461116562797e-11 	101324.9999999978
1.134884884884884 	300.0000000000061 	1.816261991689977e-11 	101324.9999999979
1.137387387387387 	300.0000000000149 	1.815406101592868e-11 	101324.9999999981
1.139889889889889 	299.9999999999713 	1.923231121471582e-11 	101324.9999999981
1.142392392392392 	299.9999999999638 	1.769754182936965e-11 	101324.9999999981
1.144894894894894 	300.0000000000176 	1.883855234389673e-11 	101324.9999999983
1.147397397397397 	300.0000000000037 	1.749621320984916e-11 	101324.9999999984
1.149899899899899 	299.9999999999511 	1.83963127673026e-11 	101324.9999999985
1.152402402402402 	299.999999999937 	1.767895963796916e-11 	101324.9999999985
1.154904904904904 	299.9999999999703 	1.857181497472018e-11 	101324.9999999985
1.157407407407407 	299.9999999999732 	1.839212154785269e-11 	101324.9999999986
1.159909909909909 	299.9999999999486 	1.886063887958672e-11 	101324.9999999988
1.162412412412412 	299.9999999999442 	2.025881801120417e-11 	101324.9999999987
1.164914914914914 	299.999999999971 	1.859725492015839e-11 	101324.9999999986
1.167417417417417 	299.9999999999644 	1.987247517915692e-11 	101324.9999999986
1.169919919919919 	300.000000000002 	1.867724810323825e-11 	101324.9999999986
1.172422422422422 	300.0000000000362 	1.974573975035978e-11 	101324.9999999987
1.174924924924925 	299.9999999999917 	1.88439477934375e-11 	101324.9999999988
1.177427427427427 	299.9999999999709 	1.961848604367454e-11 	101324.999999999
1.179929929929929 	300.0000000000175 	2.062548200277728e-11 	101324.9999999991
1.182432432432432 	300.0000000000433 	1.878361548748204e-11 	101324.9999999992
1.184934934934934 	300.0000000000142 	1.944743641193505e-11 	101324.9999999992
1.187437437437437 	299.9999999999901 	1.876284319658822e-11 	101324.999999999
1.189939939939939 	299.9999999999822 	2.01226879297606e-11 	101324.9999999991
1.192442442442442 	299.9999999999504 	1.886541766867313e-11 	101324.9999999995
1.194944944944944 	299.999999999951 	1.941618933171149e-11 	101324.9999999996
1.197447447447447 	299.9999999999987 	1.841545337459106e-11 	101324.9999999995
1.199949949949949 	300.0000000000107 	1.819152232086944e-11 	101324.9999999995
1.202452452452452 	299.9999999999658 	1.880767264634636e-11 	101324.9999999997
1.204954954954955 	299.9999999999613 	1.757940836046325e-11 	101324.9999999997
1.207457457457457 	299.9999999999862 	1.89378721315926e-11 	101324.9999999998
1.20995995995996 	299.9999999999825 	1.783648946915301e-11 	101324.9999999999
1.212462462462462 	299.9999999999931 	1.886953923835516e-11 	101324.9999999999
1.214964964964964 	299.9999999999918 	1.825850134184948e-11 	101324.9999999999
1.217467467467467 	299.9999999999853 	1.971827745957002e-11 	101325
1.219969969969969 	299.9999999999753 	1.891614894336663e-11 	101325.0000000002
1.222472472472472 	300.0000000000205 	1.929372014172305e-11 	101325.0000000002
1.224974974974975 	300.0000000000445 	2.028561415672295e-11 	101325
1.227477477477477 	299.9999999999965 	1.905356468251702e-11 	101324.9999999999
1.229979979979979 	299.9999999999824 	2.046791772892782e-11 	101324.9999999998
1.232482482482482 	299.999999999961 	1.938615669155894e-11 	101324.9999999998
1.234984984984984 	299.9999999999631 	2.156975811257124e-11 	101324.9999999997
1.237487487487487 	299.9999999999844 	2.059289266606717e-11 	101324.9999999996
1.239989989989989 	299.9999999999842 	2.125239868094801e-11 	101324.9999999996
1.242492492492492 	300.0000000000107 	2.190683882344386e-11 	101324.9999999997
1.244994994994994 	299.9999999999864 	2.050628594985478e-11 	101324.9999999997
1.247497497497497 	299.9999999999851 	2.184922494649031e-11 	101324.9999999998
1.249999999999999 	300 	2.107562202524949e-11 	101325
