-1.25 	300 	0.0002497083272127928 	101325
-1.247497497497497 	299.9931103214812 	0.01322984808176004 	101318.0918113454
-1.244994994994995 	299.9887911889037 	0.03426508349791297 	101311.7426718096
-1.242492492492492 	299.9832507636083 	0.04912785832448863 	101305.1984365832
-1.23998998998999 	299.9780695379003 	0.06329032412538421 	101299.0766180469
-1.237487487487487 	299.9732953381608 	0.07718432677927986 	101293.4335753847
-1.234984984984985 	299.9690371439705 	0.08947921869459095 	101288.4007672024
-1.232482482482482 	299.9653347814556 	0.1002255045678718 	101284.0250073052
-1.22997997997998 	299.96226029349 	0.1091323306649308 	101280.3913666866
-1.227477477477477 	299.9599494353271 	0.1158491711054484 	101277.6602994426
-1.224974974974975 	299.9583650965873 	0.1203705172502639 	101275.7878173818
-1.222472472472472 	299.9575005049792 	0.1228166701809827 	101274.7659732016
-1.21996996996997 	299.9574209126008 	0.1230480965638857 	101274.6719195408
-1.217467467467467 	299.9581386380293 	0.1209704709366697 	101275.520055506
-1.214964964964965 	299.9596540908262 	0.1166007192404617 	101277.310925862
-1.212462462462462 	299.9619580930022 	0.1098974413686375 	101280.0337308014
-1.20995995995996 	299.9649973555492 	0.1011163799244736 	101283.6255563341
-1.207457457457457 	299.9686677510498 	0.09060536229519309 	101287.9634244755
-1.204954954954955 	299.9728464240813 	0.07854631747827004 	101292.9021585202
-1.202452452452452 	299.9775010872863 	0.06506968582695256 	101298.4036750402
-1.19994994994995 	299.982587412912 	0.05032678568269028 	101304.415668761
-1.197447447447447 	299.987987221919 	0.03466538154172995 	101310.7984556901
-1.194944944944945 	299.9935848784373 	0.01847456890130332 	101317.4154430933
-1.192442442442442 	299.9992727307202 	0.008164998306686965 	101324.1393978444
-1.18993993993994 	300.0049776923892 	0.01447118065465879 	101330.8838666532
-1.187437437437437 	300.0106074809643 	0.03068941782325003 	101337.5398164127
-1.184934934934935 	300.0160685472894 	0.04647864252317252 	101343.9965802148
-1.182432432432432 	300.021272764416 	0.06152204381115925 	101350.1499601022
-1.17992992992993 	300.0260968870761 	0.07546857107843505 	101355.8541982801
-1.177427427427427 	300.0304236705102 	0.08797318572079013 	101360.9705313684
-1.174924924924925 	300.0341721089464 	0.09879066732449822 	101365.4031750634
-1.172422422422422 	300.037273871449 	0.1077887956369542 	101369.0712024008
-1.16991991991992 	300.0396877773848 	0.1148051322912393 	101371.9258942194
-1.167417417417417 	300.0414033173424 	0.1197486126518759 	101373.9547784499
-1.164914914914915 	300.0423844265076 	0.1225119474490761 	101375.1150884092
-1.162412412412412 	300.042575234106 	0.1230072021040072 	101375.3407724003
-1.15990990990991 	300.0419520166637 	0.1212166820735655 	101374.6038048809
-1.157407407407407 	300.0405206933711 	0.1170999575071073 	101372.9112502986
-1.154904904904904 	300.0383129246694 	0.1107447830167404 	101370.3005094518
-1.152402402402403 	300.0353955651263 	0.1023001857655462 	101366.8506033697
-1.1498998998999 	300.0318394657793 	0.09200996136464738 	101362.6454941461
-1.147397397397397 	300.0277146520078 	0.08014091905067389 	101357.7680093106
-1.144894894894895 	300.0230979140277 	0.06679869455798704 	101352.3090198289
-1.142392392392392 	300.0180649242861 	0.05221251767020147 	101346.3581020032
-1.13988988988989 	300.0127049952483 	0.03667467640753828 	101340.0208249733
-1.137387387387387 	300.0071291947577 	0.02051170721109549 	101333.4286413549
-1.134884884884885 	300.0014356434881 	0.007779815637791397 	101326.6975325996
-1.132382382382382 	299.9957116890511 	0.01243538132074976 	101319.9307943633
-1.12987987987988 	299.9900342655733 	0.02886780451554192 	101313.2194051313
-1.127377377377377 	299.9844949925982 	0.04487584611348122 	101306.6715695823
-1.124874874874875 	299.9792236819309 	0.06008628323540638 	101300.4407870954
-1.122372372372372 	299.9743606840073 	0.07410390383763815 	101294.6928475037
-1.11986986986987 	299.969996430552 	0.08670926994116719 	101289.5346067705
-1.117367367367367 	299.9662062809169 	0.09770745850418988 	101285.0550820364
-1.114864864864865 	299.9630349848688 	0.1069368639278365 	101281.3070240514
-1.112362362362362 	299.9605132198064 	0.1142234989855789 	101278.326705629
-1.10985985985986 	299.9587010848514 	0.1193824799418733 	101276.1849988119
-1.107357357357357 	299.9576703205191 	0.1223532906781857 	101274.9667567895
-1.104854854854855 	299.957440384838 	0.1230029676108284 	101274.6950093892
-1.102352352352353 	299.958028888001 	0.1213089242479692 	101275.3904319415
-1.09984984984985 	299.9594100048668 	0.1173324205239354 	101277.0225485697
-1.097347347347347 	299.9615342734489 	0.111133934625749 	101279.5329321833
-1.094844844844845 	299.9643569781091 	0.1029672467576163 	101282.8688130666
-1.092342342342342 	299.967833028517 	0.09298236657010167 	101286.9769572931
-1.08983983983984 	299.9718789614898 	0.08129135712257764 	101291.7587639242
-1.087337337337337 	299.9764525749085 	0.0680866800094275 	101297.1644506812
-1.084834834834835 	299.9814631072104 	0.05357382020230393 	101303.0867820462
-1.082332332332332 	299.9867955221556 	0.0381335559658961 	101309.389857066
-1.07982982982983 	299.9923318015129 	0.02213271341423438 	101315.9342301478
-1.077327327327327 	299.9979571473531 	0.007227683482824432 	101322.5841942472
-1.074824824824825 	300.0036291384413 	0.01056368367371855 	101329.2896229631
-1.072322322322323 	300.0092778505393 	0.02685634644316529 	101335.9678640833
-1.06981981981982 	300.0147756050891 	0.04275847003005232 	101342.4679351979
-1.067317317317317 	300.0200042345935 	0.05788278508962477 	101348.650123085
-1.064814814814815 	300.024862247675 	0.07192905513136705 	101354.3943529173
-1.062312312312312 	300.029269368339 	0.08465379405462187 	101359.6056348555
-1.05980980980981 	300.0331584140074 	0.0958758205534624 	101364.2045005727
-1.057307307307307 	300.0364546636496 	0.1054179243599142 	101368.1024888342
-1.054804804804805 	300.039089692231 	0.1130482646008664 	101371.2186575787
-1.052302302302302 	300.0410098205555 	0.1185658931374478 	101373.4894638779
-1.0497997997998 	300.0421572991229 	0.1218370961291576 	101374.8465347399
-1.047297297297297 	300.0425035575694 	0.122831929583312 	101375.2560672378
-1.044794794794795 	300.0420546364753 	0.1215527910851847 	101374.7252040926
-1.042292292292292 	300.0408231674249 	0.1180017519123246 	101373.2689875121
-1.03978978978979 	300.0388330234005 	0.1122459149006924 	101370.9155918036
-1.037287287287287 	300.0361236003136 	0.1043667452023498 	101367.7115827374
-1.034784784784785 	300.0327310846741 	0.09456227880791473 	101363.699888809
-1.032282282282283 	300.0287303602229 	0.08304536624790294 	101358.9690960925
-1.02977977977978 	300.0242164509404 	0.06998075945165173 	101353.6316584583
-1.027277277277277 	300.0192706360211 	0.05565056285799017 	101347.7837344911
-1.024774774774775 	300.0139750944388 	0.04031512451683012 	101341.522536933
-1.022272272272272 	300.0084323776545 	0.02427872313548555 	101334.9693911804
-1.01976976976977 	300.0027328419099 	0.007863852715141586 	101328.2311248921
-1.017267267267267 	299.996988346095 	0.009661139074806349 	101321.4400421765
-1.014764764764765 	299.9912838376131 	0.02525959018780902 	101314.6965459924
-1.012262262262262 	299.9857225029341 	0.04133619988133538 	101308.1225814143
-1.00975975975976 	299.980428724129 	0.05663074565279595 	101301.8651834003
-1.007257257257257 	299.9755100132927 	0.07083888681648003 	101296.0513364915
-1.004754754754755 	299.971036390718 	0.08377053897727618 	101290.7637916435
-1.002252252252252 	299.9670920597363 	0.09520610748182957 	101286.1019915029
-0.9997497497497498 	299.9637403862454 	0.1049118944250424 	101282.1407456522
-0.9972472472472473 	299.9610551758648 	0.1126357931580261 	101278.9672525236
-0.9947447447447449 	299.9591090682129 	0.1182038414274308 	101276.6672244477
-0.9922422422422421 	299.9579453462175 	0.1215744277822935 	101275.2918316739
-0.9897397397397399 	299.9575594115779 	0.1226715751295904 	101274.8357106068
-0.9872372372372376 	299.9579688917174 	0.1215160577241066 	101275.3195968621
-0.9847347347347346 	299.9591569622279 	0.1180913026470803 	101276.7235654449
-0.9822322322322323 	299.9611044419612 	0.1124345888070064 	101279.0250242696
-0.9797297297297296 	299.9637679477445 	0.1047469933123334 	101282.1727341141
-0.9772272272272275 	299.967087943614 	0.09516259510603384 	101286.0964081053
-0.9747247247247248 	299.970988117485 	0.08386652071915515 	101290.7059320186
-0.9722222222222224 	299.9754245577832 	0.07103684399841573 	101295.9494329421
-0.9697197197197196 	299.9803133560148 	0.05686957003585166 	101301.7278348907
-0.9672172172172175 	299.985563449392 	0.04167801087254396 	101307.9335337108
-0.9647147147147147 	299.9910571502148 	0.02580575673988475 	101314.4274861989
-0.9622122122122124 	299.996669353631 	0.009579979551963569 	101321.0618640477
-0.9597097097097099 	300.002324610542 	0.009284053589097403 	101327.7474309526
-0.9572072072072073 	300.0079427216692 	0.02295416743077722 	101334.389425403
-0.9547047047047047 	300.0134235846417 	0.03882372360912496 	101340.8694540635
-0.9522022022022023 	300.0186768259514 	0.05403600775555176 	101347.0806430284
-0.9496996996996998 	300.0236095676834 	0.06830895002024499 	101352.913184329
-0.9471971971971973 	300.028140201346 	0.08140789815733204 	101358.2704625342
-0.9446946946946947 	300.0321784965064 	0.09305637758469486 	101363.0457666396
-0.9421921921921923 	300.0356275549982 	0.1030448074564998 	101367.1244363958
-0.93968968968969 	300.0384172932303 	0.1111230638202417 	101370.4235180291
-0.9371871871871872 	300.040503209925 	0.1170932155706736 	101372.8903807857
-0.9346846846846848 	300.0418338202194 	0.1209028653088289 	101374.4640256868
-0.9321821821821823 	300.042387337007 	0.1224769133946662 	101375.1186694788
-0.9296796796796799 	300.042150321802 	0.1217989668463856 	101374.8383986234
-0.9271771771771771 	300.0411191384529 	0.1188508563741948 	101373.6190086371
-0.9246746746746748 	300.0393175342539 	0.1136413225802213 	101371.4885861666
-0.9221721721721724 	300.0367899732282 	0.1063075779499274 	101368.4996412357
-0.9196696696696698 	300.0335660830812 	0.0970094961928723 	101364.6873193117
-0.9171671671671672 	300.0297211430845 	0.08592745816034493 	101360.1407256815
-0.9146646646646649 	300.0253276665892 	0.0732104314082386 	101354.945624542
-0.9121621621621623 	300.0204606633293 	0.05909379573228152 	101349.190848276
-0.9096596596596597 	300.0152114248839 	0.0438902278247482 	101342.9843475275
-0.9071571571571573 	300.0096972771097 	0.02792198167905868 	101336.4648956271
-0.9046546546546547 	300.0040109473223 	0.01156820055224542 	101329.7421878555
-0.9021521521521524 	299.998293555998 	0.009020701506751289 	101322.9830547388
-0.8996496496496498 	299.9926064761265 	0.02144279932722052 	101316.2600981493
-0.8971471471471473 	299.9870262214122 	0.03756316421000118 	101309.663708249
-0.894644644644645 	299.9816680418886 	0.05305571254204552 	101303.3301075072
-0.892142142142142 	299.9766406023783 	0.06756730619801778 	101297.3877072087
-0.8896396396396397 	299.9720379135968 	0.0808474094107182 	101291.9475548506
-0.8871371371371374 	299.9679655822612 	0.09265956629170426 	101287.1344383761
-0.8846346346346349 	299.9644865426133 	0.1027312291795106 	101283.0226459243
-0.8821321321321324 	299.9616690853481 	0.110862377919475 	101279.692825422
-0.8796296296296297 	299.9595738827187 	0.1168855261851866 	101277.2166145269
-0.8771271271271271 	299.9582398293369 	0.1207271331614363 	101275.6399033884
-0.8746246246246248 	299.9576825394904 	0.1223213861011462 	101274.9812699997
-0.8721221221221224 	299.9579250861996 	0.121639656447674 	101275.2678888787
-0.8696196196196196 	299.9589438024485 	0.1186919950515407 	101276.4717028309
-0.8671171171171175 	299.960717103498 	0.1135439887813606 	101278.5673205993
-0.8646146146146148 	299.9632072098373 	0.1063527520761157 	101281.5100991109
-0.8621121121121121 	299.9663593676754 	0.09724750880371757 	101285.2353910076
-0.8596096096096097 	299.9701198223922 	0.08635922284188996 	101289.6797476143
-0.857107107107107 	299.9744491042695 	0.07385648320646426 	101294.7965398913
-0.8546046046046049 	299.9792509654254 	0.05995765810258393 	101300.4721423454
-0.8521021021021022 	299.9844252431398 	0.04497999731101451 	101306.5881755539
-0.8495995995995997 	299.9898520184931 	0.02931462271723648 	101313.0029542614
-0.8470970970970974 	299.9954053089576 	0.01325597652169527 	101319.5676176723
-0.8445945945945946 	300.0010051607813 	0.008196949695316584 	101326.1875962529
-0.8420920920920922 	300.0065899704935 	0.01906873582435806 	101332.7901564674
-0.8395895895895897 	300.0120775564536 	0.03497108193354893 	101339.2780558017
-0.8370870870870872 	300.0173751913238 	0.05028684524980501 	101345.5416736397
-0.8345845845845846 	300.0223838919598 	0.06476313720455396 	101351.46395373
-0.8320820820820823 	300.027010847259 	0.07812995288461197 	101356.9350593109
-0.8295795795795798 	300.0311622001464 	0.09011186608685469 	101361.8440219686
-0.8270770770770772 	300.0347503246039 	0.1005077315845849 	101366.0870974883
-0.8245745745745746 	300.0377064770065 	0.1090368542121771 	101369.5829602887
-0.8220720720720721 	300.0399716840096 	0.1155413355674322 	101372.2618286627
-0.8195695695695699 	300.0414876396574 	0.1198949161314909 	101374.0546431913
-0.817067067067067 	300.04222614884 	0.1220271887999188 	101374.9280882501
-0.8145645645645651 	300.0421768463269 	0.1219144851884704 	101374.8697869116
-0.8120620620620621 	300.0413456201399 	0.119520663159622 	101373.8868604868
-0.8095595595595597 	300.039752251033 	0.1149038281288918 	101372.0026951519
-0.8070570570570572 	300.0374188615037 	0.1081327718511465 	101369.2433501672
-0.8045545545545546 	300.0343709309646 	0.0993489046809119 	101365.6391053517
-0.8020520520520523 	300.0306767158366 	0.08869184116873238 	101361.2707021813
-0.7995495495495494 	300.0264069118039 	0.07631265668841372 	101356.2218118758
-0.7970470470470474 	300.0216425480423 	0.06250575975567429 	101350.5883426592
-0.7945445445445446 	300.0164782241284 	0.0475458415700524 	101344.4821652096
-0.7920420420420423 	300.011018847812 	0.0317780599629925 	101338.0274204108
-0.7895395395395397 	300.005369451524 	0.01551824723110461 	101331.3482992191
-0.7870370370370371 	299.9996602729465 	0.007544201113443441 	101324.5988084963
-0.7845345345345348 	299.9939477548153 	0.01756505922917192 	101317.84570343
-0.7820320320320323 	299.9883169686384 	0.03381742992667277 	101311.189498675
-0.7795295295295296 	299.9828910636393 	0.04949441370447343 	101304.775797681
-0.7770270270270272 	299.9777798568765 	0.06424517920874304 	101298.734308696
-0.7745245245245247 	299.9730838704147 	0.07783407737139159 	101293.1838491362
-0.7720220220220222 	299.9688983830336 	0.08997892142329651 	101288.2369570773
-0.7695195195195199 	299.965283377779 	0.100432560345372 	101283.9644254366
-0.767017017017017 	299.9623204067567 	0.1089688584790195 	101280.4626398766
-0.7645145145145147 	299.9600788274556 	0.1154184631545812 	101277.8134158371
-0.7620120120120122 	299.9585869329877 	0.1197362613844948 	101276.0501734454
-0.7595095095095097 	299.9578585261278 	0.1218167029952155 	101275.1893017834
-0.7570070070070072 	299.9579134930453 	0.1216718190690906 	101275.2542319856
-0.7545045045045048 	299.9587393043853 	0.1192617998449116 	101276.2301062435
-0.7520020020020022 	299.9603369977206 	0.1146091663572479 	101278.1181625405
-0.7494994994994997 	299.9626788051596 	0.1078967327683182 	101280.8856692986
-0.7469969969969972 	299.9656955816769 	0.09917403937808478 	101284.4509492093
-0.7444944944944945 	299.9693284237482 	0.08866964378995303 	101288.7444435405
-0.7419919919919924 	299.973521534319 	0.07657309907917793 	101293.7002863266
-0.7394894894894897 	299.9781811988504 	0.06304714952321633 	101299.2077437298
-0.7369869869869872 	299.9832302013507 	0.04844617211276991 	101305.175638331
-0.7344844844844846 	299.9885689209328 	0.0330226736777175 	101311.4862753496
-0.7319819819819822 	299.9940653875602 	0.01711084048918777 	101317.9836716222
-0.7294794794794797 	299.9996378782386 	0.006230428046590751 	101324.5712595501
-0.7269769769769773 	300.00520638758 	0.01509234045987491 	101331.1544475746
-0.7244744744744747 	300.0107043539206 	0.03099825411658986 	101337.6545431641
-0.721971971971972 	300.0160456853116 	0.04643396120091586 	101343.9697619875
-0.7194694694694695 	300.0211261745587 	0.06113176445007806 	101349.9768426333
-0.7169669669669674 	300.0258503877751 	0.07477392084934813 	101355.5629082934
-0.7144644644644647 	300.0301188491299 	0.08710297983709663 	101360.6102899724
-0.711961961961962 	300.0338375079865 	0.09785535989498466 	101365.0076916133
-0.7094594594594597 	300.0369368939614 	0.1068100212090695 	101368.6729129852
-0.7069569569569573 	300.0393641500384 	0.1138048276575391 	101371.5433856669
-0.7044544544544545 	300.0410621033608 	0.1186927966837186 	101373.5514335764
-0.7019519519519523 	300.0420020222929 	0.1214071347173112 	101374.6630651174
-0.6994494494494495 	300.0421656092099 	0.1218757681773807 	101374.8565412128
-0.6969469469469471 	300.0415483566594 	0.1200973418177914 	101374.1266306774
-0.6944444444444446 	300.0401625040899 	0.1160937304323449 	101372.4878615622
-0.6919419419419421 	300.0380233767523 	0.1098746200115662 	101369.9582582434
-0.6894394394394396 	300.0351366238634 	0.1015540523060655 	101366.5445951658
-0.6869369369369374 	300.0315592751605 	0.09121772119105276 	101362.3143614262
-0.6844344344344344 	300.0273664963744 	0.07908333071526227 	101357.3565148092
-0.6819319319319321 	300.0226652828802 	0.06550067765870685 	101351.7976650416
-0.6794294294294296 	300.0175768849146 	0.05076973806115392 	101345.7812135825
-0.6769269269269272 	300.0122098932982 	0.03524569372186188 	101339.4356312006
-0.6744244244244245 	300.0066332136904 	0.01916102397652567 	101332.8424208233
-0.6719219219219222 	300.0009586590492 	0.005235530464924272 	101326.1337918739
-0.6694194194194195 	299.9952336954831 	0.01384370374484646 	101319.365899987
-0.6669169169169172 	299.9895482590679 	0.03024961694207054 	101312.6450357302
-0.6644144144144146 	299.9840501432221 	0.04612733911550815 	101306.1458932249
-0.661911911911912 	299.9788743198911 	0.06109965978033172 	101300.02799558
-0.6594094094094097 	299.9741163510586 	0.07484954512216781 	101294.404217026
-0.656906906906907 	299.9698449971365 	0.08719411584208442 	101289.3557875722
-0.6544044044044046 	299.9661178963671 	0.09798657771912254 	101284.9507686588
-0.6519019019019021 	299.9629897249039 	0.1070231775925477 	101281.2536901655
-0.6493993993993996 	299.9605408238008 	0.1140951697095624 	101278.3594771724
-0.6468968968968971 	299.9588479987804 	0.1189542641131211 	101276.3587491986
-0.6443943943943946 	299.957968063213 	0.1214645569124694 	101275.3187855998
-0.6418918918918921 	299.9579185164829 	0.1216186063537447 	101275.2602178244
-0.6393893893893897 	299.9586672030182 	0.1194899869782258 	101276.144938572
-0.6368868868868871 	299.960130379761 	0.1152670347126672 	101277.8740471032
-0.6343843843843846 	299.9622485036676 	0.1091224728418364 	101280.3771980066
-0.6318818818818821 	299.9649777497726 	0.1012058320399334 	101283.6026441437
-0.6293793793793795 	299.9683168765334 	0.09154542227707098 	101287.5489828195
-0.6268768768768773 	299.972273749147 	0.08009347905899926 	101292.2255382757
-0.6243743743743745 	299.976833934745 	0.06691980226932864 	101297.6155849448
-0.6218718718718721 	299.9819030852134 	0.05223116954123773 	101303.6072728025
-0.6193693693693696 	299.9873535427054 	0.03649707098856989 	101310.0496930226
-0.6168668668668671 	299.9929863474285 	0.02026965086138399 	101316.7081446062
-0.6143643643643645 	299.9986124607062 	0.004037120735425423 	101323.3590705009
-0.6118618618618621 	300.0040712938107 	0.01177575526242682 	101329.8125581527
-0.6093593593593596 	300.0092858108198 	0.02685819868232933 	101335.9774978061
-0.6068568568568571 	300.0142710287664 	0.04132161948712781 	101341.8715796196
-0.6043543543543546 	300.0190847120738 	0.05528160371105245 	101347.5630925515
-0.6018518518518521 	300.0237668755148 	0.06883639151076101 	101353.0993170201
-0.5993493493493496 	300.0282926177717 	0.08190620826048059 	101358.4507977339
-0.5968468468468471 	300.0325519545151 	0.09417518141425109 	101363.4874822178
-0.5943443443443446 	300.0363589832023 	0.1051152617601997 	101367.9894719091
-0.591841841841842 	300.0394836700692 	0.1140752371340363 	101371.684706865
-0.5893393393393397 	300.0416962070174 	0.1204056773909147 	101374.3013434476
-0.5868368368368371 	300.0428127821081 	0.1235884333965939 	101375.6219095667
-0.5843343343343346 	300.0427331757579 	0.1233427338400222 	101375.5277626728
-0.5818318318318321 	300.0414624983704 	0.1196878785606436 	101374.0252014784
-0.5793293293293297 	300.0391155913967 	0.1129523272654265 	101371.2499301476
-0.5768268268268271 	300.0359003722774 	0.1037276960859044 	101367.4478109011
-0.5743243243243245 	300.03208580659 	0.09277839677381176 	101362.9370207358
-0.5718218218218221 	300.0279615850342 	0.08092760983460283 	101358.0601914592
-0.5693193193193196 	300.0237975095757 	0.0689438170180611 	101353.1363848823
-0.5668168168168171 	300.019811937102 	0.05745393858487163 	101348.4237932936
-0.5643143143143147 	300.016157853729 	0.04690265249598033 	101344.1032839542
-0.5618118118118121 	300.0129255985661 	0.03755577829420163 	101340.281635252
-0.5593093093093094 	300.0101532160821 	0.02952800780599346 	101337.0037905988
-0.5568068068068072 	300.0078389636166 	0.02281844976461346 	101334.2676548981
-0.5543043043043046 	300.0059536400395 	0.01734602906951416 	101332.0386756504
-0.551801801801802 	300.004451446482 	0.01298082136079521 	101330.2626851296
-0.5492992992992995 	300.0032787295079 	0.009569385622873971 	101328.8762361962
-0.5467967967967969 	300.0023804425914 	0.00695357224098212 	101327.8142407308
-0.5442942942942947 	300.0017044895962 	0.00498323207717585 	101327.0151025857
-0.5417917917917919 	300.0012042893717 	0.003523783061064939 	101326.4237484047
-0.5392892892892895 	300.0008399704866 	0.002459796707584233 	101325.9930388714
-0.536786786786787 	300.0005785949004 	0.001695751556873187 	101325.6840325853
-0.5342842842842846 	300.0003937577795 	0.001154954925273484 	101325.4655126097
-0.531781781781782 	300.0002648389706 	0.0007774314613612397 	101325.3131009926
-0.5292792792792794 	300.0001761068322 	0.000517364894947706 	101325.2081992102
-0.526776776776777 	300.0001158098858 	0.0003404892185358469 	101325.1369143426
-0.5242742742742745 	300.0000753382546 	0.0002216697292083141 	101325.0890674393
-0.521771771771772 	300.0000484956604 	0.0001427983992819463 	101325.0573332092
-0.5192692692692695 	300.0000308970081 	9.104672558650444e-05 	101325.0365275769
-0.516766766766767 	300.0000194877878 	5.746895336312981e-05 	101325.0230391509
-0.5142642642642645 	300.0000121712536 	3.591931075330618e-05 	101325.0143893409
-0.511761761761762 	300.0000075288581 	2.223521820994028e-05 	101325.008900957
-0.5092592592592596 	300.0000046135393 	1.363518011633244e-05 	101325.0054543317
-0.506756756756757 	300.000002801068 	8.284579342584005e-06 	101325.0033116055
-0.5042542542542544 	300.0000016853914 	4.988252918030428e-06 	101325.0019925396
-0.5017517517517521 	300.0000010051551 	2.976952661493822e-06 	101325.0011882884
-0.4992492492492494 	300.0000005942642 	1.761208615133221e-06 	101325.0007025137
-0.496746746746747 	300.0000003483023 	1.033088526181758e-06 	101325.0004117884
-0.4942442442442445 	300.0000002024 	6.009151396950679e-07 	101325.0002393561
-0.4917417417417421 	300.0000001166551 	3.466648191270397e-07 	101325.0001379835
-0.4892392392392395 	300.0000000666977 	1.983694812539706e-07 	101325.0000789003
-0.486736736736737 	300.0000000378209 	1.126140991141484e-07 	101325.0000447557
-0.4842342342342345 	300.0000000212273 	6.342763767500929e-08 	101325.0000251873
-0.481731731731732 	300.000000011941 	3.54553066021748e-08 	101325.0000140642
-0.4792292292292296 	300.0000000066233 	1.966546279249139e-08 	101325.0000077921
-0.4767267267267268 	300.0000000035765 	1.083244899411149e-08 	101325.0000042835
-0.4742242242242246 	300.0000000019748 	5.918253746796848e-09 	101325.0000023358
-0.471721721721722 	300.0000000010242 	3.216409448384786e-09 	101325.0000012626
-0.4692192192192195 	300.0000000005506 	1.730897071157898e-09 	101325.000000676
-0.4667167167167169 	300.0000000002118 	9.294179911948568e-10 	101325.0000003572
-0.4642142142142145 	300.0000000001573 	4.922829903672074e-10 	101325.0000001854
-0.461711711711712 	300.0000000001034 	2.63023926456901e-10 	101325.0000000933
-0.4592092092092094 	300.0000000000549 	1.375306780530103e-10 	101325.0000000444
-0.456706706706707 	300.0000000000767 	7.459588301759437e-11 	101325.0000000187
-0.4542042042042045 	299.9999999999463 	3.874128538673331e-11 	101325.0000000052
-0.451701701701702 	299.9999999999537 	2.254725231528582e-11 	101324.9999999984
-0.4491991991991995 	299.9999999999532 	1.144099511681193e-11 	101324.9999999949
-0.4466966966966969 	299.9999999999475 	8.995237001259106e-12 	101324.9999999934
-0.4441941941941945 	299.9999999999936 	3.676416330291943e-12 	101324.9999999926
-0.441691691691692 	299.9999999999544 	5.808527819276995e-12 	101324.999999992
-0.4391891891891895 	299.999999999991 	1.312092209062167e-12 	101324.9999999916
-0.436686686686687 	299.9999999999687 	5.682395447155338e-12 	101324.9999999911
-0.4341841841841846 	299.9999999999987 	2.217530588045045e-12 	101324.9999999908
-0.431681681681682 	299.9999999999405 	4.600827921174948e-12 	101324.9999999909
-0.4291791791791794 	299.9999999999253 	2.099756465603283e-12 	101324.9999999909
-0.426676676676677 	299.9999999998947 	3.123279769927667e-12 	101324.9999999908
-0.4241741741741744 	299.9999999999609 	1.645711128405933e-12 	101324.9999999908
-0.421671671671672 	300.0000000000053 	3.167777060087167e-12 	101324.9999999907
-0.4191691691691694 	300.0000000000595 	9.588861224856564e-13 	101324.9999999908
-0.4166666666666669 	300.0000000000688 	3.125411141351857e-12 	101324.9999999908
-0.4141641641641645 	299.9999999999295 	1.799531046435915e-12 	101324.9999999909
-0.411661661661662 	300.0000000000045 	3.004785799363951e-12 	101324.9999999907
-0.4091591591591594 	300.0000000000026 	2.359794279448481e-12 	101324.9999999907
-0.406656656656657 	299.9999999999346 	3.85393357001208e-12 	101324.9999999909
-0.4041541541541545 	300.0000000000134 	1.252402693422734e-12 	101324.9999999909
-0.401651651651652 	299.9999999999146 	3.75019008208026e-12 	101324.9999999908
-0.3991491491491494 	299.9999999999974 	1.813627439449517e-12 	101324.9999999908
-0.396646646646647 	299.9999999999512 	4.177595624235887e-12 	101324.9999999911
-0.3941441441441444 	299.9999999999797 	2.360216008520171e-12 	101324.9999999912
-0.3916416416416419 	299.9999999999268 	4.296532410808047e-12 	101324.9999999912
-0.3891391391391395 	299.999999999952 	1.176554173893406e-12 	101324.9999999914
-0.3866366366366368 	299.9999999999513 	3.29041366758915e-12 	101324.9999999912
-0.3841341341341344 	299.9999999999957 	1.348414372684331e-12 	101324.9999999911
-0.381631631631632 	299.9999999999433 	2.291691881657896e-12 	101324.999999991
-0.3791291291291294 	300.0000000000019 	1.014819034775579e-12 	101324.9999999913
-0.3766266266266269 	300.0000000000243 	1.000228039164e-12 	101324.9999999912
-0.3741241241241244 	300.0000000000292 	1.742831436171109e-12 	101324.9999999913
-0.371621621621622 	300.0000000000202 	6.108930865406678e-13 	101324.9999999913
-0.3691191191191194 	300.0000000000143 	2.486090538618447e-12 	101324.9999999914
-0.366616616616617 	300.0000000000122 	1.543449685247513e-12 	101324.9999999913
-0.3641141141141143 	299.999999999964 	2.700603452509005e-12 	101324.9999999915
-0.3616116116116119 	299.9999999999469 	1.005437604739072e-12 	101324.9999999914
-0.3591091091091095 	299.999999999983 	2.159196775210591e-12 	101324.9999999912
-0.356606606606607 	299.9999999999694 	1.64817836491793e-12 	101324.9999999911
-0.3541041041041044 	299.9999999999899 	1.413553877665386e-12 	101324.9999999914
-0.3516016016016019 	300.000000000012 	2.372362072780435e-12 	101324.9999999916
-0.3490990990990994 	299.9999999999938 	5.754254072250633e-13 	101324.9999999914
-0.346596596596597 	300.0000000000469 	2.911746792099357e-12 	101324.9999999913
-0.3440940940940944 	300.0000000000555 	6.175825488104195e-13 	101324.9999999911
-0.3415915915915919 	300.000000000023 	2.566003866497339e-12 	101324.9999999913
-0.3390890890890895 	299.9999999999766 	4.821133819886166e-13 	101324.9999999914
-0.3365865865865869 	300.0000000000188 	2.114820421269516e-12 	101324.9999999913
-0.3340840840840844 	300.0000000000005 	5.154530638686361e-13 	101324.9999999912
-0.3315815815815819 	300.0000000000232 	1.444238585774642e-12 	101324.9999999911
-0.3290790790790794 	300.0000000000243 	4.446002740566472e-13 	101324.9999999911
-0.3265765765765769 	299.9999999999246 	1.811580156088249e-12 	101324.999999991
-0.3240740740740744 	299.9999999999957 	7.461516912968827e-13 	101324.9999999909
-0.3215715715715718 	300.0000000000067 	2.244219652440149e-12 	101324.999999991
-0.3190690690690695 	299.9999999999256 	1.413755272987941e-12 	101324.9999999909
-0.3165665665665668 	299.9999999999877 	2.019089167153423e-12 	101324.9999999907
-0.3140640640640644 	300.000000000004 	9.212729200819567e-13 	101324.9999999907
-0.311561561561562 	299.999999999923 	4.213742672802743e-12 	101324.9999999908
-0.3090590590590593 	299.9999999999929 	1.606117838113187e-12 	101324.9999999911
-0.3065565565565568 	300.0000000000015 	5.729879927657059e-12 	101324.9999999912
-0.3040540540540545 	300.0000000000043 	1.452826317403466e-12 	101324.999999991
-0.3015515515515518 	300.0000000000401 	6.103828998446344e-12 	101324.9999999909
-0.2990490490490494 	299.9999999999449 	2.252073204365072e-12 	101324.9999999909
-0.2965465465465469 	299.999999999985 	4.42896004998944e-12 	101324.9999999908
-0.2940440440440444 	299.9999999999989 	2.841681987580798e-12 	101324.9999999906
-0.2915415415415418 	300.0000000000059 	3.739617728480831e-12 	101324.9999999909
-0.2890390390390395 	300.000000000007 	4.366020442279641e-12 	101324.999999991
-0.2865365365365368 	299.9999999999831 	3.598679114887655e-12 	101324.9999999907
-0.2840340340340343 	300.0000000000016 	4.967996821624055e-12 	101324.9999999906
-0.2815315315315318 	299.9999999999232 	1.858234901428952e-12 	101324.9999999907
-0.2790290290290295 	299.9999999999548 	3.415508007845961e-12 	101324.9999999906
-0.2765265265265269 	300.0000000000041 	1.800869360842596e-12 	101324.9999999904
-0.2740240240240244 	300.0000000000293 	3.037307033319374e-12 	101324.9999999904
-0.2715215215215219 	300.0000000000146 	3.039345849074478e-12 	101324.9999999906
-0.2690190190190194 	299.9999999999441 	3.051974983737559e-12 	101324.9999999906
-0.2665165165165169 	299.9999999999987 	3.975903092515721e-12 	101324.9999999906
-0.2640140140140144 	299.9999999999677 	3.09612125328411e-12 	101324.9999999907
-0.2615115115115119 	300.0000000000034 	4.933616989269543e-12 	101324.9999999908
-0.2590090090090094 	299.9999999999314 	3.44897390662053e-12 	101324.999999991
-0.2565065065065068 	299.9999999999944 	4.474078785726367e-12 	101324.999999991
-0.2540040040040044 	299.9999999999979 	5.170274554660182e-12 	101324.9999999909
-0.2515015015015019 	300.0000000000409 	4.388464807333335e-12 	101324.9999999911
-0.2489989989989994 	300.0000000000445 	6.623997537551798e-12 	101324.9999999912
-0.2464964964964968 	299.9999999999886 	3.480483246818579e-12 	101324.999999991
-0.2439939939939944 	299.9999999999946 	7.289772985333155e-12 	101324.9999999909
-0.2414914914914919 	299.9999999999671 	2.648864902936924e-12 	101324.9999999911
-0.2389889889889893 	300.0000000000035 	7.682977380313123e-12 	101324.9999999912
-0.2364864864864869 	300.0000000000242 	3.22529609574884e-12 	101324.9999999915
-0.2339839839839843 	299.9999999999262 	7.825334407606776e-12 	101324.9999999915
-0.2314814814814819 	299.9999999999827 	3.390566828248714e-12 	101324.9999999914
-0.2289789789789792 	299.999999999914 	7.009306989400279e-12 	101324.9999999914
-0.2264764764764769 	299.9999999999459 	3.32171385970155e-12 	101324.9999999914
-0.2239739739739743 	299.9999999999568 	5.208287757438434e-12 	101324.9999999912
-0.2214714714714718 	299.9999999999345 	4.160789524026026e-12 	101324.999999991
-0.2189689689689693 	299.9999999999685 	3.762689034625424e-12 	101324.9999999913
-0.2164664664664669 	299.9999999999819 	4.579087726043048e-12 	101324.9999999912
-0.2139639639639643 	299.9999999999293 	3.193639248721065e-12 	101324.9999999914
-0.2114614614614618 	299.9999999999716 	4.595289121516575e-12 	101324.9999999914
-0.2089589589589593 	299.9999999999906 	4.908560927735111e-12 	101324.9999999913
-0.2064564564564568 	299.9999999999891 	4.514389610935151e-12 	101324.9999999914
-0.2039539539539543 	299.9999999999036 	6.28130822836348e-12 	101324.9999999912
-0.2014514514514518 	299.9999999999407 	3.377602415143954e-12 	101324.9999999911
-0.1989489489489494 	299.9999999999661 	7.006482611597406e-12 	101324.9999999911
-0.1964464464464468 	299.9999999999933 	2.925176378174399e-12 	101324.999999991
-0.1939439439439443 	299.9999999999891 	6.220068415858442e-12 	101324.9999999907
-0.1914414414414418 	299.9999999999138 	3.328891459728233e-12 	101324.999999991
-0.1889389389389393 	300.000000000009 	4.862516602761185e-12 	101324.9999999912
-0.1864364364364368 	300.0000000000457 	3.232433853483589e-12 	101324.9999999914
-0.1839339339339343 	299.9999999999729 	4.392708098678214e-12 	101324.9999999912
-0.1814314314314318 	299.9999999999964 	2.921939454325e-12 	101324.9999999911
-0.1789289289289293 	299.9999999998948 	4.537358981289138e-12 	101324.9999999911
-0.1764264264264268 	299.9999999999814 	2.231502015060345e-12 	101324.9999999912
-0.1739239239239243 	299.999999999895 	4.865183144454046e-12 	101324.9999999912
-0.1714214214214218 	299.9999999999879 	6.278847169083822e-13 	101324.9999999912
-0.1689189189189193 	299.9999999999511 	5.434115577800557e-12 	101324.9999999913
-0.1664164164164168 	300.0000000000063 	1.534063692516226e-12 	101324.9999999912
-0.1639139139139143 	299.9999999999824 	6.637699177919989e-12 	101324.9999999911
-0.1614114114114118 	300.0000000000259 	2.622312396136936e-12 	101324.9999999909
-0.1589089089089093 	299.9999999999943 	9.09733375223758e-12 	101324.9999999907
-0.1564064064064068 	299.9999999999795 	4.022888428628669e-12 	101324.9999999907
-0.1539039039039043 	299.9999999999891 	9.349970802517813e-12 	101324.9999999905
-0.1514014014014018 	300.0000000000262 	2.530529058821307e-12 	101324.9999999904
-0.1488988988988993 	299.9999999999813 	9.432739811902912e-12 	101324.9999999901
-0.1463963963963968 	299.9999999999992 	8.35567085577051e-13 	101324.9999999898
-0.1438938938938943 	299.9999999999483 	8.469271070456558e-12 	101324.9999999896
-0.1413913913913918 	299.9999999999251 	1.445074424054102e-12 	101324.9999999899
-0.1388888888888893 	299.99999999998 	6.647959775826894e-12 	101324.9999999898
-0.1363863863863868 	299.9999999998828 	2.54561439654252e-12 	101324.9999999898
-0.1338838838838843 	299.9999999999071 	5.408991906838535e-12 	101324.9999999898
-0.1313813813813818 	299.9999999999891 	2.189885290569499e-12 	101324.9999999896
-0.1288788788788793 	299.9999999999592 	3.78961203080528e-12 	101324.9999999896
-0.1263763763763768 	299.9999999999609 	2.942301520912108e-13 	101324.9999999895
-0.1238738738738743 	299.9999999999232 	3.183323322482657e-12 	101324.9999999898
-0.1213713713713717 	299.9999999999756 	8.267903330705924e-13 	101324.9999999898
-0.1188688688688693 	300.0000000000043 	3.881109806293677e-12 	101324.99999999
-0.1163663663663668 	299.9999999999046 	7.195271370556987e-13 	101324.99999999
-0.1138638638638643 	299.9999999999893 	5.025567210183566e-12 	101324.9999999905
-0.1113613613613618 	299.9999999999844 	8.251722361127662e-13 	101324.9999999908
-0.1088588588588592 	299.9999999999737 	6.879649985912278e-12 	101324.9999999909
-0.1063563563563568 	299.9999999999488 	1.544122552958731e-12 	101324.9999999911
-0.1038538538538543 	299.9999999999729 	6.486731599355745e-12 	101324.9999999911
-0.1013513513513517 	300.0000000000179 	2.593417942247677e-12 	101324.9999999912
-0.09884884884884926 	299.9999999999396 	6.072983031367062e-12 	101324.9999999912
-0.09634634634634676 	299.9999999998861 	2.760014571957384e-12 	101324.9999999914
-0.09384384384384425 	299.9999999999259 	4.30244159836798e-12 	101324.9999999913
-0.09134134134134177 	300.0000000000246 	2.099850849507645e-12 	101324.9999999911
-0.08883883883883925 	300.0000000000115 	4.065067339602317e-12 	101324.999999991
-0.08633633633633674 	299.9999999999536 	2.848770941356821e-12 	101324.999999991
-0.08383383383383426 	300.0000000000079 	2.866323413347678e-12 	101324.999999991
-0.08133133133133173 	299.9999999999652 	2.965766392866903e-12 	101324.9999999907
-0.07882882882882926 	299.999999999878 	2.782944113096529e-12 	101324.9999999906
-0.07632632632632676 	299.9999999999544 	2.335390922918102e-12 	101324.9999999905
-0.07382382382382424 	299.9999999998937 	1.785105100081698e-12 	101324.9999999905
-0.07132132132132173 	300.0000000000105 	1.356993854343377e-12 	101324.9999999905
-0.06881881881881925 	299.999999999954 	1.876890338531864e-12 	101324.9999999905
-0.06631631631631671 	299.9999999998886 	1.883296715630768e-12 	101324.9999999907
-0.06381381381381425 	299.9999999999525 	1.440699543313342e-12 	101324.9999999907
-0.06131131131131173 	299.9999999999548 	1.406114938904429e-12 	101324.9999999909
-0.05880880880880923 	299.999999999912 	1.217118859506061e-12 	101324.9999999909
-0.05630630630630672 	299.999999999965 	1.470722095057337e-12 	101324.9999999911
-0.05380380380380424 	300.0000000000145 	1.859837444738629e-12 	101324.9999999911
-0.05130130130130173 	300.0000000000123 	1.801192197082843e-12 	101324.9999999909
-0.04879879879879922 	299.9999999999428 	1.703908020663076e-12 	101324.9999999908
-0.04629629629629672 	299.9999999999276 	9.54615354456633e-13 	101324.9999999909
-0.04379379379379422 	299.9999999999145 	7.482626849920256e-13 	101324.999999991
-0.04129129129129173 	299.9999999999745 	8.198162081856393e-13 	101324.9999999909
-0.03878878878878922 	299.9999999999793 	9.44686284598521e-13 	101324.9999999909
-0.03628628628628671 	299.9999999999794 	1.269316794544108e-12 	101324.999999991
-0.03378378378378422 	299.9999999999214 	8.859952451736302e-13 	101324.9999999909
-0.03128128128128172 	299.9999999999653 	1.120005055129574e-12 	101324.9999999911
-0.02877877877877922 	299.9999999999658 	3.368073992707718e-13 	101324.9999999912
-0.0262762762762767 	299.9999999998955 	8.368966833389159e-13 	101324.9999999912
-0.02377377377377422 	300.0000000000177 	9.730315873517192e-13 	101324.9999999913
-0.0212712712712717 	299.9999999998968 	8.800589400250585e-13 	101324.9999999913
-0.01876876876876921 	299.9999999999663 	8.030038870900121e-13 	101324.9999999912
-0.01626626626626671 	300.0000000000157 	1.070124669142556e-12 	101324.9999999909
-0.0137637637637642 	299.9999999999615 	1.156750788606025e-12 	101324.9999999909
-0.0112612612612617 	300.0000000000152 	1.525563955930217e-12 	101324.9999999909
-0.008758758758759198 	299.9999999999927 	1.566427170987022e-12 	101324.9999999912
-0.006256256256256697 	299.9999999998813 	1.547075952599549e-12 	101324.9999999912
-0.003753753753754195 	299.9999999999504 	8.393366973008708e-13 	101324.9999999913
-0.001251251251251693 	299.9999999999255 	1.182546779837712e-12 	101324.9999999913
0.00125125125125081 	299.9999999999507 	9.323795070414739e-13 	101324.9999999912
0.003753753753753312 	299.9999999999619 	1.491412413818859e-12 	101324.9999999913
0.006256256256255817 	299.99999999988 	8.797595692032827e-13 	101324.999999991
0.008758758758758317 	299.9999999999895 	9.229597796597059e-13 	101324.9999999908
0.01126126126126082 	300.0000000000093 	8.881941658608604e-13 	101324.9999999908
0.01376376376376332 	299.9999999999666 	1.281310677339758e-12 	101324.9999999911
0.01626626626626582 	300.0000000000129 	1.218721659062574e-12 	101324.9999999911
0.01876876876876833 	299.9999999999527 	1.633806895934111e-12 	101324.9999999909
0.02127127127127083 	299.9999999999669 	8.558313386435488e-13 	101324.9999999907
0.02377377377377332 	299.9999999999968 	8.113363635082743e-13 	101324.9999999907
0.02627627627627583 	299.9999999998991 	5.680037891827894e-13 	101324.9999999907
0.02877877877877833 	300.0000000000098 	2.63550263473137e-13 	101324.9999999907
0.03128128128128083 	299.9999999999419 	7.205663708326729e-14 	101324.9999999903
0.03378378378378333 	299.9999999998986 	4.143448873177988e-13 	101324.9999999905
0.03628628628628584 	299.9999999999735 	2.102657364789805e-13 	101324.9999999907
0.03878878878878834 	299.9999999999794 	5.284242761517551e-14 	101324.9999999908
0.04129129129129084 	299.9999999999739 	3.250123190564898e-13 	101324.9999999909
0.04379379379379333 	299.9999999999362 	1.040740959230245e-12 	101324.9999999913
0.04629629629629585 	299.9999999998855 	1.48260685256224e-12 	101324.9999999912
0.04879879879879834 	299.9999999999499 	1.709920013757489e-12 	101324.9999999912
0.05130130130130085 	300.0000000000139 	1.19421110194251e-12 	101324.9999999911
0.05380380380380335 	300.0000000000136 	2.816715679204734e-13 	101324.9999999909
0.05630630630630584 	299.9999999999886 	2.17773542801868e-13 	101324.9999999908
0.05880880880880836 	299.9999999999151 	2.477125664085825e-13 	101324.9999999907
0.06131131131131085 	299.9999999999733 	4.085741844544275e-13 	101324.9999999904
0.06381381381381336 	299.9999999999616 	5.721196638749106e-13 	101324.9999999901
0.06631631631631586 	299.9999999998851 	8.024521750948271e-13 	101324.9999999898
0.06881881881881835 	299.9999999999484 	1.719044330370241e-12 	101324.9999999895
0.07132132132132088 	299.9999999999827 	1.719388389056784e-12 	101324.9999999896
0.07382382382382337 	299.999999999897 	1.948206787467574e-12 	101324.9999999896
0.07632632632632587 	299.9999999999684 	1.728813367008215e-12 	101324.9999999894
0.07882882882882837 	299.9999999999329 	1.770794205888918e-12 	101324.9999999894
0.08133133133133086 	299.9999999999808 	2.003798455148395e-12 	101324.9999999897
0.08383383383383337 	299.9999999999808 	1.229944812001641e-12 	101324.9999999899
0.08633633633633589 	299.9999999999022 	1.212996720119494e-12 	101324.9999999898
0.08883883883883838 	300.0000000000108 	1.649322029427484e-12 	101324.9999999899
0.09134134134134086 	299.9999999999884 	1.232251397006425e-12 	101324.9999999902
0.09384384384384339 	299.9999999998913 	1.958091747893072e-12 	101324.9999999904
0.09634634634634588 	299.9999999999656 	2.262483849534493e-12 	101324.9999999907
0.09884884884884838 	299.9999999999721 	2.146866494694167e-12 	101324.9999999907
0.1013513513513509 	300.0000000000171 	2.03122293460522e-12 	101324.9999999906
0.1038538538538534 	299.9999999999475 	2.331349111170593e-12 	101324.9999999904
0.1063563563563559 	300.0000000000151 	2.956641041191784e-12 	101324.9999999904
0.1088588588588584 	300.0000000000289 	1.862752450603646e-12 	101324.9999999905
0.1113613613613609 	299.9999999999126 	1.730291184117834e-12 	101324.9999999907
0.1138638638638634 	299.9999999999423 	2.164600621479815e-12 	101324.9999999909
0.1163663663663659 	299.9999999999407 	3.013108380971017e-12 	101324.999999991
0.1188688688688684 	299.9999999999669 	3.880307540768426e-12 	101324.9999999909
0.1213713713713709 	299.9999999999938 	3.744829437736513e-12 	101324.9999999908
0.1238738738738734 	299.99999999992 	3.495837244021068e-12 	101324.9999999904
0.1263763763763759 	299.9999999999885 	3.346236584851808e-12 	101324.9999999902
0.1288788788788784 	299.9999999999904 	3.184385834528105e-12 	101324.99999999
0.1313813813813809 	299.9999999999878 	3.82603907819957e-12 	101324.9999999898
0.1338838838838834 	299.9999999999716 	4.799282983832957e-12 	101324.9999999899
0.1363863863863859 	300.00000000003 	4.42348448714643e-12 	101324.99999999
0.1388888888888884 	300.0000000000471 	4.28157492828002e-12 	101324.9999999902
0.1413913913913909 	300 	4.337496112409092e-12 	101324.9999999904
0.1438938938938934 	299.9999999999932 	4.685770511764859e-12 	101324.9999999906
0.1463963963963959 	299.9999999999594 	3.790882298790865e-12 	101324.9999999904
0.1488988988988985 	299.9999999999072 	5.007391176711255e-12 	101324.9999999904
0.1514014014014009 	299.9999999999642 	3.380933084344703e-12 	101324.9999999907
0.1539039039039035 	299.9999999999619 	5.228300695460379e-12 	101324.9999999908
0.1564064064064059 	299.9999999999332 	2.357434890236036e-12 	101324.9999999909
0.1589089089089084 	299.9999999999797 	5.100072961724308e-12 	101324.9999999908
0.1614114114114109 	299.9999999999737 	1.593644872723338e-12 	101324.9999999906
0.1639139139139134 	299.9999999999068 	2.91660760843241e-12 	101324.9999999905
0.166416416416416 	300.0000000000097 	1.803315053709191e-12 	101324.9999999905
0.1689189189189185 	300.0000000000285 	2.172959059760085e-12 	101324.9999999902
0.1714214214214209 	299.9999999999952 	2.892420520784106e-12 	101324.9999999901
0.1739239239239235 	299.9999999999858 	1.625625920403624e-12 	101324.9999999901
0.1764264264264259 	299.999999999966 	3.481261358705176e-12 	101324.9999999903
0.1789289289289284 	300.000000000004 	1.129784733530319e-12 	101324.9999999905
0.181431431431431 	299.9999999999608 	3.659728988095307e-12 	101324.9999999902
0.1839339339339334 	299.9999999999694 	2.037931605094135e-12 	101324.9999999902
0.186436436436436 	299.99999999992 	3.39932209051358e-12 	101324.9999999902
0.1889389389389385 	299.9999999999814 	3.214738131932417e-12 	101324.9999999902
0.191441441441441 	299.9999999999762 	3.019405122269371e-12 	101324.9999999901
0.1939439439439434 	299.999999999914 	4.242957901389846e-12 	101324.9999999904
0.196446446446446 	299.9999999999429 	2.758156839968291e-12 	101324.9999999906
0.1989489489489485 	299.9999999999679 	5.698051095670381e-12 	101324.9999999906
0.2014514514514509 	299.9999999999831 	3.578157944039586e-12 	101324.9999999909
0.2039539539539535 	299.9999999999907 	5.338801556108982e-12 	101324.9999999908
0.2064564564564559 	299.9999999999558 	4.516082906376458e-12 	101324.9999999908
0.2089589589589585 	299.9999999999802 	4.495355054239955e-12 	101324.9999999907
0.211461461461461 	299.999999999931 	4.290724422594416e-12 	101324.9999999907
0.2139639639639635 	299.9999999999833 	3.451954351216455e-12 	101324.9999999907
0.2164664664664659 	299.9999999999952 	4.629301422224282e-12 	101324.9999999907
0.2189689689689684 	299.9999999999952 	1.967037157231687e-12 	101324.9999999909
0.221471471471471 	299.999999999992 	4.197575613775903e-12 	101324.9999999911
0.2239739739739735 	299.9999999999533 	1.147311050275744e-12 	101324.9999999909
0.226476476476476 	299.9999999999766 	2.605602573521964e-12 	101324.9999999907
0.2289789789789785 	299.9999999999949 	1.52447654027884e-12 	101324.9999999906
0.231481481481481 	299.9999999999888 	1.432376336182477e-12 	101324.9999999905
0.2339839839839835 	299.9999999999862 	2.179363356552207e-12 	101324.9999999903
0.236486486486486 	300.0000000000214 	1.08892866224852e-12 	101324.9999999903
0.2389889889889885 	300.0000000000016 	2.579710031991581e-12 	101324.9999999905
0.241491491491491 	299.9999999999187 	3.751551526068332e-13 	101324.9999999906
0.2439939939939935 	299.9999999999805 	2.91414481242015e-12 	101324.9999999905
0.246496496496496 	299.999999999992 	2.487969970585371e-13 	101324.9999999906
0.2489989989989985 	300.0000000000379 	2.35993270775907e-12 	101324.9999999905
0.251501501501501 	300.0000000000308 	1.00229916399425e-12 	101324.9999999905
0.2540040040040035 	299.9999999999905 	1.039558847504637e-12 	101324.9999999905
0.256506506506506 	300.0000000000292 	1.416837416714639e-12 	101324.9999999905
0.2590090090090086 	299.9999999999036 	8.125110171736838e-13 	101324.9999999905
0.261511511511511 	300 	2.564582641270625e-12 	101324.9999999907
0.2640140140140135 	299.9999999999887 	8.583291300891939e-13 	101324.9999999906
0.2665165165165161 	299.9999999999258 	1.798069268101285e-12 	101324.9999999907
0.2690190190190185 	300.0000000000103 	7.2714115138196e-13 	101324.9999999908
0.271521521521521 	300.0000000000145 	1.145253929968339e-12 	101324.999999991
0.2740240240240235 	300.0000000000153 	1.078461600505313e-12 	101324.9999999909
0.276526526526526 	300.0000000000077 	3.078305498847562e-13 	101324.9999999909
0.2790290290290286 	299.9999999999421 	1.63530233808376e-12 	101324.9999999911
0.281531531531531 	299.9999999999261 	5.080324085326214e-13 	101324.9999999913
0.2840340340340335 	299.9999999999743 	2.384351832007015e-12 	101324.9999999912
0.2865365365365361 	299.9999999999581 	1.351113968607645e-12 	101324.9999999911
0.2890390390390385 	299.9999999999987 	1.786992719517386e-12 	101324.9999999909
0.291541541541541 	299.9999999999993 	1.235679912506751e-12 	101324.9999999906
0.2940440440440436 	299.9999999999907 	3.845828074342858e-13 	101324.9999999904
0.296546546546546 	299.9999999999935 	2.161920792513254e-12 	101324.9999999902
0.2990490490490486 	299.9999999999331 	1.608148341871346e-12 	101324.9999999902
0.3015515515515511 	300.0000000000353 	3.516989762027775e-12 	101324.9999999903
0.3040540540540535 	299.9999999999956 	3.055476309999939e-12 	101324.9999999905
0.3065565565565562 	299.999999999997 	4.142627286685297e-12 	101324.9999999905
0.3090590590590585 	299.9999999999891 	2.644890915756321e-12 	101324.9999999904
0.3115615615615611 	299.9999999999383 	3.524062746947473e-12 	101324.9999999904
0.3140640640640635 	300.0000000000085 	1.5881086096824e-12 	101324.9999999903
0.316566566566566 	299.9999999999926 	2.338496465745552e-12 	101324.9999999904
0.3190690690690687 	299.9999999999483 	1.021285465530077e-12 	101324.9999999907
0.3215715715715711 	300.0000000000173 	2.971755236775068e-12 	101324.999999991
0.3240740740740735 	299.9999999999999 	1.011917051522589e-12 	101324.9999999909
0.326576576576576 	299.9999999999058 	3.077500800585045e-12 	101324.9999999909
0.3290790790790786 	300.0000000000093 	1.840446065897981e-12 	101324.9999999909
0.3315815815815811 	300.0000000000335 	2.946625390849828e-12 	101324.999999991
0.3340840840840836 	299.999999999985 	2.003534986888587e-12 	101324.9999999908
0.3365865865865861 	300.0000000000555 	2.391962721493732e-12 	101324.9999999908
0.3390890890890886 	300.0000000000513 	6.672199778022622e-13 	101324.9999999903
0.3415915915915911 	300.0000000000027 	1.478098308395374e-12 	101324.9999999901
0.3440940940940935 	299.9999999999466 	7.649656342063504e-13 	101324.9999999901
0.3465965965965962 	300.000000000033 	1.002259921439232e-12 	101324.9999999903
0.3490990990990985 	300.0000000000261 	6.020173493387661e-13 	101324.9999999904
0.3516016016016011 	299.9999999999873 	8.288052510734894e-13 	101324.9999999903
0.3541041041041035 	300.0000000000063 	8.59233817665925e-13 	101324.9999999903
0.3566066066066061 	299.9999999999569 	5.250269501759914e-13 	101324.9999999902
0.3591091091091085 	299.9999999999171 	1.987478019293239e-12 	101324.99999999
0.3616116116116112 	299.9999999999366 	1.119118391516076e-12 	101324.9999999898
0.3641141141141137 	299.9999999999297 	2.392224851538153e-12 	101324.9999999897
0.3666166166166161 	299.9999999999246 	2.323152869727834e-12 	101324.9999999901
0.3691191191191185 	300.0000000000402 	3.012217290482686e-12 	101324.9999999903
0.371621621621621 	300.0000000000098 	2.338344400289023e-12 	101324.9999999902
0.3741241241241237 	300.000000000047 	2.316534706491551e-12 	101324.9999999904
0.3766266266266261 	300.0000000000314 	1.299979079148841e-12 	101324.9999999905
0.3791291291291286 	299.999999999986 	2.116608402460209e-12 	101324.9999999906
0.3816316316316311 	299.9999999999184 	1.153186906874127e-12 	101324.9999999906
0.3841341341341336 	300.0000000000089 	1.493944466251249e-12 	101324.9999999906
0.3866366366366362 	299.9999999999973 	1.138043624231014e-12 	101324.9999999906
0.3891391391391387 	299.999999999954 	1.029603617122255e-12 	101324.9999999906
0.391641641641641 	299.9999999999927 	7.181483082557634e-13 	101324.9999999908
0.3941441441441436 	300.0000000000104 	6.173419030199471e-13 	101324.9999999908
0.3966466466466462 	300.0000000000026 	1.176776049427743e-12 	101324.9999999906
0.3991491491491486 	299.9999999999508 	3.796784415285289e-13 	101324.9999999908
0.4016516516516512 	299.9999999999184 	1.392863180449555e-12 	101324.9999999905
0.4041541541541536 	299.9999999999468 	1.105668426779995e-12 	101324.9999999906
0.4066566566566561 	299.9999999999479 	7.551384837940827e-13 	101324.9999999905
0.4091591591591587 	299.999999999994 	1.77910482023274e-12 	101324.9999999905
0.4116616616616612 	300.000000000006 	8.9439682801224e-13 	101324.9999999903
0.4141641641641635 	300.0000000000386 	1.881287173034735e-12 	101324.9999999903
0.4166666666666662 	299.9999999999947 	2.069382867757312e-12 	101324.9999999902
0.4191691691691687 	299.9999999999433 	1.094435929599126e-12 	101324.9999999901
0.421671671671671 	300.0000000000132 	2.930495108547422e-12 	101324.9999999901
0.4241741741741737 	299.9999999999724 	2.094689757454353e-12 	101324.9999999902
0.4266766766766761 	299.999999999949 	2.637535711767486e-12 	101324.9999999902
0.4291791791791785 	300.0000000000184 	3.792371556071677e-12 	101324.9999999905
0.4316816816816812 	300.0000000000109 	2.640433228207533e-12 	101324.9999999906
0.4341841841841836 	299.9999999999844 	3.577215940753553e-12 	101324.9999999907
0.4366866866866862 	299.9999999999227 	1.484380564458343e-12 	101324.9999999905
0.4391891891891885 	299.9999999999877 	2.586725605577973e-12 	101324.9999999902
0.4416916916916913 	299.999999999981 	1.023137477685224e-12 	101324.9999999903
0.4441941941941936 	299.9999999999844 	1.597816336627715e-12 	101324.99999999
0.4466966966966961 	299.9999999999147 	1.070900163631768e-12 	101324.99999999
0.4491991991991987 	299.9999999999817 	6.231684875211725e-13 	101324.99999999
0.4517017017017012 	299.9999999999781 	1.529837251675115e-12 	101324.9999999899
0.4542042042042035 	299.9999999999803 	1.946590209701756e-12 	101324.9999999898
0.4567067067067062 	299.9999999999944 	1.949827119601747e-12 	101324.9999999897
0.4592092092092087 	299.9999999999251 	1.953160669609224e-12 	101324.9999999898
0.4617117117117112 	300.000000000018 	1.68212524605052e-12 	101324.9999999899
0.4642142142142137 	299.9999999999598 	1.344519774612889e-12 	101324.99999999
0.4667167167167162 	299.9999999999891 	9.587208598763841e-13 	101324.99999999
0.4692192192192187 	299.999999999953 	6.266481032417867e-13 	101324.9999999901
0.4717217217217212 	300.000000000013 	7.415838677342063e-13 	101324.9999999901
0.4742242242242236 	299.9999999999544 	3.67395039492081e-13 	101324.9999999901
0.4767267267267262 	299.9999999999798 	4.559820319549641e-13 	101324.99999999
0.4792292292292287 	300.0000000000151 	7.47433232005412e-13 	101324.9999999902
0.4817317317317312 	300.0000000000314 	1.488012240327356e-12 	101324.99999999
0.4842342342342336 	299.9999999999873 	1.658822855983543e-12 	101324.99999999
0.4867367367367362 	299.9999999999534 	2.431959826720573e-12 	101324.9999999898
0.4892392392392387 	300.0000000000284 	1.34322066581323e-12 	101324.99999999
0.4917417417417412 	300.0000000000064 	2.188269947612495e-12 	101324.9999999899
0.4942442442442437 	299.9999999999069 	1.004164785214638e-12 	101324.99999999
0.4967467467467462 	299.9999999999232 	2.220642178478077e-12 	101324.9999999899
0.4992492492492487 	299.9999999999181 	4.477502055230347e-13 	101324.99999999
0.5017517517517511 	299.9999999999533 	9.461798658500234e-13 	101324.99999999
0.5042542542542537 	299.9999999999644 	4.241184401789665e-13 	101324.9999999901
0.5067567567567562 	299.999999999944 	6.943315109620375e-13 	101324.99999999
0.5092592592592589 	299.999999999969 	6.982792364663987e-13 	101324.9999999901
0.5117617617617611 	299.9999999999563 	1.439082026308375e-12 	101324.9999999902
0.5142642642642637 	299.9999999999851 	1.960524410880227e-12 	101324.9999999903
0.5167667667667663 	299.9999999999729 	2.732290926075794e-12 	101324.9999999905
0.5192692692692688 	299.9999999999194 	2.596809081974475e-12 	101324.9999999907
0.5217717717717714 	299.9999999999339 	3.696954838293746e-12 	101324.9999999905
0.5242742742742736 	299.9999999999369 	2.737372004467743e-12 	101324.9999999903
0.5267767767767763 	299.9999999999551 	2.911494663588401e-12 	101324.9999999901
0.5292792792792789 	299.999999999937 	2.260569895648796e-12 	101324.99999999
0.5317817817817813 	299.9999999999084 	2.303979430178517e-12 	101324.9999999899
0.5342842842842837 	300.000000000014 	9.702102933590379e-13 	101324.9999999898
0.5367867867867864 	300.000000000003 	1.568648738862466e-12 	101324.9999999895
0.5392892892892888 	299.9999999999566 	7.70387791126129e-13 	101324.9999999893
0.5417917917917912 	300.0000000000015 	1.7184543973643e-12 	101324.9999999894
0.5442942942942938 	299.999999999984 	7.527193983405141e-13 	101324.9999999896
0.5467967967967964 	299.999999999955 	1.529520737090622e-12 	101324.9999999899
0.5492992992992988 	299.9999999999447 	6.670870672905849e-13 	101324.9999999902
0.5518018018018012 	299.9999999999371 	1.820745318643344e-12 	101324.9999999904
0.5543043043043039 	300.0000000000198 	1.406658689783228e-12 	101324.9999999904
0.5568068068068063 	299.9999999999901 	1.96712698007823e-12 	101324.9999999903
0.5593093093093087 	299.999999999903 	8.96746565379902e-13 	101324.9999999903
0.5618118118118114 	299.9999999999595 	2.282192856868272e-12 	101324.9999999903
0.5643143143143137 	299.9999999999411 	1.707253749516203e-12 	101324.9999999903
0.5668168168168163 	299.9999999999908 	2.6415255477046e-12 	101324.9999999903
0.5693193193193188 	300.0000000000316 	2.627736179625381e-12 	101324.9999999902
0.5718218218218213 	300.0000000000258 	1.79363979716843e-12 	101324.9999999901
0.5743243243243239 	300.0000000000061 	2.526419020271012e-12 	101324.9999999902
0.5768268268268262 	300.0000000000071 	1.432225775463537e-12 	101324.9999999906
0.5793293293293288 	299.9999999999515 	3.613570473238343e-12 	101324.9999999907
0.5818318318318314 	299.9999999999168 	1.954521885997062e-12 	101324.9999999906
0.5843343343343338 	299.9999999999778 	4.73328418609853e-12 	101324.9999999906
0.5868368368368363 	299.9999999999728 	1.609783877524516e-12 	101324.9999999906
0.5893393393393387 	299.999999999946 	4.672438034686457e-12 	101324.9999999907
0.5918418418418413 	299.9999999999398 	2.581226893764402e-12 	101324.9999999908
0.5943443443443439 	300.0000000000135 	4.610992704519052e-12 	101324.999999991
0.5968468468468463 	300.0000000000173 	2.789318385535763e-12 	101324.9999999911
0.5993493493493487 	300.0000000000449 	4.327320198390786e-12 	101324.9999999912
0.6018518518518514 	299.9999999999792 	2.539223819593375e-12 	101324.9999999912
0.6043543543543537 	299.9999999999899 	3.271309562388577e-12 	101324.9999999913
0.6068568568568564 	299.9999999999804 	1.699723887407378e-12 	101324.9999999915
0.6093593593593587 	299.9999999999358 	2.530977749763666e-12 	101324.9999999916
0.6118618618618614 	299.9999999999247 	1.903135443022019e-12 	101324.9999999916
0.6143643643643638 	300.0000000000122 	2.900425720969321e-12 	101324.9999999916
0.6168668668668662 	299.9999999999775 	1.421944394170809e-12 	101324.9999999917
0.6193693693693688 	299.9999999999572 	2.892789489349241e-12 	101324.9999999916
0.6218718718718714 	299.9999999999657 	1.851086036156051e-12 	101324.9999999914
0.6243743743743737 	299.9999999999372 	3.994461170365871e-12 	101324.9999999914
0.6268768768768762 	299.9999999999258 	2.911873645384236e-12 	101324.9999999914
0.629379379379379 	299.9999999999534 	3.952380091961135e-12 	101324.9999999913
0.6318818818818812 	299.9999999999779 	3.507565451976135e-12 	101324.9999999914
0.6343843843843838 	300.0000000000183 	3.704214420624121e-12 	101324.9999999916
0.6368868868868864 	299.9999999999815 	4.408945047083894e-12 	101324.9999999915
0.6393893893893888 	299.9999999999231 	3.139062916245207e-12 	101324.9999999915
0.6418918918918912 	300.0000000000107 	5.2220287156767e-12 	101324.9999999915
0.6443943943943939 	299.9999999999812 	2.181109686066727e-12 	101324.9999999914
0.6468968968968963 	299.9999999999821 	5.872100311726505e-12 	101324.9999999915
0.6493993993993988 	299.9999999999786 	2.359874637816137e-12 	101324.9999999915
0.6519019019019012 	299.9999999999732 	5.515518292260824e-12 	101324.9999999917
0.6544044044044038 	299.9999999999063 	2.47836632001735e-12 	101324.9999999917
0.6569069069069065 	299.9999999999541 	4.849633903179155e-12 	101324.999999992
0.6594094094094087 	299.9999999999644 	2.284401683050232e-12 	101324.9999999922
0.6619119119119113 	299.9999999999549 	4.767118874195733e-12 	101324.9999999924
0.664414414414414 	300.0000000000068 	3.079417367828892e-12 	101324.9999999925
0.6669169169169162 	300.0000000000241 	3.898422101123854e-12 	101324.9999999926
0.6694194194194188 	299.9999999999896 	1.83265813885564e-12 	101324.9999999925
0.6719219219219214 	299.9999999999237 	2.814026428214792e-12 	101324.9999999923
0.674424424424424 	299.9999999999734 	1.972524796474734e-12 	101324.9999999923
0.6769269269269262 	299.9999999999202 	2.596613506500234e-12 	101324.9999999922
0.679429429429429 	300.0000000000047 	1.820284012905502e-12 	101324.9999999924
0.6819319319319311 	299.9999999999825 	2.668165986286703e-12 	101324.9999999925
0.6844344344344341 	299.9999999999954 	2.307851100442466e-12 	101324.9999999924
0.686936936936936 	299.99999999999 	3.469610843441054e-12 	101324.9999999925
0.6894394394394392 	299.999999999982 	2.790820379271104e-12 	101324.9999999926
0.6919419419419413 	299.9999999999848 	2.957111613506211e-12 	101324.9999999925
0.694444444444444 	299.9999999999393 	3.460494149778179e-12 	101324.9999999925
0.6969469469469463 	299.9999999999309 	4.119599128233651e-12 	101324.9999999925
0.6994494494494489 	299.999999999922 	5.296488890611063e-12 	101324.9999999924
0.7019519519519515 	299.9999999999876 	4.619599098842727e-12 	101324.9999999923
0.7044544544544538 	299.9999999999502 	6.069465031832076e-12 	101324.9999999924
0.7069569569569564 	299.9999999999986 	4.081788493105886e-12 	101324.9999999925
0.7094594594594589 	299.9999999999688 	5.998920983430599e-12 	101324.9999999924
0.7119619619619615 	299.9999999999174 	3.657118262888156e-12 	101324.9999999923
0.7144644644644638 	299.9999999999545 	4.988871033624969e-12 	101324.9999999923
0.7169669669669665 	299.9999999999276 	3.287390089283819e-12 	101324.9999999924
0.7194694694694688 	299.9999999999942 	4.054144603188338e-12 	101324.9999999925
0.7219719719719715 	299.9999999999886 	3.644103894589334e-12 	101324.9999999927
0.7244744744744737 	300.0000000000084 	4.024076620918584e-12 	101324.9999999928
0.7269769769769764 	299.9999999999979 	4.134951794116365e-12 	101324.9999999928
0.7294794794794791 	299.9999999999899 	3.269915066843072e-12 	101324.999999993
0.7319819819819813 	299.9999999999847 	5.035051529732768e-12 	101324.9999999932
0.7344844844844839 	299.9999999999222 	4.117418439332612e-12 	101324.9999999933
0.7369869869869864 	299.9999999999464 	5.673028575455298e-12 	101324.9999999934
0.739489489489489 	299.9999999999404 	5.391637934465046e-12 	101324.9999999933
0.7419919919919914 	299.9999999999295 	5.475695782129639e-12 	101324.9999999932
0.7444944944944939 	299.9999999999839 	6.218556273027387e-12 	101324.999999993
0.7469969969969963 	299.9999999999734 	4.726913493994808e-12 	101324.9999999929
0.7494994994994989 	299.999999999944 	6.428876451611494e-12 	101324.9999999929
0.7520020020020015 	299.9999999999696 	3.69459034458289e-12 	101324.9999999931
0.7545045045045039 	299.9999999999669 	6.373762689284018e-12 	101324.9999999933
0.7570070070070062 	299.9999999999427 	3.926260230325461e-12 	101324.9999999931
0.7595095095095092 	299.9999999999355 	5.643248165971824e-12 	101324.9999999932
0.7620120120120112 	300.00000000001 	5.093012181648503e-12 	101324.9999999933
0.7645145145145138 	299.9999999999891 	5.783975225726516e-12 	101324.9999999935
0.7670170170170165 	299.999999999933 	6.634159330849291e-12 	101324.9999999938
0.7695195195195191 	299.9999999999261 	5.910691657652429e-12 	101324.999999994
0.7720220220220213 	299.9999999999411 	7.885082913456332e-12 	101324.999999994
0.7745245245245239 	299.9999999999339 	5.784143814630173e-12 	101324.9999999937
0.7770270270270263 	299.9999999999651 	7.346039934870964e-12 	101324.9999999935
0.779529529529529 	299.9999999999817 	6.03432698030076e-12 	101324.9999999934
0.7820320320320313 	299.9999999999723 	6.636154448917907e-12 	101324.9999999935
0.784534534534534 	300.0000000000012 	6.536757758608339e-12 	101324.9999999936
0.7870370370370364 	299.9999999999923 	6.035675563427628e-12 	101324.9999999937
0.7895395395395389 	299.9999999999782 	6.685580315470182e-12 	101324.9999999938
0.7920420420420413 	299.9999999999758 	5.499235198198782e-12 	101324.9999999937
0.794544544544544 	299.9999999999731 	7.444180930443709e-12 	101324.9999999938
0.7970470470470463 	300 	5.906031815159523e-12 	101324.9999999939
0.799549549549549 	299.9999999999885 	9.603333179286035e-12 	101324.9999999938
0.8020520520520515 	299.9999999999852 	7.064400012721917e-12 	101324.9999999938
0.8045545545545539 	299.9999999999449 	8.925662172346553e-12 	101324.9999999939
0.8070570570570563 	299.9999999999833 	7.441826570357571e-12 	101324.9999999939
0.8095595595595589 	299.9999999999604 	7.708384303260225e-12 	101324.999999994
0.8120620620620614 	299.9999999999457 	7.670492204133243e-12 	101324.9999999942
0.8145645645645638 	300.0000000000028 	7.476146364250425e-12 	101324.9999999942
0.8170670670670666 	300.000000000002 	7.79348864467621e-12 	101324.9999999942
0.8195695695695689 	299.9999999999822 	6.14845239332494e-12 	101324.9999999941
0.8220720720720714 	299.9999999999454 	8.382920018928574e-12 	101324.999999994
0.8245745745745739 	299.9999999999923 	5.821353769610311e-12 	101324.9999999939
0.8270770770770765 	299.9999999999795 	7.068258969233991e-12 	101324.9999999939
0.8295795795795788 	299.9999999999547 	5.590075153405267e-12 	101324.9999999937
0.8320820820820815 	300.0000000000144 	5.922588639498975e-12 	101324.9999999936
0.834584584584584 	300.000000000002 	5.186563923134924e-12 	101324.9999999938
0.8370870870870865 	299.999999999956 	5.180931759016269e-12 	101324.9999999938
0.8395895895895891 	299.9999999999283 	6.251844774223044e-12 	101324.9999999937
0.8420920920920915 	299.9999999999547 	5.666259671074854e-12 	101324.9999999936
0.844594594594594 	299.9999999999427 	6.189046452763312e-12 	101324.9999999935
0.8470970970970964 	299.9999999999447 	6.628423056690953e-12 	101324.9999999935
0.8495995995995991 	299.9999999999935 	6.994836446884103e-12 	101324.9999999937
0.8521021021021015 	299.9999999999827 	7.653075645494346e-12 	101324.9999999939
0.8546046046046039 	299.9999999999736 	7.289431160664858e-12 	101324.9999999938
0.8571071071071066 	300.0000000000038 	8.13790876038475e-12 	101324.9999999938
0.8596096096096089 	299.9999999999714 	6.212788939262361e-12 	101324.9999999941
0.8621121121121116 	299.9999999999403 	8.883424802764747e-12 	101324.9999999942
0.8646146146146139 	300.000000000001 	6.765787087154293e-12 	101324.9999999942
0.8671171171171166 	299.9999999999779 	8.158036967035568e-12 	101324.9999999944
0.8696196196196189 	299.9999999999425 	7.287182755585678e-12 	101324.9999999946
0.8721221221221216 	299.9999999999728 	7.783590441217411e-12 	101324.9999999947
0.874624624624624 	300.0000000000073 	7.242682435806282e-12 	101324.9999999946
0.8771271271271264 	300.0000000000002 	6.480118400372421e-12 	101324.9999999944
0.879629629629629 	299.9999999999986 	6.981915266029599e-12 	101324.9999999942
0.8821321321321317 	299.9999999999846 	5.569847719316578e-12 	101324.9999999942
0.8846346346346339 	299.99999999993 	7.998513676174526e-12 	101324.9999999941
0.8871371371371364 	299.9999999999575 	5.440648010273677e-12 	101324.999999994
0.8896396396396391 	299.9999999999604 	7.030907030771703e-12 	101324.9999999941
0.8921421421421414 	299.9999999999678 	6.128548969692661e-12 	101324.9999999942
0.8946446446446441 	299.9999999999876 	7.432023524485416e-12 	101324.9999999942
0.8971471471471464 	300.0000000000019 	7.193458384128893e-12 	101324.9999999941
0.8996496496496489 	299.9999999999809 	7.133158107842373e-12 	101324.9999999939
0.9021521521521517 	299.9999999999644 	8.066525144193979e-12 	101324.9999999939
0.9046546546546541 	299.9999999999902 	6.50070783861726e-12 	101324.999999994
0.9071571571571564 	299.9999999999467 	6.440689185071714e-12 	101324.999999994
0.9096596596596589 	299.9999999999479 	5.876196634162504e-12 	101324.999999994
0.9121621621621616 	300.00000000001 	6.177424873838082e-12 	101324.9999999939
0.9146646646646639 	299.9999999999786 	6.045190131951195e-12 	101324.9999999938
0.9171671671671666 	299.9999999999453 	5.976816685497461e-12 	101324.9999999939
0.9196696696696689 	299.9999999999983 	6.724479797961271e-12 	101324.999999994
0.9221721721721714 	299.9999999999987 	5.177876305528604e-12 	101324.9999999941
0.9246746746746741 	299.9999999999449 	7.660933914719235e-12 	101324.9999999943
0.9271771771771765 	299.9999999999515 	5.437146466049179e-12 	101324.9999999942
0.9296796796796791 	299.9999999999939 	7.281174562559205e-12 	101324.9999999941
0.9321821821821816 	299.9999999999763 	5.804354051817868e-12 	101324.999999994
0.9346846846846838 	299.9999999999561 	6.939571381305156e-12 	101324.9999999941
0.9371871871871866 	300.000000000016 	6.164012374354805e-12 	101324.999999994
0.9396896896896891 	300.0000000000166 	6.198816224512795e-12 	101324.9999999939
0.9421921921921914 	300.0000000000107 	6.726252580933276e-12 	101324.9999999938
0.9446946946946939 	299.9999999999668 	5.838617001974559e-12 	101324.9999999938
0.9471971971971965 	299.9999999999254 	7.708491091155725e-12 	101324.9999999937
0.9496996996996991 	299.9999999999566 	5.764006960485577e-12 	101324.9999999936
0.9522022022022016 	299.9999999999708 	7.479948855402741e-12 	101324.9999999936
0.9547047047047038 	299.9999999999705 	6.641583953702359e-12 	101324.9999999935
0.9572072072072064 	299.9999999999614 	7.416914678054394e-12 	101324.9999999934
0.9597097097097093 	299.9999999999603 	7.215208746132892e-12 	101324.9999999933
0.9622122122122114 	299.9999999999542 	7.397843466292166e-12 	101324.9999999931
0.964714714714714 	299.9999999999538 	8.439863702055089e-12 	101324.9999999932
0.9672172172172167 	299.9999999999593 	7.616666574550952e-12 	101324.9999999935
0.969719719719719 	299.9999999999899 	8.333638332913115e-12 	101324.9999999935
0.9722222222222214 	299.9999999999783 	7.494141580756691e-12 	101324.9999999936
0.9747247247247239 	299.9999999999745 	7.551213096387944e-12 	101324.9999999937
0.9772272272272267 	300.0000000000016 	7.608544163704252e-12 	101324.9999999938
0.9797297297297292 	299.9999999999884 	7.261192887269816e-12 	101324.9999999938
0.9822322322322313 	299.9999999999937 	8.010725285699728e-12 	101324.9999999937
0.9847347347347344 	299.9999999999935 	6.328157008711842e-12 	101324.9999999937
0.9872372372372363 	299.9999999999515 	8.291596730792868e-12 	101324.9999999938
0.9897397397397389 	299.9999999999752 	5.758515554337687e-12 	101324.9999999937
0.9922422422422417 	299.9999999999555 	7.416841921282699e-12 	101324.9999999935
0.9947447447447441 	299.9999999999519 	6.017419742816158e-12 	101324.9999999935
0.9972472472472468 	299.9999999999608 	6.920383484934112e-12 	101324.9999999935
0.999749749749749 	299.9999999999649 	6.976524069935348e-12 	101324.9999999936
1.002252252252252 	299.9999999999862 	7.907551567212415e-12 	101324.9999999938
1.004754754754754 	299.9999999999833 	8.270754971067695e-12 	101324.9999999939
1.007257257257256 	299.9999999999686 	7.571150548821962e-12 	101324.999999994
1.009759759759759 	299.9999999999599 	9.636631666173718e-12 	101324.9999999939
1.012262262262261 	299.9999999999555 	8.099648492846885e-12 	101324.9999999937
1.014764764764764 	299.9999999999283 	9.736617596048158e-12 	101324.9999999938
1.017267267267267 	299.9999999999177 	8.697345046654589e-12 	101324.9999999939
1.019769769769769 	299.9999999999528 	9.772982403808852e-12 	101324.9999999939
1.022272272272272 	299.9999999999679 	9.044784394539223e-12 	101324.9999999939
1.024774774774774 	299.9999999999789 	8.639193085936574e-12 	101324.9999999938
1.027277277277277 	299.9999999999753 	9.409501691273092e-12 	101324.9999999936
1.029779779779779 	300.0000000000014 	8.617668737977831e-12 	101324.9999999935
1.032282282282282 	300.0000000000006 	9.091868140148678e-12 	101324.9999999935
1.034784784784784 	299.9999999999908 	8.22517098493971e-12 	101324.9999999935
1.037287287287286 	299.9999999999648 	8.522845951182561e-12 	101324.9999999935
1.039789789789789 	299.9999999999761 	8.560564528514344e-12 	101324.9999999935
1.042292292292291 	300.0000000000097 	8.571352515465523e-12 	101324.9999999936
1.044794794794794 	300.0000000000205 	8.502186880578082e-12 	101324.9999999937
1.047297297297296 	300.0000000000364 	7.041802866662624e-12 	101324.9999999939
1.049799799799799 	299.9999999999915 	8.000559793179111e-12 	101324.9999999939
1.052302302302302 	299.9999999999615 	6.147138694667142e-12 	101324.9999999937
1.054804804804804 	299.9999999999429 	7.802258654736281e-12 	101324.9999999936
1.057307307307306 	299.9999999999244 	6.914802299032533e-12 	101324.9999999936
1.059809809809809 	299.9999999999534 	8.133488185538811e-12 	101324.9999999935
1.062312312312312 	299.9999999999495 	7.929368013656079e-12 	101324.9999999934
1.064814814814814 	299.9999999999462 	8.620889229238719e-12 	101324.9999999933
1.067317317317317 	299.9999999999253 	8.672119737995738e-12 	101324.9999999931
1.069819819819819 	299.9999999999271 	8.617153516295645e-12 	101324.9999999931
1.072322322322321 	299.99999999999 	1.036478146363843e-11 	101324.9999999929
1.074824824824824 	300.0000000000161 	8.730657749850146e-12 	101324.9999999928
1.077327327327327 	300.000000000031 	9.908963027237284e-12 	101324.9999999929
1.079829829829829 	300.0000000000329 	8.504874451783275e-12 	101324.999999993
1.082332332332332 	299.9999999999971 	8.832167515669637e-12 	101324.999999993
1.084834834834834 	299.9999999999719 	8.239896982682792e-12 	101324.9999999928
1.087337337337337 	299.9999999999387 	8.018051081420084e-12 	101324.9999999927
1.089839839839839 	299.9999999999318 	8.867545696889091e-12 	101324.9999999928
1.092342342342342 	299.9999999999696 	7.160876911171944e-12 	101324.9999999929
1.094844844844844 	299.999999999972 	7.888735064137802e-12 	101324.9999999932
1.097347347347347 	299.9999999999447 	6.455931493674395e-12 	101324.9999999933
1.099849849849849 	299.9999999999321 	9.023403891018859e-12 	101324.9999999935
1.102352352352352 	299.9999999999584 	7.249353550707046e-12 	101324.9999999936
1.104854854854854 	299.9999999999808 	9.084479533666128e-12 	101324.9999999936
1.107357357357357 	299.9999999999645 	7.469205402960502e-12 	101324.9999999936
1.109859859859859 	299.9999999999498 	8.952496151562299e-12 	101324.9999999937
1.112362362362362 	300.0000000000159 	8.011367644722545e-12 	101324.9999999937
1.114864864864865 	300.0000000000169 	8.112389577500774e-12 	101324.9999999937
1.117367367367367 	299.9999999999683 	8.576410597126155e-12 	101324.9999999938
1.119869869869869 	299.9999999999315 	7.36106714262893e-12 	101324.9999999939
1.122372372372372 	299.9999999999599 	8.333232845345788e-12 	101324.9999999939
1.124874874874874 	299.9999999999558 	7.193268561404171e-12 	101324.9999999938
1.127377377377377 	299.9999999999687 	8.276650358779624e-12 	101324.9999999937
1.129879879879879 	300.0000000000186 	7.666971037921018e-12 	101324.9999999937
1.132382382382382 	300.0000000000232 	8.059080154213212e-12 	101324.9999999939
1.134884884884884 	299.9999999999997 	8.015833924823882e-12 	101324.9999999939
1.137387387387387 	300.0000000000122 	7.985304794406405e-12 	101324.9999999939
1.139889889889889 	299.9999999999587 	8.70430926561436e-12 	101324.9999999937
1.142392392392392 	299.9999999999499 	7.535616022364405e-12 	101324.9999999937
1.144894894894894 	300.0000000000121 	8.644123166818116e-12 	101324.9999999935
1.147397397397397 	299.9999999999985 	7.605928681562679e-12 	101324.9999999934
1.149899899899899 	299.9999999999395 	8.74724918148133e-12 	101324.9999999932
1.152402402402402 	299.9999999999277 	8.439460194110152e-12 	101324.999999993
1.154904904904904 	299.9999999999732 	9.155274209630463e-12 	101324.9999999928
1.157407407407407 	299.9999999999754 	8.283148680961964e-12 	101324.9999999928
1.159909909909909 	299.9999999999408 	7.898056890325405e-12 	101324.999999993
1.162412412412412 	299.9999999999278 	8.826711688634812e-12 	101324.9999999933
1.164914914914914 	299.9999999999642 	7.406802010188906e-12 	101324.9999999935
1.167417417417417 	299.9999999999739 	8.595831551651389e-12 	101324.9999999933
1.169919919919919 	300.0000000000147 	7.676102261364693e-12 	101324.999999993
1.172422422422422 	300.0000000000348 	8.211627574392242e-12 	101324.999999993
1.174924924924925 	299.9999999999847 	7.312625791709326e-12 	101324.9999999931
1.177427427427427 	299.9999999999651 	8.241022129397334e-12 	101324.9999999933
1.179929929929929 	300.0000000000062 	9.08699263379338e-12 	101324.9999999935
1.182432432432432 	300.000000000024 	7.470434475828714e-12 	101324.9999999934
1.184934934934934 	299.9999999999989 	7.884873030119342e-12 	101324.9999999933
1.187437437437437 	299.9999999999835 	6.81740113667765e-12 	101324.9999999935
1.189939939939939 	299.9999999999764 	7.796898077431716e-12 	101324.9999999936
1.192442442442442 	299.9999999999325 	7.502703853396425e-12 	101324.9999999936
1.194944944944944 	299.9999999999416 	8.70203596375157e-12 	101324.9999999935
1.197447447447447 	300.0000000000084 	8.190556819420848e-12 	101324.9999999934
1.199949949949949 	300.0000000000169 	8.385926780421802e-12 	101324.9999999935
1.202452452452452 	299.9999999999546 	9.136329937118539e-12 	101324.9999999937
1.204954954954955 	299.9999999999519 	7.807581601487962e-12 	101324.9999999937
1.207457457457457 	299.9999999999944 	8.24608100706121e-12 	101324.9999999937
1.20995995995996 	299.9999999999859 	7.145729016928416e-12 	101324.9999999939
1.212462462462462 	299.9999999999773 	7.869551867197268e-12 	101324.9999999942
1.214964964964964 	299.9999999999771 	7.050893230036393e-12 	101324.9999999942
1.217467467467467 	299.9999999999778 	7.805410040687937e-12 	101324.9999999941
1.219969969969969 	299.9999999999694 	6.849345814522451e-12 	101324.9999999939
1.222472472472472 	300.0000000000109 	6.979782127887029e-12 	101324.9999999939
1.224974974974975 	300.000000000023 	7.469751366737016e-12 	101324.9999999938
1.227477477477477 	299.9999999999864 	6.670919245004064e-12 	101324.9999999936
1.229979979979979 	299.9999999999864 	7.927732766590867e-12 	101324.9999999936
1.232482482482482 	299.9999999999545 	7.028309841912365e-12 	101324.9999999936
1.234984984984984 	299.9999999999517 	7.980778459782108e-12 	101324.9999999935
1.237487487487487 	299.9999999999848 	7.004050012633247e-12 	101324.9999999934
1.239989989989989 	299.9999999999902 	7.649972924122407e-12 	101324.9999999934
1.242492492492492 	300.0000000000181 	7.902187074384632e-12 	101324.9999999934
1.244994994994994 	299.9999999999936 	6.880703201437189e-12 	101324.9999999934
1.247497497497497 	300.0000000000006 	7.977154120087265e-12 	101324.9999999934
1.249999999999999 	300.0000000000691 	7.403327681280273e-12 	101324.9999999934
