-1.25 	300 	0.1183339639013963 	101277.4471741852
-1.247497497497497 	299.9571218952883 	0.1190721447485663 	101275.3250348574
-1.244994994994995 	299.9574486810632 	0.1224736348572266 	101274.6981678592
-1.242492492492492 	299.957567326455 	0.1234133392743907 	101274.8435077237
-1.23998998998999 	299.9584004798993 	0.1200394309151654 	101275.8296018542
-1.237487487487487 	299.9601183824646 	0.1152747774340765 	101277.8596162009
-1.234984984984985 	299.962603789561 	0.1080640247005531 	101280.7968520815
-1.232482482482482 	299.9657770872915 	0.09887909195811245 	101284.5471067093
-1.22997997997998 	299.9696132473875 	0.0878309457675458 	101289.080882415
-1.227477477477477 	299.9739674609394 	0.07521080267409933 	101294.2271424535
-1.224974974974975 	299.9787371152037 	0.0614009509064843 	101299.8646423411
-1.222472472472472 	299.9838758433213 	0.04654086715903803 	101305.9386436614
-1.21996996996997 	299.9893197841886 	0.03082502546153052 	101312.3737069124
-1.217467467467467 	299.9949443205512 	0.01455170600945995 	101319.0225418153
-1.214964964964965 	300.0006373641193 	0.008321653725518114 	101325.752692717
-1.212462462462462 	300.0063585181977 	0.01846968684741077 	101332.5163910664
-1.20995995995996 	300.0119971844962 	0.03471015615136822 	101339.1829189193
-1.207457457457457 	300.0173979228557 	0.05034228105928115 	101345.5684514099
-1.204954954954955 	300.0224979058029 	0.06512877174144927 	101351.5986407453
-1.202452452452452 	300.0272219545167 	0.0788022895855839 	101357.1845814583
-1.19994994994995 	300.0314344489415 	0.09093813939707793 	101362.1658446965
-1.197447447447447 	300.0350316406659 	0.101309083818419 	101366.4196536046
-1.194944944944945 	300.0379693900528 	0.10980377472734 	101369.893763489
-1.192442442442442 	300.0402134585854 	0.1162874456382459 	101372.5476330653
-1.18993993993994 	300.041736975709 	0.1206848730415026 	101374.3493984101
-1.187437437437437 	300.0425213888034 	0.1229101365874167 	101375.2771172143
-1.184934934934935 	300.0425203508306 	0.1228677034098201 	101375.2759011085
-1.182432432432432 	300.041690778444 	0.1204827081370805 	101374.2949193255
-1.17992992992993 	300.0400473727425 	0.1157579976138861 	101372.3515824422
-1.177427427427427 	300.0376523992142 	0.1088546354667189 	101369.5194149817
-1.174924924924925 	300.0345765344401 	0.09995489811139337 	101365.8821172764
-1.172422422422422 	300.0308782990709 	0.08924184061716491 	101361.508948388
-1.16991991991992 	300.0266227746076 	0.07693702235765795 	101356.4769445911
-1.167417417417417 	300.0218866782652 	0.06324364169410246 	101350.8768892812
-1.164914914914915 	300.0167540920061 	0.04839457887032593 	101344.8082231453
-1.162412412412412 	300.0113143170176 	0.03266358538104071 	101338.3766355214
-1.15990990990991 	300.0056902425011 	0.01640283134824295 	101331.7274383132
-1.157407407407407 	299.9999928980526 	0.008208637538361098 	101324.9919279366
-1.154904904904904 	299.9942858436954 	0.01657377075504684 	101318.2452660334
-1.152402402402403 	299.988644182763 	0.03287562093324758 	101311.576185895
-1.1498998998999 	299.9831704238893 	0.0486654127137461 	101305.1058918863
-1.147397397397397 	299.9779886017358 	0.06362979951002184 	101298.9809481627
-1.144894894894895 	299.9732287770871 	0.07740414706800816 	101293.3550243799
-1.142392392392392 	299.9689896285333 	0.08968747705208255 	101288.3447081178
-1.13988988988989 	299.9653410433102 	0.1002398078268566 	101284.0324932956
-1.137387387387387 	299.9623292389138 	0.1089351315101509 	101280.4729818619
-1.134884884884885 	299.9599932423401 	0.1156717488626193 	101277.7122116896
-1.132382382382382 	299.9583827265591 	0.1203088027974142 	101275.8087929984
-1.12987987987988 	299.9575420054581 	0.1227440929761147 	101274.8151761377
-1.127377377377377 	299.9574938226759 	0.1228420375419161 	101274.7581976955
-1.124874874874875 	299.9582611350774 	0.1205881657027811 	101275.6649289998
-1.122372372372372 	299.9598306150915 	0.1160806837597022 	101277.5196404704
-1.11986986986987 	299.9621454140288 	0.1094112877940246 	101280.2552293603
-1.117367367367367 	299.9651445475284 	0.1007615895883724 	101283.7996482047
-1.114864864864865 	299.9687704493724 	0.09028104040492153 	101288.0849060983
-1.112362362362362 	299.9729509609976 	0.07814967313092853 	101293.0258248813
-1.10985985985986 	299.9776294067242 	0.06462749669691281 	101298.555453515
-1.107357357357357 	299.9827174778065 	0.04993620093854863 	101304.5695169801
-1.104854854854855 	299.9880968769605 	0.03437258897353013 	101310.9282103643
-1.102352352352353 	299.9936576335134 	0.01825955945226294 	101317.5015699151
-1.09984984984985 	299.9993085438785 	0.007866942013351037 	101324.181842319
-1.097347347347347 	300.0049902028355 	0.01451539476714631 	101330.8987628936
-1.094844844844845 	300.0106331289732 	0.03075580973119017 	101337.5702499649
-1.092342342342342 	300.0161020958765 	0.04655656018246888 	101344.0363734238
-1.08983983983984 	300.0212717250396 	0.06154146002768311 	101350.1488488977
-1.087337337337337 	300.0260414635927 	0.07535539686118366 	101355.7887706113
-1.084834834834835 	300.0303231347738 	0.08770891763823943 	101360.8517571875
-1.082332332332332 	300.0340482783593 	0.09847476906729592 	101365.2568431627
-1.07982982982983 	300.0371740190612 	0.107525641867254 	101368.9532394769
-1.077327327327327 	300.0396379507868 	0.1146562465414364 	101371.8670736062
-1.074824824824825 	300.0413821990932 	0.1196772712907562 	101373.9298909798
-1.072322322322323 	300.0423508882306 	0.122403976935731 	101375.0755321827
-1.06981981981982 	300.0425022465846 	0.1227992934147359 	101375.2545478101
-1.067317317317317 	300.0418397341642 	0.1209200144777145 	101374.4711292785
-1.064814814814815 	300.0404043841639 	0.1167850022199362 	101372.7738063045
-1.062312312312312 	300.0382271940628 	0.1105102195268135 	101370.1991963344
-1.05980980980981 	300.0353493572565 	0.1021850798239834 	101366.7960511537
-1.057307307307307 	300.0318146478112 	0.09194910871116151 	101362.6162311355
-1.054804804804805 	300.0276802978426 	0.08003022855671516 	101357.72747996
-1.052302302302302 	300.0230325939434 	0.06659204733153318 	101352.231877968
-1.0497997997998 	300.0179735755716 	0.05193517165439929 	101346.2501543936
-1.047297297297297 	300.0125947677422 	0.03636089346171566 	101339.8905772107
-1.044794794794795 	300.0070031902466 	0.02016556445345171 	101333.2797340094
-1.042292292292292 	300.0012973674237 	0.007422046422452684 	101326.5341345993
-1.03978978978979 	299.9955590614277 	0.01290578888568826 	101319.750436946
-1.037287287287287 	299.9898838879893 	0.02929810093622564 	101313.041689904
-1.034784784784785 	299.984385355453 	0.04514842677632651 	101306.5420361446
-1.032282282282283 	299.9791788268864 	0.06019709047427214 	101300.3878267552
-1.02977977977978 	299.9743635146921 	0.07412737478187158 	101294.6962795348
-1.027277277277277 	299.97000988793 	0.08674202467539033 	101289.5505916777
-1.024774774774775 	299.9661959595019 	0.09778258919859577 	101285.0429481635
-1.022272272272272 	299.9629987474548 	0.1070187683639815 	101281.264276686
-1.01976976976977 	299.9604885997176 	0.1142684172716481 	101278.2976723515
-1.017267267267267 	299.9587284593861 	0.1193187246057173 	101276.2174380682
-1.014764764764765 	299.9577571654189 	0.1221340566631731 	101275.0694765555
-1.012262262262262 	299.9575694258957 	0.1226487607491842 	101274.8475867877
-1.00975975975976 	299.9581674241844 	0.120889281321834 	101275.5542428321
-1.007257257257257 	299.9595399312582 	0.1169383381995281 	101277.1761665236
-1.004754754754755 	299.9616628091998 	0.110790382296305 	101279.6849420252
-1.002252252252252 	299.9644980264617 	0.1026113456782892 	101283.0356006756
-0.9997497497497498 	299.9679909555339 	0.09255731185495941 	101287.1636897223
-0.9972472472472473 	299.9720477601709 	0.08080437133842842 	101291.9583706541
-0.9947447447447449 	299.976607048336 	0.06762907343949236 	101297.3471170022
-0.9922422422422421 	299.9815851583833 	0.05322229446062274 	101303.2311540375
-0.9897397397397399 	299.9868894873215 	0.03785971203538736 	101309.5010276942
-0.9872372372372376 	299.9924138359169 	0.02188893043806924 	101316.0312925865
-0.9847347347347346 	299.9980477201503 	0.006658704088886758 	101322.6913687138
-0.9822322322322323 	300.0037139914239 	0.01080198485382467 	101329.3900335527
-0.9797297297297296 	300.009328766456 	0.02698940538251459 	101336.0281650049
-0.9772272272272275 	300.0147815607463 	0.04276069883671441 	101342.4750780868
-0.9747247247247248 	300.0199707083059 	0.05775625807552855 	101348.6105721855
-0.9722222222222224 	300.0248089298596 	0.07177539965640145 	101354.3314020521
-0.9697197197197196 	300.029214600911 	0.08450656375081966 	101359.5409692662
-0.9672172172172175 	300.0331030921484 	0.09572626401290295 	101364.139175572
-0.9647147147147147 	300.0363949903909 	0.1052633836443473 	101368.0320126781
-0.9622122122122124 	300.0390209475601 	0.1128356150471426 	101371.1374494407
-0.9597097097097099 	300.0409279501093 	0.1183532140579437 	101373.392727814
-0.9572072072072073 	300.0420740732246 	0.1216285056849364 	101374.7482039971
-0.9547047047047047 	300.0424302469435 	0.1226070603594619 	101375.1694612871
-0.9522022022022023 	300.0419848094912 	0.1213327695467419 	101374.6427027957
-0.9496996996996998 	300.0407497878257 	0.117751892472223 	101373.18229224
-0.9471971971971973 	300.0387559983447 	0.1120332836451601 	101370.8245823076
-0.9446946946946947 	300.0360487090642 	0.1042115358858172 	101367.6230999177
-0.9421921921921923 	300.0326771514463 	0.09444028932238127 	101363.6361972304
-0.93968968968969 	300.0286990889193 	0.08296560298830745 	101358.9321927037
-0.9371871871871872 	300.0241847118053 	0.06989042979815374 	101353.5942084533
-0.9346846846846848 	300.019219305406 	0.05555118592896589 	101347.7231241413
-0.9321821821821823 	300.0138981492244 	0.04014541210050521 	101341.4316377383
-0.9296796796796799 	300.0083310926616 	0.02400169520319272 	101334.84973169
-0.9271771771771771 	300.0026305831085 	0.007538147964781658 	101328.1103117401
-0.9246746746746748 	299.9968933963096 	0.01011504169422685 	101321.3278733348
-0.9221721721721724 	299.9912066001306 	0.025451059344955 	101314.6053244204
-0.9196696696696698 	299.9856726988924 	0.04142082750026259 	101308.0637821481
-0.9171671671671672 	299.9803955618269 	0.05671078992244704 	101301.8260713741
-0.9146646646646649 	299.9754682972844 	0.07093297047797988 	101296.0021120248
-0.9121621621621623 	299.9709846324657 	0.08391320693060948 	101290.7027001558
-0.9096596596596597 	299.9670405338458 	0.0952907943575789 	101286.041188823
-0.9071571571571573 	299.9637177638344 	0.1049108932766279 	101282.1140862792
-0.9046546546546547 	299.9610795782943 	0.11258101380959 	101278.9961722966
-0.9021521521521524 	299.9591717112212 	0.1180691706148227 	101276.7413342399
-0.8996496496496498 	299.9580223568959 	0.1213832632455285 	101275.3829264074
-0.8971471471471473 	299.9576542270366 	0.1223963719083516 	101274.9478682766
-0.894644644644645 	299.958078583022 	0.1211663462718439 	101275.4493044194
-0.892142142142142 	299.9592811375751 	0.1177197201098198 	101276.8704021217
-0.8896396396396397 	299.9612344697711 	0.1120538540035373 	101279.1787762516
-0.8871371371371374 	299.963898679018 	0.104368792529742 	101282.3273243049
-0.8846346346346349 	299.9672213978475 	0.09474563289729912 	101286.2542413373
-0.8821321321321324 	299.9711441145664 	0.08339952680929773 	101290.8903860556
-0.8796296296296297 	299.9755947421101 	0.07055785437635374 	101296.1506738932
-0.8771271271271271 	299.9804793083673 	0.05640885085921371 	101301.9240787969
-0.8746246246246248 	299.9857023223288 	0.04131758055979031 	101308.0977770617
-0.8721221221221224 	299.991155704309 	0.02555364547043015 	101314.5441018483
-0.8696196196196196 	299.9967256812567 	0.009420373705945548 	101321.1285314269
-0.8671171171171175 	300.002339301489 	0.009420601634160298 	101327.7648916575
-0.8646146146146148 	300.0079281310263 	0.02296271030947885 	101334.3722671152
-0.8621121121121121 	300.0134006162963 	0.03877277607856521 	101340.8423770433
-0.8596096096096097 	300.0186600075745 	0.05395285592726238 	101347.060863335
-0.857107107107107 	300.0235955046433 	0.06824049828266293 	101352.8966254854
-0.8546046046046049 	300.0281075412589 	0.08127675426824836 	101358.2319282627
-0.8521021021021022 	300.0321168948665 	0.09287985842837576 	101362.9730171262
-0.8495995995995997 	300.0355482315026 	0.1027810272233992 	101367.0307044478
-0.8470970970970974 	300.0383379797133 	0.1108251670706548 	101370.3298219224
-0.8445945945945946 	300.0404300391177 	0.1168760546163641 	101372.8039080682
-0.8420920920920922 	300.0417614627221 	0.1206925433796949 	101374.3785332468
-0.8395895895895897 	300.0422997015713 	0.1222636910548856 	101375.0151199747
-0.8370870870870872 	300.0420469486263 	0.1215166401775145 	101374.7162123985
-0.8345845845845846 	300.041020196938 	0.1185314439173475 	101373.5020941761
-0.8320820820820823 	300.0392411449453 	0.1134183320526422 	101371.398309804
-0.8295795795795798 	300.0367319590754 	0.1061371598016446 	101368.4311045376
-0.8270770770770772 	300.0335164375904 	0.0968511601348636 	101364.6286925615
-0.8245745745745746 	300.0296571340472 	0.08570511417173883 	101360.0650967129
-0.8220720720720721 	300.0252358149167 	0.07290263552486297 	101354.8371082829
-0.8195695695695699 	300.0203350631371 	0.05873379969079678 	101349.0424050693
-0.817067067067067 	300.0150528494178 	0.04345271828196796 	101342.7969196724
-0.8145645645645651 	300.0095094720068 	0.02743241501352203 	101336.2429355799
-0.8120620620620621 	300.0038266339754 	0.01103514320440434 	101329.5243514246
-0.8095595595595597 	299.9981304475195 	0.009132425428297222 	101322.7903169628
-0.8070570570570572 	299.9924902023928 	0.02177283825703898 	101316.1227153081
-0.8045545545545546 	299.986959891924 	0.03776338137567692 	101309.5853682236
-0.8020520520520523 	299.9816131706635 	0.05320460013887342 	101303.2653339539
-0.7995495495495494 	299.9765550452376 	0.06779601015224086 	101297.286658457
-0.7970470470470474 	299.9719213090287 	0.08118026153860344 	101291.8098273711
-0.7945445445445446 	299.9678473952641 	0.09297584189736913 	101286.9948385412
-0.7920420420420423 	299.9644178695743 	0.1029088702859664 	101282.9415541044
-0.7895395395395397 	299.9616773434848 	0.1108228845400914 	101279.7026712601
-0.7870370370370371 	299.9596424171403 	0.1166995118383276 	101277.2976966881
-0.7845345345345348 	299.9583150963839 	0.1205378507907853 	101275.7289455272
-0.7820320320320323 	299.9577211836136 	0.1222167372718041 	101275.0270406629
-0.7795295295295296 	299.957928708566 	0.1216246902613194 	101275.2722488359
-0.7770270270270272 	299.9589605535568 	0.1186374884726145 	101276.4915942982
-0.7745245245245247 	299.96079982446 	0.1133047520633277 	101278.6651647251
-0.7720220220220222 	299.963362785034 	0.1059122614165248 	101281.6940455237
-0.7695195195195199 	299.9665467440458 	0.09672302112871392 	101285.4569449949
-0.767017017017017 	299.970258472844 	0.08598776750068293 	101289.843715458
-0.7645145145145147 	299.9744422077134 	0.07386796693116827 	101294.7885020695
-0.7620120120120122 	299.9790847288753 	0.06040559063341026 	101300.2757524474
-0.7595095095095097 	299.984179515256 	0.0456579224627363 	101306.2977988802
-0.7570070070070072 	299.9896690457899 	0.02979607068892396 	101312.7867407664
-0.7545045045045048 	299.9954242753207 	0.01318662227140215 	101319.5900978229
-0.7520020020020022 	300.0012559309813 	0.008515938062315704 	101326.4841435913
-0.7494994994994997 	300.0069474531511 	0.02004918314366886 	101333.2128806969
-0.7469969969969972 	300.0123198985946 	0.03557989165006546 	101339.5646933478
-0.7444944944944945 	300.0172919732332 	0.0499909702099708 	101345.4434029698
-0.7419919919919924 	300.0218884457918 	0.06333605878915666 	101350.8782478185
-0.7394894894894897 	300.0261902925221 	0.07582034542288678 	101355.9648981342
-0.7369869869869872 	300.0302573947254 	0.08759345510840005 	101360.774153764
-0.7344844844844846 	300.0340659446204 	0.09857759917685417 	101365.2778411245
-0.7319819819819822 	300.037486277644 	0.1084036894763207 	101369.3225881277
-0.7294794794794797 	300.0403034463233 	0.1164662092530693 	101372.6541869263
-0.7269769769769773 	300.0422675840999 	0.1220629574756222 	101374.9770718327
-0.7244744744744747 	300.043155714307 	0.1245687601963614 	101376.0274651171
-0.721971971971972 	300.0428280390378 	0.1235940567433296 	101375.6399574125
-0.7194694694694695 	300.0412653947411 	0.1190914335273949 	101373.7921421736
-0.7169669669669674 	300.0385820971262 	0.1113882202736212 	101370.6190667224
-0.7144644644644647 	300.0350087496707 	0.1011393120780508 	101366.3934589145
-0.711961961961962 	300.0308521948246 	0.08921404989521896 	101361.4782981391
-0.7094594594594597 	300.0264422722015 	0.07654673001320582 	101356.2636848469
-0.7069569569569573 	300.0220784062558 	0.06398895737023914 	101351.1036985925
-0.7044544544544545 	300.0179913765032 	0.05220470915377918 	101346.2712061711
-0.7019519519519523 	300.0143311110742 	0.04163170672347009 	101341.9434454333
-0.6994494494494495 	300.0111741072994 	0.03249728818103629 	101338.2108185909
-0.6969469469469471 	300.0085385671643 	0.02485995532315095 	101335.0948025478
-0.6944444444444446 	300.0064010977778 	0.01865702384773494 	101332.5677033917
-0.6919419419419421 	300.0047122288358 	0.01374924203878385 	101330.5710057112
-0.6894394394394396 	300.0034092697675 	0.009957965221881256 	101329.0305737094
-0.6869369369369374 	300.0024259535417 	0.00709318633022581 	101327.8680505161
-0.6844344344344344 	300.0016989504737 	0.004972587987200895 	101327.0085576
-0.6819319319319321 	300.0011717088 	0.003432874627447987 	101326.3852331575
-0.6794294294294296 	300.0007962317377 	0.002335114498379274 	101325.9413313811
-0.6769269269269272 	300.0005334082616 	0.001565860859163293 	101325.6306129132
-0.6744244244244245 	300.0003524377569 	0.001035607269786829 	101325.4166637239
-0.6719219219219222 	300.0002297702362 	0.0006758036629483393 	101325.2716422556
-0.6694194194194195 	300.0001478654002 	0.0004353137426390488 	101325.1748116482
-0.6669169169169172 	300.0000939639374 	0.0002768861868472299 	101325.1110875181
-0.6644144144144146 	300.0000589830099 	0.0001739670973455845 	101325.0697319248
-0.661911911911912 	300.0000365851009 	0.0001080040404361892 	101325.0432523276
-0.6594094094094097 	300.0000224297478 	6.627524441983062e-05 	101325.0265173415
-0.656906906906907 	300.0000135959417 	4.020912883992093e-05 	101325.0160737237
-0.6544044044044046 	300.0000081503573 	2.412549792607959e-05 	101325.0096357436
-0.6519019019019021 	300.0000048332374 	1.431911446122335e-05 	101325.0057140742
-0.6493993993993996 	300.0000028359551 	8.409070835615457e-06 	101325.0033527574
-0.6468968968968971 	300.0000016468544 	4.887318949324513e-06 	101325.0019469387
-0.6443943943943946 	300.0000009466359 	2.811751892459316e-06 	101325.0011191533
-0.6418918918918921 	300.0000005387616 	1.601611489133382e-06 	101325.0006369456
-0.6393893893893897 	300.0000003036528 	9.034298231013514e-07 	101325.0003589836
-0.6368868868868871 	300.0000001694884 	5.047442691907778e-07 	101325.0002003946
-0.6343843843843846 	300.0000000937295 	2.793593918225028e-07 	101325.0001108185
-0.6318818818818821 	300.000000051316 	1.531960721926463e-07 	101325.0000607186
-0.6293793793793795 	300.0000000278911 	8.325181713702168e-08 	101325.000032967
-0.6268768768768773 	300.0000000150277 	4.484041937138805e-08 	101325.0000177392
-0.6243743743743745 	300.000000007985 	2.394185039584943e-08 	101325.0000094608
-0.6218718718718721 	300.0000000042405 	1.267311700130356e-08 	101325.0000050012
-0.6193693693693696 	300.0000000021606 	6.653390435706976e-09 	101325.0000026199
-0.6168668668668671 	300.0000000011366 	3.462775593149574e-09 	101325.0000013596
-0.6143643643643645 	300.000000000611 	1.789188782537578e-09 	101325.0000006981
-0.6118618618618621 	300.0000000002942 	9.161008655536646e-10 	101325.000000354
-0.6093593593593596 	300.0000000001465 	4.663750429673396e-10 	101325.0000001765
-0.6068568568568571 	300.0000000000684 	2.353513467912992e-10 	101325.0000000855
-0.6043543543543546 	300.0000000000013 	1.186264601142827e-10 	101325.0000000394
-0.6018518518518521 	299.9999999999891 	5.852586093100246e-11 	101325.0000000161
-0.5993493493493496 	299.9999999999579 	2.964545043250433e-11 	101325.0000000046
-0.5968468468468471 	299.9999999999605 	1.382410185665464e-11 	101324.9999999989
-0.5943443443443446 	299.9999999999927 	7.884446598531807e-12 	101324.999999996
-0.591841841841842 	299.9999999999666 	2.915404490364692e-12 	101324.9999999945
-0.5893393393393397 	299.999999999943 	3.106574390878067e-12 	101324.9999999938
-0.5868368368368371 	299.9999999999889 	2.005434838012726e-12 	101324.9999999936
-0.5843343343343346 	300.0000000000068 	3.166778651357521e-12 	101324.9999999932
-0.5818318318318321 	300.0000000000293 	1.886638551581428e-12 	101324.9999999929
-0.5793293293293297 	299.9999999999876 	2.643294553078988e-12 	101324.9999999927
-0.5768268268268271 	300.0000000000007 	1.629423465338358e-12 	101324.9999999927
-0.5743243243243245 	300.0000000000192 	1.73435998572037e-12 	101324.999999993
-0.5718218218218221 	300.0000000000172 	8.370585748077982e-13 	101324.999999993
-0.5693193193193196 	300.0000000000373 	1.230948614553968e-12 	101324.999999993
-0.5668168168168171 	299.9999999999869 	2.129430702730924e-12 	101324.9999999928
-0.5643143143143147 	299.9999999999521 	1.316176730464149e-12 	101324.9999999927
-0.5618118118118121 	300.0000000000121 	2.628426127293318e-12 	101324.9999999928
-0.5593093093093094 	300.0000000000316 	1.514806875188405e-12 	101324.9999999929
-0.5568068068068072 	300.0000000000142 	2.552464810779733e-12 	101324.9999999929
-0.5543043043043046 	300.0000000000135 	1.732526675721998e-12 	101324.9999999928
-0.551801801801802 	299.9999999999551 	1.900711935920553e-12 	101324.9999999929
-0.5492992992992995 	299.999999999995 	6.977098436539103e-13 	101324.999999993
-0.5467967967967969 	300.0000000000113 	1.821094417878805e-12 	101324.999999993
-0.5442942942942947 	300.0000000000053 	1.358875210271878e-12 	101324.9999999929
-0.5417917917917919 	299.9999999999619 	2.954433999225338e-12 	101324.999999993
-0.5392892892892895 	299.999999999933 	1.866852892797842e-12 	101324.999999993
-0.536786786786787 	299.9999999999601 	4.707751017459018e-12 	101324.9999999929
-0.5342842842842846 	299.9999999999673 	2.791005038077331e-12 	101324.999999993
-0.531781781781782 	299.9999999999378 	5.591174068005796e-12 	101324.9999999931
-0.5292792792792794 	299.9999999999314 	1.571430590546536e-12 	101324.9999999933
-0.526776776776777 	299.9999999999163 	4.900022649728452e-12 	101324.9999999934
-0.5242742742742745 	299.9999999999787 	4.008605645766367e-12 	101324.9999999932
-0.521771771771772 	300.0000000000103 	4.984777485284196e-12 	101324.999999993
-0.5192692692692695 	299.9999999999622 	5.185054166783131e-12 	101324.9999999928
-0.516766766766767 	300.000000000003 	5.165783378169365e-12 	101324.9999999926
-0.5142642642642645 	299.9999999999722 	4.958499999698576e-12 	101324.9999999926
-0.511761761761762 	299.9999999999532 	3.870389791608355e-12 	101324.9999999924
-0.5092592592592596 	299.9999999999687 	4.158893310243697e-12 	101324.9999999922
-0.506756756756757 	299.9999999999437 	3.276103051089712e-12 	101324.999999992
-0.5042542542542544 	299.9999999999951 	2.946687405074216e-12 	101324.999999992
-0.5017517517517521 	300.0000000000267 	2.925775284648923e-12 	101324.999999992
-0.4992492492492494 	300.0000000000304 	1.82069361039011e-12 	101324.9999999921
-0.496746746746747 	299.9999999999894 	2.613474261780901e-12 	101324.9999999923
-0.4942442442442445 	299.9999999999492 	8.572257872936907e-13 	101324.9999999926
-0.4917417417417421 	299.9999999999434 	2.77733316797217e-12 	101324.9999999926
-0.4892392392392395 	299.9999999999591 	1.043322010615026e-12 	101324.9999999928
-0.486736736736737 	299.9999999999621 	3.436169792959084e-12 	101324.9999999929
-0.4842342342342345 	299.9999999999289 	9.271629123811686e-13 	101324.9999999929
-0.481731731731732 	300.0000000000306 	3.288446574040074e-12 	101324.9999999929
-0.4792292292292296 	300.000000000018 	1.271587630271676e-12 	101324.999999993
-0.4767267267267268 	299.9999999999612 	4.203218964418731e-12 	101324.9999999932
-0.4742242242242246 	300.0000000000015 	2.146701904352483e-12 	101324.9999999931
-0.471721721721722 	299.9999999999632 	3.962701526156725e-12 	101324.9999999927
-0.4692192192192195 	299.9999999999808 	1.589498503056808e-12 	101324.9999999924
-0.4667167167167169 	299.9999999999187 	3.015417674063805e-12 	101324.9999999922
-0.4642142142142145 	299.9999999999947 	1.041595366614365e-12 	101324.9999999922
-0.461711711711712 	300.0000000000149 	2.788337537155498e-12 	101324.9999999922
-0.4592092092092094 	300.00000000001 	7.051359309605048e-13 	101324.9999999923
-0.456706706706707 	300.0000000000476 	3.000595923112076e-12 	101324.9999999924
-0.4542042042042045 	299.9999999999456 	1.864012021604424e-12 	101324.9999999923
-0.451701701701702 	299.9999999999559 	2.953426087353977e-12 	101324.9999999924
-0.4491991991991995 	299.9999999999633 	1.545964464459838e-12 	101324.9999999925
-0.4466966966966969 	299.9999999999602 	3.274224703683555e-12 	101324.9999999925
-0.4441941941941945 	299.999999999995 	8.165593458650375e-13 	101324.9999999924
-0.441691691691692 	299.9999999999615 	3.008630340278065e-12 	101324.9999999922
-0.4391891891891895 	299.9999999999876 	2.036027300257097e-12 	101324.9999999921
-0.436686686686687 	299.9999999999706 	3.86974014800742e-12 	101324.9999999922
-0.4341841841841846 	299.9999999999999 	2.592955962832935e-12 	101324.9999999922
-0.431681681681682 	299.9999999999525 	4.00926340679183e-12 	101324.999999992
-0.4291791791791794 	299.9999999999376 	1.694522651252155e-12 	101324.9999999919
-0.426676676676677 	299.9999999999199 	2.78648985027425e-12 	101324.9999999918
-0.4241741741741744 	299.9999999999694 	1.337729230448277e-12 	101324.9999999917
-0.421671671671672 	300.0000000000036 	3.071142162055611e-12 	101324.9999999917
-0.4191691691691694 	300.0000000000426 	1.704308051677671e-12 	101324.9999999916
-0.4166666666666669 	300.0000000000485 	4.177431645470031e-12 	101324.9999999916
-0.4141641641641645 	299.9999999999433 	2.980403567864156e-12 	101324.9999999919
-0.411661661661662 	299.9999999999995 	3.9308405104914e-12 	101324.999999992
-0.4091591591591594 	300.0000000000088 	3.145902042590234e-12 	101324.9999999922
-0.406656656656657 	299.9999999999547 	4.018259078266688e-12 	101324.9999999921
-0.4041541541541545 	300.0000000000167 	2.390531661652271e-12 	101324.9999999923
-0.401651651651652 	299.9999999999368 	5.081214848948662e-12 	101324.9999999925
-0.3991491491491494 	300.0000000000072 	1.679214159116228e-12 	101324.9999999923
-0.396646646646647 	299.9999999999607 	5.334475028019314e-12 	101324.9999999917
-0.3941441441441444 	299.999999999982 	1.45762746687941e-12 	101324.9999999916
-0.3916416416416419 	299.9999999999415 	4.866314143975476e-12 	101324.9999999914
-0.3891391391391395 	299.9999999999616 	1.330035194086459e-12 	101324.9999999915
-0.3866366366366368 	299.9999999999606 	3.712873645105125e-12 	101324.9999999916
-0.3841341341341344 	299.9999999999962 	2.230491445708469e-12 	101324.9999999919
-0.381631631631632 	299.9999999999548 	3.593738842894118e-12 	101324.999999992
-0.3791291291291294 	300.0000000000015 	3.499537730119235e-12 	101324.9999999921
-0.3766266266266269 	300.0000000000164 	3.481872237443129e-12 	101324.9999999921
-0.3741241241241244 	300.000000000018 	4.169009997712535e-12 	101324.9999999921
-0.371621621621622 	300.0000000000149 	2.194322820745139e-12 	101324.999999992
-0.3691191191191194 	300.0000000000048 	4.791025392710276e-12 	101324.9999999921
-0.366616616616617 	300.0000000000043 	1.673511688282459e-12 	101324.9999999921
-0.3641141141141143 	299.9999999999717 	4.475008535847855e-12 	101324.9999999919
-0.3616116116116119 	299.999999999952 	2.361588962274863e-12 	101324.9999999918
-0.3591091091091095 	299.9999999999848 	3.360658520438203e-12 	101324.9999999919
-0.356606606606607 	299.999999999981 	2.447213965633369e-12 	101324.9999999917
-0.3541041041041044 	299.9999999999923 	2.466111718871665e-12 	101324.9999999917
-0.3516016016016019 	300.0000000000083 	3.5714451641123e-12 	101324.9999999918
-0.3490990990990994 	299.9999999999924 	2.133134782772153e-12 	101324.9999999919
-0.346596596596597 	300.0000000000341 	4.192583386176251e-12 	101324.9999999918
-0.3440940940940944 	300.000000000041 	1.809518609967238e-12 	101324.9999999921
-0.3415915915915919 	300.0000000000176 	4.130580247622576e-12 	101324.9999999923
-0.3390890890890895 	299.999999999983 	2.315801237364117e-12 	101324.9999999924
-0.3365865865865869 	300.0000000000136 	3.678092560656213e-12 	101324.9999999925
-0.3340840840840844 	299.9999999999988 	2.72242925831238e-12 	101324.9999999924
-0.3315815815815819 	300.0000000000171 	3.816555901911602e-12 	101324.9999999923
-0.3290790790790794 	300.000000000009 	3.284440708986752e-12 	101324.9999999921
-0.3265765765765769 	299.9999999999339 	3.776803962528384e-12 	101324.999999992
-0.3240740740740744 	299.9999999999975 	2.649464548673574e-12 	101324.9999999923
-0.3215715715715718 	300.0000000000065 	4.312488878224519e-12 	101324.9999999922
-0.3190690690690695 	299.9999999999406 	2.360820793096445e-12 	101324.9999999921
-0.3165665665665668 	299.9999999999918 	3.947025478786239e-12 	101324.9999999918
-0.3140640640640644 	300.0000000000044 	1.617108857544547e-12 	101324.9999999916
-0.311561561561562 	299.9999999999372 	4.644741250110335e-12 	101324.9999999915
-0.3090590590590593 	299.9999999999956 	1.144548884936846e-12 	101324.9999999917
-0.3065565565565568 	300.0000000000051 	5.531692833786719e-12 	101324.9999999915
-0.3040540540540545 	299.9999999999994 	1.65764505647755e-12 	101324.9999999915
-0.3015515515515518 	300.0000000000265 	4.654878642720248e-12 	101324.9999999916
-0.2990490490490494 	299.9999999999513 	1.074938260275768e-12 	101324.9999999919
-0.2965465465465469 	299.9999999999862 	3.025028463890705e-12 	101324.9999999919
-0.2940440440440444 	299.999999999997 	1.933738200109052e-12 	101324.999999992
-0.2915415415415418 	300.0000000000051 	2.2874321560686e-12 	101324.9999999919
-0.2890390390390395 	300.0000000000061 	3.10059345695982e-12 	101324.9999999918
-0.2865365365365368 	299.9999999999829 	1.416182708924372e-12 	101324.9999999919
-0.2840340340340343 	299.999999999996 	3.75299495395545e-12 	101324.9999999915
-0.2815315315315318 	299.9999999999378 	1.70136784912618e-12 	101324.9999999915
-0.2790290290290295 	299.9999999999661 	3.915836063711431e-12 	101324.9999999915
-0.2765265265265269 	300.0000000000036 	2.871455936913474e-12 	101324.9999999913
-0.2740240240240244 	300.000000000021 	4.717193829936422e-12 	101324.9999999912
-0.2715215215215219 	300.0000000000135 	5.334083850236221e-12 	101324.9999999913
-0.2690190190190194 	299.9999999999484 	5.768724321355378e-12 	101324.9999999914
-0.2665165165165169 	299.9999999999973 	6.399527404425855e-12 	101324.9999999915
-0.2640140140140144 	299.9999999999765 	4.565424930149407e-12 	101324.9999999919
-0.2615115115115119 	300.000000000003 	6.615913041008934e-12 	101324.9999999923
-0.2590090090090094 	299.9999999999417 	4.506009611317256e-12 	101324.9999999926
-0.2565065065065068 	299.9999999999912 	4.898927652920908e-12 	101324.9999999925
-0.2540040040040044 	299.9999999999932 	4.189746391411979e-12 	101324.9999999925
-0.2515015015015019 	300.0000000000315 	3.275049836635643e-12 	101324.9999999925
-0.2489989989989994 	300.0000000000351 	5.238849726071042e-12 	101324.9999999927
-0.2464964964964968 	299.9999999999894 	3.343686368407044e-12 	101324.9999999927
-0.2439939939939944 	299.9999999999951 	6.948628849102232e-12 	101324.9999999928
-0.2414914914914919 	299.9999999999724 	2.8079315828914e-12 	101324.9999999927
-0.2389889889889893 	299.9999999999995 	6.923934715099428e-12 	101324.9999999926
-0.2364864864864869 	300.0000000000186 	3.12807595406335e-12 	101324.9999999928
-0.2339839839839843 	299.9999999999437 	7.084710584167092e-12 	101324.9999999928
-0.2314814814814819 	299.9999999999824 	3.216707007651436e-12 	101324.9999999927
-0.2289789789789792 	299.9999999999241 	6.570971529319272e-12 	101324.9999999927
-0.2264764764764769 	299.9999999999554 	4.284318860226097e-12 	101324.9999999928
-0.2239739739739743 	299.9999999999661 	5.614341321719689e-12 	101324.9999999925
-0.2214714714714718 	299.999999999946 	3.896127734536945e-12 	101324.9999999925
-0.2189689689689693 	299.9999999999724 	2.354110014445862e-12 	101324.9999999924
-0.2164664664664669 	299.9999999999882 	3.524060626024401e-12 	101324.9999999922
-0.2139639639639643 	299.9999999999426 	1.925303266687304e-12 	101324.9999999922
-0.2114614614614618 	299.9999999999733 	2.419078320824899e-12 	101324.9999999923
-0.2089589589589593 	299.9999999999884 	1.542181740910918e-12 	101324.9999999923
-0.2064564564564568 	299.9999999999891 	1.395632412444611e-12 	101324.9999999923
-0.2039539539539543 	299.9999999999234 	2.635019179721419e-12 	101324.9999999922
-0.2014514514514518 	299.9999999999523 	7.093708482648053e-13 	101324.9999999923
-0.1989489489489494 	299.9999999999729 	3.460082245153233e-12 	101324.9999999926
-0.1964464464464468 	299.9999999999939 	5.51706619895599e-13 	101324.9999999927
-0.1939439439439443 	299.9999999999869 	3.273410670437361e-12 	101324.9999999927
-0.1914414414414418 	299.9999999999309 	1.000427313489205e-12 	101324.9999999927
-0.1889389389389393 	300.0000000000061 	2.739882061469054e-12 	101324.9999999928
-0.1864364364364368 	300.0000000000339 	2.214137290600362e-12 	101324.9999999927
-0.1839339339339343 	299.9999999999799 	3.547655913929259e-12 	101324.9999999928
-0.1814314314314318 	299.9999999999945 	3.774047440823904e-12 	101324.9999999931
-0.1789289289289293 	299.9999999999157 	4.725698281493536e-12 	101324.999999993
-0.1764264264264268 	299.9999999999822 	3.308474502801696e-12 	101324.9999999927
-0.1739239239239243 	299.9999999999141 	5.102867020512435e-12 	101324.9999999927
-0.1714214214214218 	299.9999999999876 	2.442861568460998e-12 	101324.9999999925
-0.1689189189189193 	299.9999999999575 	5.813238483662016e-12 	101324.9999999924
-0.1664164164164168 	299.9999999999985 	6.114235982337095e-13 	101324.9999999924
-0.1639139139139143 	299.999999999987 	5.675992283447688e-12 	101324.9999999922
-0.1614114114114118 	300.0000000000191 	2.430164743906417e-12 	101324.9999999921
-0.1589089089089093 	299.9999999999942 	7.392372212566569e-12 	101324.9999999923
-0.1564064064064068 	299.9999999999843 	3.765174850771147e-12 	101324.9999999924
-0.1539039039039043 	299.9999999999927 	8.064065396022142e-12 	101324.9999999925
-0.1514014014014018 	300.0000000000192 	2.654476529321968e-12 	101324.9999999927
-0.1488988988988993 	299.9999999999873 	7.728103644548826e-12 	101324.9999999928
-0.1463963963963968 	300.0000000000006 	1.290619080126479e-12 	101324.9999999927
-0.1438938938938943 	299.999999999962 	6.530199376515593e-12 	101324.9999999928
-0.1413913913913918 	299.9999999999361 	9.917820685687297e-13 	101324.999999993
-0.1388888888888893 	299.9999999999807 	4.985142483230648e-12 	101324.9999999929
-0.1363863863863868 	299.9999999999055 	1.446393713525724e-12 	101324.9999999929
-0.1338838838838843 	299.9999999999292 	3.223900728139664e-12 	101324.9999999929
-0.1313813813813818 	299.9999999999959 	1.543031342419319e-12 	101324.9999999928
-0.1288788788788793 	299.9999999999648 	2.763884722150739e-12 	101324.9999999928
-0.1263763763763768 	299.9999999999746 	5.603924821025621e-13 	101324.999999993
-0.1238738738738743 	299.9999999999394 	2.766835549292878e-12 	101324.9999999931
-0.1213713713713717 	299.9999999999879 	2.020417191030196e-13 	101324.999999993
-0.1188688688688693 	300.0000000000069 	3.565178127524275e-12 	101324.9999999929
-0.1163663663663668 	299.9999999999202 	8.107321992340971e-13 	101324.9999999927
-0.1138638638638643 	299.9999999999898 	3.785375823881213e-12 	101324.9999999925
-0.1113613613613618 	299.9999999999874 	1.127557429442661e-12 	101324.9999999926
-0.1088588588588592 	299.9999999999802 	4.565322929651375e-12 	101324.9999999923
-0.1063563563563568 	299.999999999964 	6.820266672679924e-13 	101324.9999999924
-0.1038538538538543 	299.9999999999782 	4.17000397786692e-12 	101324.9999999923
-0.1013513513513517 	300.0000000000096 	9.585376378513073e-13 	101324.9999999923
-0.09884884884884926 	299.9999999999551 	3.982383717837857e-12 	101324.9999999923
-0.09634634634634676 	299.9999999999105 	1.467911107655174e-12 	101324.9999999924
-0.09384384384384425 	299.999999999937 	2.524733082996793e-12 	101324.9999999924
-0.09134134134134177 	300.0000000000194 	1.175465993405198e-12 	101324.9999999926
-0.08883883883883925 	300.0000000000072 	2.474167040567917e-12 	101324.9999999927
-0.08633633633633674 	299.9999999999559 	1.900590309210891e-12 	101324.9999999926
-0.08383383383383426 	300.0000000000073 	1.491365486509373e-12 	101324.9999999928
-0.08133133133133173 	299.9999999999727 	1.874504637332033e-12 	101324.9999999927
-0.07882882882882926 	299.9999999999015 	1.693645228542276e-12 	101324.9999999926
-0.07632632632632676 	299.999999999969 	1.922073589468206e-12 	101324.9999999928
-0.07382382382382424 	299.9999999999129 	2.177173041448533e-12 	101324.9999999927
-0.07132132132132173 	300.000000000009 	1.80560159374953e-12 	101324.9999999925
-0.06881881881881925 	299.9999999999682 	1.696920414064946e-12 	101324.9999999927
-0.06631631631631671 	299.9999999999081 	1.299240602786514e-12 	101324.9999999925
-0.06381381381381425 	299.9999999999598 	9.922617941060712e-13 	101324.9999999921
-0.06131131131131173 	299.9999999999608 	8.763105830938956e-13 	101324.999999992
-0.05880880880880923 	299.999999999934 	1.023741222515912e-12 	101324.9999999921
-0.05630630630630672 	299.9999999999717 	1.150649152317389e-12 	101324.9999999922
-0.05380380380380424 	300.0000000000122 	1.494730544047548e-12 	101324.9999999924
-0.05130130130130173 	300.000000000009 	1.908049117877421e-12 	101324.9999999928
-0.04879879879879922 	299.9999999999561 	1.527929081814068e-12 	101324.999999993
-0.04629629629629672 	299.9999999999476 	2.909965393768696e-13 	101324.9999999929
-0.04379379379379422 	299.9999999999289 	3.181275973052737e-13 	101324.999999993
-0.04129129129129173 	299.999999999983 	2.698918064508904e-13 	101324.9999999929
-0.03878878878878922 	299.9999999999853 	6.055628465220757e-13 	101324.999999993
-0.03628628628628671 	299.9999999999837 	9.294852057536345e-13 	101324.9999999929
-0.03378378378378422 	299.9999999999399 	1.206909710734842e-12 	101324.9999999927
-0.03128128128128172 	299.9999999999715 	4.24898131312404e-13 	101324.9999999928
-0.02877877877877922 	299.9999999999707 	9.481736624172598e-13 	101324.9999999925
-0.0262762762762767 	299.9999999999137 	1.20821562914161e-12 	101324.9999999924
-0.02377377377377422 	300.0000000000155 	1.244976204681672e-12 	101324.9999999926
-0.0212712712712717 	299.9999999999175 	1.637629026336069e-12 	101324.9999999926
-0.01876876876876921 	299.9999999999748 	1.110111131946892e-12 	101324.9999999925
-0.01626626626626671 	300.0000000000128 	1.762838172682675e-12 	101324.9999999921
-0.0137637637637642 	299.9999999999686 	1.003347357645068e-12 	101324.9999999918
-0.0112612612612617 	300.0000000000117 	8.744064799739575e-13 	101324.9999999913
-0.008758758758759198 	299.9999999999978 	2.8564947704336e-13 	101324.9999999912
-0.006256256256256697 	299.9999999999045 	6.587412731219948e-13 	101324.9999999912
-0.003753753753754195 	299.9999999999597 	8.233016164872454e-14 	101324.9999999911
-0.001251251251251693 	299.9999999999365 	8.126102306913575e-13 	101324.9999999913
0.00125125125125081 	299.9999999999613 	6.523735087396129e-13 	101324.9999999913
0.003753753753753312 	299.9999999999679 	1.110242279914637e-12 	101324.9999999913
0.006256256256255817 	299.9999999999039 	7.209926345174923e-14 	101324.9999999914
0.008758758758758317 	299.9999999999908 	2.213656703789877e-15 	101324.9999999913
0.01126126126126082 	300.0000000000076 	1.05527474801561e-13 	101324.9999999917
0.01376376376376332 	299.9999999999725 	1.974231189023846e-13 	101324.9999999919
0.01626626626626582 	300.0000000000065 	2.909844286256727e-13 	101324.9999999921
0.01876876876876833 	299.9999999999603 	1.077505795590484e-13 	101324.9999999924
0.02127127127127083 	299.9999999999733 	3.303114707123667e-13 	101324.9999999924
0.02377377377377332 	299.9999999999949 	5.049159738611241e-13 	101324.9999999923
0.02627627627627583 	299.9999999999193 	1.213149230218244e-12 	101324.9999999922
0.02877877877877833 	300.0000000000034 	1.72272294175075e-12 	101324.999999992
0.03128128128128083 	299.9999999999508 	1.365215989052285e-12 	101324.9999999921
0.03378378378378333 	299.9999999999158 	2.115251650795584e-12 	101324.9999999921
0.03628628628628584 	299.9999999999763 	1.826085032375709e-12 	101324.9999999921
0.03878878878878834 	299.9999999999828 	1.676653064642696e-12 	101324.9999999923
0.04129129129129084 	299.9999999999819 	1.282838786672771e-12 	101324.9999999923
0.04379379379379333 	299.999999999949 	1.228420617903522e-12 	101324.9999999924
0.04629629629629585 	299.9999999999052 	1.811082430266062e-12 	101324.9999999923
0.04879879879879834 	299.9999999999606 	2.171863001797996e-12 	101324.9999999925
0.05130130130130085 	300.0000000000117 	1.384699145797446e-12 	101324.9999999924
0.05380380380380335 	300.0000000000155 	7.594046006630495e-13 	101324.9999999926
0.05630630630630584 	299.9999999999914 	8.356146453007399e-13 	101324.9999999927
0.05880880880880836 	299.999999999935 	1.006481293956849e-12 	101324.9999999926
0.06131131131131085 	299.9999999999781 	1.332837361227871e-12 	101324.9999999926
0.06381381381381336 	299.9999999999702 	1.895288757223438e-12 	101324.9999999925
0.06631631631631586 	299.9999999999065 	2.116364597381419e-12 	101324.9999999925
0.06881881881881835 	299.9999999999542 	2.664133023918384e-12 	101324.9999999925
0.07132132132132088 	299.9999999999893 	2.39710197441166e-12 	101324.9999999925
0.07382382382382337 	299.999999999919 	2.395699432003515e-12 	101324.9999999925
0.07632632632632587 	299.9999999999764 	2.061459641924042e-12 	101324.9999999927
0.07882882882882837 	299.9999999999466 	2.069628896173717e-12 	101324.9999999928
0.08133133133133086 	299.9999999999874 	2.421576854010972e-12 	101324.9999999928
0.08383383383383337 	299.9999999999873 	2.355628538754765e-12 	101324.9999999929
0.08633633633633589 	299.999999999922 	2.433434318746911e-12 	101324.9999999928
0.08883883883883838 	300.0000000000123 	2.852823518193912e-12 	101324.9999999929
0.09134134134134086 	299.9999999999942 	2.385316346450198e-12 	101324.9999999925
0.09384384384384339 	299.9999999999127 	3.59277318633942e-12 	101324.9999999929
0.09634634634634588 	299.9999999999722 	3.770438406504715e-12 	101324.9999999928
0.09884884884884838 	299.9999999999762 	4.28104421905325e-12 	101324.9999999928
0.1013513513513509 	300.000000000016 	4.067039313778984e-12 	101324.999999993
0.1038538538538534 	299.9999999999572 	3.671501811396044e-12 	101324.9999999928
0.1063563563563559 	300.0000000000139 	3.852137070489464e-12 	101324.9999999927
0.1088588588588584 	300.000000000021 	3.24447357415729e-12 	101324.9999999926
0.1113613613613609 	299.9999999999304 	3.244568144972421e-12 	101324.9999999928
0.1138638638638634 	299.9999999999555 	2.953042805321037e-12 	101324.9999999929
0.1163663663663659 	299.9999999999526 	3.426401280654378e-12 	101324.9999999927
0.1188688688688684 	299.9999999999755 	3.660262842204359e-12 	101324.999999993
0.1213713713713709 	299.9999999999933 	3.330652671120223e-12 	101324.999999993
0.1238738738738734 	299.999999999938 	3.200483412801286e-12 	101324.9999999929
0.1263763763763759 	299.999999999987 	2.720650602883781e-12 	101324.9999999929
0.1288788788788784 	299.9999999999902 	2.671052541705785e-12 	101324.999999993
0.1313813813813809 	299.9999999999892 	2.781003066607862e-12 	101324.9999999929
0.1338838838838834 	299.9999999999803 	2.467593661426103e-12 	101324.999999993
0.1363863863863859 	300.0000000000237 	2.347991609618312e-12 	101324.999999993
0.1388888888888884 	300.0000000000387 	2.097245978030782e-12 	101324.9999999928
0.1413913913913909 	300 	1.362583242707738e-12 	101324.9999999929
0.1438938938938934 	299.9999999999941 	1.854171948496276e-12 	101324.9999999927
0.1463963963963959 	299.9999999999676 	1.356949044623161e-12 	101324.9999999924
0.1488988988988985 	299.9999999999271 	2.509092100370256e-12 	101324.9999999922
0.1514014014014009 	299.9999999999734 	1.438791769890087e-12 	101324.9999999925
0.1539039039039035 	299.9999999999675 	2.901901957115159e-12 	101324.9999999924
0.1564064064064059 	299.9999999999478 	6.595917849394533e-13 	101324.9999999924
0.1589089089089084 	299.9999999999837 	3.777639893689048e-12 	101324.9999999924
0.1614114114114109 	299.9999999999797 	1.136060741628848e-12 	101324.9999999923
0.1639139139139134 	299.9999999999223 	2.720387367994264e-12 	101324.9999999923
0.166416416416416 	300.0000000000042 	1.901188656588076e-12 	101324.9999999923
0.1689189189189185 	300.0000000000207 	1.943481049146385e-12 	101324.9999999927
0.1714214214214209 	299.9999999999933 	2.648417968843925e-12 	101324.9999999925
0.1739239239239235 	299.9999999999838 	1.645048137866433e-12 	101324.9999999925
0.1764264264264259 	299.9999999999719 	3.802940875879073e-12 	101324.9999999924
0.1789289289289284 	300.0000000000024 	1.572027611681799e-12 	101324.9999999925
0.181431431431431 	299.9999999999667 	4.104465961602023e-12 	101324.9999999925
0.1839339339339334 	299.9999999999702 	1.975392965032827e-12 	101324.9999999926
0.186436436436436 	299.9999999999353 	3.050954262439824e-12 	101324.9999999926
0.1889389389389385 	299.9999999999852 	2.333936738789977e-12 	101324.9999999924
0.191441441441441 	299.9999999999814 	1.865459732863953e-12 	101324.9999999925
0.1939439439439434 	299.9999999999324 	3.534747135535922e-12 	101324.9999999924
0.196446446446446 	299.9999999999559 	1.869079046699457e-12 	101324.9999999924
0.1989489489489485 	299.9999999999652 	4.352474709194168e-12 	101324.9999999923
0.2014514514514509 	299.9999999999864 	2.121188802005404e-12 	101324.9999999921
0.2039539539539535 	299.9999999999953 	3.272787250056413e-12 	101324.9999999919
0.2064564564564559 	299.9999999999645 	2.21934597532948e-12 	101324.999999992
0.2089589589589585 	299.9999999999856 	2.663606695791578e-12 	101324.999999992
0.211461461461461 	299.9999999999398 	2.956368648813975e-12 	101324.999999992
0.2139639639639635 	299.999999999984 	2.579938028966449e-12 	101324.9999999921
0.2164664664664659 	299.9999999999956 	3.878425890655703e-12 	101324.999999992
0.2189689689689684 	299.9999999999959 	1.620399711859546e-12 	101324.9999999917
0.221471471471471 	299.9999999999911 	4.058127736087266e-12 	101324.9999999918
0.2239739739739735 	299.9999999999638 	1.712615447427792e-12 	101324.9999999918
0.226476476476476 	299.9999999999829 	2.813828108929693e-12 	101324.9999999919
0.2289789789789785 	299.9999999999922 	2.009545973153438e-12 	101324.999999992
0.231481481481481 	299.99999999999 	2.224465596881951e-12 	101324.9999999921
0.2339839839839835 	299.9999999999881 	3.366897595330549e-12 	101324.9999999921
0.236486486486486 	300.0000000000176 	2.386028906515051e-12 	101324.9999999919
0.2389889889889885 	300.0000000000026 	3.853460028137183e-12 	101324.999999992
0.241491491491491 	299.9999999999357 	1.915330544632632e-12 	101324.9999999922
0.2439939939939935 	299.9999999999808 	5.049371375826946e-12 	101324.9999999924
0.246496496496496 	299.9999999999923 	2.339549176884498e-12 	101324.9999999923
0.2489989989989985 	300.0000000000304 	4.480759376873226e-12 	101324.9999999922
0.251501501501501 	300.0000000000255 	3.315915652390178e-12 	101324.9999999922
0.2540040040040035 	299.9999999999904 	3.324885499103601e-12 	101324.9999999925
0.256506506506506 	300.000000000021 	3.824319857106513e-12 	101324.9999999924
0.2590090090090086 	299.9999999999214 	2.342739046982198e-12 	101324.9999999923
0.261511511511511 	299.9999999999986 	5.0833877918315e-12 	101324.9999999923
0.2640140140140135 	299.9999999999923 	2.657894366121182e-12 	101324.9999999924
0.2665165165165161 	299.9999999999425 	4.123673071224812e-12 	101324.9999999924
0.2690190190190185 	300.0000000000018 	2.769951950122141e-12 	101324.9999999925
0.271521521521521 	300.0000000000044 	3.234704136263192e-12 	101324.9999999924
0.2740240240240235 	300.0000000000138 	3.267607021207565e-12 	101324.9999999924
0.276526526526526 	300.0000000000067 	2.235494312654317e-12 	101324.9999999922
0.2790290290290286 	299.9999999999504 	3.962186543388479e-12 	101324.9999999922
0.281531531531531 	299.9999999999379 	2.834083646019002e-12 	101324.9999999923
0.2840340340340335 	299.9999999999795 	5.201541600384917e-12 	101324.9999999922
0.2865365365365361 	299.9999999999637 	3.533381672328779e-12 	101324.9999999919
0.2890390390390385 	299.999999999999 	4.277379590183239e-12 	101324.9999999921
0.291541541541541 	299.9999999999985 	3.008740862141271e-12 	101324.9999999921
0.2940440440440436 	299.9999999999913 	1.962212215465259e-12 	101324.9999999922
0.296546546546546 	299.9999999999939 	2.460483224675579e-12 	101324.9999999922
0.2990490490490486 	299.9999999999462 	8.400948706235519e-13 	101324.9999999921
0.3015515515515511 	300.000000000029 	4.135536468257985e-12 	101324.999999992
0.3040540540540535 	299.999999999997 	1.944640821673642e-12 	101324.999999992
0.3065565565565562 	299.9999999999981 	4.765632286386154e-12 	101324.9999999919
0.3090590590590585 	299.9999999999915 	1.441818008880884e-12 	101324.9999999918
0.3115615615615611 	299.999999999949 	4.408677638408338e-12 	101324.9999999917
0.3140640640640635 	300.0000000000065 	1.28268978296747e-12 	101324.9999999916
0.316566566566566 	299.9999999999956 	3.606650167029327e-12 	101324.9999999914
0.3190690690690687 	299.9999999999617 	1.867826885318081e-12 	101324.9999999916
0.3215715715715711 	300.0000000000129 	3.918654152178076e-12 	101324.9999999918
0.3240740740740735 	299.9999999999992 	2.572736028922023e-12 	101324.9999999919
0.326576576576576 	299.9999999999226 	4.467373783785775e-12 	101324.9999999917
0.3290790790790786 	300.0000000000043 	3.282206166000394e-12 	101324.9999999917
0.3315815815815811 	300.0000000000227 	3.294090552615212e-12 	101324.9999999919
0.3340840840840836 	299.9999999999914 	1.626819616484631e-12 	101324.9999999917
0.3365865865865861 	300.0000000000426 	1.873362386330444e-12 	101324.999999992
0.3390890890890886 	300.0000000000406 	3.648666458745147e-13 	101324.9999999921
0.3415915915915911 	299.9999999999989 	1.13510273523399e-12 	101324.9999999921
0.3440940940940935 	299.9999999999571 	1.053803761282312e-12 	101324.9999999923
0.3465965965965962 	300.0000000000273 	1.484700020205658e-12 	101324.9999999921
0.3490990990990985 	300.0000000000216 	4.984370242971351e-13 	101324.9999999918
0.3516016016016011 	299.9999999999897 	5.525888444976657e-14 	101324.9999999914
0.3541041041041035 	300.0000000000036 	2.953463567883701e-13 	101324.9999999913
0.3566066066066061 	299.999999999961 	7.690871360736001e-13 	101324.9999999914
0.3591091091091085 	299.999999999933 	1.294307410648958e-12 	101324.9999999913
0.3616116116116112 	299.9999999999498 	1.12012430351735e-12 	101324.9999999914
0.3641141141141137 	299.9999999999438 	2.695477581855176e-12 	101324.9999999916
0.3666166166166161 	299.999999999938 	1.124162788421162e-12 	101324.9999999919
0.3691191191191185 	300.0000000000327 	4.315722911962228e-12 	101324.999999992
0.371621621621621 	300.0000000000103 	8.585211510486885e-13 	101324.9999999921
0.3741241241241237 	300.0000000000413 	2.741553909844163e-12 	101324.9999999924
0.3766266266266261 	300.0000000000226 	9.667663947579039e-13 	101324.9999999925
0.3791291291291286 	299.9999999999865 	1.64402875472122e-12 	101324.9999999925
0.3816316316316311 	299.9999999999345 	1.234574165989875e-12 	101324.9999999924
0.3841341341341336 	300.0000000000084 	1.339590595747858e-12 	101324.9999999925
0.3866366366366362 	299.9999999999982 	7.346681576691094e-13 	101324.9999999926
0.3891391391391387 	299.9999999999634 	1.316751176389969e-12 	101324.9999999923
0.391641641641641 	299.9999999999936 	4.717966592135363e-13 	101324.9999999921
0.3941441441441436 	300.0000000000067 	1.034019404087567e-12 	101324.9999999922
0.3966466466466462 	299.9999999999984 	5.415323805053287e-13 	101324.9999999922
0.3991491491491486 	299.9999999999546 	7.050749466780794e-13 	101324.9999999922
0.4016516516516512 	299.9999999999305 	8.548969997164196e-13 	101324.999999992
0.4041541541541536 	299.9999999999593 	9.764684776598406e-13 	101324.999999992
0.4066566566566561 	299.9999999999575 	1.336331996164339e-12 	101324.9999999918
0.4091591591591587 	299.9999999999964 	7.693076833313625e-13 	101324.9999999918
0.4116616616616612 	300.0000000000049 	1.091990296974134e-12 	101324.9999999919
0.4141641641641635 	300.0000000000337 	1.31709316501663e-13 	101324.999999992
0.4166666666666662 	299.9999999999937 	3.094165290818488e-13 	101324.999999992
0.4191691691691687 	299.9999999999505 	1.008665352492942e-12 	101324.9999999919
0.421671671671671 	300.0000000000064 	2.008546598077902e-12 	101324.9999999918
0.4241741741741737 	299.9999999999804 	1.634107957645193e-12 	101324.9999999919
0.4266766766766761 	299.9999999999584 	3.470135526441554e-12 	101324.9999999919
0.4291791791791785 	300.0000000000164 	1.516669357531492e-12 	101324.9999999917
0.4316816816816812 	300.0000000000083 	4.002364910665808e-12 	101324.9999999919
0.4341841841841836 	299.9999999999837 	1.294375386046183e-12 	101324.9999999918
0.4366866866866862 	299.9999999999326 	2.898110469586789e-12 	101324.9999999919
0.4391891891891885 	299.9999999999898 	8.16946912330498e-13 	101324.9999999919
0.4416916916916913 	299.9999999999842 	1.807368270556741e-12 	101324.9999999918
0.4441941941941936 	299.9999999999895 	9.793541619578769e-13 	101324.9999999915
0.4466966966966961 	299.9999999999327 	3.722597704377534e-13 	101324.9999999914
0.4491991991991987 	299.9999999999879 	7.206512343934633e-13 	101324.9999999914
0.4517017017017012 	299.9999999999848 	8.498980014725909e-13 	101324.9999999914
0.4542042042042035 	299.9999999999857 	7.951520241728751e-13 	101324.9999999915
0.4567067067067062 	299.9999999999967 	1.053153052695697e-12 	101324.9999999915
0.4592092092092087 	299.9999999999405 	6.659157686375633e-13 	101324.9999999916
0.4617117117117112 	300.0000000000128 	1.360817159687713e-12 	101324.9999999918
0.4642142142142137 	299.9999999999714 	1.59037291335317e-12 	101324.999999992
0.4667167167167162 	299.999999999994 	1.213931929694178e-12 	101324.999999992
0.4692192192192187 	299.9999999999668 	7.750965551764891e-13 	101324.999999992
0.4717217217217212 	300.0000000000086 	3.249881763175865e-13 	101324.999999992
0.4742242242242236 	299.999999999964 	4.364654947204113e-13 	101324.9999999919
0.4767267267267262 	299.9999999999819 	3.67006054670208e-13 	101324.9999999917
0.4792292292292287 	300.0000000000114 	2.697353490298179e-13 	101324.9999999919
0.4817317317317312 	300.0000000000233 	4.571792284691275e-13 	101324.999999992
0.4842342342342336 	299.9999999999867 	1.605849595877784e-13 	101324.9999999921
0.4867367367367362 	299.9999999999605 	8.956276469397217e-13 	101324.999999992
0.4892392392392387 	300.0000000000233 	1.146134701805423e-12 	101324.9999999918
0.4917417417417412 	300.0000000000031 	9.798297994065253e-13 	101324.9999999916
0.4942442442442437 	299.9999999999227 	1.218550183140389e-12 	101324.9999999917
0.4967467467467462 	299.9999999999398 	2.232746220121349e-12 	101324.9999999917
0.4992492492492487 	299.9999999999364 	5.909557483083452e-13 	101324.9999999918
0.5017517517517511 	299.9999999999623 	1.577474139283403e-12 	101324.999999992
0.5042542542542537 	299.9999999999717 	4.25037822237979e-13 	101324.999999992
0.5067567567567562 	299.9999999999584 	6.283830343507688e-13 	101324.9999999919
0.5092592592592589 	299.9999999999771 	1.01726709932284e-12 	101324.9999999919
0.5117617617617611 	299.999999999965 	7.836054042995115e-13 	101324.9999999916
0.5142642642642637 	299.9999999999864 	2.367000513001971e-12 	101324.9999999916
0.5167667667667663 	299.9999999999746 	1.427651858274781e-12 	101324.9999999916
0.5192692692692688 	299.9999999999364 	4.083190311191029e-12 	101324.9999999919
0.5217717717717714 	299.9999999999506 	2.884040538790256e-12 	101324.999999992
0.5242742742742736 	299.9999999999515 	3.453993581793939e-12 	101324.9999999921
0.5267767767767763 	299.9999999999711 	1.700563659557358e-12 	101324.9999999923
0.5292792792792789 	299.999999999953 	2.765577516324008e-12 	101324.9999999923
0.5317817817817813 	299.9999999999282 	9.728931546895814e-13 	101324.9999999922
0.5342842842842837 	300.0000000000177 	1.142458848077937e-12 	101324.9999999922
0.5367867867867864 	300.0000000000048 	9.421591276766537e-13 	101324.9999999923
0.5392892892892888 	299.999999999969 	1.270244122717696e-12 	101324.9999999922
0.5417917917917912 	300.0000000000045 	6.621914876685535e-13 	101324.9999999923
0.5442942942942938 	299.9999999999855 	1.183907799463401e-12 	101324.9999999923
0.5467967967967964 	299.9999999999579 	3.367651185993721e-13 	101324.9999999922
0.5492992992992988 	299.9999999999516 	8.996696464863869e-13 	101324.9999999921
0.5518018018018012 	299.9999999999476 	6.09579944666779e-13 	101324.9999999921
0.5543043043043039 	300.0000000000167 	1.391034197902062e-12 	101324.9999999921
0.5568068068068063 	299.9999999999923 	1.208758543371989e-12 	101324.999999992
0.5593093093093087 	299.9999999999224 	1.873890047832773e-12 	101324.9999999921
0.5618118118118114 	299.9999999999669 	7.592184555320129e-13 	101324.999999992
0.5643143143143137 	299.9999999999569 	1.873400837503731e-12 	101324.9999999917
0.5668168168168163 	299.9999999999897 	1.381909383507691e-12 	101324.9999999915
0.5693193193193188 	300.0000000000232 	1.707863590881134e-12 	101324.9999999915
0.5718218218218213 	300.0000000000184 	1.957924191048002e-12 	101324.9999999915
0.5743243243243239 	300.0000000000034 	1.91757627721837e-12 	101324.9999999916
0.5768268268268262 	300.0000000000034 	3.797185016182458e-12 	101324.9999999914
0.5793293293293288 	299.9999999999576 	2.880214037786844e-12 	101324.9999999911
0.5818318318318314 	299.9999999999334 	7.181203428974509e-12 	101324.9999999901
0.5843343343343338 	299.9999999999807 	9.036352415012391e-12 	101324.9999999879
0.5868368368368363 	299.999999999971 	2.370004331468322e-11 	101324.9999999831
0.5893393393393387 	299.9999999999385 	4.536673587309829e-11 	101324.9999999738
0.5918418418418413 	299.9999999999213 	9.704090274358883e-11 	101324.9999999545
0.5943443443443439 	299.9999999999518 	1.971959350722486e-10 	101324.9999999147
0.5968468468468463 	299.9999999998829 	4.042744432005773e-10 	101324.999999834
0.5993493493493487 	299.9999999997601 	8.152028619422566e-10 	101324.9999996724
0.6018518518518514 	299.9999999994436 	1.633618742450578e-09 	101324.9999993506
0.6043543543543537 	299.9999999989156 	3.24389848000171e-09 	101324.9999987161
0.6068568568568564 	299.9999999978584 	6.393138161404423e-09 	101324.9999974749
0.6093593593593587 	299.9999999957848 	1.24956572473649e-08 	101324.9999950674
0.6118618618618614 	299.9999999918605 	2.422483224995714e-08 	101324.9999904368
0.6143643643643638 	299.9999999844583 	4.657042892824356e-08 	101324.9999816068
0.6168668668668662 	299.9999999703209 	8.877493300919974e-08 	101324.9999649167
0.6193693693693688 	299.9999999438514 	1.677691071089062e-07 	101324.9999336509
0.6218718718718714 	299.999999894759 	3.142885396593381e-07 	101324.9998756107
0.6243743743743737 	299.999999804423 	5.835305065150579e-07 	101324.9997688637
0.6268768768768762 	299.9999996399394 	1.073660700888531e-06 	101324.9995743845
0.629379379379379 	299.9999993431381 	1.957315952477833e-06 	101324.9992234598
0.6318818818818812 	299.9999988128 	3.534804853032736e-06 	101324.9985964491
0.6343843843843838 	299.999997874718 	6.322677052641355e-06 	101324.9974873684
0.6368868868868864 	299.9999962323172 	1.119913189673361e-05 	101324.9955456769
0.6393893893893888 	299.9999933870635 	1.963936932490951e-05 	101324.9921819489
0.6418918918918912 	299.9999885110988 	3.409083109723461e-05 	101324.9864172936
0.6443943943943939 	299.999980246674 	5.856207935433872e-05 	101324.9766467618
0.6468968968968963 	299.99996639756 	9.95314470515072e-05 	101324.9602737841
0.6493993993993988 	299.9999434593456 	0.0001673243277994378 	101324.9331553442
0.6519019019019012 	299.9999059208337 	0.0002781607567948345 	101324.8887759078
0.6544044044044038 	299.999845244973 	0.0004571368471696989 	101324.8170428003
0.6569069069069065 	299.9997484167059 	0.0007424675219172676 	101324.7025691065
0.6594094094094087 	299.9995959237591 	0.001191372788089658 	101324.5222871756
0.6619119119119113 	299.9993590304064 	0.001888012420652258 	101324.2422252105
0.664414414414414 	299.9989962140237 	0.002953831597506764 	101323.8132950057
0.6669169169169162 	299.9984486884825 	0.004560523041084705 	101323.1660004327
0.6694194194194188 	299.9976350504184 	0.006945478317308146 	101322.2041093807
0.6719219219219214 	299.9964452814673 	0.01042902023156478 	101320.7975659015
0.674424424424424 	299.9947346468504 	0.01543181469927569 	101318.7752820866
0.6769269269269262 	299.9923184588558 	0.02248961670710134 	101315.9189570002
0.679429429429429 	299.9889692188409 	0.03226094130269905 	101311.9597124931
0.6819319319319311 	299.9844182566864 	0.04552150971709207 	101306.580056309
0.6844344344344341 	299.9783645635802 	0.06313770972551741 	101299.4243576759
0.686936936936936 	299.970493868138 	0.08601033305960779 	101290.1214430168
0.6894394394394392 	299.9605109154995 	0.114980211751413 	101278.3228007968
0.6919419419419413 	299.9481870673709 	0.1506898958067736 	101263.7588819626
0.694444444444444 	299.9334234761918 	0.193400996815344 	101246.3137625827
0.6969469469469463 	299.9163269975539 	0.2427758100630173 	101226.1147712374
0.6994494494494489 	299.8972916761273 	0.2976449735693382 	101203.6285666568
0.7019519519519515 	299.8770718127137 	0.355809649097085 	101179.7471061949
0.7044544544544538 	299.8568115138184 	0.4139862894665499 	101155.8220869751
0.7069569569569564 	299.8379674235649 	0.468040043121933 	101133.573267517
0.7094594594594589 	299.822103209953 	0.5135495440630631 	101114.8456598965
0.7119619619619615 	299.810610661833 	0.5465845544165857 	101101.2805719485
0.7144644644644638 	299.8044226892291 	0.5645159045651691 	101093.9772045569
0.7169669669669665 	299.8037771805148 	0.5666862153811094 	101093.2145528362
0.7194694694694688 	299.8080806065514 	0.554789351198659 	101098.2936223563
0.7219719719719715 	299.8159221173008 	0.5328412827487619 	101107.5515500242
0.7244744744744737 	299.8252481873144 	0.5066900953774491 	101118.5604921857
0.7269769769769764 	299.8336934833719 	0.4829773248231672 	101128.5300856438
0.7294794794794791 	299.839165840062 	0.4675083217317152 	101134.990538407
0.7319819819819813 	299.8405154005764 	0.4634808105899921 	101136.5841938474
0.7344844844844839 	299.837919219802 	0.4704429623509233 	101133.5194119989
0.7369869869869864 	299.8327873794301 	0.484502444738559 	101127.4595214248
0.739489489489489 	299.8272767710875 	0.4996683426827971 	101120.9538922434
0.7419919919919914 	299.8235561016108 	0.5099801420551029 	101116.5617425522
0.7444944944944939 	299.8229405570513 	0.5118280262328033 	101115.8348973417
0.7469969969969963 	299.8253458912226 	0.5053985765893184 	101118.6740243391
0.7494994994994989 	299.8293907875947 	0.4944344022974941 	101123.45017877
0.7520020020020015 	299.833064378846 	0.4844186531568038 	101127.7871483233
0.7545045045045039 	299.8346725959339 	0.4799359732042978 	101129.685777484
0.7570070070070062 	299.833699569185 	0.4824040888416559 	101128.5373594695
0.7595095095095092 	299.8310341503101 	0.4894701214772443 	101125.3901268177
0.7620120120120112 	299.8284103414076 	0.4964853899941809 	101122.2923541897
0.7645145145145138 	299.8273992248571 	0.4992505049045804 	101121.0983516631
0.7670170170170165 	299.8284742187308 	0.4964735510420673 	101122.367255635
0.7695195195195191 	299.8307784549605 	0.4903901770217615 	101125.0882348609
0.7720220220220213 	299.8327533518155 	0.4851229933449561 	101127.4197311949
0.7745245245245239 	299.833190045665 	0.4838662086511953 	101127.9354481221
0.7770270270270263 	299.8320425636333 	0.486774203747488 	101126.5809139929
0.779529529529529 	299.8303888555673 	0.4910543969836417 	101124.6281403244
0.7820320320320313 	299.8295744057887 	0.4931963214302185 	101123.6663470838
0.784534534534534 	299.8301881003944 	0.4916466755957691 	101124.3907061302
0.7870370370370364 	299.8316538667784 	0.4878594363132677 	101126.1216288438
0.7895395395395389 	299.8327763290794 	0.4849119100463228 	101127.4467419521
0.7920420420420413 	299.8327546757625 	0.484876309890485 	101127.4213777054
0.794544544544544 	299.8318308033033 	0.4871667150743201 	101126.3307926963
0.7970470470470463 	299.8310020233744 	0.4892583562237326 	101125.3517870871
0.799549549549549 	299.831079526616 	0.4890764583548597 	101125.4431195657
0.8020520520520515 	299.8319669223769 	0.4868327561895306 	101126.4911279822
0.8045545545545539 	299.8328247412342 	0.4846270227212096 	101127.5038532162
0.8070570570570563 	299.8329290109556 	0.4842875686656029 	101127.6270075926
0.8095595595595589 	299.8323675324524 	0.4856231015192604 	101126.9642935948
0.8120620620620614 	299.8318837928116 	0.4867998745915549 	101126.3928566361
0.8145645645645638 	299.8320601998269 	0.4863591541256447 	101126.6009570611
0.8170670670670666 	299.8327263586621 	0.4846933753050784 	101127.3876284991
0.8195695695695689 	299.8332100362682 	0.4834469224217122 	101127.958722462
0.8220720720720714 	299.8331123455781 	0.4836131020707116 	101127.8434679598
0.8245745745745739 	299.8327248063246 	0.4845054685331392 	101127.3858521476
0.8270770770770765 	299.8326331368934 	0.4847044270223366 	101127.2774073037
0.8295795795795788 	299.8330129981279 	0.4837637446554105 	101127.725891589
0.8320820820820815 	299.8334649805159 	0.4826269007157782 	101128.2596897442
0.834584584584584 	299.833551248566 	0.4823512391315559 	101128.3615393984
0.8370870870870865 	299.8333322365781 	0.4828134136532225 	101128.1029524776
0.8395895895895891 	299.8332402500607 	0.4829948029100284 	101127.9942471751
0.8420920920920915 	299.8334933850595 	0.4823643041192797 	101128.2930096814
0.844594594594594 	299.8338385858451 	0.4815003243733416 	101128.7006624036
0.8470970970970964 	299.8339347198599 	0.4812073365866221 	101128.8141481787
0.8495995995995991 	299.8338147031146 	0.4814256172475773 	101128.6725243995
0.8521021021021015 	299.8337994505093 	0.4814167530343712 	101128.6545016772
0.8546046046046039 	299.8340240548272 	0.4808556193288991 	101128.9193917419
0.8571071071071066 	299.8342707190444 	0.4802292715407102 	101129.210766463
0.8596096096096089 	299.8343197048318 	0.4800477967345498 	101129.2688504711
0.8621121121121116 	299.8342651437792 	0.4801120915509818 	101129.2041641404
0.8646146146146139 	299.8343391968621 	0.4798951967831412 	101129.2914214195
0.8671171171171166 	299.834551324564 	0.4793619016054033 	101129.5421741692
0.8696196196196189 	299.8347024687447 	0.4789557377021461 	101129.7205113053
0.8721221221221216 	299.8347138309994 	0.4788617210516814 	101129.7338220196
0.874624624624624 	299.8347340169595 	0.4787570479172616 	101129.7577867189
0.8771271271271264 	299.8348767468976 	0.4783847701495514 	101129.9262027971
0.879629629629629 	299.8350441193753 	0.4779507771586591 	101130.1237360666
0.8821321321321317 	299.8351125898899 	0.4777284486967755 	101130.204726185
0.8846346346346339 	299.8351383312414 	0.4776052001675648 	101130.2350360452
0.8871371371371364 	299.8352396849012 	0.4773232774619973 	101130.3546479467
0.8896396396396391 	299.8353905346942 	0.4769304794567234 	101130.5328375348
0.8921421421421414 	299.8354846877039 	0.4766546037189907 	101130.6438520196
0.8946446446446441 	299.8355290278967 	0.4764873250458538 	101130.6962790527
0.8971471471471464 	299.8356163180188 	0.4762339060136358 	101130.7993766797
0.8996496496496489 	299.8357492584185 	0.4758825842827867 	101130.9562045094
0.9021521521521517 	299.8358483600904 	0.4755976120301831 	101131.0732821883
0.9046546546546541 	299.8359075980752 	0.475397417534119 	101131.1432606799
0.9071571571571564 	299.8359946782771 	0.4751436293062949 	101131.2459408541
0.9096596596596589 	299.8361149466503 	0.4748197832867284 	101131.3880145955
0.9121621621621616 	299.8362108606469 	0.4745427652183588 	101131.5012558655
0.9146646646646639 	299.8362799187249 	0.4743220066668029 	101131.5826501725
0.9171671671671666 	299.8363711728886 	0.4740587454787842 	101131.6904983745
0.9196696696696689 	299.8364828798469 	0.4737531036255923 	101131.8224494021
0.9221721721721714 	299.8365735672138 	0.4734879032963719 	101131.929221205
0.9246746746746741 	299.8366495776451 	0.473252651839947 	101132.0191357148
0.9271771771771765 	299.8367456773101 	0.4729795290334673 	101132.1327374644
0.9296796796796791 	299.8368502690087 	0.4726888256551245 	101132.2559910786
0.9321821821821816 	299.8369360691194 	0.4724333175676163 	101132.3572966248
0.9346846846846838 	299.8370189814302 	0.4721848084321352 	101132.4553302611
0.9371871871871866 	299.837118219711 	0.4719059127218924 	101132.5723793146
0.9396896896896891 	299.8372152700063 	0.471629668893778 	101132.6869095416
0.9421921921921914 	299.83729928996 	0.4713780744580817 	101132.7861459289
0.9446946946946939 	299.8373890608499 	0.4711171050134483 	101132.8921012017
0.9471971971971965 	299.8374875415979 	0.4708393042588921 	101133.0084242589
0.9496996996996991 	299.837578098838 	0.4705755149654075 	101133.1153338316
0.9522022022022016 	299.8376642969363 	0.4703207784379346 	101133.216974453
0.9547047047047038 	299.837758562142 	0.4700513611685065 	101133.3283882212
0.9572072072072064 	299.8378530819691 	0.4697809196303104 	101133.4399755451
0.9597097097097093 	299.8379406194551 	0.469523281145565 	101133.5431980621
0.9622122122122114 	299.8380309774627 	0.4692610496376694 	101133.6499388623
0.964714714714714 	299.8381256571573 	0.4689909386773715 	101133.7617923265
0.9672172172172167 	299.838215773452 	0.4687289221893278 	101133.8680213813
0.969719719719719 	299.8383044516676 	0.4684696455487389 	101133.9727713361
0.9722222222222214 	299.8383975964859 	0.4682026953810756 	101134.0828359121
0.9747247247247239 	299.8384893731027 	0.4679381563352075 	101134.1910005986
0.9772272272272267 	299.8385780180492 	0.4676788892510241 	101134.2956877673
0.9797297297297292 	299.8386695032675 	0.4674148735211076 	101134.4038597545
0.9822322322322313 	299.8387617128898 	0.4671498841309207 	101134.5125916212
0.9847347347347344 	299.838850995707 	0.4668898882945016 	101134.6179130711
0.9872372372372363 	299.8389414313062 	0.4666278929859708 	101134.7248458768
0.9897397397397389 	299.8390334061627 	0.4663635240032562 	101134.8333430064
0.9922422422422417 	299.8391231599154 	0.4661028267013245 	101134.9392406481
0.9947447447447441 	299.839213117821 	0.4658420010994425 	101135.0455244597
0.9972472472472468 	299.8393046332253 	0.4655788258649643 	101135.1534975861
0.999749749749749 	299.8393945556509 	0.465317947438665 	101135.2596956517
1.002252252252252 	299.8394842269137 	0.4650576224969681 	101135.3656784948
1.004754754754754 	299.8395753899234 	0.464795448015704 	101135.4731076626
1.007257257257256 	299.8396654043049 	0.4645347885261381 	101135.579361916
1.009759759759759 	299.8397548789629 	0.4642749236439228 	101135.6852235908
1.012262262262261 	299.839845657095 	0.4640137039229392 	101135.7922210086
1.014764764764764 	299.8399356914792 	0.4637534362800423 	101135.8983865432
1.017267267267267 	299.840025119758 	0.4634938481888672 	101136.0041634009
1.019769769769769 	299.8401154668131 	0.4632333259675343 	101136.1107850041
1.022272272272272 	299.8402053404229 	0.4629736077137202 	101136.2167597492
1.024774774774774 	299.8402947104149 	0.4627144724139484 	101136.3224523828
1.027277277277277 	299.8403847726225 	0.4624546589224292 	101136.4287597593
1.029779779779779 	299.8404744874938 	0.4621954429729558 	101136.5345226876
1.032282282282282 	299.8405638955091 	0.4619365583768869 	101136.6401445789
1.034784784784784 	299.8406536854031 	0.4616774124936521 	101136.7461866912
1.037287287287286 	299.8407431520934 	0.4614189653682269 	101136.8517371568
1.039789789789789 	299.8408325125814 	0.4611605280579641 	101136.9572557102
1.042292292292291 	299.8409220283877 	0.4609018591159546 	101137.0630022791
1.044794794794794 	299.8410113292417 	0.4606439395730623 	101137.1683284995
1.047297297297296 	299.8411006452754 	0.46038610215566 	101137.2737422922
1.049799799799799 	299.8411898856986 	0.4601281232780038 	101137.3792344294
1.052302302302302 	299.8412790813862 	0.4598706009992217 	101137.4843956204
1.054804804804804 	299.8413683275097 	0.4596131213720963 	101137.5896817761
1.057307307307306 	299.8414572346754 	0.459355807616607 	101137.6948888665
1.059809809809809 	299.8415462541344 	0.4590988122627895 	101137.7998718875
1.062312312312312 	299.8416354035967 	0.458841848592764 	101137.9049812858
1.064814814814814 	299.8417242037225 	0.4585852434565979 	101138.0099427135
1.067317317317317 	299.8418130266966 	0.458328825557867 	101138.1148154094
1.069819819819819 	299.8419019742536 	0.4580724113593328 	101138.2197413871
1.072322322322321 	299.8419906566354 	0.4578163315894165 	101138.3244728441
1.074824824824824 	299.8420792992581 	0.4575603381156152 	101138.4291893378
1.077327327327327 	299.8421680531288 	0.4573044695264705 	101138.5338702998
1.079829829829829 	299.842256653017 	0.4570490631513134 	101138.6384145044
1.082332332332332 	299.8423451115279 	0.4567938814240674 	101138.7429851108
1.084834834834834 	299.8424337128004 	0.4565387851687913 	101138.8474512903
1.087337337337337 	299.8425222359097 	0.4562836955208351 	101138.9518423287
1.089839839839839 	299.8426104779986 	0.4560288221061434 	101139.0562158192
1.092342342342342 	299.8426988147684 	0.4557744435081381 	101139.1604709887
1.094844844844844 	299.8427871794574 	0.4555201591437935 	101139.2647046313
1.097347347347347 	299.8428753578935 	0.4552659130433359 	101139.3688676843
1.099849849849849 	299.8429634009275 	0.4550119668417911 	101139.4729475555
1.102352352352352 	299.8430516779221 	0.4547582764560725 	101139.5769969618
1.104854854854854 	299.8431398444985 	0.4545048177867376 	101139.6809488935
1.107357357357357 	299.8432277061922 	0.4542514942244599 	101139.7848612772
1.109859859859859 	299.8433156964378 	0.4539983775564101 	101139.8887149701
1.112362362362362 	299.8434037195538 	0.453745588694461 	101139.9924980323
1.114864864864865 	299.8434915747699 	0.4534929257795237 	101140.0962403687
1.117367367367367 	299.8435793125569 	0.4532404182443725 	101140.1998973838
1.119869869869869 	299.8436671385379 	0.4529883128478148 	101140.3035058556
1.122372372372372 	299.8437548870618 	0.4527365157006127 	101140.4070512017
1.124874874874874 	299.8438424389132 	0.4524848022371095 	101140.5105328292
1.127377377377377 	299.8439301410699 	0.4522331477909094 	101140.6139627808
1.129879879879879 	299.844017783858 	0.4519816861172148 	101140.7173168926
1.132382382382382 	299.8441052119665 	0.4517306578108202 	101140.820620184
1.134884884884884 	299.8441925860594 	0.4514800261596141 	101140.9238579392
1.137387387387387 	299.8442800148478 	0.4512294677341835 	101141.0270433249
1.139889889889889 	299.8443674550214 	0.4509790999700837 	101141.1301784674
1.142392392392392 	299.8444548100206 	0.450729095176607 	101141.2332520675
1.144894894894894 	299.844542092323 	0.4504793715815682 	101141.3362684233
1.147397397397397 	299.8446293034797 	0.450229874555889 	101141.4392103699
1.149899899899899 	299.8447164567921 	0.4499804663076998 	101141.5420922421
1.152402402402402 	299.8448035217878 	0.4497314038156391 	101141.6449151034
1.154904904904904 	299.8448906557791 	0.4494829126691446 	101141.7476893844
1.157407407407407 	299.8449777413848 	0.4492346909417269 	101141.8504143105
1.159909909909909 	299.8450646685559 	0.4489865453773333 	101141.9530820185
1.162412412412412 	299.8451515933561 	0.4487385753534898 	101142.0556917796
1.164914914914914 	299.8452384625925 	0.448490929707692 	101142.1582349765
1.167417417417417 	299.8453252928463 	0.4482437131443195 	101142.260719157
1.169919919919919 	299.8454120242828 	0.4479969795575701 	101142.3631442215
1.172422422422422 	299.8454987815282 	0.4477505078805608 	101142.4655194279
1.174924924924925 	299.8455855931294 	0.4475042179909935 	101142.5678457837
1.177427427427427 	299.8456723107477 	0.4472583201068007 	101142.6701220023
1.179929929929929 	299.8457588758694 	0.4470126972834354 	101142.7723431714
1.182432432432432 	299.8458454012723 	0.4467674812760254 	101142.8745072796
1.184934934934934 	299.8459319628081 	0.4465228560736334 	101142.9766189552
1.187437437437437 	299.8460185629656 	0.4462784291492468 	101143.0786796728
1.189939939939939 	299.8461049585839 	0.4460342060404878 	101143.180691837
1.192442442442442 	299.8461911585742 	0.4457904610807237 	101143.2826547453
1.194944944944944 	299.8462776047925 	0.4455471101381007 	101143.3845727829
1.197447447447447 	299.8463641122186 	0.4453042286462444 	101143.4864437792
1.199949949949949 	299.8464505480553 	0.4450619481237368 	101143.5882642699
1.202452452452452 	299.8465367485227 	0.4448198966117757 	101143.6900296597
1.204954954954955 	299.8466227981353 	0.4445781548932166 	101143.791742975
1.207457457457457 	299.8467089835915 	0.4443370252321411 	101143.8934134055
1.20995995995996 	299.8467952668822 	0.4440964220347932 	101143.9950515448
1.212462462462462 	299.8468815055637 	0.4438556487573401 	101144.096658128
1.214964964964964 	299.8469677941362 	0.443616586971651 	101144.1982270092
1.217467467467467 	299.8470539493604 	0.4433753586184979 	101144.2997510304
1.219969969969969 	299.8471398521465 	0.4431402186276701 	101144.4012340876
1.222472472472472 	299.8472258994395 	0.4428898637846164 	101144.5026692526
1.224974974974975 	299.8473120338562 	0.4426815895229265 	101144.604098152
1.227477477477477 	299.8473981615947 	0.4423486901763451 	101144.7054272321
1.229979979979979 	299.847484564733 	0.4423676076200418 	101144.8070663851
1.232482482482482 	299.8475702051073 	0.4410434511701982 	101144.9075012241
1.234984984984984 	299.8476567764775 	0.4425052846207204 	101145.0101771509
1.237487487487487 	299.8477446102755 	0.4400341019100034 	101145.1105958355
1.239989989989989 	299.8478242277234 	0.4417268039426503 	101145.2091735572
1.242492492492492 	299.8479202700106 	0.4419170237659893 	101145.315122441
1.244994994994994 	299.8463783545151 	0.4384104681949637 	101145.4097348639
1.247497497497497 	299.2563189232235 	0.4413808925418341 	101145.5130076655
1.249999999999999 	302.3655687956165 	0.4402139185767773 	101145.6157785678
