-1.25 	300 	1 	101354.3892626146
-1.247497497497497 	299.5007499401774 	33.84382798592684 	101383.4248152664
-1.244994994994995 	299.5183642750374 	32.18569178333535 	101362.6259497646
-1.242492492492492 	299.5753989411737 	30.59365857766898 	101382.9787474183
-1.23998998998999 	299.6187853355717 	29.04338577403846 	101370.6365732564
-1.237487487487487 	299.6642398658648 	27.54951251398158 	101382.0994078426
-1.234984984984985 	299.7019639484864 	26.09708972011414 	101374.045446004
-1.232482482482482 	299.7375525879414 	24.69603220415092 	101379.651325116
-1.22997997997998 	299.7694226147893 	23.34155853578457 	101374.05017451
-1.227477477477477 	299.7964966057074 	22.03504991092416 	101375.0133738581
-1.224974974974975 	299.8232016231555 	20.78030330273392 	101371.3475095102
-1.222472472472472 	299.8427021686936 	19.57001164029382 	101368.3216277846
-1.21996996996997 	299.8649928715629 	18.41732955001897 	101366.3248172548
-1.217467467467467 	299.8775396137952 	17.30440325407003 	101359.5248044011
-1.214964964964965 	299.8966820543386 	16.25215959616489 	101359.611098883
-1.212462462462462 	299.9035336719321 	15.23559619264813 	101349.9561760334
-1.20995995995996 	299.9201753689649 	14.28115603953598 	101351.9012817601
-1.207457457457457 	299.9219739372033 	13.35707687580272 	101339.599032473
-1.204954954954955 	299.9367937695963 	12.49700372770355 	101343.333778852
-1.202452452452452 	299.9344938544272 	11.66225529339602 	101328.9965055783
-1.19994994994995 	299.9482868662512 	10.88958321070161 	101334.6965355265
-1.197447447447447 	299.9436430575905 	10.13908555806741 	101319.911615137
-1.194944944944945 	299.9564851957119 	9.447323913602863 	101327.0008166123
-1.192442442442442 	299.9506124978001 	8.776611526049575 	101312.7071165203
-1.18993993993994 	299.9629669182534 	8.161736012021068 	101321.1944210371
-1.187437437437437 	299.9560612151095 	7.567471320703413 	101307.3206420862
-1.184934934934935 	299.9684311118634 	7.024556518119362 	101317.3579252432
-1.182432432432432 	299.9612459820381 	6.500098816519719 	101304.4567284979
-1.17992992992993 	299.9739035555439 	6.022713657720251 	101316.0304295958
-1.177427427427427 	299.9669166867004 	5.563332902061259 	101304.3857600754
-1.174924924924925 	299.9792451382301 	5.142609122904732 	101316.4687475015
-1.172422422422422 	299.9723587532355 	4.746425967501307 	101305.7673584693
-1.16991991991992 	299.9844273746924 	4.37571789063843 	101318.2145758417
-1.167417417417417 	299.9787601623497 	4.034451664900839 	101309.5839140555
-1.164914914914915 	299.9923472946759 	3.70880321146392 	101324.3441389524
-1.162412412412412 	299.9877269530883 	3.415583953723011 	101317.4160038588
-1.15990990990991 	300.0000312103906 	3.128881416312198 	101331.0394854587
-1.157407407407407 	299.9963681777603 	2.885526239661833 	101325.6414888342
-1.154904904904904 	300.0095763577444 	2.63061059387775 	101340.5800942304
-1.152402402402403 	300.0059241172194 	2.420807194304812 	101335.4800178847
-1.1498998998999 	300.0175074428689 	2.197763186707062 	101348.6760627057
-1.147397397397397 	300.0142081113239 	2.032737491157735 	101344.2531732653
-1.144894894894895 	300.0282355971631 	1.826664462886357 	101360.4432217151
-1.142392392392392 	300.0278271053941 	1.676476885225021 	101359.5841872708
-1.13988988988989 	300.0326402112603 	1.474157112067703 	101364.9261500632
-1.137387387387387 	300.0363814419154 	1.330228267169491 	101369.0722405324
-1.134884884884885 	300.0372363289011 	1.144328731629619 	101369.8229839928
-1.132382382382382 	300.0416227484212 	1.027065933785527 	101374.8403814074
-1.12987987987988 	300.0420406925447 	0.8678097115705337 	101375.1643588097
-1.127377377377377 	300.0453668948257 	0.7817149051109678 	101379.0002702228
-1.124874874874875 	300.045465722298 	0.6508340419660759 	101379.0153969758
-1.122372372372372 	300.0468861927607 	0.5916888932396472 	101380.6413589364
-1.11986986986987 	300.0468031891866 	0.4860189748075524 	101380.484562472
-1.117367367367367 	300.0465383413092 	0.4451125654045748 	101380.1402019447
-1.114864864864865 	300.0454120721694 	0.3593281322902179 	101378.7735610705
-1.112362362362362 	300.0440766963422 	0.3313806362521708 	101377.1789293542
-1.10985985985986 	300.0424911339014 	0.2628874916307031 	101375.2821912717
-1.107357357357357 	300.039938315225 	0.2423757709829912 	101372.2564699993
-1.104854854854855 	300.0371525192332 	0.1888264510506222 	101368.9484389903
-1.102352352352353 	300.0339358297156 	0.1725300770398916 	101365.1406878528
-1.09984984984985 	300.0308689311938 	0.1322662978687928 	101361.5069823962
-1.097347347347347 	300.0267598019527 	0.1181503302690506 	101356.6462056542
-1.094844844844845 	300.0230928723033 	0.09070723628012914 	101352.306418712
-1.092342342342342 	300.0193501792698 	0.07513318646622644 	101347.8804175679
-1.08983983983984 	300.0152670590744 	0.05674727652042404 	101343.0505231389
-1.087337337337337 	300.0106199866376 	0.04615953653443264 	101337.5567961972
-1.084834834834835 	300.0098830837003 	0.04417307291248593 	101336.683892407
-1.082332332332332 	300.0032165348514 	0.02890091613312255 	101328.803601385
-1.07982982982983 	299.9993320686834 	0.02420117666774588 	101324.2097953962
-1.077327327327327 	299.998309659368 	0.01115048555909698 	101323.0014181202
-1.074824824824825 	299.994988726642 	0.01296157794502245 	101319.0752843922
-1.072322322322323 	299.9930623975844 	0.02023598823979283 	101316.7980489294
-1.06981981981982 	299.9915353602101 	0.02451726699933964 	101314.9928569213
-1.067317317317317 	299.9903876410363 	0.02793462832107393 	101313.6361919258
-1.064814814814815 	299.989430750337 	0.0306685282784398 	101312.5050112771
-1.062312312312312 	299.9888062703584 	0.03229033482133851 	101311.7666974057
-1.05980980980981 	299.988917232509 	0.03186690603347435 	101311.897879024
-1.057307307307307 	299.9900026214945 	0.02873706516973813 	101313.1808169742
-1.054804804804805 	299.9919602519565 	0.02318051264801242 	101315.4948480823
-1.052302302302302 	299.9944944573852 	0.01595001463525327 	101318.490610794
-1.0497997997998 	299.9973473630803 	0.007691075129086986 	101321.8630974923
-1.047297297297297 	300.0004190956836 	0.00465462640279833 	101325.4944250457
-1.044794794794795 	300.0037157458959 	0.0107925965824903 	101329.3918229189
-1.042292292292292 	300.0072387067505 	0.02099054244564907 	101333.5567485463
-1.03978978978979 	300.010967929631 	0.03176959907932961 	101337.9657128356
-1.037287287287287 	300.0148489426271 	0.04297939064080819 	101342.5543702386
-1.034784784784785 	300.0187991029779 	0.05439712182470828 	101347.2248205359
-1.032282282282283 	300.0227547128515 	0.06582890983576377 	101351.9019355651
-1.02977977977978 	300.0266482177174 	0.07707904401235191 	101356.5058095274
-1.027277277277277 	300.0303903303193 	0.08792569261390767 	101360.9307148492
-1.024774774774775 	300.0339117962204 	0.09812012909646764 	101365.0949427943
-1.022272272272272 	300.0371649516724 	0.107496382730135 	101368.9420127617
-1.01976976976977 	300.0400910789417 	0.1159371207852359 	101372.4023381585
-1.017267267267267 	300.0426450382574 	0.1233227683349253 	101375.4227229517
-1.014764764764765 	300.0448363728912 	0.129670370771555 	101378.0143165115
-1.012262262262262 	300.0466704674993 	0.134963663969787 	101380.1833784817
-1.00975975975976 	300.048057310937 	0.1389146192814512 	101381.8236418458
-1.007257257257257 	300.0488436764722 	0.1411875138668171 	101382.7537191942
-1.004754754754755 	300.049007473555 	0.1417485430240405 	101382.9473975566
-1.002252252252252 	300.0487063998406 	0.1409315206851144 	101382.5914517777
-0.9997497497497498 	300.0480501029951 	0.1389883655396777 	101381.8153175152
-0.9972472472472473 	300.0469653678209 	0.1357539479203411 	101380.5324378383
-0.9947447447447449 	300.0452975833578 	0.1308566322652961 	101378.5602146286
-0.9922422422422421 	300.0429663411506 	0.1241281596286586 	101375.8032290022
-0.9897397397397399 	300.0400836293772 	0.1158978143739866 	101372.3941120575
-0.9872372372372376 	300.0368971949741 	0.1067506487169714 	101368.6260565485
-0.9847347347347346 	300.0336010586601 	0.09720455324549357 	101364.7282226773
-0.9822322322322323 	300.0302397803805 	0.08746158605095086 	101360.7534447029
-0.9797297297297296 	300.0267397960458 	0.07727267812943898 	101356.6149126644
-0.9772272272272275 	300.0229793777073 	0.066377475065206 	101352.1684520086
-0.9747247247247248 	300.0189663738645 	0.05482105872132672 	101347.4234749008
-0.9722222222222224 	300.01488054975 	0.04302491121735302 	101342.5926186184
-0.9697197197197196 	300.010949790213 	0.03167918075233683 	101337.9451466744
-0.9672172172172175 	300.0073377846363 	0.02125702644179757 	101333.6747169643
-0.9647147147147147 	300.0041094086721 	0.01188560259139169 	101329.8579720941
-0.9622122122122124 	300.0012124229123 	0.003489249695882795 	101326.4330323764
-0.9597097097097099 	299.9985942058724 	0.004409553046980793 	101323.3378171242
-0.9572072072072073 	299.9962563236586 	0.01084609099153886 	101320.5740378859
-0.9547047047047047 	299.9942910978774 	0.01644699623123711 	101318.2507422117
-0.9522022022022023 	299.9928476538681 	0.0205779024816542 	101316.5444239138
-0.9496996996996998 	299.992047338934 	0.02293427647336713 	101315.5982790722
-0.9471971971971973 	299.9919148810869 	0.02334268332413142 	101315.4415660626
-0.9446946946946947 	299.992454508823 	0.0217804554657731 	101316.0795146114
-0.9421921921921923 	299.9936215345228 	0.01839347377587759 	101317.4589824732
-0.93968968968969 	299.9953307182337 	0.01344646773041434 	101319.4793911649
-0.9371871871871872 	299.9974695318547 	0.007283190562104325 	101322.0078468886
-0.9346846846846848 	299.9999325344703 	0.00346396287411909 	101324.9194727421
-0.9321821821821823 	300.0027112613049 	0.007939082287032712 	101328.2044550686
-0.9296796796796799 	300.0058441915362 	0.01699452132614914 	101331.9083362025
-0.9271771771771771 	300.0093281987465 	0.02704675916174903 	101336.0272831191
-0.9246746746746748 	300.0130845727886 	0.037881984251635 	101340.4684480436
-0.9221721721721724 	300.0169835280248 	0.04912720760168734 	101345.0783686569
-0.9196696696696698 	300.0209133154217 	0.06051538413140392 	101349.7248054049
-0.9171671671671672 	300.0248332161144 	0.07187927181759474 	101354.3598097084
-0.9146646646646649 	300.0287321700481 	0.08315154520148083 	101358.9701675491
-0.9121621621621623 	300.0325546331204 	0.09419763009940844 	101363.4901563143
-0.9096596596596597 	300.0361975216008 	0.1047142080392121 	101367.7980925733
-0.9071571571571573 	300.0395636484789 	0.1144407232140008 	101371.7787629388
-0.9046546546546547 	300.0426026502079 	0.1232270103647338 	101375.372660791
-0.9021521521521524 	300.0453159683031 	0.1310554954674932 	101378.5816112285
-0.8996496496496498 	300.0477020988538 	0.1379475067328104 	101381.4035561687
-0.8971471471471473 	300.0497070681727 	0.1437271214277533 	101383.77482029
-0.894644644644645 	300.0512392990266 	0.1481463975825761 	101385.5870839527
-0.892142142142142 	300.0522238675912 	0.1509915653514354 	101386.7515211784
-0.8896396396396397 	300.0526351740213 	0.1521713721345619 	101387.2380504725
-0.8871371371371374 	300.0525121185323 	0.1518527102747975 	101387.0925345688
-0.8846346346346349 	300.0519189772272 	0.1501563744723996 	101386.3910272711
-0.8821321321321324 	300.0508877451242 	0.1471379726652491 	101385.1715520871
-0.8796296296296297 	300.049395457112 	0.1427887436446884 	101383.4066779723
-0.8771271271271271 	300.0473996383599 	0.1369563587676178 	101381.0462627111
-0.8746246246246248 	300.0448825873581 	0.1296873398380704 	101378.0696207918
-0.8721221221221224 	300.0418961527739 	0.1211049841594086 	101374.5378195193
-0.8696196196196196 	300.0385519573836 	0.1114473647276617 	101370.5829936109
-0.8671171171171175 	300.0349797714297 	0.1011280378630308 	101366.3587785271
-0.8646146146146148 	300.0312848815421 	0.09041678481419071 	101361.9894797161
-0.8621121121121121 	300.0275420024561 	0.07960179340472898 	101357.5635963987
-0.8596096096096097 	300.0237916883435 	0.06876977041540352 	101353.1290876127
-0.857107107107107 	300.0200460995583 	0.05791098421068765 	101348.7002395686
-0.8546046046046049 	300.0163265579329 	0.04715896607223309 	101344.3024137843
-0.8521021021021022 	300.0126876306607 	0.03660741765550325 	101339.9999469681
-0.8495995995995997 	300.0092158987458 	0.02661110995065056 	101335.8952568719
-0.8470970970970974 	300.006036464152 	0.01747325684476178 	101332.1363935648
-0.8445945945945946 	300.0032514083795 	0.009383212672916143 	101328.8436916569
-0.8420920920920922 	300.0009161736435 	0.002645905942969072 	101326.0828646236
-0.8395895895895897 	299.9990989763158 	0.002926331128514901 	101323.934643879
-0.8370870870870872 	299.9978961579383 	0.00602672794594846 	101322.5125675492
-0.8345845845845846 	299.997325443623 	0.007663043627440426 	101321.8378175882
-0.8320820820820823 	299.9973579726903 	0.007592586262278615 	101321.8762917035
-0.8295795795795798 	299.9979277719157 	0.005982641495406463 	101322.5497805429
-0.8270770770770772 	299.998926476656 	0.003093173732121101 	101323.7304195722
-0.8245745745745746 	300.0002951065871 	0.002243690674953137 	101325.3483726151
-0.8220720720720721 	300.0020804184889 	0.006133125888059966 	101327.4588720686
-0.8195695695695699 	300.0043325611214 	0.01266992571161435 	101330.1214360218
-0.817067067067067 	300.007043288245 	0.02050909624535754 	101333.3261115847
-0.8145645645645651 	300.0101534272721 	0.02949243351976147 	101337.0030911839
-0.8120620620620621 	300.0135818069517 	0.03940095143111259 	101341.056526247
-0.8095595595595597 	300.0172611760175 	0.05004577321003588 	101345.406739709
-0.8070570570570572 	300.0211503659418 	0.06129934145360187 	101350.0052435881
-0.8045545545545546 	300.0252110902137 	0.07303814839640375 	101354.8067333763
-0.8020520520520523 	300.0293757073388 	0.08506420843990517 	101359.7311695406
-0.7995495495495494 	300.0335417207513 	0.09709001031360961 	101364.6575748809
-0.7970470470470474 	300.0375954317379 	0.1087955134886814 	101369.451246298
-0.7945445445445446 	300.0414381687604 	0.1199003701757214 	101373.9955603869
-0.7920420420420423 	300.0450012926282 	0.1302082381117863 	101378.209526746
-0.7895395395395397 	300.0482517691157 	0.139621126392353 	101382.0536688278
-0.7870370370370371 	300.0511857008133 	0.1481186252781878 	101385.523565301
-0.7845345345345348 	300.0538021080831 	0.1556820607664597 	101388.6181582626
-0.7820320320320323 	300.0560622159861 	0.1621917235332147 	101391.2912352765
-0.7795295295295296 	300.0578742966692 	0.1673997356218645 	101393.4345340888
-0.7770270270270272 	300.0591405911204 	0.1710529907990844 	101394.9323701899
-0.7745245245245247 	300.0598334500521 	0.1730812499511206 	101395.7518602086
-0.7720220220220222 	300.0600176653907 	0.1736443528970244 	101395.9698126948
-0.7695195195195199 	300.0597764427287 	0.1729416089618899 	101395.6845016622
-0.767017017017017 	300.0591067266023 	0.1709575174983252 	101394.892421111
-0.7645145145145147 	300.0579057989494 	0.1674373489817879 	101393.4721422834
-0.7620120120120122 	300.0560835339031 	0.1621727639615787 	101391.3168706959
-0.7595095095095097 	300.0536953147056 	0.1553289561372422 	101388.4922840477
-0.7570070070070072 	300.0509475791359 	0.147445507101705 	101385.2425746883
-0.7545045045045048 	300.0480458064093 	0.1390525962151293 	101381.8106750506
-0.7520020020020022 	300.0450304544237 	0.1302642033712524 	101378.2446399102
-0.7494994994994997 	300.0417727181456 	0.1207710578912876 	101374.3919872588
-0.7469969969969972 	300.0381435356498 	0.1102740369864962 	101370.1001484161
-0.7444944944944945 	300.0342033817491 	0.09896071983056084 	101365.4408510551
-0.7419919919919924 	300.0302267360053 	0.08755639922099673 	101360.7383444198
-0.7394894894894897 	300.0265221753996 	0.07687340676255069 	101356.3577435306
-0.7369869869869872 	300.0232231668 	0.06728292813845221 	101352.4569465867
-0.7344844844844846 	300.020248526193 	0.0586092783443305 	101348.9396205144
-0.7319819819819822 	300.0174583392268 	0.05052434145310299 	101345.640555417
-0.7294794794794797 	300.0148535834597 	0.04305451232725969 	101342.5608431526
-0.7269769769769773 	300.0126346344328 	0.03673415729307128 	101339.9371996612
-0.7244744744744747 	300.011073996749 	0.03227555069835705 	101338.0920326391
-0.721971971971972 	300.0103086610325 	0.03001560968937031 	101337.1871061539
-0.7194694694694695 	300.0102027723497 	0.02959078062810397 	101337.061825582
-0.7169669669669674 	300.0104422411312 	0.03020222320215818 	101337.34499137
-0.7144644644644647 	300.0108162061507 	0.03131865803076442 	101337.7870784113
-0.711961961961962 	300.0114162215469 	0.03319609521143967 	101338.4964146511
-0.7094594594594597 	300.012599324381 	0.03679692755187304 	101339.8951525817
-0.7069569569569573 	300.0147703356274 	0.04317353741652688 	101342.4618674762
-0.7044544544544545 	300.0180694481515 	0.05262064087212524 	101346.36253248
-0.7019519519519523 	300.0221395775519 	0.06414905339412039 	101351.1749468672
-0.6994494494494495 	300.0262696015523 	0.07587590551493562 	101356.0584401395
-0.6969469469469471 	300.0298430257138 	0.08617231561048116 	101360.2840426593
-0.6944444444444446 	300.032738333453 	0.09473771607620175 	101363.7076956322
-0.6919419419419421 	300.0354449084855 	0.1029032100925871 	101366.9082730337
-0.6894394394394396 	300.0388207322264 	0.1130032292335708 	101370.9003077248
-0.6869369369369374 	300.0436651540188 	0.127181932538266 	101376.6290594425
-0.6844344344344344 	300.050268367665 	0.146146297200056 	101384.4382935406
-0.6819319319319321 	300.0581141598551 	0.1684326451045566 	101393.7176674737
-0.6794294294294296 	300.0659952471652 	0.1907278977774823 	101403.039491013
-0.6769269269269272 	300.0724968287806 	0.2091231014468926 	101410.7303908266
-0.6744244244244245 	300.0765228128972 	0.2206055698362035 	101415.4930324572
-0.6719219219219222 	300.0777216734871 	0.2242613988945308 	101416.9112531181
-0.6694194194194195 	300.0767033355665 	0.2218162799202762 	101415.7067398218
-0.6669169169169172 	300.0748813779633 	0.2171712590455653 	101413.5516023229
-0.6644144144144146 	300.0739644125882 	0.2150910958000604 	101412.4670278174
-0.661911911911912 	300.0754402640898 	0.2197597688096745 	101414.2130292049
-0.6594094094094097 	300.0802101689067 	0.2336642151427833 	101419.8548333058
-0.656906906906907 	300.0883112020647 	0.2568435901744021 	101429.4380299039
-0.6544044044044046 	300.0988219146543 	0.2867019191070368 	101441.8731767039
-0.6519019019019021 	300.1100958746796 	0.3186678721415548 	101455.2128185061
-0.6493993993993996 	300.1202588395286 	0.3474772275087892 	101467.2392803672
-0.6468968968968971 	300.127649047263 	0.3684046636249821 	101475.9852782788
-0.6443943943943946 	300.1310795917817 	0.3780650045431795 	101480.0453651756
-0.6418918918918921 	300.1299785297753 	0.3748227920198086 	101478.7413892823
-0.6393893893893897 	300.1244159184581 	0.3588806854175546 	101472.1595354394
-0.6368868868868871 	300.1150421465532 	0.3320633704393352 	101461.0678274129
-0.6343843843843846 	300.1029076126584 	0.2973322222931006 	101446.7097008987
-0.6318818818818821 	300.0892362580695 	0.2581459494133858 	101430.5346734858
-0.6293793793793795 	300.0751995513479 	0.2178252646213978 	101413.9292279084
-0.6268768768768773 	300.0617403917599 	0.1790696238624754 	101398.0087758596
-0.6243743743743745 	300.0494971470069 	0.143735510985283 	101383.5275579407
-0.6218718718718721 	300.0388199885252 	0.1128622337449491 	101370.9000917743
-0.6193693693693696 	300.0298309260609 	0.08682763876680265 	101360.2707348023
-0.6168668668668671 	300.0224905596234 	0.06553441231349011 	101351.5912187707
-0.6143643643643645 	300.0166551085085 	0.04858212944836277 	101344.6913608148
-0.6118618618618621 	300.0121263264684 	0.03540827704564088 	101339.3367282321
-0.6093593593593596 	300.0086878771547 	0.02539357772615451 	101335.2713831301
-0.6068568568568571 	300.0061294765051 	0.01793320583103574 	101332.2466061046
-0.6043543543543546 	300.004261314693 	0.01247938881945589 	101330.0379297288
-0.6018518518518521 	300.0029209793785 	0.008562196265197296 	101328.4533065494
-0.5993493493493496 	300.0019751779009 	0.005795121405299374 	101327.335133384
-0.5968468468468471 	300.0013182056033 	0.003871082543083753 	101326.5584323376
-0.5943443443443446 	300.0008686545883 	0.002553190667327607 	101326.0269553948
-0.591841841841842 	300.0005654185551 	0.001663364614118473 	101325.6684585231
-0.5893393393393397 	300.0003636724452 	0.001070788898061702 	101325.4299470065
-0.5868368368368371 	300.0002312143866 	0.0006813643031219689 	101325.2733502799
-0.5843343343343346 	300.0001453515041 	0.0004286970435228072 	101325.1718400537
-0.5818318318318321 	300.0000903756407 	0.0002667745167878248 	101325.1068455491
-0.5793293293293297 	300.0000555940845 	0.0001642403238034189 	101325.0657255473
-0.5768268268268271 	300.0000338425508 	0.0001000617833404792 	101325.0400100345
-0.5743243243243245 	300.0000203919857 	6.034128109825717e-05 	101325.0241082232
-0.5718218218218221 	300.0000121651105 	3.60261218500449e-05 	101325.014382082
-0.5693193193193196 	300.0000071866794 	2.129956724186982e-05 	101325.0084963415
-0.5668168168168171 	300.0000042050996 	1.247277040328138e-05 	101325.0049714634
-0.5643143143143147 	300.0000024375094 	7.235658141942326e-06 	101325.0028817913
-0.5618118118118121 	300.0000014000547 	4.15907061001054e-06 	101325.0016551848
-0.5593093093093094 	300.000000796943 	2.369155417260505e-06 	101325.0009421323
-0.5568068068068072 	300.0000004496217 	1.337651816045807e-06 	101325.0005315338
-0.5543043043043046 	300.0000002514782 	7.487099436535376e-07 	101325.0002972841
-0.551801801801802 	300.0000001393965 	4.155025857550125e-07 	101325.0001648537
-0.5492992992992995 	300.0000000766785 	2.286564180639307e-07 	101325.0000906512
-0.5467967967967969 	300.0000000418377 	1.247997699101939e-07 	101325.0000494367
-0.5442942942942947 	300.0000000226358 	6.756373533959605e-08 	101325.0000267406
-0.5417917917917919 	300.0000000120989 	3.628916984226135e-08 	101325.0000143474
-0.5392892892892895 	300.0000000063902 	1.933712068982741e-08 	101325.0000076359
-0.536786786786787 	300.0000000033672 	1.022819960417014e-08 	101325.0000040309
-0.5342842842842846 	300.0000000017477 	5.366829028419546e-09 	101325.0000021099
-0.531781781781782 	300.0000000008612 	2.799518471844635e-09 	101325.0000010943
-0.5292792792792794 	300.0000000004075 	1.445785651393127e-09 	101325.0000005615
-0.526776776776777 	300.0000000001534 	7.46839797149523e-10 	101325.0000002843
-0.5242742742742745 	300.000000000097 	3.774803740386275e-10 	101325.0000001407
-0.521771771771772 	300.0000000000799 	1.970756753564053e-10 	101325.000000067
-0.5192692692692695 	299.9999999999905 	9.525401493575401e-11 	101325.0000000295
-0.516766766766767 	300.0000000000188 	5.358577564308575e-11 	101325.0000000106
-0.5142642642642645 	299.9999999999759 	2.332557001762518e-11 	101325.000000001
-0.511761761761762 	299.9999999999543 	1.663422562299264e-11 	101324.999999996
-0.5092592592592596 	299.9999999999708 	5.167693702503252e-12 	101324.9999999937
-0.506756756756757 	299.9999999999333 	6.479834243255973e-12 	101324.9999999925
-0.5042542542542544 	299.9999999999912 	1.977555125867007e-12 	101324.9999999917
-0.5017517517517521 	300.0000000000275 	4.441380367179368e-12 	101324.9999999914
-0.4992492492492494 	300.0000000000323 	1.132703197402947e-12 	101324.9999999916
-0.496746746746747 	299.9999999999856 	3.591443681769775e-12 	101324.9999999916
-0.4942442442442445 	299.9999999999429 	1.202250375013078e-12 	101324.9999999915
-0.4917417417417421 	299.9999999999414 	3.644015457100836e-12 	101324.9999999916
-0.4892392392392395 	299.9999999999579 	2.152950355891841e-12 	101324.9999999914
-0.486736736736737 	299.9999999999592 	5.009268079088653e-12 	101324.9999999913
-0.4842342342342345 	299.9999999999201 	2.706261047750086e-12 	101324.9999999915
-0.481731731731732 	300.000000000032 	6.077464904924879e-12 	101324.9999999916
-0.4792292292292296 	300.0000000000175 	3.214238889439785e-12 	101324.9999999915
-0.4767267267267268 	299.9999999999535 	7.285443499729045e-12 	101324.9999999918
-0.4742242242242246 	299.9999999999937 	2.605838172927845e-12 	101324.999999992
-0.471721721721722 	299.9999999999555 	6.547441145528685e-12 	101324.9999999919
-0.4692192192192195 	299.9999999999728 	2.573586955846364e-12 	101324.9999999919
-0.4667167167167169 	299.9999999999073 	4.98314942801363e-12 	101324.9999999917
-0.4642142142142145 	299.9999999999946 	1.869938949219753e-12 	101324.9999999915
-0.461711711711712 	300.0000000000168 	4.724493271976636e-12 	101324.9999999912
-0.4592092092092094 	300.000000000005 	2.802775306787747e-12 	101324.9999999909
-0.456706706706707 	300.000000000047 	4.795285423826044e-12 	101324.9999999911
-0.4542042042042045 	299.9999999999368 	3.205495523428627e-12 	101324.999999991
-0.451701701701702 	299.9999999999507 	4.175304406334311e-12 	101324.9999999912
-0.4491991991991995 	299.9999999999548 	2.191601112999785e-12 	101324.9999999914
-0.4466966966966969 	299.9999999999496 	3.92717225623246e-12 	101324.9999999915
-0.4441941941941945 	299.9999999999957 	1.579719861942772e-12 	101324.9999999915
-0.441691691691692 	299.9999999999588 	4.527674788036412e-12 	101324.9999999913
-0.4391891891891895 	299.9999999999907 	1.515058890626525e-12 	101324.9999999914
-0.436686686686687 	299.9999999999705 	5.010462277371403e-12 	101324.9999999913
-0.4341841841841846 	299.9999999999957 	2.169861424295187e-12 	101324.9999999912
-0.431681681681682 	299.9999999999477 	4.773639753078951e-12 	101324.9999999913
-0.4291791791791794 	299.9999999999325 	1.011814288607185e-12 	101324.9999999912
-0.426676676676677 	299.99999999991 	3.986971339769041e-12 	101324.9999999912
-0.4241741741741744 	299.9999999999658 	1.050907586743854e-12 	101324.9999999912
-0.421671671671672 	300.0000000000065 	3.532433452541686e-12 	101324.9999999912
-0.4191691691691694 	300.0000000000493 	1.962030901304236e-12 	101324.9999999914
-0.4166666666666669 	300.0000000000564 	3.595504065950733e-12 	101324.9999999916
-0.4141641641641645 	299.9999999999356 	2.148072666162866e-12 	101324.9999999917
-0.411661661661662 	300.0000000000015 	3.226424921028619e-12 	101324.9999999916
-0.4091591591591594 	300.0000000000066 	2.037948503509958e-12 	101324.9999999914
-0.406656656656657 	299.9999999999456 	3.150595451069341e-12 	101324.9999999914
-0.4041541541541545 	300.0000000000171 	1.270284455298981e-12 	101324.9999999914
-0.401651651651652 	299.9999999999247 	3.332233241136241e-12 	101324.9999999911
-0.3991491491491494 	299.9999999999978 	1.745461807587764e-12 	101324.9999999912
-0.396646646646647 	299.9999999999527 	4.515640056780698e-12 	101324.9999999912
-0.3941441441441444 	299.99999999998 	2.340964832698145e-12 	101324.9999999914
-0.3916416416416419 	299.9999999999397 	4.125976307730198e-12 	101324.9999999915
-0.3891391391391395 	299.9999999999592 	8.257995945401008e-13 	101324.9999999916
-0.3866366366366368 	299.9999999999592 	3.544860889371613e-12 	101324.9999999915
-0.3841341341341344 	299.9999999999938 	2.118756473955232e-12 	101324.9999999915
-0.381631631631632 	299.9999999999499 	2.826936069296672e-12 	101324.9999999915
-0.3791291291291294 	300.0000000000026 	2.186932425527536e-12 	101324.9999999914
-0.3766266266266269 	300.0000000000219 	1.799725909099101e-12 	101324.9999999914
-0.3741241241241244 	300.0000000000232 	2.70376258668218e-12 	101324.9999999915
-0.371621621621622 	300.0000000000164 	7.373338995380981e-13 	101324.9999999915
-0.3691191191191194 	300.0000000000092 	3.698494599299794e-12 	101324.9999999917
-0.366616616616617 	300.0000000000071 	8.499976117075176e-13 	101324.9999999918
-0.3641141141141143 	299.9999999999706 	3.550831606726566e-12 	101324.9999999919
-0.3616116116116119 	299.9999999999479 	1.332968696898516e-12 	101324.9999999919
-0.3591091091091095 	299.9999999999841 	2.007004300909192e-12 	101324.9999999917
-0.356606606606607 	299.9999999999746 	1.015270470738915e-12 	101324.9999999915
-0.3541041041041044 	299.9999999999902 	8.974183350905361e-13 	101324.9999999914
-0.3516016016016019 	300.0000000000084 	1.99178467744372e-12 	101324.9999999912
-0.3490990990990994 	299.999999999995 	5.385348078883417e-13 	101324.9999999914
-0.346596596596597 	300.0000000000408 	3.312489720415372e-12 	101324.9999999913
-0.3440940940940944 	300.000000000048 	1.456138802454401e-12 	101324.9999999911
-0.3415915915915919 	300.0000000000164 	4.502655311398288e-12 	101324.9999999911
-0.3390890890890895 	299.9999999999761 	2.824551509493191e-12 	101324.999999991
-0.3365865865865869 	300.0000000000171 	4.276877467503319e-12 	101324.9999999911
-0.3340840840840844 	300.0000000000022 	3.360640015068348e-12 	101324.999999991
-0.3315815815815819 	300.0000000000207 	4.188887631906661e-12 	101324.9999999912
-0.3290790790790794 	300.0000000000193 	3.465391991750613e-12 	101324.9999999912
-0.3265765765765769 	299.9999999999293 	3.992314345670106e-12 	101324.9999999915
-0.3240740740740744 	299.9999999999928 	2.514154138948204e-12 	101324.9999999917
-0.3215715715715718 	300.0000000000062 	4.238214793320424e-12 	101324.9999999918
-0.3190690690690695 	299.9999999999361 	2.024055719063673e-12 	101324.9999999918
-0.3165665665665668 	299.9999999999907 	4.118169147329758e-12 	101324.9999999919
-0.3140640640640644 	300.0000000000036 	1.529301748374653e-12 	101324.9999999918
-0.311561561561562 	299.9999999999309 	4.644804284039445e-12 	101324.9999999919
-0.3090590590590593 	299.9999999999962 	1.759863968201485e-12 	101324.9999999916
-0.3065565565565568 	300.0000000000066 	4.915684035825918e-12 	101324.9999999916
-0.3040540540540545 	300.0000000000009 	2.298620330347987e-12 	101324.9999999916
-0.3015515515515518 	300.0000000000342 	4.426071033296272e-12 	101324.9999999917
-0.2990490490490494 	299.9999999999478 	9.184610764502541e-13 	101324.9999999918
-0.2965465465465469 	299.9999999999853 	2.527250271206743e-12 	101324.9999999916
-0.2940440440440444 	300.0000000000019 	1.122595227898738e-12 	101324.9999999918
-0.2915415415415418 	300.0000000000048 	2.251017627103782e-12 	101324.9999999919
-0.2890390390390395 	300.000000000004 	3.826758852232478e-12 	101324.999999992
-0.2865365365365368 	299.9999999999828 	3.353140222819461e-12 	101324.9999999921
-0.2840340340340343 	299.9999999999981 	5.555007524668179e-12 	101324.9999999922
-0.2815315315315318 	299.9999999999294 	3.346879373811226e-12 	101324.9999999924
-0.2790290290290295 	299.999999999964 	5.211328158219241e-12 	101324.9999999923
-0.2765265265265269 	300.0000000000078 	3.195733203466837e-12 	101324.9999999922
-0.2740240240240244 	300.0000000000233 	3.637599987869712e-12 	101324.9999999921
-0.2715215215215219 	300.0000000000119 	3.404260089616889e-12 	101324.9999999922
-0.2690190190190194 	299.9999999999434 	3.245996009585706e-12 	101324.9999999924
-0.2665165165165169 	299.9999999999969 	3.996536619105537e-12 	101324.9999999925
-0.2640140140140144 	299.9999999999684 	2.663584253789502e-12 	101324.9999999924
-0.2615115115115119 	300.000000000002 	4.179961371693987e-12 	101324.9999999921
-0.2590090090090094 	299.9999999999323 	2.29459095463554e-12 	101324.9999999923
-0.2565065065065068 	299.9999999999916 	2.748680303038295e-12 	101324.999999992
-0.2540040040040044 	299.9999999999956 	2.881898423206706e-12 	101324.999999992
-0.2515015015015019 	300.0000000000371 	2.130424751330715e-12 	101324.9999999918
-0.2489989989989994 	300.0000000000421 	4.110878487574659e-12 	101324.999999992
-0.2464964964964968 	299.9999999999914 	7.652102198870434e-13 	101324.9999999918
-0.2439939939939944 	299.9999999999984 	4.475859478934595e-12 	101324.9999999919
-0.2414914914914919 	299.9999999999711 	8.694797582935089e-13 	101324.9999999918
-0.2389889889889893 	300.0000000000058 	5.599720030126019e-12 	101324.9999999918
-0.2364864864864869 	300.0000000000232 	1.601176915526299e-12 	101324.9999999918
-0.2339839839839843 	299.9999999999359 	6.121887958994251e-12 	101324.9999999918
-0.2314814814814819 	299.9999999999816 	2.076458254694345e-12 	101324.9999999917
-0.2289789789789792 	299.9999999999194 	4.827731623824475e-12 	101324.9999999915
-0.2264764764764769 	299.9999999999482 	2.336451997498217e-12 	101324.9999999915
-0.2239739739739743 	299.9999999999611 	4.101012984139032e-12 	101324.9999999914
-0.2214714714714718 	299.9999999999412 	3.058128180882466e-12 	101324.9999999915
-0.2189689689689693 	299.9999999999688 	2.346169329616336e-12 	101324.9999999915
-0.2164664664664669 	299.9999999999822 	3.699281939222118e-12 	101324.9999999915
-0.2139639639639643 	299.9999999999381 	1.197754098643109e-12 	101324.9999999916
-0.2114614614614618 	299.9999999999748 	2.200692938036713e-12 	101324.9999999913
-0.2089589589589593 	299.9999999999911 	1.918720352400334e-12 	101324.9999999915
-0.2064564564564568 	299.9999999999919 	1.680462474215295e-12 	101324.9999999914
-0.2039539539539543 	299.9999999999132 	2.655344460383725e-12 	101324.9999999914
-0.2014514514514518 	299.9999999999484 	4.968367841465394e-13 	101324.9999999914
-0.1989489489489494 	299.9999999999678 	3.87043722409005e-12 	101324.9999999915
-0.1964464464464468 	299.9999999999922 	5.645804032637712e-13 	101324.9999999914
-0.1939439439439443 	299.9999999999872 	3.967513480262856e-12 	101324.9999999917
-0.1914414414414418 	299.9999999999245 	1.817321290657452e-12 	101324.9999999917
-0.1889389389389393 	300.000000000004 	3.778924756626332e-12 	101324.9999999917
-0.1864364364364368 	300.0000000000384 	2.7511235524459e-12 	101324.9999999919
-0.1839339339339343 	299.9999999999771 	4.033314874429352e-12 	101324.999999992
-0.1814314314314318 	299.9999999999968 	3.526687401152874e-12 	101324.999999992
-0.1789289289289293 	299.9999999999039 	5.298490835667127e-12 	101324.999999992
-0.1764264264264268 	299.9999999999796 	3.638142302941054e-12 	101324.999999992
-0.1739239239239243 	299.9999999999037 	6.333465181108634e-12 	101324.9999999923
-0.1714214214214218 	299.9999999999884 	2.830393217415899e-12 	101324.9999999923
-0.1689189189189193 	299.9999999999541 	7.004327586186024e-12 	101324.999999992
-0.1664164164164168 	300.0000000000045 	1.459920383426089e-12 	101324.999999992
-0.1639139139139143 	299.9999999999853 	7.741078171612736e-12 	101324.999999992
-0.1614114114114118 	300.000000000023 	1.515056468507806e-12 	101324.9999999921
-0.1589089089089093 	299.9999999999953 	9.059976197625247e-12 	101324.9999999922
-0.1564064064064068 	299.9999999999834 	3.34262957281623e-12 	101324.9999999921
-0.1539039039039043 	299.9999999999914 	8.83119858416894e-12 	101324.999999992
-0.1514014014014018 	300.0000000000235 	3.307669594710118e-12 	101324.9999999919
-0.1488988988988993 	299.9999999999844 	7.548040968952815e-12 	101324.9999999917
-0.1463963963963968 	300.0000000000014 	2.479427439789215e-12 	101324.9999999918
-0.1438938938938943 	299.9999999999564 	6.035335849647553e-12 	101324.9999999916
-0.1413913913913918 	299.999999999926 	9.024086586369362e-13 	101324.9999999919
-0.1388888888888893 	299.9999999999778 	4.982640271078632e-12 	101324.9999999915
-0.1363863863863868 	299.9999999998935 	1.486886851481278e-12 	101324.9999999916
-0.1338838838838843 	299.9999999999188 	3.997848860893557e-12 	101324.9999999917
-0.1313813813813818 	299.9999999999966 	1.47798539663444e-12 	101324.9999999918
-0.1288788788788793 	299.9999999999636 	4.271556697006016e-12 	101324.9999999916
-0.1263763763763768 	299.9999999999723 	1.917401856439515e-12 	101324.9999999919
-0.1238738738738743 	299.9999999999355 	4.892146648844493e-12 	101324.9999999917
-0.1213713713713717 	299.9999999999826 	1.25484663515401e-12 	101324.9999999918
-0.1188688688688693 	300.0000000000076 	4.545563901832738e-12 	101324.9999999917
-0.1163663663663668 	299.9999999999106 	6.469329688423231e-13 	101324.9999999919
-0.1138638638638643 	299.9999999999877 	4.090267205882842e-12 	101324.9999999918
-0.1113613613613618 	299.9999999999883 	1.780566197628608e-12 	101324.9999999918
-0.1088588588588592 	299.9999999999769 	4.60380710292536e-12 	101324.9999999919
-0.1063563563563568 	299.9999999999598 	1.821447859527448e-12 	101324.9999999917
-0.1038538538538543 	299.999999999975 	3.443690493492586e-12 	101324.9999999915
-0.1013513513513517 	300.0000000000115 	9.26701761342048e-13 	101324.9999999913
-0.09884884884884926 	299.9999999999492 	3.720983255371411e-12 	101324.9999999912
-0.09634634634634676 	299.9999999998985 	1.041089472460442e-12 	101324.9999999912
-0.09384384384384425 	299.9999999999316 	3.318231173282418e-12 	101324.9999999914
-0.09134134134134177 	300.0000000000192 	2.341990983036681e-12 	101324.9999999915
-0.08883883883883925 	300.0000000000074 	4.1603583031898e-12 	101324.9999999915
-0.08633633633633674 	299.9999999999542 	2.651722140628714e-12 	101324.9999999917
-0.08383383383383426 	300.0000000000082 	2.784902195905546e-12 	101324.9999999917
-0.08133133133133173 	299.99999999997 	3.854386754174237e-12 	101324.9999999916
-0.07882882882882926 	299.9999999998903 	4.028695418690231e-12 	101324.9999999916
-0.07632632632632676 	299.9999999999614 	4.313674940003219e-12 	101324.9999999913
-0.07382382382382424 	299.9999999999029 	3.902930359418326e-12 	101324.9999999911
-0.07132132132132173 	300.0000000000115 	4.134596980153824e-12 	101324.9999999911
-0.06881881881881925 	299.999999999959 	4.3976420469007e-12 	101324.9999999911
-0.06631631631631671 	299.9999999998969 	3.743973963810243e-12 	101324.9999999908
-0.06381381381381425 	299.9999999999567 	2.817163203788375e-12 	101324.9999999908
-0.06131131131131173 	299.999999999958 	2.587712465571698e-12 	101324.999999991
-0.05880880880880923 	299.9999999999242 	1.955359296819609e-12 	101324.999999991
-0.05630630630630672 	299.9999999999649 	1.593459272200351e-12 	101324.9999999911
-0.05380380380380424 	300.0000000000137 	2.197939064503076e-12 	101324.9999999916
-0.05130130130130173 	300.0000000000109 	2.066071522995745e-12 	101324.9999999918
-0.04879879879879922 	299.9999999999447 	1.632388855139355e-12 	101324.9999999918
-0.04629629629629672 	299.9999999999363 	1.168092628109887e-12 	101324.9999999916
-0.04379379379379422 	299.9999999999216 	2.005358701505897e-12 	101324.9999999917
-0.04129129129129173 	299.9999999999768 	1.901710977652601e-12 	101324.9999999917
-0.03878878878878922 	299.999999999981 	2.672610733597735e-12 	101324.9999999919
-0.03628628628628671 	299.9999999999803 	2.319473106037625e-12 	101324.9999999918
-0.03378378378378422 	299.9999999999299 	2.404097218836793e-12 	101324.9999999921
-0.03128128128128172 	299.9999999999698 	1.229193569118299e-12 	101324.9999999922
-0.02877877877877922 	299.9999999999704 	1.372206946976594e-12 	101324.999999992
-0.0262762762762767 	299.9999999999062 	6.699773520183541e-13 	101324.9999999921
-0.02377377377377422 	300.0000000000175 	7.816735469598575e-13 	101324.9999999919
-0.0212712712712717 	299.9999999999089 	9.306115232275861e-13 	101324.9999999919
-0.01876876876876921 	299.9999999999726 	2.637904977090728e-13 	101324.9999999919
-0.01626626626626671 	300.000000000014 	7.256486277594242e-13 	101324.9999999917
-0.0137637637637642 	299.9999999999668 	5.254408345583615e-13 	101324.999999992
-0.0112612612612617 	300.0000000000143 	6.997421386081789e-13 	101324.9999999922
-0.008758758758759198 	299.999999999997 	8.359630908480057e-14 	101324.9999999923
-0.006256256256256697 	299.9999999998951 	2.542860713553421e-13 	101324.9999999923
-0.003753753753754195 	299.9999999999533 	1.390357134853266e-12 	101324.9999999921
-0.001251251251251693 	299.9999999999297 	1.00423188283348e-12 	101324.9999999919
0.00125125125125081 	299.999999999954 	1.273316872702175e-12 	101324.999999992
0.003753753753753312 	299.9999999999681 	8.837843166797441e-13 	101324.9999999919
0.006256256256255817 	299.9999999998963 	2.051702526575038e-12 	101324.9999999917
0.008758758758758317 	299.9999999999877 	1.754275957609012e-12 	101324.9999999913
0.01126126126126082 	300.0000000000074 	1.505892624541192e-12 	101324.9999999914
0.01376376376376332 	299.9999999999687 	1.38586468392984e-12 	101324.9999999913
0.01626626626626582 	300.0000000000078 	1.452057055926123e-12 	101324.9999999914
0.01876876876876833 	299.9999999999582 	6.836465638069354e-13 	101324.9999999918
0.02127127127127083 	299.9999999999741 	5.584047023729393e-13 	101324.9999999919
0.02377377377377332 	299.9999999999934 	2.49925099738912e-13 	101324.999999992
0.02627627627627583 	299.9999999999103 	6.332328087600546e-13 	101324.9999999921
0.02877877877877833 	300.0000000000053 	1.257135804561974e-12 	101324.9999999922
0.03128128128128083 	299.9999999999483 	8.84046566878058e-13 	101324.999999992
0.03378378378378333 	299.9999999999076 	1.520109730000338e-12 	101324.9999999917
0.03628628628628584 	299.9999999999724 	1.687232827098259e-12 	101324.9999999918
0.03878878878878834 	299.999999999979 	1.935863164791118e-12 	101324.999999992
0.04129129129129084 	299.9999999999769 	2.195803805128205e-12 	101324.9999999921
0.04379379379379333 	299.999999999944 	2.140756094720281e-12 	101324.999999992
0.04629629629629585 	299.9999999998923 	1.876961123848546e-12 	101324.9999999917
0.04879879879879834 	299.9999999999581 	2.084204918506396e-12 	101324.9999999918
0.05130130130130085 	300.0000000000126 	1.90598537333804e-12 	101324.9999999918
0.05380380380380335 	300.0000000000171 	1.113827063422005e-12 	101324.9999999916
0.05630630630630584 	299.9999999999911 	1.369976055086481e-12 	101324.9999999913
0.05880880880880836 	299.9999999999249 	1.661207270131115e-12 	101324.9999999914
0.06131131131131085 	299.9999999999722 	2.028502075216578e-12 	101324.9999999912
0.06381381381381336 	299.9999999999654 	2.188510670214147e-12 	101324.9999999911
0.06631631631631586 	299.9999999998955 	2.309171237439367e-12 	101324.9999999909
0.06881881881881835 	299.999999999954 	2.080829304747632e-12 	101324.9999999908
0.07132132132132088 	299.9999999999875 	2.014495706697828e-12 	101324.9999999908
0.07382382382382337 	299.9999999999092 	2.166950537448521e-12 	101324.9999999907
0.07632632632632587 	299.9999999999705 	2.154959374832322e-12 	101324.9999999907
0.07882882882882837 	299.9999999999402 	1.945914859247862e-12 	101324.9999999908
0.08133133133133086 	299.9999999999847 	2.016336543561636e-12 	101324.999999991
0.08383383383383337 	299.9999999999827 	1.37461324366581e-12 	101324.999999991
0.08633633633633589 	299.9999999999082 	8.878445382241882e-13 	101324.9999999909
0.08883883883883838 	300.0000000000076 	1.392374713852331e-12 	101324.9999999909
0.09134134134134086 	299.9999999999862 	1.226438844448803e-12 	101324.9999999907
0.09384384384384339 	299.9999999999023 	2.596638851278887e-12 	101324.999999991
0.09634634634634588 	299.9999999999674 	3.047830658475752e-12 	101324.9999999909
0.09884884884884838 	299.9999999999721 	3.164136845092944e-12 	101324.9999999911
0.1013513513513509 	300.0000000000191 	2.457187932250393e-12 	101324.9999999914
0.1038538538538534 	299.9999999999555 	2.259702125475116e-12 	101324.9999999914
0.1063563563563559 	300.0000000000142 	2.426478604037215e-12 	101324.9999999915
0.1088588588588584 	300.0000000000224 	2.829846082656053e-12 	101324.9999999913
0.1113613613613609 	299.9999999999227 	3.52875577270962e-12 	101324.9999999915
0.1138638638638634 	299.9999999999484 	3.528144055047064e-12 	101324.9999999913
0.1163663663663659 	299.9999999999456 	3.169740338089782e-12 	101324.9999999911
0.1188688688688684 	299.99999999997 	2.933157805037958e-12 	101324.9999999912
0.1213713713713709 	299.9999999999915 	1.917693412310715e-12 	101324.9999999909
0.1238738738738734 	299.9999999999287 	1.359812375033049e-12 	101324.9999999909
0.1263763763763759 	299.9999999999857 	1.645820061119778e-12 	101324.9999999908
0.1288788788788784 	299.9999999999902 	1.474952951629103e-12 	101324.999999991
0.1313813813813809 	299.9999999999879 	1.60392084420356e-12 	101324.9999999912
0.1338838838838834 	299.9999999999777 	1.619186891982208e-12 	101324.999999991
0.1363863863863859 	300.0000000000259 	2.005348217390212e-12 	101324.9999999906
0.1388888888888884 	300.0000000000439 	1.95347450217892e-12 	101324.9999999906
0.1413913913913909 	299.9999999999998 	1.437391681411264e-12 	101324.9999999908
0.1438938938938934 	299.9999999999951 	1.546912438984892e-12 	101324.9999999909
0.1463963963963959 	299.999999999957 	3.534890205522706e-13 	101324.999999991
0.1488988988988985 	299.9999999999139 	1.497752444765304e-12 	101324.999999991
0.1514014014014009 	299.9999999999684 	6.220189862807858e-13 	101324.9999999909
0.1539039039039035 	299.9999999999627 	2.476538176318391e-12 	101324.9999999911
0.1564064064064059 	299.9999999999438 	2.244591954113507e-13 	101324.9999999912
0.1589089089089084 	299.9999999999829 	3.254822831056296e-12 	101324.9999999911
0.1614114114114109 	299.999999999978 	7.647487279396954e-13 	101324.9999999911
0.1639139139139134 	299.9999999999171 	3.172853024812772e-12 	101324.9999999911
0.166416416416416 	300.0000000000002 	2.557877792984362e-12 	101324.9999999912
0.1689189189189185 	300.0000000000261 	2.192016535617896e-12 	101324.999999991
0.1714214214214209 	299.9999999999926 	2.872905275851613e-12 	101324.9999999909
0.1739239239239235 	299.9999999999867 	1.650062717649144e-12 	101324.999999991
0.1764264264264259 	299.9999999999678 	3.263830633288871e-12 	101324.9999999911
0.1789289289289284 	300.0000000000018 	1.118446028205297e-12 	101324.9999999913
0.181431431431431 	299.9999999999638 	3.058544357358369e-12 	101324.9999999913
0.1839339339339334 	299.9999999999661 	8.220950930291487e-13 	101324.9999999913
0.186436436436436 	299.9999999999328 	2.036188499892004e-12 	101324.9999999913
0.1889389389389385 	299.9999999999868 	1.960800513383834e-12 	101324.9999999914
0.191441441441441 	299.9999999999808 	1.983574386904691e-12 	101324.9999999919
0.1939439439439434 	299.9999999999225 	3.332564256897671e-12 	101324.9999999921
0.196446446446446 	299.9999999999482 	1.713225990197117e-12 	101324.9999999922
0.1989489489489485 	299.9999999999723 	3.983618400759652e-12 	101324.9999999921
0.2014514514514509 	299.9999999999816 	1.907721086525317e-12 	101324.9999999918
0.2039539539539535 	299.9999999999931 	3.359822139916038e-12 	101324.9999999918
0.2064564564564559 	299.9999999999602 	1.700683516093122e-12 	101324.9999999916
0.2089589589589585 	299.9999999999821 	2.406401832501736e-12 	101324.9999999915
0.211461461461461 	299.999999999938 	2.768212302450338e-12 	101324.9999999915
0.2139639639639635 	299.9999999999825 	2.254598076342814e-12 	101324.9999999914
0.2164664664664659 	299.9999999999926 	3.39310233780067e-12 	101324.9999999915
0.2189689689689684 	299.999999999991 	1.334768072027379e-12 	101324.9999999915
0.221471471471471 	299.9999999999924 	3.612801330242443e-12 	101324.9999999916
0.2239739739739735 	299.9999999999564 	1.192626066321744e-12 	101324.9999999917
0.226476476476476 	299.9999999999816 	2.801374246698986e-12 	101324.9999999917
0.2289789789789785 	299.9999999999967 	2.175316563222176e-12 	101324.9999999916
0.231481481481481 	299.9999999999889 	2.583255601186804e-12 	101324.9999999916
0.2339839839839835 	299.999999999985 	3.321083109477465e-12 	101324.9999999916
0.236486486486486 	300.0000000000206 	2.645036209608763e-12 	101324.9999999915
0.2389889889889885 	299.999999999999 	3.909457164024916e-12 	101324.9999999913
0.241491491491491 	299.9999999999263 	2.370696039758936e-12 	101324.9999999915
0.2439939939939935 	299.9999999999822 	5.759928878998642e-12 	101324.9999999915
0.246496496496496 	299.9999999999895 	3.554446168235372e-12 	101324.9999999913
0.2489989989989985 	300.0000000000372 	4.64055580704909e-12 	101324.9999999911
0.251501501501501 	300.0000000000269 	3.046058132320906e-12 	101324.9999999907
0.2540040040040035 	299.9999999999879 	2.400220492002583e-12 	101324.9999999909
0.256506506506506 	300.0000000000241 	2.94551766856046e-12 	101324.9999999909
0.2590090090090086 	299.9999999999137 	1.182250101494654e-12 	101324.9999999912
0.261511511511511 	299.9999999999991 	3.325618594793924e-12 	101324.9999999913
0.2640140140140135 	299.9999999999917 	8.776494536705625e-13 	101324.9999999913
0.2665165165165161 	299.9999999999353 	2.594161802825607e-12 	101324.9999999914
0.2690190190190185 	300.0000000000058 	1.201353069608395e-12 	101324.9999999916
0.271521521521521 	300.0000000000081 	1.465403100391221e-12 	101324.9999999915
0.2740240240240235 	300.0000000000142 	1.743054790436158e-12 	101324.9999999914
0.276526526526526 	300.0000000000048 	1.074157673206799e-12 	101324.9999999913
0.2790290290290286 	299.9999999999391 	2.619091243012598e-12 	101324.9999999915
0.281531531531531 	299.9999999999322 	1.291568697939558e-12 	101324.9999999916
0.2840340340340335 	299.9999999999804 	3.339226003780986e-12 	101324.9999999915
0.2865365365365361 	299.9999999999604 	2.169198801892118e-12 	101324.9999999913
0.2890390390390385 	299.999999999998 	3.125245271861177e-12 	101324.999999991
0.291541541541541 	299.9999999999989 	2.786968715705651e-12 	101324.9999999909
0.2940440440440436 	299.9999999999901 	1.910165805339405e-12 	101324.9999999912
0.296546546546546 	299.9999999999924 	3.129869198817947e-12 	101324.9999999911
0.2990490490490486 	299.9999999999412 	9.861224015852208e-13 	101324.999999991
0.3015515515515511 	300.0000000000315 	4.393649391767966e-12 	101324.9999999911
0.3040540540540535 	299.9999999999958 	2.267178467290189e-12 	101324.9999999913
0.3065565565565562 	299.9999999999983 	4.330480064292443e-12 	101324.9999999913
0.3090590590590585 	299.999999999991 	2.493565237554488e-12 	101324.9999999914
0.3115615615615611 	299.9999999999432 	3.177769703770108e-12 	101324.9999999914
0.3140640640640635 	300.0000000000028 	1.172038963540867e-12 	101324.9999999912
0.316566566566566 	299.9999999999902 	2.457932728180445e-12 	101324.9999999912
0.3190690690690687 	299.9999999999552 	6.126625753242851e-13 	101324.9999999908
0.3215715715715711 	300.0000000000133 	2.6346701423256e-12 	101324.9999999908
0.3240740740740735 	299.9999999999969 	7.655819624050662e-13 	101324.9999999907
0.326576576576576 	299.9999999999067 	1.385446462315937e-12 	101324.9999999906
0.3290790790790786 	300.0000000000063 	1.475369981341706e-13 	101324.9999999904
0.3315815815815811 	300.0000000000265 	9.423036908201802e-13 	101324.9999999904
0.3340840840840836 	299.9999999999861 	5.78030655621204e-13 	101324.9999999907
0.3365865865865861 	300.0000000000489 	7.00864235548334e-13 	101324.9999999907
0.3390890890890886 	300.0000000000442 	9.398101845672723e-13 	101324.9999999908
0.3415915915915911 	300.0000000000032 	7.629431102771148e-13 	101324.999999991
0.3440940940940935 	299.9999999999553 	1.255106835497775e-12 	101324.9999999912
0.3465965965965962 	300.0000000000297 	1.045534133972598e-12 	101324.9999999915
0.3490990990990985 	300.0000000000223 	5.474968784550784e-13 	101324.9999999914
0.3516016016016011 	299.9999999999836 	2.089659190969668e-13 	101324.9999999915
0.3541041041041035 	300.0000000000052 	4.036534373032561e-13 	101324.9999999913
0.3566066066066061 	299.9999999999582 	5.696241287103541e-13 	101324.9999999914
0.3591091091091085 	299.9999999999276 	1.315638831190123e-12 	101324.9999999914
0.3616116116116112 	299.9999999999422 	1.159471719482994e-12 	101324.9999999914
0.3641141141141137 	299.9999999999368 	2.091932019470612e-12 	101324.9999999912
0.3666166166166161 	299.9999999999299 	2.514614468327536e-12 	101324.9999999909
0.3691191191191185 	300.0000000000373 	2.885228843013633e-12 	101324.9999999908
0.371621621621621 	300.0000000000126 	2.374362318089449e-12 	101324.9999999908
0.3741241241241237 	300.0000000000412 	2.182934188990609e-12 	101324.9999999909
0.3766266266266261 	300.0000000000215 	1.171167825086648e-12 	101324.9999999908
0.3791291291291286 	299.9999999999835 	2.328268890514662e-12 	101324.9999999907
0.3816316316316311 	299.9999999999264 	1.387704097252305e-12 	101324.9999999907
0.3841341341341336 	300.0000000000089 	3.528978669457276e-12 	101324.9999999905
0.3866366366366362 	299.9999999999968 	1.828255643493589e-12 	101324.9999999904
0.3891391391391387 	299.9999999999625 	3.168559192188942e-12 	101324.9999999906
0.391641641641641 	299.9999999999944 	1.812258905093574e-12 	101324.9999999909
0.3941441441441436 	300.0000000000073 	2.579716069620806e-12 	101324.9999999906
0.3966466466466462 	299.9999999999999 	1.374331317866606e-12 	101324.9999999906
0.3991491491491486 	299.9999999999538 	2.271223307720206e-12 	101324.9999999909
0.4016516516516512 	299.9999999999224 	8.664758706350131e-13 	101324.9999999911
0.4041541541541536 	299.9999999999512 	1.909213647309858e-12 	101324.999999991
0.4066566566566561 	299.9999999999511 	4.734971106987993e-13 	101324.9999999908
0.4091591591591587 	299.9999999999951 	1.443528370369664e-12 	101324.9999999908
0.4116616616616612 	300.0000000000076 	3.129932382355509e-13 	101324.9999999908
0.4141641641641635 	300.0000000000354 	1.162597839938207e-13 	101324.9999999909
0.4166666666666662 	299.9999999999948 	7.642325408574362e-13 	101324.999999991
0.4191691691691687 	299.9999999999444 	1.767872561309134e-12 	101324.9999999911
0.421671671671671 	300.000000000009 	1.327063264848606e-12 	101324.9999999908
0.4241741741741737 	299.9999999999785 	2.96030852920242e-12 	101324.9999999908
0.4266766766766761 	299.9999999999534 	1.780859021783376e-12 	101324.9999999906
0.4291791791791785 	300.0000000000176 	3.30672314366499e-12 	101324.9999999906
0.4316816816816812 	300.0000000000103 	2.734419769710612e-12 	101324.9999999904
0.4341841841841836 	299.9999999999854 	3.157825651163354e-12 	101324.9999999903
0.4366866866866862 	299.9999999999247 	1.495214246190295e-12 	101324.9999999902
0.4391891891891885 	299.9999999999862 	2.383223892253473e-12 	101324.9999999904
0.4416916916916913 	299.9999999999838 	1.006402494257751e-12 	101324.9999999907
0.4441941941941936 	299.9999999999906 	2.734964303145874e-12 	101324.9999999909
0.4466966966966961 	299.9999999999233 	1.108834587694343e-12 	101324.9999999911
0.4491991991991987 	299.9999999999799 	1.193713379262862e-12 	101324.9999999909
0.4517017017017012 	299.9999999999795 	7.462713943214838e-13 	101324.9999999911
0.4542042042042035 	299.9999999999841 	5.431279277132753e-13 	101324.999999991
0.4567067067067062 	299.9999999999954 	7.816484067231345e-13 	101324.9999999909
0.4592092092092087 	299.9999999999322 	7.070099445585032e-13 	101324.9999999908
0.4617117117117112 	300.0000000000155 	8.122661860573693e-13 	101324.9999999906
0.4642142142142137 	299.999999999964 	7.3908027705895e-13 	101324.9999999907
0.4667167167167162 	299.9999999999886 	5.099678166135985e-13 	101324.9999999907
0.4692192192192187 	299.9999999999594 	7.155792574638271e-13 	101324.9999999907
0.4717217217217212 	300.0000000000106 	6.044247984736834e-13 	101324.9999999909
0.4742242242242236 	299.9999999999578 	7.375635078221644e-13 	101324.9999999912
0.4767267267267262 	299.9999999999749 	5.579379177390967e-13 	101324.9999999914
0.4792292292292287 	300.0000000000078 	5.385472990067709e-13 	101324.9999999915
0.4817317317317312 	300.0000000000258 	1.888464482158043e-13 	101324.9999999916
0.4842342342342336 	299.9999999999853 	3.577101853892663e-13 	101324.9999999914
0.4867367367367362 	299.9999999999575 	8.751212016310691e-13 	101324.9999999912
0.4892392392392387 	300.0000000000279 	6.630367220796639e-13 	101324.9999999912
0.4917417417417412 	300.0000000000065 	2.54635075343805e-12 	101324.9999999909
0.4942442442442437 	299.9999999999162 	1.443205034632055e-12 	101324.9999999907
0.4967467467467462 	299.999999999931 	2.920911108030778e-12 	101324.9999999904
0.4992492492492487 	299.9999999999267 	8.907067354039637e-13 	101324.9999999903
0.5017517517517511 	299.9999999999569 	1.834392233219123e-12 	101324.9999999901
0.5042542542542537 	299.9999999999669 	1.428973494663324e-12 	101324.9999999899
0.5067567567567562 	299.9999999999507 	3.254277751027343e-12 	101324.9999999893
0.5092592592592589 	299.9999999999697 	6.909640771264719e-12 	101324.9999999882
0.5117617617617611 	299.9999999999559 	1.307898994135027e-11 	101324.9999999855
0.5142642642642637 	299.9999999999783 	2.865149388553568e-11 	101324.9999999799
0.5167667667667663 	299.9999999999558 	5.60156767201947e-11 	101324.9999999683
0.5192692692692688 	299.9999999998909 	1.17487514525214e-10 	101324.9999999452
0.5217717717717714 	299.9999999998657 	2.304945649648561e-10 	101324.9999998994
0.5242742742742736 	299.9999999997904 	4.635682135928132e-10 	101324.9999998088
0.5267767767767763 	299.9999999996584 	9.082913206665581e-10 	101324.9999996322
0.5292792792792789 	299.9999999993529 	1.778737886183416e-09 	101324.9999992898
0.5317817817817813 	299.9999999987692 	3.444242058669869e-09 	101324.9999986315
0.5342842842842837 	299.9999999978039 	6.62728879685355e-09 	101324.9999973748
0.5367867867867864 	299.9999999957761 	1.264743056694049e-08 	101324.9999949946
0.5392892892892888 	299.999999991951 	2.39537984076048e-08 	101324.9999905221
0.5417917917917912 	299.9999999849442 	4.500932810543107e-08 	101324.9999821857
0.5442942942942938 	299.9999999718895 	8.390813008730062e-08 	101324.9999667742
0.5467967967967964 	299.9999999479662 	1.551679248109072e-07 	101324.9999385194
0.5492992992992988 	299.9999999045089 	2.846162201931201e-07 	101324.9998871545
0.5518018018018012 	299.9999998261944 	5.177435689093134e-07 	101324.9997945791
0.5543043043043039 	299.9999996863764 	9.339223542581038e-07 	101324.9996291869
0.5568068068068063 	299.9999994386399 	1.670253480580578e-06 	101324.9993363363
0.5593093093093087 	299.9999990039487 	2.961170843037626e-06 	101324.9988225153
0.5618118118118114 	299.9999982485268 	5.203355528827828e-06 	101324.9979293548
0.5643143143143137 	299.9999969477266 	9.060858219611762e-06 	101324.9963915099
0.5668168168168163 	299.9999947297681 	1.563303536215751e-05 	101324.9937692955
0.5693193193193188 	299.999990985318 	2.671924297585443e-05 	101324.9893424063
0.5718218218218213 	299.9999847279168 	4.522994256426755e-05 	101324.9819446538
0.5743243243243239 	299.9999743799394 	7.581558140167422e-05 	101324.969710877
0.5768268268268262 	299.9999574499336 	0.0001258130837448748 	101324.9496955668
0.5793293293293288 	299.9999300547512 	0.0002066458991095403 	101324.9173080196
0.5818318318318314 	299.9998862251697 	0.0003358567536813636 	101324.8654911399
0.5843343343343338 	299.9998169159655 	0.0005399998160013122 	101324.7835513635
0.5868368368368363 	299.999708626412 	0.0008586652270526523 	101324.6555279785
0.5893393393393387 	299.9995415250951 	0.001349941986099776 	101324.4579758926
0.5918418418418413 	299.9992869698604 	0.002097627631008427 	101324.1570340101
0.5943443443443439 	299.9989043334824 	0.00322043689906924 	101323.7046728222
0.5968468468468463 	299.9983370951545 	0.004883310925218351 	101323.0340745893
0.5993493493493487 	299.9975082578698 	0.007310636381171033 	101322.0542165716
0.6018518518518514 	299.9963153144854 	0.01080070168446215 	101320.6439228535
0.6043543543543537 	299.9946252338519 	0.01574000242676401 	101318.6459410445
0.6068568568568564 	299.9922702679497 	0.02261504472702357 	101315.861993976
0.6093593593593587 	299.9890457945613 	0.03201811354031024 	101312.0502421321
0.6118618618618614 	299.9847118587966 	0.04464218482045653 	101306.9271261268
0.6143643643643638 	299.9790004921771 	0.06125899153827413 	101300.1760478974
0.6168668668668662 	299.9716311433029 	0.08267355868220287 	101291.4656490315
0.6193693693693688 	299.9623364780238 	0.1096487965405981 	101280.4803551188
0.6218718718718714 	299.9508999631259 	0.1427955198215886 	101266.9651342714
0.6243743743743737 	299.9372063968255 	0.1824271042764084 	101250.7848523907
0.6268768768768762 	299.9213044190672 	0.2283846088335167 	101231.9960652427
0.629379379379379 	299.9034690280483 	0.2798462609167441 	101210.925487391
0.6318818818818812 	299.8842667635618 	0.3351503732818857 	101188.2445828285
0.6343843843843838 	299.8645986495106 	0.3916975583260657 	101165.0173576738
0.6368868868868864 	299.8456719834668 	0.4460448025223757 	101142.6695174738
0.6393893893893888 	299.8288702133679 	0.4942682433812799 	101122.8338190384
0.6418918918918912 	299.8155433194316 	0.5325460788165646 	101107.1026541796
0.6443943943943939 	299.8067678833766 	0.5578340593578421 	101096.7452518089
0.6468968968968963 	299.8031240346189 	0.5684999276822137 	101092.4443943001
0.6493993993993988 	299.8045290729444 	0.5647935103795997 	101094.1016074134
0.6519019019019012 	299.8101656906234 	0.5490399025639779 	101100.7559608779
0.6544044044044038 	299.8185497354418 	0.5254842249653471 	101110.6533818044
0.6569069069069065 	299.827700355444 	0.4997529330149146 	101121.4552091745
0.6594094094094087 	299.8354812933275 	0.477839171613024 	101130.6407861756
0.6619119119119113 	299.8401327653006 	0.4646340937380586 	101136.1320869839
0.664414414414414 	299.8408151441163 	0.4624857966647286 	101136.9380823125
0.6669169169169162 	299.8378665412949 	0.4704867708450167 	101133.4571859991
0.6694194194194188 	299.8326699253464 	0.484798926614706 	101127.3206799227
0.6719219219219214 	299.8272199004281 	0.4998608810612291 	101120.886743352
0.674424424424424 	299.8234956621491 	0.5102157291482778 	101116.4906431162
0.6769269269269262 	299.8227212979841 	0.5124922051628774 	101115.576065086
0.679429429429429 	299.8248909482876 	0.5066676714214592 	101118.1369749727
0.6819319319319311 	299.828826891108 	0.4959471783830467 	101122.7847010918
0.6844344344344341 	299.8327077507677 	0.4853281502492227 	101127.3660469262
0.686936936936936 	299.8348484233138 	0.4793957390253559 	101129.8932711084
0.6894394394394392 	299.834491297936 	0.4802209096940295 	101129.4721607471
0.6919419419419413 	299.8321493696359 	0.4864512332097323 	101126.7068614157
0.694444444444444 	299.8292839998662 	0.4941457063174876 	101123.3237043106
0.6969469469469463 	299.8275200182967 	0.4989277749609796 	101121.2412792253
0.6994494494494489 	299.8277583032992 	0.4983679942646727 	101121.5222266172
0.7019519519519515 	299.8296911709399 	0.4932514550198813 	101123.804288559
0.7044544544544538 	299.8320556278449 	0.4869356396286876 	101126.5960733901
0.7069569569569564 	299.8334321675054 	0.4832023288516799 	101128.2212751284
0.7094594594594589 	299.8331299373862 	0.4838987496673627 	101127.8647008376
0.7119619619619615 	299.8315999100959 	0.4878653476061359 	101126.0580047959
0.7144644644644638 	299.830065401864 	0.4918877794576339 	101124.2462904238
0.7169669669669665 	299.8296493571817 	0.4930113697018388 	101123.7549409647
0.7194694694694688 	299.8305870164874 	0.4905933152215347 	101124.8616541408
0.7219719719719715 	299.8321121899951 	0.4866053147061231 	101126.6628274629
0.7244744744744737 	299.8330949512845 	0.4839905719422622 	101127.8230466449
0.7269769769769764 	299.8329181571495 	0.4843643317187453 	101127.6144153253
0.7294794794794791 	299.8319314836342 	0.4868511194712423 	101126.449498168
0.7319819819819813 	299.8311018283306 	0.4889708621100413 	101125.4698316616
0.7344844844844839 	299.8311762175412 	0.4887947871240235 	101125.5573420688
0.7369869869869864 	299.8320659216757 	0.4865207950946756 	101126.6079085608
0.739489489489489 	299.8329884245405 	0.4841303976249822 	101127.6971818264
0.7419919919919914 	299.8332084268818 	0.4835012754613253 	101127.9569840139
0.7444944944944939 	299.8326968144106 	0.4847301311671534 	101127.3530927709
0.7469969969969963 	299.83210352494 	0.4861949306546555 	101126.6522838237
0.7494994994994989 	299.8320888710221 	0.4862268661524577 	101126.6348929553
0.7520020020020015 	299.8326883757977 	0.4847138912864105 	101127.3428520087
0.7545045045045039 	299.8333306484336 	0.4830683866860319 	101128.1010969205
0.7570070070070062 	299.8334611100884 	0.4826779661168128 	101128.2551358369
0.7595095095095092 	299.8331064154237 	0.4834970321350608 	101127.8366342533
0.7620120120120112 	299.8327967518086 	0.4842299663649366 	101127.4707734742
0.7645145145145138 	299.8329563320809 	0.4838215187695419 	101127.6588666365
0.7670170170170165 	299.833454932844 	0.4825690184397408 	101128.2477875083
0.7695195195195191 	299.8338042670823 	0.4816606518230837 	101128.6603432428
0.7720220220220213 	299.8337372885132 	0.4817596023777473 	101128.5812439237
0.7745245245245239 	299.833492033166 	0.4823056719477783 	101128.29158257
0.7770270270270263 	299.8334861654332 	0.4822901837819506 	101128.2845778004
0.779529529529529 	299.83380632889 	0.4814883785344956 	101128.6625909739
0.7820320320320313 	299.8341380034116 	0.4806426375523918 	101129.0541610856
0.784534534534534 	299.8341896072776 	0.4804559997839727 	101129.1151905643
0.7870370370370364 	299.8340511703794 	0.4807300562221086 	101128.9518031112
0.7895395395395389 	299.8340412023139 	0.480714710706269 	101128.939763184
0.7920420420420413 	299.8342745967165 	0.4801253326635038 	101129.2153374705
0.794544544544544 	299.8345365188022 	0.4794560611301562 	101129.5248370033
0.7970470470470463 	299.834601603927 	0.4792408037729131 	101129.6014410119
0.799549549549549 	299.834535077932 	0.4793388092749068 	101129.5228478478
0.8020520520520515 	299.8345725656786 	0.4792056970337307 	101129.5673171536
0.8045545545545539 	299.8347765647746 	0.4786876319715727 	101129.8079628118
0.8070570570570563 	299.8349686898301 	0.4781865184136136 	101130.0347857598
0.8095595595595589 	299.8350108210908 	0.4780251138620372 	101130.0846832053
0.8120620620620614 	299.8349980614482 	0.4779967341149436 	101130.0695115191
0.8145645645645638 	299.8350923570792 	0.4777316451846828 	101130.1807556846
0.8170670670670666 	299.8352761454468 	0.4772597356003865 	101130.3978606694
0.8195695695695689 	299.8354009192277 	0.4769139013625065 	101130.5451056069
0.8220720720720714 	299.835427227954 	0.47678970214206 	101130.5761482972
0.8245745745745739 	299.8354718192238 	0.4766315279612757 	101130.6288011906
0.8270770770770765 	299.8356068261226 	0.4762739424249747 	101130.7881411564
0.8295795795795788 	299.8357521827173 	0.4758876249708662 	101130.9598258191
0.8320820820820815 	299.8358226909219 	0.4756635052361322 	101131.0430798957
0.834584584584584 	299.835865426476 	0.4755045838807911 	101131.093485345
0.8370870870870865 	299.8359658627293 	0.4752232696890508 	101131.2120424161
0.8395895895895891 	299.8361019866416 	0.4748614056476878 	101131.3728115468
0.8420920920920915 	299.8361955311939 	0.4745882124889403 	101131.4832028999
0.844594594594594 	299.8362512345071 	0.4743983952121287 	101131.5489410626
0.8470970970970964 	299.8363376520085 	0.4741463624220178 	101131.6509282591
0.8495995995995991 	299.8364600087698 	0.4738162818267649 	101131.7954589003
0.8521021021021015 	299.8365599780851 	0.4735304758216475 	101131.9135811335
0.8546046046046039 	299.8366275594072 	0.4733146169810551 	101131.9931072972
0.8571071071071066 	299.8367115642939 	0.4730666209806483 	101132.0923401615
0.8596096096096089 	299.836823834664 	0.4727586200201561 	101132.2251296212
0.8621121121121116 	299.8369230207635 	0.4724761961391073 	101132.3420095923
0.8646146146146139 	299.8369978325833 	0.4722445539689352 	101132.4302192055
0.8671171171171166 	299.8370839119534 	0.4719912161640739 	101132.5321048067
0.8696196196196189 	299.8371903632653 	0.4716964655725844 	101132.6576624591
0.8721221221221216 	299.83728586688 	0.4714222823114845 	101132.7703143716
0.874624624624624 	299.8373648935997 	0.4711815164514263 	101132.8637901824
0.8771271271271264 	299.8374547211629 	0.4709209535399003 	101132.9697612336
0.879629629629629 	299.8375569798141 	0.4706350287281031 	101133.0903692286
0.8821321321321317 	299.8376483597866 	0.4703691526561248 	101133.1984106738
0.8846346346346339 	299.8377309527971 	0.4701217734042316 	101133.295872704
0.8871371371371364 	299.837823888803 	0.4698549802344534 	101133.4055564795
0.8896396396396391 	299.8379222158945 	0.4695767599390251 	101133.5217004073
0.8921421421421414 	299.8380107664817 	0.4693173495158575 	101133.6261044721
0.8946446446446441 	299.8380966683116 	0.4690635577385608 	101133.7276058386
0.8971471471471464 	299.8381914196499 	0.468793153441455 	101133.8395241592
0.8996496496496489 	299.8382859357323 	0.4685227787417564 	101133.9509745263
0.9021521521521517 	299.8383728731264 	0.4682665014768878 	101134.0536900737
0.9046546546546541 	299.8384622874951 	0.4680063705157829 	101134.1593021458
0.9071571571571564 	299.838557134823 	0.4677361916400741 	101134.2711524512
0.9096596596596589 	299.8386478249115 	0.4674729455694701 	101134.3783038287
0.9121621621621616 	299.8387354492377 	0.4672158317652859 	101134.4817667411
0.9146646646646639 	299.8388275754017 	0.4669510286381602 	101134.5903964887
0.9171671671671666 	299.8389202508132 	0.4666846501759477 	101134.6999188502
0.9196696696696689 	299.8390088596427 	0.4664257000619192 	101134.8046095842
0.9221721721721714 	299.8390987927372 	0.4661652202239881 	101134.9104936004
0.9246746746746741 	299.8391911536253 	0.4658996640938955 	101135.0197050602
0.9271771771771765 	299.8392812158894 	0.4656381262485109 	101135.126187128
0.9296796796796791 	299.8393702315313 	0.4653792645682355 	101135.2310573351
0.9321821821821816 	299.8394615358498 	0.4651161668297659 	101135.3388574631
0.9346846846846838 	299.8395524216164 	0.4648534669539471 	101135.4463082158
0.9371871871871866 	299.8396414817116 	0.4645944723039788 	101135.5513462881
0.9396896896896891 	299.8397317429811 	0.4643335132027575 	101135.6578614768
0.9421921921921914 	299.8398227653471 	0.4640710287868196 	101135.7653671198
0.9446946946946939 	299.8399121662059 	0.4638114557930701 	101135.8708869531
0.9471971971971965 	299.8400016893422 	0.4635517724573509 	101135.976636139
0.9496996996996991 	299.8400923980648 	0.463290223512502 	101136.0837307466
0.9522022022022016 	299.8401821724995 	0.463030416832182 	101136.1895936643
0.9547047047047038 	299.8402713394628 	0.4627713975045116 	101136.2949876437
0.9572072072072064 	299.8403616043255 	0.462510797788522 	101136.4015586799
0.9597097097097093 	299.8404514699128 	0.4622510096758179 	101136.5075312554
0.9622122122122114 	299.8405405731014 	0.4619923508309207 	101136.6127886373
0.964714714714714 	299.8406303805029 	0.4617326858896935 	101136.7188960429
0.9672172172172167 	299.8407202081145 	0.4614733368243683 	101136.8247875063
0.969719719719719 	299.840809254558 	0.4612150393971629 	101136.9299693012
0.9722222222222214 	299.8408987407054 	0.4609560818208704 	101137.0357207169
0.9747247247247239 	299.8409884413726 	0.4606972063117085 	101137.1414385668
0.9772272272272267 	299.8410774406755 	0.4604392241374909 	101137.2465397288
0.9797297297297292 	299.8411666317722 	0.4601808167739346 	101137.3520079259
0.9822322322322313 	299.8412560887765 	0.4599224677076342 	101137.457497257
0.9847347347347344 	299.8413450925452 	0.4596649424171346 	101137.5624862591
0.9872372372372363 	299.8414340939004 	0.4594071355140076 	101137.6677274652
0.9897397397397389 	299.8415233215102 	0.459149258457506 	101137.7729878396
0.9922422422422417 	299.8416121996516 	0.4588920769100114 	101137.8778510257
0.9947447447447441 	299.8417011042217 	0.4586348760384973 	101137.9828932055
0.9972472472472468 	299.8417901173804 	0.458377669428498 	101138.0879153306
0.999749749749749 	299.8418787800948 	0.4581208799219044 	101138.1926249099
1.002252252252252 	299.8419674857554 	0.4578640663368506 	101138.2974738598
1.004754754754754 	299.8420564104305 	0.4576074006492503 	101138.4022654905
1.007257257257256 	299.8421449937995 	0.4573511007880564 	101138.5068246831
1.009759759759759 	299.8422334515564 	0.4570948281939822 	101138.6114902614
1.012262262262261 	299.8423221606689 	0.4568387512334823 	101138.7160540648
1.014764764764764 	299.8424107026744 	0.4565828759085992 	101138.820453289
1.017267267267267 	299.8424990322867 	0.4563270384994382 	101138.9249330579
1.019769769769769 	299.84258745184 	0.4560714731207751 	101139.0292873029
1.022272272272272 	299.8426758657652 	0.455816122754554 	101139.1335371382
1.024774774774774 	299.8427640435405 	0.4555608951392485 	101139.2378218608
1.027277277277277 	299.8428522599414 	0.4553058792003143 	101139.3419583858
1.029779779779779 	299.8429405474707 	0.4550509168662261 	101139.4460370909
1.032282282282282 	299.8430286478851 	0.4547960480837495 	101139.5501136145
1.034784784784784 	299.8431166595013 	0.4545415544028247 	101139.6540608448
1.037287287287286 	299.843204750944 	0.454287272848364 	101139.7579903053
1.039789789789789 	299.843292725387 	0.4540330037108788 	101139.8618720112
1.042292292292291 	299.8433805618931 	0.4537789093608187 	101139.9656401134
1.044794794794794 	299.8434685253319 	0.4535251138508876 	101140.0693914806
1.047297297297296 	299.8435563656986 	0.4532715284757014 	101140.1730609055
1.049799799799799 	299.8436439936517 	0.4530179764390557 	101140.2766530539
1.052302302302302 	299.8437318306252 	0.4527645360311386 	101140.3802164535
1.054804804804804 	299.8438195427304 	0.4525113522636489 	101140.4836867631
1.057307307307306 	299.8439069399273 	0.4522583620196925 	101140.5871132825
1.059809809809809 	299.8439945924742 	0.4520055231933124 	101140.6904918661
1.062312312312312 	299.84408220599 	0.4517529026668837 	101140.793785951
1.064814814814814 	299.8441695584799 	0.4515004987231986 	101140.8970373056
1.067317317317317 	299.8442569365928 	0.4512482183385213 	101141.0002100408
1.069819819819819 	299.8443443416078 	0.4509960695494634 	101141.1033166979
1.072322322322321 	299.8444316102749 	0.4507441483824625 	101141.206378351
1.074824824824824 	299.8445187864337 	0.4504923892662018 	101141.3093678212
1.077327327327327 	299.8446060653693 	0.4502407780705909 	101141.4123119339
1.079829829829829 	299.8446932595014 	0.4499895255115068 	101141.5151943264
1.082332332332332 	299.8447802299667 	0.4497385606524242 	101141.6180111837
1.084834834834834 	299.844867383668 	0.4494876409800123 	101141.7207753087
1.087337337337337 	299.8449544669184 	0.4492367179600805 	101141.823462733
1.089839839839839 	299.8450412287486 	0.4489860331057253 	101141.92608863
1.092342342342342 	299.8451281261637 	0.448735775118056 	101142.0286517694
1.094844844844844 	299.8452150265781 	0.4484856496017862 	101142.1311572122
1.097347347347347 	299.8453017638727 	0.4482355631702887 	101142.2336166717
1.099849849849849 	299.8453883772008 	0.4479857640458763 	101142.3360144113
1.102352352352352 	299.8454752013311 	0.4477362512869025 	101142.4383558407
1.104854854854854 	299.8455619499871 	0.447486932601442 	101142.540629664
1.107357357357357 	299.8456483654442 	0.4472377360375855 	101142.6428341345
1.109859859859859 	299.8457349014474 	0.4469887174214895 	101142.7449787508
1.112362362362362 	299.8458214864663 	0.4467400070172183 	101142.8470653781
1.114864864864865 	299.8459079014178 	0.4464914530903985 	101142.9491054231
1.117367367367367 	299.8459942179307 	0.4462430440865716 	101143.0510880222
1.119869869869869 	299.846080608429 	0.4459950180437342 	101143.1530061431
1.122372372372372 	299.8461669215965 	0.4457472723157824 	101143.2548554428
1.124874874874874 	299.8462530319729 	0.4454995965139559 	101143.3566379494
1.127377377377377 	299.8463392884861 	0.4452519940979535 	101143.4583675413
1.129879879879879 	299.8464255139788 	0.445004587314012 	101143.560047027
1.132382382382382 	299.8465115259825 	0.4447576068447745 	101143.661676616
1.134884884884884 	299.8465974827299 	0.4445109959218776 	101143.7632449683
1.137387387387387 	299.8466834815849 	0.444264431645857 	101143.8647473941
1.139889889889889 	299.8467694825139 	0.4440180231170561 	101143.9661858481
1.142392392392392 	299.8468554016814 	0.4437719541382856 	101144.0675650218
1.144894894894894 	299.8469412519003 	0.4435261726641475 	101144.1688918738
1.147397397397397 	299.8470270478963 	0.4432806259585593 	101144.2701646797
1.149899899899899 	299.8471127902883 	0.4430351742991849 	101144.3713817872
1.152402402402402 	299.8471984412167 	0.4427900317898539 	101144.4725384575
1.154904904904904 	299.8472841517827 	0.4425454088025937 	101144.5736364688
1.157407407407407 	299.8473698129703 	0.4423010301514252 	101144.6746792895
1.159909909909909 	299.8474553187675 	0.4420567185419867 	101144.7756693223
1.162412412412412 	299.8475408235952 	0.4418125766594606 	101144.876605571
1.164914914914914 	299.8476262804252 	0.4415687388940676 	101144.977483429
1.167417417417417 	299.8477116992415 	0.4413252961434588 	101145.0783024046
1.169919919919919 	299.8477970198262 	0.4410822964212893 	101145.1790639498
1.172422422422422 	299.8478823600483 	0.4408395318700352 	101145.2797714862
1.174924924924925 	299.8479677527262 	0.4405969175977903 	101145.3804256409
1.177427427427427 	299.8480530537087 	0.4403546576574757 	101145.4810280164
1.179929929929929 	299.8481382045576 	0.4401126485700426 	101145.5815791696
1.182432432432432 	299.8482233174735 	0.43987100090585 	101145.6820793063
1.184934934934934 	299.8483084659791 	0.4396298899357908 	101145.782528015
1.187437437437437 	299.8483936563757 	0.4393889457721645 	101145.8829248176
1.189939939939939 	299.8484786437576 	0.4391481617347573 	101145.9832695801
1.192442442442442 	299.8485634251687 	0.4389077935114273 	101146.0835617536
1.194944944944944 	299.8486484407639 	0.4386677535227248 	101146.183800816
1.197447447447447 	299.8487335187819 	0.4384281024602187 	101146.2839877911
1.199949949949949 	299.8488185334093 	0.4381889875690033 	101146.3841278963
1.202452452452452 	299.848903325824 	0.437950082727653 	101146.4842264646
1.204954954954955 	299.8489879716921 	0.4377114514711681 	101146.5842853427
1.207457457457457 	299.849072748979 	0.4374733475254355 	101146.6843012945
1.20995995995996 	299.8491576146756 	0.4372356803799937 	101146.7842700149
1.212462462462462 	299.8492424210277 	0.4369977283159349 	101146.8841886286
1.214964964964964 	299.8493272697725 	0.4367613704558969 	101146.9840593507
1.217467467467467 	299.8494119908195 	0.4365227762237814 	101147.0838856359
1.219969969969969 	299.8494964605597 	0.4362903302766191 	101147.1836773162
1.222472472472472 	299.8495810738135 	0.4360421957673427 	101147.2834274516
1.224974974974975 	299.8496657762252 	0.4358373798224856 	101147.3831697855
1.227477477477477 	299.8497504616514 	0.4354995062734379 	101147.4828034359
1.229979979979979 	299.849835433047 	0.4355462838830926 	101147.5827478816
1.232482482482482 	299.849919599322 	0.4342248803562838 	101147.6814643425
1.234984984984984 	299.8500043211374 	0.4356009990230858 	101147.7819403076
1.237487487487487 	299.8500909901504 	0.4333839300725723 	101147.8810033897
1.239989989989989 	299.8501693850681 	0.4347409193655209 	101147.9781040821
1.242492492492492 	299.8502625446022 	0.4351449886720558 	101148.0818692779
1.244994994994994 	299.8484044953063 	0.4318078083571611 	101148.1766364224
1.247497497497497 	299.2209491124871 	0.4343241074307566 	101148.2773938065
1.249999999999999 	302.034554757663 	0.4334197131296876 	101148.3781715347
