-1.25 	300 	0.1108708485870721 	101370.2413526233
-1.247497497497497 	300.0377669824178 	0.1101100046997504 	101369.9524744118
-1.244994994994995 	300.037763628174 	0.1092826692898477 	101369.6510831507
-1.242492492492492 	300.0375023769106 	0.1086946079309626 	101369.3414847352
-1.23998998998999 	300.037233361435 	0.1078136671185131 	101369.0238634025
-1.237487487487487 	300.0369578884652 	0.1070350021643134 	101368.698103366
-1.234984984984985 	300.0366756237132 	0.1062124532976538 	101368.3643100318
-1.232482482482482 	300.0363866053175 	0.1053781527540245 	101368.0225313852
-1.22997997997998 	300.0360908937153 	0.1045216793725345 	101367.6728383406
-1.227477477477477 	300.0357885357438 	0.1036469191818974 	101367.3152865359
-1.224974974974975 	300.035479592954 	0.1027525776298587 	101366.9499487461
-1.222472472472472 	300.0351641158375 	0.1018394450559534 	101366.576884825
-1.21996996996997 	300.0348421650751 	0.1009074308377765 	101366.1961665381
-1.217467467467467 	300.0345138035432 	0.09995682639248221 	101365.8078682972
-1.214964964964965 	300.0341790819223 	0.09898775892617806 	101365.4120500843
-1.212462462462462 	300.0338380798925 	0.09800044079031264 	101365.0088062395
-1.20995995995996 	300.033490833687 	0.09699502889032374 	101364.5981796738
-1.207457457457457 	300.0331374365743 	0.09597173620196414 	101364.1802806697
-1.204954954954955 	300.0327779264842 	0.09493072723003182 	101363.7551542109
-1.202452452452452 	300.032412382707 	0.09387221684719041 	101363.3228941131
-1.19994994994995 	300.0320408817058 	0.09279640078327128 	101362.8835908067
-1.197447447447447 	300.0316634532937 	0.09170345182343698 	101362.437279727
-1.194944944944945 	300.0312802284371 	0.0905936211751633 	101361.9841157677
-1.192442442442442 	300.0308912111794 	0.08946704908354447 	101361.5241036776
-1.18993993993994 	300.0304965125823 	0.08832399723517256 	101361.0573749256
-1.187437437437437 	300.0300962215625 	0.08716467671222208 	101360.5840347477
-1.184934934934935 	300.0296903290332 	0.08598922219987798 	101360.1040723515
-1.182432432432432 	300.029279028451 	0.08479798231367656 	101359.6177165041
-1.17992992992993 	300.0288623076286 	0.08359106508887267 	101359.1249531812
-1.177427427427427 	300.0284402267914 	0.08236869429830354 	101358.6258541069
-1.174924924924925 	300.0280130005924 	0.08113124599147693 	101358.1206726169
-1.172422422422422 	300.0275805285477 	0.07987871387283098 	101357.6092886049
-1.16991991991992 	300.0271429666672 	0.07861145493819956 	101357.0918866457
-1.167417417417417 	300.0267005168762 	0.07732984804955044 	101356.568707883
-1.164914914914915 	300.0262530102314 	0.07603377541372941 	101356.0395546187
-1.162412412412412 	300.0258006677809 	0.07472369790891871 	101355.504686695
-1.15990990990991 	300.0253437252186 	0.07340006652146627 	101354.9643786462
-1.157407407407407 	300.0248819635147 	0.07206264367607114 	101354.4183695332
-1.154904904904904 	300.0244155622321 	0.07071184069436579 	101353.8668746967
-1.152402402402403 	300.0239448581678 	0.06934833825914043 	101353.3102976692
-1.1498998998999 	300.023469667973 	0.06797192046902355 	101352.7484244492
-1.147397397397397 	300.0229899610725 	0.06658260450022717 	101352.1812170084
-1.144894894894895 	300.0225061347257 	0.06518124059464087 	101351.6091400236
-1.142392392392392 	300.022018346071 	0.06376822418561451 	101351.0323745084
-1.13988988988989 	300.021526367532 	0.06234310976526361 	101350.4506496447
-1.137387387387387 	300.0210301409197 	0.06090591188165827 	101349.8638983918
-1.134884884884885 	300.020530192928 	0.05945789284151042 	101349.2727468088
-1.132382382382382 	300.0200269271231 	0.05799980900773383 	101348.6776749668
-1.12987987987988 	300.0195196967215 	0.05653031580268612 	101348.0779199866
-1.127377377377377 	300.0190081184585 	0.05504899201162478 	101347.4730295017
-1.124874874874875 	300.0184935753572 	0.05355884603593852 	101346.8646388066
-1.122372372372372 	300.0179767710156 	0.05206090178942836 	101346.2535793208
-1.11986986986987 	300.0174555115715 	0.0505505045577934 	101345.6372565112
-1.117367367367367 	300.016928881238 	0.04902664586743774 	101345.0145872452
-1.114864864864865 	300.0164009333579 	0.04749855839494448 	101344.3903637817
-1.112362362362362 	300.0158744372705 	0.0459712050146517 	101343.7678599958
-1.10985985985986 	300.0153437270239 	0.0444309559778072 	101343.1403763754
-1.107357357357357 	300.0148018473755 	0.04286319240628962 	101342.4996895872
-1.104854854854855 	300.0142539623124 	0.04128169662963294 	101341.8519057227
-1.102352352352353 	300.0137139930102 	0.03971877106748367 	101341.2134842223
-1.09984984984985 	300.0131846212548 	0.03817865260339941 	101340.5875950521
-1.097347347347347 	300.0126488739658 	0.03661960959956523 	101339.9541700888
-1.094844844844845 	300.0120891378647 	0.03500044156849746 	101339.2923855014
-1.092342342342342 	300.0115117568971 	0.03333875367063902 	101338.6097430061
-1.08983983983984 	300.0109446739482 	0.03170383231172755 	101337.9392800288
-1.087337337337337 	300.0104076662853 	0.03014359469158515 	101337.3043781989
-1.084834834834835 	300.0098885038977 	0.02862594947048042 	101336.6905766261
-1.082332332332332 	300.0093517640777 	0.02706093791595986 	101336.0559950725
-1.07982982982983 	300.008771705177 	0.02538382312989796 	101335.3702008279
-1.077327327327327 	300.0081575064907 	0.02361918808260891 	101334.6440482381
-1.074824824824825 	300.0075477103104 	0.02186693655734776 	101333.9231056531
-1.072322322322323 	300.0069796714695 	0.02022434998498161 	101333.2515355514
-1.06981981981982 	300.0064610235725 	0.01871158857036971 	101332.6383609751
-1.067317317317317 	300.0059644459597 	0.01725611250747109 	101332.051280451
-1.064814814814815 	300.0054454010676 	0.01573836152765994 	101331.43763913
-1.062312312312312 	300.0048678744236 	0.01406109974210421 	101330.7548602117
-1.05980980980981 	300.0042232237199 	0.01220125512579231 	101329.9927284972
-1.057307307307307 	300.0035343871191 	0.01022167932204821 	101329.1783642673
-1.054804804804805 	300.0028453883984 	0.008243027059779577 	101328.3638145528
-1.052302302302302 	300.0022031045942 	0.006395532922535614 	101327.6044978519
-1.0497997997998 	300.0016424138846 	0.00477850341993356 	101326.9416460347
-1.047297297297297 	300.0011808086014 	0.003443413335614152 	101326.3959366904
-1.044794794794795 	300.0008201238963 	0.002397183767229252 	101325.9695375949
-1.042292292292292 	300.0005512249834 	0.001614962919575295 	101325.651648263
-1.03978978978979 	300.0003591175707 	0.001054567918304821 	101325.4245416748
-1.037287287287287 	300.0002271235085 	0.000668486356427475 	101325.268500568
-1.034784784784785 	300.0001396407521 	0.0004119279143300846 	101325.1650801359
-1.032282282282283 	300.0000835685993 	0.000247067506257796 	101325.098792812
-1.02977977977978 	300.0000487375762 	0.0001444056943540894 	101325.0576163591
-1.027277277277277 	300.0000277293963 	8.233667233969568e-05 	101325.0327810076
-1.024774774774775 	300.0000154063729 	4.584270778409658e-05 	101325.0182130329
-1.022272272272272 	300.0000083663678 	2.4946431173638e-05 	101325.009890509
-1.01976976976977 	300.0000044443827 	1.32791509947705e-05 	101325.0052540411
-1.017267267267267 	300.000002311301 	6.919758288746071e-06 	101325.0027323811
-1.014764764764765 	300.0000011775651 	3.532489420657668e-06 	101325.0013921053
-1.012262262262262 	300.0000005881463 	1.76778129596721e-06 	101325.0006953024
-1.00975975975976 	300.0000002881496 	8.677675786603684e-07 	101325.0003406545
-1.007257257257257 	300.0000001385563 	4.18076734018397e-07 	101325.0001638111
-1.004754754754755 	300.0000000654363 	1.977989059787205e-07 	101325.0000773561
-1.002252252252252 	300.0000000303593 	9.194528112149765e-08 	101325.0000358909
-0.9997497497497498 	300.0000000138415 	4.201305118773237e-08 	101325.0000163685
-0.9972472472472473 	300.0000000062074 	1.887984346790171e-08 	101325.0000073409
-0.9947447447447449 	300.0000000027254 	8.346963861239984e-09 	101325.0000032384
-0.9922422422422421 	300.0000000011798 	3.632776804933525e-09 	101325.0000014052
-0.9897397397397399 	300.0000000005004 	1.556346280201371e-09 	101325.0000005995
-0.9872372372372376 	300.0000000002066 	6.577034451907262e-10 	101325.000000251
-0.9847347347347346 	300.0000000000714 	2.735051233435732e-10 	101325.0000001025
-0.9822322322322323 	300.0000000000171 	1.124833868742255e-10 	101325.0000000403
-0.9797297297297296 	300.0000000000049 	4.575590447141061e-11 	101325.0000000146
-0.9772272272272275 	300.0000000000038 	1.881837522071917e-11 	101325.0000000042
-0.9747247247247248 	300.0000000000055 	8.445801200653589e-12 	101325.0000000001
-0.9722222222222224 	299.9999999999807 	4.186723744571859e-12 	101324.9999999987
-0.9697197197197196 	299.9999999999748 	2.675771173607493e-12 	101324.9999999982
-0.9672172172172175 	299.9999999999807 	1.492704192220076e-12 	101324.9999999979
-0.9647147147147147 	299.9999999999871 	1.258082938642053e-12 	101324.9999999977
-0.9622122122122124 	299.9999999999874 	8.037412867305111e-13 	101324.9999999977
-0.9597097097097099 	299.9999999999916 	1.004630084575872e-12 	101324.9999999976
-0.9572072072072073 	299.9999999999881 	1.292351994835571e-12 	101324.9999999975
-0.9547047047047047 	300.0000000000005 	1.282069282899457e-12 	101324.9999999974
-0.9522022022022023 	299.9999999999943 	2.091473047551107e-12 	101324.9999999973
-0.9496996996996998 	299.9999999999927 	1.28092009910477e-12 	101324.9999999971
-0.9471971971971973 	299.9999999999968 	1.508159942583704e-12 	101324.999999997
-0.9446946946946947 	299.999999999978 	1.863096060582557e-12 	101324.9999999969
-0.9421921921921923 	299.9999999999887 	1.651681299148204e-12 	101324.9999999969
-0.93968968968969 	299.9999999999995 	7.991895111518506e-13 	101324.9999999971
-0.9371871871871872 	299.9999999999966 	1.341084117170502e-12 	101324.9999999971
-0.9346846846846848 	299.9999999999828 	1.980385903557204e-12 	101324.9999999972
-0.9321821821821823 	299.9999999999883 	1.667393065670276e-12 	101324.9999999971
-0.9296796796796799 	299.9999999999998 	1.966476531863976e-12 	101324.999999997
-0.9271771771771771 	299.9999999999958 	1.162853446916611e-12 	101324.9999999969
-0.9246746746746748 	299.9999999999915 	1.933084845665218e-12 	101324.999999997
-0.9221721721721724 	299.9999999999994 	1.598948085923545e-12 	101324.9999999971
-0.9196696696696698 	299.9999999999959 	1.876159836697801e-12 	101324.9999999971
-0.9171671671671672 	299.9999999999835 	1.162207731606295e-12 	101324.9999999973
-0.9146646646646649 	299.999999999994 	9.52559253554792e-13 	101324.9999999973
-0.9121621621621623 	300.0000000000019 	1.257216114014343e-12 	101324.9999999973
-0.9096596596596597 	299.999999999987 	1.170693030939245e-12 	101324.9999999975
-0.9071571571571573 	299.9999999999957 	1.046087861487546e-12 	101324.9999999977
-0.9046546546546547 	300.0000000000049 	9.209588705296384e-13 	101324.9999999978
-0.9021521521521524 	299.9999999999912 	1.731862489234171e-12 	101324.9999999978
-0.8996496496496498 	299.9999999999961 	1.195762789073993e-12 	101324.9999999977
-0.8971471471471473 	300.0000000000024 	1.529540888018674e-12 	101324.9999999977
-0.894644644644645 	300.0000000000002 	1.930875639187076e-12 	101324.9999999977
-0.892142142142142 	300.0000000000025 	1.388534161142757e-12 	101324.9999999978
-0.8896396396396397 	300.0000000000043 	2.510087868152642e-12 	101324.999999998
-0.8871371371371374 	299.9999999999862 	1.305348923149773e-12 	101324.9999999979
-0.8846346346346349 	299.9999999999813 	2.305781022075543e-12 	101324.9999999978
-0.8821321321321324 	299.9999999999794 	2.133699214513155e-12 	101324.9999999978
-0.8796296296296297 	299.9999999999833 	2.698623201041903e-12 	101324.9999999976
-0.8771271271271271 	299.9999999999859 	2.351916414960645e-12 	101324.9999999975
-0.8746246246246248 	299.9999999999954 	2.244946055849514e-12 	101324.9999999974
-0.8721221221221224 	300.0000000000007 	1.412241302736751e-12 	101324.9999999975
-0.8696196196196196 	299.9999999999909 	1.490140995207276e-12 	101324.9999999974
-0.8671171171171175 	299.9999999999962 	1.194332162069578e-12 	101324.9999999974
-0.8646146146146148 	299.9999999999811 	6.887874702406119e-13 	101324.9999999976
-0.8621121121121121 	299.999999999992 	6.786035616538046e-13 	101324.9999999975
-0.8596096096096097 	300.0000000000063 	4.676924475649089e-13 	101324.9999999974
-0.857107107107107 	299.9999999999889 	6.500910293653845e-13 	101324.9999999974
-0.8546046046046049 	299.9999999999941 	5.531365188777139e-13 	101324.9999999972
-0.8521021021021022 	299.9999999999992 	2.166014337526212e-13 	101324.999999997
-0.8495995995995997 	299.9999999999959 	6.807793864676677e-13 	101324.9999999968
-0.8470970970970974 	299.9999999999769 	5.202248234651381e-13 	101324.9999999967
-0.8445945945945946 	299.9999999999857 	7.544480910852694e-13 	101324.9999999968
-0.8420920920920922 	300.0000000000024 	8.385994266192475e-13 	101324.9999999969
-0.8395895895895897 	299.9999999999954 	1.90989986606733e-12 	101324.9999999972
-0.8370870870870872 	299.9999999999967 	1.382064328142438e-12 	101324.9999999974
-0.8345845845845846 	300.0000000000005 	1.93678377581265e-12 	101324.9999999974
-0.8320820820820823 	299.9999999999851 	1.483132248630272e-12 	101324.9999999974
-0.8295795795795798 	299.9999999999719 	1.401719431928764e-12 	101324.9999999973
-0.8270770770770772 	299.9999999999839 	1.446215339149792e-12 	101324.9999999974
-0.8245745745745746 	299.9999999999739 	9.086410418101095e-13 	101324.9999999975
-0.8220720720720721 	299.9999999999816 	5.089223366056765e-13 	101324.9999999974
-0.8195695695695699 	299.9999999999942 	1.074633203480236e-12 	101324.9999999974
-0.817067067067067 	299.9999999999851 	1.199592441852096e-12 	101324.9999999974
-0.8145645645645651 	299.9999999999749 	2.150327221464108e-12 	101324.9999999974
-0.8120620620620621 	299.9999999999929 	1.571910055095172e-12 	101324.9999999974
-0.8095595595595597 	300.0000000000007 	1.628322531256553e-12 	101324.9999999976
-0.8070570570570572 	299.999999999979 	1.663912627966163e-12 	101324.9999999975
-0.8045545545545546 	299.9999999999801 	1.233797773645064e-12 	101324.9999999974
-0.8020520520520523 	299.9999999999967 	2.883299132649351e-12 	101324.9999999971
-0.7995495495495494 	300.0000000000043 	1.541558231289912e-12 	101324.9999999971
-0.7970470470470474 	299.9999999999979 	3.543151186095029e-12 	101324.9999999971
-0.7945445445445446 	300.0000000000018 	1.917697109075157e-12 	101324.9999999973
-0.7920420420420423 	300.000000000005 	3.111787281329925e-12 	101324.9999999974
-0.7895395395395397 	300.0000000000034 	2.800771041548446e-12 	101324.9999999973
-0.7870370370370371 	300.0000000000014 	1.860072475661376e-12 	101324.9999999974
-0.7845345345345348 	299.9999999999876 	2.638060114306763e-12 	101324.9999999975
-0.7820320320320323 	299.9999999999878 	1.642074174352242e-12 	101324.9999999975
-0.7795295295295296 	299.9999999999741 	2.723465324885001e-12 	101324.9999999976
-0.7770270270270272 	299.9999999999678 	2.410853797665709e-12 	101324.9999999975
-0.7745245245245247 	299.999999999968 	2.318417020012968e-12 	101324.9999999972
-0.7720220220220222 	299.9999999999823 	1.803620281904208e-12 	101324.9999999972
-0.7695195195195199 	299.9999999999838 	1.755939898819256e-12 	101324.9999999972
-0.767017017017017 	299.9999999999937 	1.855998394629875e-12 	101324.9999999972
-0.7645145145145147 	300.000000000003 	2.334227828027479e-12 	101324.9999999973
-0.7620120120120122 	300.0000000000045 	2.801900466799925e-12 	101324.9999999975
-0.7595095095095097 	299.999999999975 	2.955700089600643e-12 	101324.9999999976
-0.7570070070070072 	299.999999999975 	4.58116435944415e-12 	101324.9999999977
-0.7545045045045048 	299.999999999993 	3.528214259924155e-12 	101324.9999999978
-0.7520020020020022 	299.9999999999855 	4.02268250212013e-12 	101324.9999999979
-0.7494994994994997 	299.9999999999849 	2.521552318500707e-12 	101324.999999998
-0.7469969969969972 	299.9999999999978 	2.180506598626693e-12 	101324.9999999981
-0.7444944944944945 	299.9999999999947 	1.296964282962471e-12 	101324.999999998
-0.7419919919919924 	299.9999999999966 	1.130096838960526e-12 	101324.9999999979
-0.7394894894894897 	299.9999999999835 	7.500325564994758e-13 	101324.9999999977
-0.7369869869869872 	299.9999999999953 	6.769161038545242e-13 	101324.9999999976
-0.7344844844844846 	299.9999999999876 	1.523432781037937e-12 	101324.9999999976
-0.7319819819819822 	300.0000000000024 	7.255812429701294e-13 	101324.9999999977
-0.7294794794794797 	299.9999999999979 	2.007510162240667e-12 	101324.9999999978
-0.7269769769769773 	300.0000000000029 	8.354891497929743e-13 	101324.9999999977
-0.7244744744744747 	300.0000000000057 	9.64725948048964e-13 	101324.9999999977
-0.721971971971972 	299.9999999999842 	9.540538482993437e-13 	101324.9999999976
-0.7194694694694695 	299.9999999999924 	1.308010653387768e-12 	101324.9999999976
-0.7169669669669674 	299.999999999976 	1.417588681400732e-12 	101324.9999999976
-0.7144644644644647 	299.9999999999897 	1.333377809532374e-12 	101324.9999999975
-0.711961961961962 	300.0000000000026 	7.881101077168623e-13 	101324.9999999974
-0.7094594594594597 	300.0000000000043 	8.554548575864674e-13 	101324.9999999975
-0.7069569569569573 	300.000000000007 	8.679717777256185e-13 	101324.9999999976
-0.7044544544544545 	300.0000000000095 	3.271164278285694e-13 	101324.9999999975
-0.7019519519519523 	300.0000000000024 	3.550267832397767e-13 	101324.9999999976
-0.6994494494494495 	299.9999999999753 	2.534359869133739e-13 	101324.9999999975
-0.6969469469469471 	299.9999999999821 	8.410949816990252e-13 	101324.9999999974
-0.6944444444444446 	299.9999999999891 	1.032270626373305e-12 	101324.9999999975
-0.6919419419419421 	300.0000000000106 	1.327234863681249e-12 	101324.9999999973
-0.6894394394394396 	299.9999999999981 	1.228286425999597e-12 	101324.9999999973
-0.6869369369369374 	300.0000000000036 	1.554238342532465e-12 	101324.9999999974
-0.6844344344344344 	300.0000000000084 	6.328858134612825e-13 	101324.9999999972
-0.6819319319319321 	299.9999999999858 	2.560771777927381e-13 	101324.9999999971
-0.6794294294294296 	299.9999999999794 	2.470659021626473e-13 	101324.999999997
-0.6769269269269272 	299.9999999999703 	6.554203435868451e-13 	101324.9999999972
-0.6744244244244245 	299.9999999999883 	1.014267979686887e-12 	101324.9999999973
-0.6719219219219222 	299.9999999999865 	1.430855203200333e-12 	101324.9999999972
-0.6694194194194195 	300.0000000000002 	1.748759803106532e-12 	101324.9999999972
-0.6669169169169172 	300.0000000000072 	1.430244298730871e-12 	101324.9999999971
-0.6644144144144146 	299.9999999999877 	1.654019024062162e-12 	101324.9999999969
-0.661911911911912 	299.9999999999883 	1.139278539455095e-12 	101324.9999999968
-0.6594094094094097 	299.9999999999913 	1.123809077602323e-12 	101324.9999999968
-0.656906906906907 	299.9999999999779 	1.022965814451261e-12 	101324.9999999969
-0.6544044044044046 	299.9999999999793 	1.971224583095185e-12 	101324.9999999969
-0.6519019019019021 	299.9999999999965 	1.407274280185584e-12 	101324.999999997
-0.6493993993993996 	300.0000000000074 	2.766595708830013e-12 	101324.9999999972
-0.6468968968968971 	300.000000000009 	1.090508593368487e-12 	101324.9999999972
-0.6443943943943946 	299.9999999999951 	1.805593749994871e-12 	101324.9999999971
-0.6418918918918921 	299.9999999999983 	7.456393193543275e-13 	101324.999999997
-0.6393893893893897 	299.9999999999987 	9.228130334850565e-13 	101324.9999999971
-0.6368868868868871 	299.9999999999898 	6.851764625522955e-13 	101324.9999999971
-0.6343843843843846 	299.9999999999991 	5.829167121473016e-13 	101324.999999997
-0.6318818818818821 	299.9999999999856 	4.870517557266391e-13 	101324.9999999969
-0.6293793793793795 	299.9999999999995 	3.924034356662713e-13 	101324.9999999969
-0.6268768768768773 	300.0000000000052 	4.241246967130386e-13 	101324.999999997
-0.6243743743743745 	299.9999999999933 	3.885445079705806e-13 	101324.9999999971
-0.6218718718718721 	300.0000000000031 	1.254141714387395e-12 	101324.9999999971
-0.6193693693693696 	299.9999999999778 	6.551655133471986e-13 	101324.9999999971
-0.6168668668668671 	299.9999999999942 	1.19441341152514e-12 	101324.9999999972
-0.6143643643643645 	300.0000000000039 	7.569514030188737e-13 	101324.9999999971
-0.6118618618618621 	299.9999999999934 	4.064888690588187e-13 	101324.9999999971
-0.6093593593593596 	299.999999999994 	2.841693062053901e-13 	101324.9999999972
-0.6068568568568571 	299.9999999999949 	3.050758280217788e-13 	101324.9999999975
-0.6043543543543546 	299.9999999999857 	2.725507221679545e-13 	101324.9999999973
-0.6018518518518521 	299.9999999999878 	2.546070799420787e-13 	101324.9999999973
-0.5993493493493496 	299.9999999999789 	5.355059988629586e-13 	101324.9999999972
-0.5968468468468471 	299.999999999983 	5.517258785348914e-13 	101324.9999999973
-0.5943443443443446 	299.9999999999948 	7.991733257165232e-13 	101324.9999999974
-0.591841841841842 	299.999999999984 	9.214185382728897e-13 	101324.9999999976
-0.5893393393393397 	299.9999999999856 	8.265252984796759e-13 	101324.9999999978
-0.5868368368368371 	299.9999999999962 	1.071922122570088e-12 	101324.999999998
-0.5843343343343346 	299.9999999999991 	1.869080546559295e-12 	101324.9999999981
-0.5818318318318321 	300.0000000000078 	1.229997277490323e-12 	101324.999999998
-0.5793293293293297 	299.9999999999939 	2.047465421217928e-12 	101324.9999999977
-0.5768268268268271 	300.0000000000017 	1.003680091588016e-12 	101324.9999999976
-0.5743243243243245 	300.0000000000072 	1.044351059146646e-12 	101324.9999999975
-0.5718218218218221 	300.000000000007 	4.855423768880612e-13 	101324.9999999974
-0.5693193193193196 	300.0000000000131 	2.440333967417668e-13 	101324.9999999975
-0.5668168168168171 	299.9999999999949 	1.040245780845777e-12 	101324.9999999976
-0.5643143143143147 	299.9999999999816 	6.36005341207334e-13 	101324.9999999973
-0.5618118118118121 	300.0000000000052 	9.062604262595946e-13 	101324.9999999971
-0.5593093093093094 	300.0000000000132 	7.558730868617946e-13 	101324.9999999971
-0.5568068068068072 	300.0000000000049 	9.55687769261482e-13 	101324.9999999972
-0.5543043043043046 	300.0000000000085 	6.725380663979088e-13 	101324.9999999975
-0.551801801801802 	299.9999999999857 	6.415933783644935e-13 	101324.9999999977
-0.5492992992992995 	299.9999999999998 	3.630686030030171e-13 	101324.9999999976
-0.5467967967967969 	300.0000000000056 	4.975604079243678e-13 	101324.9999999977
-0.5442942942942947 	300.0000000000009 	3.438524340130608e-13 	101324.9999999977
-0.5417917917917919 	299.999999999986 	1.295840638177838e-13 	101324.9999999979
-0.5392892892892895 	299.9999999999795 	3.397436132455321e-13 	101324.9999999979
-0.536786786786787 	299.9999999999839 	2.049505084604591e-13 	101324.999999998
-0.5342842842842846 	299.9999999999852 	5.07770834481546e-13 	101324.9999999979
-0.531781781781782 	299.9999999999761 	5.300422980943277e-13 	101324.9999999978
-0.5292792792792794 	299.9999999999748 	7.863814248289289e-13 	101324.999999998
-0.526776776776777 	299.9999999999688 	1.157533200891871e-12 	101324.9999999981
-0.5242742742742745 	299.9999999999901 	2.151738540775214e-12 	101324.9999999979
-0.521771771771772 	300.0000000000041 	2.136968914568754e-12 	101324.9999999976
-0.5192692692692695 	299.9999999999849 	3.02280426066857e-12 	101324.9999999975
-0.516766766766767 	299.9999999999981 	2.313662043525776e-12 	101324.9999999976
-0.5142642642642645 	299.9999999999917 	2.388212062744988e-12 	101324.9999999976
-0.511761761761762 	299.9999999999833 	1.952310894636208e-12 	101324.9999999977
-0.5092592592592596 	299.9999999999919 	1.647976889572004e-12 	101324.9999999978
-0.506756756756757 	299.9999999999828 	1.170253558628859e-12 	101324.999999998
-0.5042542542542544 	299.999999999997 	1.006517047491187e-12 	101324.999999998
-0.5017517517517521 	300.0000000000103 	9.542820244734167e-13 	101324.999999998
-0.4992492492492494 	300.0000000000114 	2.160442921342398e-13 	101324.9999999978
-0.496746746746747 	299.9999999999975 	2.39306711242232e-13 	101324.999999998
-0.4942442442442445 	299.9999999999787 	7.893183651564536e-13 	101324.9999999979
-0.4917417417417421 	299.9999999999814 	5.197604729563717e-13 	101324.9999999979
-0.4892392392392395 	299.9999999999845 	6.472195069796765e-13 	101324.9999999979
-0.486736736736737 	299.9999999999846 	2.133397397757635e-13 	101324.9999999981
-0.4842342342342345 	299.9999999999725 	1.015048674930164e-12 	101324.999999998
-0.481731731731732 	300.0000000000121 	3.454940388891066e-13 	101324.9999999981
-0.4792292292292296 	300.0000000000085 	8.113277119980945e-13 	101324.999999998
-0.4767267267267268 	299.9999999999881 	1.227409227208135e-12 	101324.9999999982
-0.4742242242242246 	300.0000000000003 	2.042817383825304e-12 	101324.9999999984
-0.471721721721722 	299.9999999999866 	9.813403329007091e-13 	101324.9999999986
-0.4692192192192195 	299.9999999999929 	1.389930291600911e-12 	101324.9999999986
-0.4667167167167169 	299.9999999999716 	3.995206664519945e-13 	101324.9999999987
-0.4642142142142145 	300.0000000000007 	1.202040504582304e-12 	101324.9999999985
-0.461711711711712 	300.0000000000092 	5.154801714696582e-13 	101324.9999999983
-0.4592092092092094 	300.0000000000052 	1.249684114168597e-12 	101324.9999999983
-0.456706706706707 	300.00000000002 	6.480256843003807e-13 	101324.9999999984
-0.4542042042042045 	299.9999999999804 	3.402974242051367e-13 	101324.9999999986
-0.451701701701702 	299.9999999999848 	7.289278492729909e-13 	101324.9999999985
-0.4491991991991995 	299.9999999999887 	8.459538968198256e-13 	101324.9999999984
-0.4466966966966969 	299.9999999999867 	1.001452325828503e-12 	101324.9999999984
-0.4441941941941945 	299.999999999997 	1.628829872802409e-12 	101324.9999999983
-0.441691691691692 	299.9999999999885 	7.337343802812102e-13 	101324.9999999983
-0.4391891891891895 	299.9999999999965 	2.155874628756783e-12 	101324.9999999984
-0.436686686686687 	299.999999999992 	8.852716957371155e-13 	101324.9999999983
-0.4341841841841846 	300.0000000000016 	2.84318413870353e-12 	101324.999999998
-0.431681681681682 	299.9999999999853 	7.63475723456425e-13 	101324.9999999979
-0.4291791791791794 	299.9999999999733 	1.875301912979418e-12 	101324.9999999979
-0.426676676676677 	299.9999999999727 	1.15710731112631e-12 	101324.9999999979
-0.4241741741741744 	299.9999999999915 	2.05204864626537e-12 	101324.9999999977
-0.421671671671672 	300.0000000000031 	1.488971455989149e-12 	101324.9999999975
-0.4191691691691694 	300.0000000000169 	1.361808198353687e-12 	101324.9999999975
-0.4166666666666669 	300.0000000000197 	7.010586298261873e-13 	101324.9999999975
-0.4141641641641645 	299.9999999999792 	6.759392180940096e-13 	101324.9999999975
-0.411661661661662 	300.0000000000018 	1.253574607396886e-12 	101324.9999999975
-0.4091591591591594 	300.0000000000024 	5.506166483442172e-13 	101324.9999999976
-0.406656656656657 	299.9999999999816 	1.087889700944043e-12 	101324.9999999976
-0.4041541541541545 	300.0000000000067 	1.805218768351452e-12 	101324.9999999979
-0.401651651651652 	299.9999999999753 	1.571553832934544e-12 	101324.9999999979
-0.3991491491491494 	299.9999999999985 	3.156651399573627e-12 	101324.9999999978
-0.396646646646647 	299.9999999999861 	8.339478049056397e-13 	101324.9999999981
-0.3941441441441444 	299.999999999993 	3.33110694201e-12 	101324.999999998
-0.3916416416416419 	299.9999999999775 	8.935898080621244e-13 	101324.9999999981
-0.3891391391391395 	299.9999999999882 	1.898161732569795e-12 	101324.9999999983
-0.3866366366366368 	299.9999999999878 	5.388515244581592e-13 	101324.9999999982
-0.3841341341341344 	299.9999999999985 	1.124815424478871e-12 	101324.9999999982
-0.381631631631632 	299.9999999999858 	8.230764724366007e-13 	101324.9999999981
-0.3791291291291294 	300.0000000000021 	4.841778223409849e-13 	101324.9999999979
-0.3766266266266269 	300.000000000007 	1.010518163172345e-12 	101324.9999999977
-0.3741241241241244 	300.0000000000072 	2.990207938012599e-13 	101324.9999999978
-0.371621621621622 	300.0000000000056 	1.28772494621276e-12 	101324.9999999979
-0.3691191191191194 	300.0000000000032 	9.579421924271303e-13 	101324.9999999978
-0.366616616616617 	300.0000000000052 	2.546475405618968e-12 	101324.9999999976
-0.3641141141141143 	299.9999999999936 	8.6519678924214e-13 	101324.9999999976
-0.3616116116116119 	299.9999999999786 	2.295289998537289e-12 	101324.9999999976
-0.3591091091091095 	299.9999999999935 	1.458254407471036e-12 	101324.9999999978
-0.356606606606607 	299.9999999999968 	1.635531791005952e-12 	101324.9999999976
-0.3541041041041044 	299.9999999999968 	1.38867978669306e-12 	101324.9999999975
-0.3516016016016019 	300.0000000000066 	7.688187848834321e-13 	101324.9999999976
-0.3490990990990994 	299.9999999999985 	1.391485930652057e-12 	101324.9999999977
-0.346596596596597 	300.0000000000097 	1.035950862624627e-12 	101324.9999999978
-0.3440940940940944 	300.0000000000115 	9.134543092685963e-13 	101324.9999999977
-0.3415915915915919 	300.0000000000106 	1.015984426038345e-12 	101324.9999999976
-0.3390890890890895 	299.9999999999943 	6.203838842137259e-13 	101324.9999999977
-0.3365865865865869 	300.0000000000053 	4.600363355674058e-13 	101324.9999999978
-0.3340840840840844 	299.9999999999975 	2.400204445463577e-13 	101324.9999999977
-0.3315815815815819 	300.0000000000094 	5.464727629930495e-13 	101324.9999999977
-0.3290790790790794 	300.0000000000115 	5.612704331766852e-13 	101324.9999999977
-0.3265765765765769 	299.9999999999797 	5.438286985901895e-13 	101324.9999999977
-0.3240740740740744 	300.0000000000023 	5.171567089910504e-13 	101324.9999999976
-0.3215715715715718 	300.0000000000064 	6.965808226275299e-13 	101324.9999999976
-0.3190690690690695 	299.9999999999808 	3.497489370031651e-13 	101324.9999999975
-0.3165665665665668 	299.9999999999945 	2.676055976459541e-13 	101324.9999999975
-0.3140640640640644 	299.9999999999965 	6.670883399902839e-13 	101324.9999999976
-0.311561561561562 	299.9999999999787 	1.348903222556611e-12 	101324.9999999978
-0.3090590590590593 	299.9999999999983 	1.188087298953479e-12 	101324.9999999977
-0.3065565565565568 	300.0000000000005 	2.185042531359654e-12 	101324.9999999975
-0.3040540540540545 	299.9999999999983 	1.291554136110444e-12 	101324.9999999975
-0.3015515515515518 	300.0000000000054 	2.548742671950053e-12 	101324.9999999977
-0.2990490490490494 	299.9999999999778 	1.109163780052248e-12 	101324.9999999976
-0.2965465465465469 	300.0000000000003 	2.270638382970279e-12 	101324.9999999975
-0.2940440440440444 	299.9999999999962 	2.092091329667062e-12 	101324.9999999976
-0.2915415415415418 	300.0000000000039 	2.512190613941425e-12 	101324.9999999977
-0.2890390390390395 	300.0000000000049 	2.969445569124717e-12 	101324.9999999977
-0.2865365365365368 	299.9999999999897 	2.035947006906442e-12 	101324.9999999978
-0.2840340340340343 	299.9999999999968 	3.02063216988783e-12 	101324.9999999976
-0.2815315315315318 	299.9999999999724 	1.311795144875023e-12 	101324.9999999974
-0.2790290290290295 	299.9999999999891 	1.840397851952276e-12 	101324.9999999973
-0.2765265265265269 	300.0000000000053 	1.076511762503913e-12 	101324.9999999974
-0.2740240240240244 	300.0000000000062 	1.41636767548122e-12 	101324.9999999975
-0.2715215215215219 	300.0000000000055 	1.842241036962497e-12 	101324.9999999974
-0.2690190190190194 	299.9999999999797 	1.423371589199924e-12 	101324.9999999974
-0.2665165165165169 	299.9999999999976 	2.079829241764651e-12 	101324.9999999976
-0.2640140140140144 	299.9999999999961 	1.334019519289808e-12 	101324.9999999973
-0.2615115115115119 	299.9999999999978 	2.444308193384028e-12 	101324.9999999973
-0.2590090090090094 	299.9999999999736 	7.878080137028371e-13 	101324.9999999971
-0.2565065065065068 	299.9999999999957 	1.20564767905612e-12 	101324.9999999972
-0.2540040040040044 	299.9999999999955 	7.378576729509827e-13 	101324.9999999971
-0.2515015015015019 	300.0000000000063 	7.664341506530015e-13 	101324.9999999974
-0.2489989989989994 	300.0000000000128 	1.632944066594727e-12 	101324.9999999976
-0.2464964964964968 	299.9999999999936 	9.537329134370966e-13 	101324.9999999976
-0.2439939939939944 	299.9999999999945 	3.270575064149578e-12 	101324.9999999978
-0.2414914914914919 	299.9999999999879 	1.764847183502323e-12 	101324.9999999977
-0.2389889889889893 	299.9999999999949 	3.616605956255868e-12 	101324.9999999975
-0.2364864864864869 	300.0000000000088 	2.072730047206292e-12 	101324.9999999976
-0.2339839839839843 	299.9999999999841 	4.024109242961241e-12 	101324.9999999976
-0.2314814814814819 	299.9999999999892 	2.234055094127229e-12 	101324.9999999978
-0.2289789789789792 	299.9999999999729 	3.352463274833794e-12 	101324.9999999977
-0.2264764764764769 	299.9999999999806 	2.466397173476282e-12 	101324.9999999975
-0.2239739739739743 	299.999999999991 	3.899315279132277e-12 	101324.9999999972
-0.2214714714714718 	299.9999999999782 	3.897763591552951e-12 	101324.9999999972
-0.2189689689689693 	299.9999999999869 	2.977992742870462e-12 	101324.9999999972
-0.2164664664664669 	299.9999999999893 	3.745198559449934e-12 	101324.9999999972
-0.2139639639639643 	299.9999999999752 	2.31150211644842e-12 	101324.9999999973
-0.2114614614614618 	299.9999999999897 	3.433003558537018e-12 	101324.999999997
-0.2089589589589593 	300.0000000000036 	3.031697622843038e-12 	101324.9999999973
-0.2064564564564568 	300.0000000000032 	2.765162583878644e-12 	101324.9999999975
-0.2039539539539543 	299.9999999999742 	3.474046452441575e-12 	101324.9999999974
-0.2014514514514518 	299.9999999999735 	2.218458510967664e-12 	101324.9999999971
-0.1989489489489494 	299.9999999999935 	4.247620719004389e-12 	101324.9999999968
-0.1964464464464468 	300.0000000000036 	1.88316408045383e-12 	101324.9999999968
-0.1939439439439443 	300.0000000000005 	3.563844535955001e-12 	101324.9999999968
-0.1914414414414418 	299.9999999999811 	2.434177135466495e-12 	101324.9999999967
-0.1889389389389393 	299.9999999999953 	2.874158486694447e-12 	101324.9999999969
-0.1864364364364368 	300.000000000006 	2.547835134818498e-12 	101324.9999999971
-0.1839339339339343 	299.9999999999923 	2.627885394564443e-12 	101324.9999999971
-0.1814314314314318 	299.9999999999957 	2.810830182176634e-12 	101324.9999999972
-0.1789289289289293 	299.9999999999696 	3.052191672940102e-12 	101324.9999999971
-0.1764264264264268 	299.9999999999879 	2.945470734784627e-12 	101324.9999999971
-0.1739239239239243 	299.9999999999674 	3.88238809106373e-12 	101324.9999999971
-0.1714214214214218 	299.9999999999959 	2.881369262639436e-12 	101324.9999999972
-0.1689189189189193 	299.9999999999802 	3.59925170475112e-12 	101324.9999999969
-0.1664164164164168 	299.9999999999985 	1.990637834264233e-12 	101324.9999999971
-0.1639139139139143 	299.9999999999963 	3.888429472790934e-12 	101324.9999999972
-0.1614114114114118 	300.0000000000041 	9.088025179970363e-13 	101324.999999997
-0.1589089089089093 	300.0000000000027 	5.282265747723688e-12 	101324.9999999971
-0.1564064064064068 	299.9999999999914 	3.939427704924906e-13 	101324.9999999971
-0.1539039039039043 	300.0000000000019 	5.921841753690966e-12 	101324.9999999971
-0.1514014014014018 	300.0000000000057 	1.820375247406804e-12 	101324.999999997
-0.1488988988988993 	300.0000000000035 	6.010424929620043e-12 	101324.999999997
-0.1463963963963968 	300 	1.951921694291944e-12 	101324.999999997
-0.1438938938938943 	299.9999999999896 	4.048784328595374e-12 	101324.9999999969
-0.1413913913913918 	299.9999999999726 	1.903692198320169e-12 	101324.9999999968
-0.1388888888888893 	299.9999999999895 	3.429017737614328e-12 	101324.9999999969
-0.1363863863863868 	299.9999999999624 	2.547183052923014e-12 	101324.9999999968
-0.1338838838838843 	299.9999999999813 	2.582259871174122e-12 	101324.9999999968
-0.1313813813813818 	299.9999999999977 	2.550385185144594e-12 	101324.9999999966
-0.1288788788788793 	299.9999999999868 	2.77057883859948e-12 	101324.9999999966
-0.1263763763763768 	299.9999999999937 	2.057424683273612e-12 	101324.9999999966
-0.1238738738738743 	299.999999999983 	2.558852121940335e-12 	101324.9999999967
-0.1213713713713717 	300.0000000000002 	1.489484318867782e-12 	101324.9999999968
-0.1188688688688693 	300.000000000005 	3.216401744343802e-12 	101324.9999999967
-0.1163663663663668 	299.9999999999661 	1.679752494334114e-12 	101324.9999999966
-0.1138638638638643 	299.9999999999965 	3.670714266201356e-12 	101324.9999999968
-0.1113613613613618 	299.9999999999965 	1.244291867074751e-12 	101324.9999999968
-0.1088588588588592 	299.9999999999954 	3.314107556194195e-12 	101324.9999999967
-0.1063563563563568 	299.9999999999898 	5.288418947252816e-13 	101324.9999999966
-0.1038538538538543 	299.9999999999962 	2.494266340700684e-12 	101324.9999999964
-0.1013513513513517 	300.0000000000009 	1.662357452458981e-12 	101324.9999999962
-0.09884884884884926 	299.999999999985 	3.031409434195144e-12 	101324.9999999962
-0.09634634634634676 	299.9999999999738 	2.380608308145885e-12 	101324.999999996
-0.09384384384384425 	299.9999999999727 	2.496512886189927e-12 	101324.9999999961
-0.09134134134134177 	300.0000000000023 	2.046423328228704e-12 	101324.999999996
-0.08883883883883925 	300.0000000000004 	2.627146705786278e-12 	101324.9999999961
-0.08633633633633674 	299.9999999999845 	2.364659445530537e-12 	101324.9999999958
-0.08383383383383426 	299.9999999999993 	1.983919292734224e-12 	101324.999999996
-0.08133133133133173 	299.9999999999843 	3.018939185774142e-12 	101324.9999999961
-0.07882882882882926 	299.9999999999656 	2.434580095918779e-12 	101324.9999999958
-0.07632632632632676 	299.9999999999919 	2.237691153697208e-12 	101324.9999999961
-0.07382382382382424 	299.9999999999637 	2.809651617947385e-12 	101324.9999999963
-0.07132132132132173 	300.0000000000013 	3.029531916241215e-12 	101324.9999999964
-0.06881881881881925 	299.9999999999854 	3.249339078198614e-12 	101324.9999999964
-0.06631631631631671 	299.9999999999634 	2.706617674786291e-12 	101324.9999999966
-0.06381381381381425 	299.9999999999842 	2.427952170087156e-12 	101324.9999999966
-0.06131131131131173 	299.9999999999845 	2.252821545321047e-12 	101324.9999999964
-0.05880880880880923 	299.9999999999737 	1.975901010828903e-12 	101324.999999996
-0.05630630630630672 	299.9999999999893 	1.512557210855048e-12 	101324.9999999958
-0.05380380380380424 	300.0000000000074 	1.253328165513071e-12 	101324.9999999958
-0.05130130130130173 	300.0000000000016 	1.620873887844671e-12 	101324.999999996
-0.04879879879879922 	299.9999999999819 	1.90729272391019e-12 	101324.9999999959
-0.04629629629629672 	299.9999999999806 	1.613291794723198e-12 	101324.9999999962
-0.04379379379379422 	299.9999999999696 	1.611514575772701e-12 	101324.9999999964
-0.04129129129129173 	299.9999999999939 	1.123860755826215e-12 	101324.9999999962
-0.03878878878878922 	299.9999999999981 	1.303565295482449e-12 	101324.999999996
-0.03628628628628671 	299.9999999999954 	1.309361119663522e-12 	101324.9999999957
-0.03378378378378422 	299.9999999999777 	1.619585166507287e-12 	101324.9999999958
-0.03128128128128172 	299.9999999999871 	6.589302023012683e-13 	101324.9999999957
-0.02877877877877922 	299.9999999999861 	1.113504367220576e-12 	101324.9999999957
-0.0262762762762767 	299.9999999999664 	7.591167013637674e-13 	101324.9999999957
-0.02377377377377422 	300.0000000000078 	5.695962276107743e-13 	101324.9999999957
-0.0212712712712717 	299.9999999999664 	2.248444005203049e-13 	101324.9999999956
-0.01876876876876921 	299.9999999999908 	6.126711657462019e-13 	101324.9999999958
-0.01626626626626671 	300.0000000000005 	8.855835370135939e-13 	101324.9999999959
-0.0137637637637642 	299.9999999999874 	1.34573827330823e-12 	101324.999999996
-0.0112612612612617 	300.0000000000053 	6.820175404333186e-13 	101324.9999999961
-0.008758758758759198 	299.9999999999964 	2.226543995674602e-13 	101324.9999999962
-0.006256256256256697 	299.9999999999632 	1.128846508499613e-13 	101324.9999999962
-0.003753753753754195 	299.9999999999836 	2.985919996667161e-14 	101324.9999999961
-0.001251251251251693 	299.9999999999761 	9.17133161162249e-13 	101324.9999999959
0.00125125125125081 	299.9999999999843 	9.430360136146276e-13 	101324.9999999959
0.003753753753753312 	299.9999999999878 	7.471202717546619e-13 	101324.9999999961
0.006256256256255817 	299.9999999999632 	4.393356761381432e-13 	101324.9999999964
0.008758758758758317 	299.9999999999921 	3.404840610752131e-13 	101324.9999999964
0.01126126126126082 	299.9999999999997 	3.883315376850411e-13 	101324.9999999964
0.01376376376376332 	299.9999999999907 	2.295388541071455e-13 	101324.9999999963
0.01626626626626582 	300.0000000000016 	3.308542357392527e-13 	101324.9999999962
0.01876876876876833 	299.999999999982 	6.763076907104646e-13 	101324.9999999964
0.02127127127127083 	299.9999999999908 	9.818413484824614e-13 	101324.9999999964
0.02377377377377332 	299.9999999999974 	1.058662127025806e-12 	101324.9999999962
0.02627627627627583 	299.9999999999687 	6.564777217709821e-13 	101324.9999999961
0.02877877877877833 	300.0000000000005 	1.13423644695503e-12 	101324.999999996
0.03128128128128083 	299.9999999999828 	2.598401356433325e-13 	101324.9999999961
0.03378378378378333 	299.9999999999653 	8.05530651547965e-13 	101324.9999999963
0.03628628628628584 	299.9999999999931 	7.908459607061061e-13 	101324.9999999965
0.03878878878878834 	299.9999999999959 	1.129894285288907e-12 	101324.9999999967
0.04129129129129084 	299.9999999999947 	1.459888561187294e-12 	101324.9999999968
0.04379379379379333 	299.9999999999818 	1.383899871949931e-12 	101324.9999999968
0.04629629629629585 	299.9999999999621 	1.402712823981716e-12 	101324.9999999968
0.04879879879879834 	299.9999999999841 	1.712952754740967e-12 	101324.9999999964
0.05130130130130085 	300.0000000000018 	1.461896892252293e-12 	101324.9999999962
0.05380380380380335 	300.0000000000089 	9.938931297204398e-13 	101324.9999999962
0.05630630630630584 	299.9999999999936 	9.336060319099652e-13 	101324.9999999963
0.05880880880880836 	299.9999999999761 	1.381092853250467e-12 	101324.9999999962
0.06131131131131085 	299.9999999999914 	2.00541448910524e-12 	101324.999999996
0.06381381381381336 	299.9999999999841 	1.890881866628801e-12 	101324.999999996
0.06631631631631586 	299.9999999999628 	1.578385133428054e-12 	101324.9999999961
0.06881881881881835 	299.9999999999827 	2.155260723000765e-12 	101324.9999999961
0.07132132132132088 	300.000000000002 	1.475768383412169e-12 	101324.9999999962
0.07382382382382337 	299.9999999999663 	1.896591769694082e-12 	101324.9999999962
0.07632632632632587 	299.9999999999891 	2.035036035212063e-12 	101324.999999996
0.07882882882882837 	299.9999999999741 	1.721669742076518e-12 	101324.9999999959
0.08133133133133086 	299.9999999999994 	1.753092907770454e-12 	101324.9999999959
0.08383383383383337 	299.9999999999993 	1.607567451446099e-12 	101324.999999996
0.08633633633633589 	299.9999999999663 	2.131860371296569e-12 	101324.9999999961
0.08883883883883838 	300.0000000000052 	2.482501699497521e-12 	101324.9999999965
0.09134134134134086 	299.9999999999966 	1.936170737164604e-12 	101324.9999999965
0.09384384384384339 	299.9999999999669 	2.595269907824028e-12 	101324.9999999964
0.09634634634634588 	299.9999999999878 	2.856196842603637e-12 	101324.9999999966
0.09884884884884838 	299.9999999999927 	2.562453629353472e-12 	101324.9999999965
0.1013513513513509 	300.0000000000108 	2.348916552097655e-12 	101324.9999999963
0.1038538538538534 	299.9999999999785 	2.029493162529641e-12 	101324.9999999963
0.1063563563563559 	300.0000000000039 	2.47762354838544e-12 	101324.9999999964
0.1088588588588584 	300.0000000000041 	2.309842812873135e-12 	101324.9999999964
0.1113613613613609 	299.9999999999893 	2.766049396730069e-12 	101324.9999999963
0.1138638638638634 	299.9999999999887 	2.749800481943223e-12 	101324.999999996
0.1163663663663659 	299.9999999999804 	3.133754261238301e-12 	101324.999999996
0.1188688688688684 	299.9999999999882 	3.150271527829736e-12 	101324.9999999963
0.1213713713713709 	299.9999999999966 	2.948519548931582e-12 	101324.9999999966
0.1238738738738734 	299.9999999999719 	3.07431521016341e-12 	101324.9999999965
0.1263763763763759 	299.9999999999997 	3.118057265838595e-12 	101324.9999999965
0.1288788788788784 	300.0000000000009 	2.782766513258177e-12 	101324.9999999967
0.1313813813813809 	299.9999999999966 	2.939658802567618e-12 	101324.9999999967
0.1338838838838834 	299.999999999985 	3.021561442447096e-12 	101324.9999999968
0.1363863863863859 	300.0000000000095 	2.89607585594697e-12 	101324.9999999968
0.1388888888888884 	300.0000000000095 	2.328200188422545e-12 	101324.999999997
0.1413913913913909 	299.9999999999981 	2.627426340970828e-12 	101324.9999999975
0.1438938938938934 	299.999999999991 	2.829185805051565e-12 	101324.9999999973
0.1463963963963959 	299.999999999987 	2.70219130702167e-12 	101324.9999999972
0.1488988988988985 	299.9999999999703 	3.004863130879383e-12 	101324.9999999971
0.1514014014014009 	299.9999999999915 	3.088979525685957e-12 	101324.9999999971
0.1539039039039035 	299.9999999999836 	3.762491099759094e-12 	101324.9999999971
0.1564064064064059 	299.9999999999844 	2.588808355661398e-12 	101324.9999999972
0.1589089089089084 	299.9999999999895 	4.354307129997677e-12 	101324.999999997
0.1614114114114109 	299.9999999999891 	2.762805064640143e-12 	101324.9999999971
0.1639139139139134 	299.999999999975 	3.70971506698364e-12 	101324.9999999972
0.166416416416416 	299.9999999999964 	3.649382614133074e-12 	101324.9999999971
0.1689189189189185 	300.0000000000112 	3.504625841020003e-12 	101324.999999997
0.1714214214214209 	299.9999999999971 	3.730586566661892e-12 	101324.9999999973
0.1739239239239235 	299.9999999999989 	2.768669137668114e-12 	101324.9999999972
0.1764264264264259 	299.9999999999878 	4.000932896783595e-12 	101324.9999999971
0.1789289289289284 	300.0000000000032 	2.542167329237311e-12 	101324.9999999972
0.181431431431431 	299.9999999999917 	4.602955949525622e-12 	101324.9999999972
0.1839339339339334 	299.9999999999942 	3.341241516750914e-12 	101324.9999999974
0.186436436436436 	299.9999999999816 	4.198698194852598e-12 	101324.9999999971
0.1889389389389385 	299.999999999992 	3.048529877496978e-12 	101324.9999999971
0.191441441441441 	299.9999999999911 	2.663582927777223e-12 	101324.9999999972
0.1939439439439434 	299.9999999999745 	3.333996646890874e-12 	101324.9999999972
0.196446446446446 	299.9999999999852 	2.263466440838611e-12 	101324.9999999971
0.1989489489489485 	299.999999999989 	3.680522671240684e-12 	101324.9999999971
0.2014514514514509 	299.9999999999937 	2.459470524419125e-12 	101324.9999999971
0.2039539539539535 	299.9999999999945 	3.05283693681584e-12 	101324.999999997
0.2064564564564559 	299.9999999999858 	2.595571022564125e-12 	101324.9999999972
0.2089589589589585 	299.9999999999952 	3.024669826273452e-12 	101324.9999999972
0.211461461461461 	299.9999999999848 	3.382978961001265e-12 	101324.9999999973
0.2139639639639635 	299.999999999999 	3.67329716082669e-12 	101324.9999999975
0.2164664664664659 	300.000000000003 	4.343267521315881e-12 	101324.9999999976
0.2189689689689684 	300.0000000000032 	3.335565070301422e-12 	101324.9999999974
0.221471471471471 	300.0000000000015 	4.245016045151361e-12 	101324.9999999974
0.2239739739739735 	299.9999999999832 	2.894385657616028e-12 	101324.9999999971
0.226476476476476 	299.9999999999962 	3.879686407283927e-12 	101324.9999999972
0.2289789789789785 	300.0000000000025 	2.833988214481116e-12 	101324.9999999971
0.231481481481481 	299.9999999999956 	2.291332933154115e-12 	101324.9999999972
0.2339839839839835 	299.9999999999928 	2.287118413977802e-12 	101324.9999999971
0.236486486486486 	300.0000000000084 	2.000173809481016e-12 	101324.9999999972
0.2389889889889885 	299.9999999999997 	2.58616410305396e-12 	101324.9999999974
0.241491491491491 	299.9999999999743 	1.521834717213066e-12 	101324.9999999972
0.2439939939939935 	299.9999999999968 	3.751318264267672e-12 	101324.9999999973
0.246496496496496 	299.9999999999955 	2.256356903912595e-12 	101324.9999999974
0.2489989989989985 	300.0000000000076 	2.993512113998664e-12 	101324.9999999974
0.251501501501501 	300.0000000000048 	2.587178991924412e-12 	101324.9999999977
0.2540040040040035 	299.9999999999976 	2.610612850023039e-12 	101324.9999999978
0.256506506506506 	300.0000000000063 	3.000983101491648e-12 	101324.9999999978
0.2590090090090086 	299.9999999999752 	2.206856267977841e-12 	101324.9999999981
0.261511511511511 	300.0000000000027 	3.457267542964074e-12 	101324.999999998
0.2640140140140135 	299.9999999999935 	1.578095743103998e-12 	101324.9999999979
0.2665165165165161 	299.999999999982 	2.653628717917918e-12 	101324.9999999978
0.2690190190190185 	300.0000000000091 	1.905778416253143e-12 	101324.9999999979
0.271521521521521 	300.0000000000039 	2.362287582494181e-12 	101324.9999999977
0.2740240240240235 	300.000000000004 	2.687579404097752e-12 	101324.9999999979
0.276526526526526 	299.9999999999993 	2.545952493415231e-12 	101324.9999999978
0.2790290290290286 	299.9999999999848 	3.297181635988158e-12 	101324.999999998
0.281531531531531 	299.9999999999728 	2.026534536271104e-12 	101324.9999999979
0.2840340340340335 	299.9999999999974 	3.262805612786448e-12 	101324.9999999979
0.2865365365365361 	299.9999999999886 	1.990077684305993e-12 	101324.9999999979
0.2890390390390385 	299.9999999999985 	2.060579896171235e-12 	101324.9999999979
0.291541541541541 	299.9999999999985 	9.852125246936447e-13 	101324.9999999979
0.2940440440440436 	299.9999999999978 	1.183367847772442e-12 	101324.9999999977
0.296546546546546 	299.9999999999956 	1.601650680747489e-12 	101324.9999999978
0.2990490490490486 	299.9999999999803 	1.002793785233699e-12 	101324.9999999978
0.3015515515515511 	300.0000000000085 	2.584660001661582e-12 	101324.9999999977
0.3040540540540535 	299.999999999996 	1.090778904371242e-12 	101324.9999999979
0.3065565565565562 	299.9999999999978 	3.022200768633333e-12 	101324.9999999981
0.3090590590590585 	299.9999999999957 	5.025700288128872e-13 	101324.9999999981
0.3115615615615611 	299.9999999999798 	1.919588620147173e-12 	101324.9999999981
0.3140640640640635 	300.0000000000015 	4.604098975174286e-13 	101324.9999999978
0.316566566566566 	299.9999999999965 	7.559583459448438e-13 	101324.9999999977
0.3190690690690687 	299.9999999999864 	4.240948246912814e-13 	101324.9999999979
0.3215715715715711 	300.0000000000019 	8.205322300906648e-13 	101324.9999999979
0.3240740740740735 	299.9999999999961 	6.224519752077663e-13 	101324.9999999977
0.326576576576576 	299.9999999999653 	2.68492324035673e-13 	101324.9999999976
0.3290790790790786 	300.0000000000007 	3.301501327638276e-13 	101324.9999999977
0.3315815815815811 	300.0000000000137 	9.303957508058552e-13 	101324.9999999976
0.3340840840840836 	299.9999999999991 	1.246008465947357e-12 	101324.9999999976
0.3365865865865861 	300.0000000000185 	6.842285727716514e-13 	101324.9999999974
0.3390890890890886 	300.0000000000147 	1.122824919230676e-12 	101324.9999999977
0.3415915915915911 	300.0000000000009 	4.46241372266273e-13 	101324.9999999977
0.3440940940940935 	299.999999999986 	1.033896627444419e-12 	101324.9999999981
0.3465965965965962 	300.0000000000132 	6.139952768664663e-13 	101324.999999998
0.3490990990990985 	300.000000000009 	2.015722708533385e-12 	101324.9999999979
0.3516016016016011 	299.9999999999959 	1.467699252684599e-12 	101324.9999999978
0.3541041041041035 	300.0000000000026 	1.722871512401195e-12 	101324.9999999977
0.3566066066066061 	299.9999999999899 	1.439098298182552e-12 	101324.9999999976
0.3591091091091085 	299.9999999999768 	1.44589857436749e-12 	101324.9999999978
0.3616116116116112 	299.9999999999823 	2.460482969039711e-12 	101324.9999999978
0.3641141141141137 	299.9999999999797 	1.80964286204984e-12 	101324.9999999979
0.3666166166166161 	299.9999999999744 	3.129218980468019e-12 	101324.9999999982
0.3691191191191185 	300.0000000000093 	4.474676887487856e-13 	101324.999999998
0.371621621621621 	300.0000000000063 	2.479598759613903e-12 	101324.9999999979
0.3741241241241237 	300.000000000015 	7.845583620526514e-13 	101324.9999999981
0.3766266266266261 	300.000000000006 	2.043228819735435e-12 	101324.9999999979
0.3791291291291286 	299.9999999999943 	1.436790097407361e-12 	101324.9999999978
0.3816316316316311 	299.9999999999737 	1.972051407213949e-12 	101324.9999999978
0.3841341341341336 	300.0000000000013 	1.50181412697662e-12 	101324.9999999979
0.3866366366366362 	299.9999999999981 	1.902000799356824e-12 	101324.9999999978
0.3891391391391387 	299.9999999999864 	1.765574413236977e-12 	101324.999999998
0.391641641641641 	299.9999999999991 	1.78980636839831e-12 	101324.999999998
0.3941441441441436 	300.0000000000024 	2.038133215796407e-12 	101324.9999999978
0.3966466466466462 	300 	2.283821927476746e-12 	101324.9999999975
0.3991491491491486 	299.9999999999835 	2.156805321035598e-12 	101324.9999999976
0.4016516516516512 	299.9999999999712 	2.424089161735636e-12 	101324.9999999977
0.4041541541541536 	299.9999999999869 	1.456630976059644e-12 	101324.9999999978
0.4066566566566561 	299.9999999999873 	2.582876397159942e-12 	101324.999999998
0.4091591591591587 	300.0000000000011 	6.98535921115866e-13 	101324.999999998
0.4116616616616612 	300.0000000000027 	2.215249037187976e-12 	101324.9999999982
0.4141641641641635 	300.0000000000117 	1.576480846948546e-12 	101324.9999999981
0.4166666666666662 	299.9999999999999 	2.153009990439987e-12 	101324.9999999982
0.4191691691691687 	299.9999999999822 	2.076541494294249e-12 	101324.9999999983
0.421671671671671 	300.0000000000026 	1.405368115580772e-12 	101324.9999999981
0.4241741741741737 	299.9999999999958 	2.689688020404116e-12 	101324.9999999983
0.4266766766766761 	299.9999999999867 	8.261757367056175e-13 	101324.9999999981
0.4291791791791785 	300.0000000000077 	3.059814356595129e-12 	101324.9999999982
0.4316816816816812 	299.9999999999978 	8.989637362877741e-13 	101324.9999999981
0.4341841841841836 	299.9999999999937 	2.575743351194139e-12 	101324.9999999982
0.4366866866866862 	299.9999999999798 	7.061540202260388e-13 	101324.9999999982
0.4391891891891885 	300 	1.60844834071452e-12 	101324.9999999982
0.4416916916916913 	299.9999999999977 	1.529035416532465e-12 	101324.9999999981
0.4441941941941936 	299.9999999999962 	2.068169187890954e-12 	101324.999999998
0.4466966966966961 	299.9999999999765 	1.812221908000548e-12 	101324.999999998
0.4491991991991987 	299.9999999999961 	1.928713440804389e-12 	101324.999999998
0.4517017017017012 	299.9999999999957 	2.915203507046947e-12 	101324.9999999979
0.4542042042042035 	299.9999999999948 	2.390473285482718e-12 	101324.9999999979
0.4567067067067062 	299.9999999999958 	2.750479407365267e-12 	101324.9999999978
0.4592092092092087 	299.9999999999765 	2.006381346032533e-12 	101324.9999999978
0.4617117117117112 	300.0000000000041 	1.966959976632313e-12 	101324.9999999978
0.4642142142142137 	299.9999999999874 	2.225149719007644e-12 	101324.9999999977
0.4667167167167162 	299.9999999999949 	2.217214027308797e-12 	101324.9999999977
0.4692192192192187 	299.9999999999851 	2.004517524504065e-12 	101324.9999999978
0.4717217217217212 	300.0000000000084 	1.53484987133606e-12 	101324.9999999978
0.4742242242242236 	299.9999999999872 	1.536881205814949e-12 	101324.9999999979
0.4767267267267262 	299.9999999999958 	1.230911784150407e-12 	101324.9999999978
0.4792292292292287 	300.0000000000032 	1.62121785499835e-12 	101324.9999999975
0.4817317317317312 	300.0000000000061 	2.027440131990095e-12 	101324.9999999974
0.4842342342342336 	299.9999999999944 	2.334971194414753e-12 	101324.9999999974
0.4867367367367362 	299.9999999999847 	1.92114065069084e-12 	101324.9999999974
0.4892392392392387 	300.000000000007 	1.514393388034477e-12 	101324.9999999972
0.4917417417417412 	299.9999999999997 	2.482999334839847e-12 	101324.9999999973
0.4942442442442437 	299.9999999999704 	1.890739469219968e-12 	101324.9999999972
0.4967467467467462 	299.9999999999765 	2.647849322693523e-12 	101324.9999999974
0.4992492492492487 	299.9999999999732 	1.551615894018206e-12 	101324.9999999975
0.5017517517517511 	299.9999999999843 	2.249160939824243e-12 	101324.9999999975
0.5042542542542537 	299.9999999999887 	2.148095590632706e-12 	101324.9999999975
0.5067567567567562 	299.9999999999811 	2.470574727434143e-12 	101324.9999999975
0.5092592592592589 	299.9999999999885 	2.08649711893941e-12 	101324.9999999977
0.5117617617617611 	299.9999999999873 	1.740044918200021e-12 	101324.9999999978
0.5142642642642637 	299.999999999998 	2.428514050503663e-12 	101324.9999999977
0.5167667667667663 	299.9999999999935 	2.159690875736272e-12 	101324.9999999977
0.5192692692692688 	299.9999999999769 	3.798153378744022e-12 	101324.9999999978
0.5217717717717714 	299.9999999999797 	1.243605981404078e-12 	101324.999999998
0.5242742742742736 	299.9999999999808 	3.135003956086121e-12 	101324.9999999981
0.5267767767767763 	299.9999999999878 	8.355147238184889e-13 	101324.9999999978
0.5292792792792789 	299.9999999999817 	2.17389096172139e-12 	101324.9999999977
0.5317817817817813 	299.9999999999695 	1.618548111551986e-12 	101324.9999999976
0.5342842842842837 	300.0000000000022 	2.384516962650425e-12 	101324.9999999974
0.5367867867867864 	299.9999999999981 	2.238865928648811e-12 	101324.9999999972
0.5392892892892888 	299.9999999999869 	1.9179159999276e-12 	101324.9999999971
0.5417917917917912 	300 	1.147539088905071e-12 	101324.9999999972
0.5442942942942938 	299.9999999999949 	1.017804516021393e-12 	101324.9999999974
0.5467967967967964 	299.9999999999859 	5.818305167717514e-13 	101324.9999999974
0.5492992992992988 	299.9999999999807 	5.883157170928994e-13 	101324.9999999973
0.5518018018018012 	299.9999999999801 	3.166280568865902e-13 	101324.9999999973
0.5543043043043039 	300.0000000000034 	5.492715128029385e-13 	101324.9999999974
0.5568068068068063 	299.9999999999965 	6.754558675410226e-13 	101324.9999999972
0.5593093093093087 	299.9999999999758 	9.500779241762666e-13 	101324.999999997
0.5618118118118114 	299.9999999999876 	9.295197839916212e-13 	101324.9999999969
0.5643143143143137 	299.9999999999842 	5.718148719077294e-13 	101324.9999999968
0.5668168168168163 	299.9999999999976 	1.39477202498157e-12 	101324.999999997
0.5693193193193188 	300.0000000000097 	9.344773855710461e-13 	101324.9999999971
0.5718218218218213 	300.0000000000101 	6.865798031333696e-13 	101324.9999999973
0.5743243243243239 	300.0000000000038 	9.808434852668794e-13 	101324.9999999974
0.5768268268268262 	299.9999999999998 	9.386485667182716e-13 	101324.9999999973
0.5793293293293288 	299.9999999999845 	1.294103768121546e-12 	101324.9999999971
0.5818318318318314 	299.9999999999763 	1.649215966922921e-12 	101324.9999999971
0.5843343343343338 	299.9999999999927 	1.687752534223163e-12 	101324.9999999971
0.5868368368368363 	299.9999999999894 	1.247725827489166e-12 	101324.999999997
0.5893393393393387 	299.9999999999807 	8.871766069221979e-13 	101324.9999999969
0.5918418418418413 	299.9999999999814 	5.021949237719216e-13 	101324.999999997
0.5943443443443439 	300.000000000003 	6.850838508247306e-13 	101324.9999999971
0.5968468468468463 	300.0000000000027 	5.38242216784982e-13 	101324.999999997
0.5993493493493487 	300.0000000000125 	5.546514762578182e-13 	101324.9999999972
0.6018518518518514 	299.999999999991 	5.566340364978731e-13 	101324.9999999975
0.6043543543543537 	299.9999999999991 	4.633513030763201e-13 	101324.9999999976
0.6068568568568564 	299.9999999999933 	7.160902566254912e-13 	101324.9999999974
0.6093593593593587 	299.9999999999746 	9.671683241870473e-13 	101324.9999999973
0.6118618618618614 	299.999999999976 	6.772205293312802e-13 	101324.9999999974
0.6143643643643638 	300.000000000006 	7.068841022651998e-13 	101324.9999999974
0.6168668668668662 	299.9999999999998 	1.002272248289194e-12 	101324.9999999974
0.6193693693693688 	299.9999999999853 	9.142702329475384e-13 	101324.9999999971
0.6218718718718714 	299.9999999999901 	9.51261793990576e-13 	101324.9999999971
0.6243743743743737 	299.99999999998 	8.601661039732849e-13 	101324.9999999971
0.6268768768768762 	299.9999999999774 	9.932075284113051e-13 	101324.9999999969
0.629379379379379 	299.9999999999856 	5.204626655930665e-13 	101324.9999999969
0.6318818818818812 	299.9999999999897 	3.863463709635478e-13 	101324.9999999969
0.6343843843843838 	300.000000000003 	6.042098084722954e-13 	101324.9999999969
0.6368868868868864 	299.9999999999921 	8.061741615820096e-13 	101324.9999999969
0.6393893893893888 	299.9999999999767 	1.321012206855532e-12 	101324.9999999968
0.6418918918918912 	300 	1.146933093792617e-12 	101324.9999999967
0.6443943943943939 	299.9999999999956 	2.563774539471842e-12 	101324.9999999968
0.6468968968968963 	299.9999999999936 	9.235201271001883e-13 	101324.9999999969
0.6493993993993988 	299.9999999999889 	1.824944197799091e-12 	101324.9999999969
0.6519019019019012 	299.9999999999873 	6.540402086760531e-13 	101324.9999999968
0.6544044044044038 	299.9999999999689 	1.245640418371547e-12 	101324.9999999967
0.6569069069069065 	299.9999999999873 	4.191766226366168e-13 	101324.9999999965
0.6594094094094087 	299.9999999999856 	1.155155831639371e-12 	101324.9999999965
0.6619119119119113 	299.9999999999834 	3.291089079081478e-13 	101324.9999999965
0.664414414414414 	299.9999999999969 	4.79379267179626e-13 	101324.9999999966
0.6669169169169162 	300.0000000000037 	4.463161004486475e-13 	101324.9999999967
0.6694194194194188 	299.9999999999952 	3.503801808799491e-13 	101324.9999999967
0.6719219219219214 	299.9999999999793 	1.103455150423078e-13 	101324.9999999968
0.674424424424424 	299.9999999999931 	3.444964502863334e-13 	101324.9999999967
0.6769269269269262 	299.9999999999758 	5.323032956600416e-13 	101324.9999999966
0.679429429429429 	300.0000000000014 	7.401428605676893e-13 	101324.9999999964
0.6819319319319311 	299.999999999992 	8.77218179347837e-13 	101324.9999999965
0.6844344344344341 	299.9999999999972 	5.849786805773053e-13 	101324.9999999966
0.686936936936936 	299.9999999999966 	9.003606522588786e-13 	101324.9999999964
0.6894394394394392 	299.9999999999968 	3.502121834106549e-13 	101324.9999999963
0.6919419419419413 	299.9999999999948 	8.10216214429694e-13 	101324.9999999965
0.694444444444444 	299.9999999999843 	1.277694454870064e-12 	101324.9999999964
0.6969469469469463 	299.9999999999787 	1.262051402488059e-12 	101324.9999999965
0.6994494494494489 	299.9999999999757 	9.892550327594091e-13 	101324.9999999968
0.7019519519519515 	299.9999999999948 	1.298931927618589e-12 	101324.9999999969
0.7044544544544538 	299.9999999999852 	8.643920625297103e-13 	101324.999999997
0.7069569569569564 	299.999999999996 	1.87773479021591e-12 	101324.9999999971
0.7094594594594589 	299.9999999999877 	6.780888772350964e-13 	101324.9999999971
0.7119619619619615 	299.9999999999727 	9.348784146730978e-13 	101324.9999999969
0.7144644644644638 	299.9999999999811 	5.015796754307768e-13 	101324.9999999968
0.7169669669669665 	299.9999999999747 	4.0920425562103e-13 	101324.9999999967
0.7194694694694688 	299.9999999999986 	4.135639030665318e-13 	101324.9999999966
0.7219719719719715 	299.9999999999985 	1.689069649447299e-13 	101324.9999999966
0.7244744744744737 	299.9999999999991 	4.925738309000967e-13 	101324.9999999967
0.7269769769769764 	299.9999999999962 	1.101046713331282e-12 	101324.9999999966
0.7294794794794791 	299.9999999999953 	1.192114392871138e-12 	101324.9999999967
0.7319819819819813 	299.9999999999936 	1.254709265665961e-12 	101324.9999999967
0.7344844844844839 	299.999999999976 	1.222877700825986e-12 	101324.9999999968
0.7369869869869864 	299.9999999999854 	2.172644961768425e-13 	101324.9999999967
0.739489489489489 	299.999999999982 	6.987338469440741e-13 	101324.9999999968
0.7419919919919914 	299.9999999999796 	9.608872430991282e-13 	101324.9999999968
0.7444944944944939 	299.9999999999922 	1.099883215186113e-12 	101324.9999999966
0.7469969969969963 	299.9999999999921 	2.244450476267659e-12 	101324.9999999966
0.7494994994994989 	299.9999999999833 	1.316724789851325e-12 	101324.9999999968
0.7520020020020015 	299.9999999999921 	2.63460544226439e-12 	101324.9999999969
0.7545045045045039 	299.9999999999923 	1.104455806931967e-12 	101324.999999997
0.7570070070070062 	299.9999999999837 	1.025753145383053e-12 	101324.9999999971
0.7595095095095092 	299.9999999999773 	6.428007759349027e-13 	101324.9999999972
0.7620120120120112 	299.9999999999986 	3.883714907926476e-13 	101324.9999999971
0.7645145145145138 	299.999999999995 	6.280742104210599e-13 	101324.999999997
0.7670170170170165 	299.9999999999816 	9.979189898987235e-13 	101324.999999997
0.7695195195195191 	299.9999999999768 	1.524393181193451e-12 	101324.9999999971
0.7720220220220213 	299.9999999999819 	1.426561554370257e-12 	101324.9999999971
0.7745245245245239 	299.9999999999829 	1.224939628068046e-12 	101324.9999999969
0.7770270270270263 	299.9999999999914 	9.701128694609488e-13 	101324.9999999968
0.779529529529529 	299.9999999999925 	5.045327344654785e-13 	101324.9999999969
0.7820320320320313 	299.9999999999887 	1.042112101967288e-12 	101324.9999999969
0.784534534534534 	299.9999999999957 	8.630973433525925e-13 	101324.9999999968
0.7870370370370364 	299.9999999999938 	7.62832659593379e-13 	101324.9999999969
0.7895395395395389 	299.999999999991 	1.386087003294428e-12 	101324.9999999968
0.7920420420420413 	299.9999999999952 	1.142759369717276e-12 	101324.9999999969
0.794544544544544 	299.9999999999996 	1.740173913517208e-12 	101324.9999999969
0.7970470470470463 	300.0000000000014 	1.634011964967697e-12 	101324.9999999969
0.799549549549549 	299.9999999999939 	1.708984215815287e-12 	101324.9999999969
0.8020520520520515 	299.9999999999962 	1.485003584912852e-12 	101324.9999999968
0.8045545545545539 	299.9999999999851 	5.466935015243308e-13 	101324.9999999968
0.8070570570570563 	299.9999999999979 	7.045510155443002e-13 	101324.9999999969
0.8095595595595589 	299.999999999988 	2.815683573597263e-13 	101324.999999997
0.8120620620620614 	299.9999999999766 	2.804210533096276e-13 	101324.9999999969
0.8145645645645638 	299.9999999999943 	8.86680897030164e-13 	101324.9999999969
0.8170670670670666 	299.9999999999929 	1.414086604972791e-12 	101324.999999997
0.8195695695695689 	299.9999999999903 	1.165799138277448e-12 	101324.999999997
0.8220720720720714 	299.9999999999827 	2.102460281386584e-12 	101324.999999997
0.8245745745745739 	299.9999999999995 	9.585836951746353e-13 	101324.999999997
0.8270770770770765 	299.9999999999917 	1.861803940555161e-12 	101324.9999999971
0.8295795795795788 	299.9999999999841 	1.32242466996324e-12 	101324.9999999971
0.8320820820820815 	300.0000000000064 	1.15313056914751e-12 	101324.999999997
0.834584584584584 	300.0000000000017 	7.579687652169434e-13 	101324.999999997
0.8370870870870865 	299.9999999999894 	5.479656381551475e-13 	101324.9999999969
0.8395895895895891 	299.9999999999766 	7.712595759566146e-13 	101324.9999999968
0.8420920920920915 	299.9999999999769 	5.930399483170568e-14 	101324.9999999967
0.844594594594594 	299.9999999999764 	1.258694479884378e-13 	101324.9999999968
0.8470970970970964 	299.9999999999835 	4.240575096131436e-13 	101324.9999999968
0.8495995995995991 	299.9999999999945 	5.916696763910047e-13 	101324.9999999968
0.8521021021021015 	299.9999999999923 	5.642640508396877e-13 	101324.9999999968
0.8546046046046039 	299.9999999999915 	1.187840504162618e-12 	101324.9999999968
0.8571071071071066 	299.9999999999975 	1.614819398356695e-12 	101324.9999999969
0.8596096096096089 	299.9999999999851 	1.609175480796356e-12 	101324.999999997
0.8621121121121116 	299.9999999999776 	1.575422077580575e-12 	101324.9999999969
0.8646146146146139 	299.9999999999965 	6.187042596204503e-13 	101324.9999999969
0.8671171171171166 	299.9999999999927 	8.351083815539908e-13 	101324.9999999968
0.8696196196196189 	299.9999999999852 	4.403931377893775e-13 	101324.9999999969
0.8721221221221216 	299.9999999999875 	8.546688617799395e-13 	101324.9999999968
0.874624624624624 	299.999999999997 	9.305105719413599e-13 	101324.9999999967
0.8771271271271264 	300.0000000000006 	8.225846969536006e-13 	101324.9999999966
0.879629629629629 	299.9999999999995 	1.340820563249654e-12 	101324.9999999965
0.8821321321321317 	299.9999999999942 	1.632021036395546e-12 	101324.9999999967
0.8846346346346339 	299.9999999999766 	1.12232707178065e-12 	101324.9999999968
0.8871371371371364 	299.9999999999884 	7.732580630432583e-13 	101324.9999999969
0.8896396396396391 	299.9999999999852 	1.539999011644645e-12 	101324.999999997
0.8921421421421414 	299.9999999999844 	1.353340006817231e-12 	101324.9999999971
0.8946446446446441 	299.9999999999967 	1.732284164183064e-12 	101324.9999999972
0.8971471471471464 	299.9999999999992 	1.535886503805972e-12 	101324.9999999971
0.8996496496496489 	299.9999999999889 	1.138541541208252e-12 	101324.9999999969
0.9021521521521517 	299.9999999999857 	1.542486874954119e-12 	101324.9999999968
0.9046546546546541 	299.9999999999952 	6.406730187832553e-13 	101324.9999999969
0.9071571571571564 	299.9999999999824 	6.085443893899817e-13 	101324.999999997
0.9096596596596589 	299.999999999984 	8.334942975360965e-13 	101324.9999999972
0.9121621621621616 	300.0000000000021 	1.208116998320175e-12 	101324.9999999974
0.9146646646646639 	299.9999999999945 	9.999978295244188e-13 	101324.9999999974
0.9171671671671666 	299.999999999983 	8.185895239327452e-13 	101324.9999999975
0.9196696696696689 	299.9999999999984 	1.475577663200202e-12 	101324.9999999975
0.9221721721721714 	300.000000000001 	1.677708309836678e-12 	101324.9999999973
0.9246746746746741 	299.9999999999842 	1.376042713825485e-12 	101324.9999999972
0.9271771771771765 	299.99999999998 	6.607893166830658e-13 	101324.9999999971
0.9296796796796791 	299.9999999999956 	1.169790850953302e-12 	101324.9999999972
0.9321821821821816 	299.9999999999947 	5.608942523957315e-13 	101324.9999999971
0.9346846846846838 	299.9999999999866 	1.198483535162948e-12 	101324.9999999972
0.9371871871871866 	300.0000000000021 	1.413226011945416e-12 	101324.9999999971
0.9396896896896891 	300.0000000000048 	1.391455148132893e-12 	101324.9999999971
0.9421921921921914 	300.0000000000024 	1.775893943118147e-12 	101324.9999999972
0.9446946946946939 	299.9999999999868 	1.369074570583775e-12 	101324.9999999973
0.9471971971971965 	299.9999999999744 	2.009338288286298e-12 	101324.9999999974
0.9496996996996991 	299.9999999999828 	1.050940558582696e-12 	101324.9999999973
0.9522022022022016 	299.9999999999875 	1.288906833050682e-12 	101324.9999999971
0.9547047047047038 	299.9999999999889 	4.43790899212205e-13 	101324.9999999969
0.9572072072072064 	299.9999999999891 	6.423167980252042e-13 	101324.999999997
0.9597097097097093 	299.9999999999885 	7.436610910539871e-13 	101324.999999997
0.9622122122122114 	299.9999999999855 	9.099528489180043e-13 	101324.999999997
0.964714714714714 	299.999999999987 	1.254997392549391e-12 	101324.999999997
0.9672172172172167 	299.9999999999879 	1.006683282014048e-12 	101324.999999997
0.969719719719719 	299.9999999999962 	1.654095659173315e-12 	101324.9999999969
0.9722222222222214 	299.9999999999899 	1.450508271219182e-12 	101324.9999999969
0.9747247247247239 	299.9999999999859 	1.803130329228668e-12 	101324.9999999971
0.9772272272272267 	299.9999999999966 	1.690954834186772e-12 	101324.9999999973
0.9797297297297292 	299.999999999996 	1.540977627421282e-12 	101324.9999999975
0.9822322322322313 	300.0000000000014 	1.981989451065623e-12 	101324.9999999976
0.9847347347347344 	300.0000000000002 	1.571818242463151e-12 	101324.9999999977
0.9872372372372363 	299.9999999999872 	1.97114411292133e-12 	101324.9999999977
0.9897397397397389 	299.9999999999947 	1.002675424996765e-12 	101324.9999999978
0.9922422422422417 	299.9999999999869 	1.555238437423359e-12 	101324.9999999979
0.9947447447447441 	299.9999999999839 	8.243788691354956e-13 	101324.9999999976
0.9972472472472468 	299.9999999999885 	1.055450843847841e-12 	101324.9999999973
0.999749749749749 	299.9999999999853 	8.727759921195121e-13 	101324.9999999971
1.002252252252252 	299.9999999999908 	9.842923528480947e-13 	101324.9999999971
1.004754754754754 	299.9999999999931 	1.721039815046392e-12 	101324.9999999972
1.007257257257256 	299.9999999999867 	1.474883322819814e-12 	101324.9999999972
1.009759759759759 	299.9999999999839 	1.545374188463301e-12 	101324.9999999971
1.012262262262261 	299.9999999999816 	1.017351571332437e-12 	101324.9999999971
1.014764764764764 	299.9999999999735 	1.12676464030442e-12 	101324.9999999971
1.017267267267267 	299.9999999999721 	1.050759427396628e-12 	101324.999999997
1.019769769769769 	299.9999999999879 	1.837079044762729e-12 	101324.9999999971
1.022272272272272 	299.9999999999883 	1.862489893310382e-12 	101324.9999999972
1.024774774774774 	299.9999999999869 	1.664557578698628e-12 	101324.9999999974
1.027277277277277 	299.9999999999895 	2.054725742987498e-12 	101324.9999999975
1.029779779779779 	299.9999999999966 	1.974288583653341e-12 	101324.9999999975
1.032282282282282 	299.9999999999951 	2.479040339135969e-12 	101324.9999999976
1.034784784784784 	299.9999999999945 	2.561619434953141e-12 	101324.9999999977
1.037287287287286 	299.999999999987 	2.874884400186295e-12 	101324.9999999976
1.039789789789789 	299.9999999999905 	2.530440087973865e-12 	101324.9999999976
1.042292292292291 	300.0000000000034 	2.072160418522199e-12 	101324.9999999976
1.044794794794794 	300.0000000000051 	1.923808661370691e-12 	101324.9999999976
1.047297297297296 	300.0000000000084 	9.943755593845829e-13 	101324.9999999978
1.049799799799799 	299.9999999999966 	1.457876504046042e-12 	101324.999999998
1.052302302302302 	299.9999999999899 	8.07280868683655e-13 	101324.9999999981
1.054804804804804 	299.999999999984 	7.973794793074902e-13 	101324.9999999981
1.057307307307306 	299.9999999999737 	7.664814355155745e-13 	101324.9999999981
1.059809809809809 	299.9999999999845 	1.415460400794544e-12 	101324.999999998
1.062312312312312 	299.9999999999815 	1.215095713337395e-12 	101324.9999999979
1.064814814814814 	299.9999999999785 	1.594634598102816e-12 	101324.9999999979
1.067317317317317 	299.9999999999725 	1.557317220143677e-12 	101324.999999998
1.069819819819819 	299.9999999999744 	1.417148224100546e-12 	101324.9999999981
1.072322322322321 	299.9999999999968 	1.851932390390853e-12 	101324.9999999981
1.074824824824824 	300.0000000000032 	8.334080431359748e-13 	101324.9999999981
1.077327327327327 	300.0000000000073 	1.791689401507176e-12 	101324.9999999981
1.079829829829829 	300.0000000000073 	1.331131218580759e-12 	101324.999999998
1.082332332332332 	299.9999999999991 	1.740880378725121e-12 	101324.9999999979
1.084834834834834 	299.9999999999941 	1.747278106305707e-12 	101324.9999999981
1.087337337337337 	299.9999999999836 	2.252588229808337e-12 	101324.9999999983
1.089839839839839 	299.9999999999814 	3.213048448052176e-12 	101324.9999999985
1.092342342342342 	299.9999999999914 	2.878605200337882e-12 	101324.9999999986
1.094844844844844 	299.9999999999955 	3.114230317896742e-12 	101324.9999999986
1.097347347347347 	299.9999999999865 	2.502077020586632e-12 	101324.9999999987
1.099849849849849 	299.999999999984 	3.418463368528375e-12 	101324.9999999987
1.102352352352352 	299.9999999999891 	2.305155541932413e-12 	101324.9999999986
1.104854854854854 	299.999999999993 	3.144133164885906e-12 	101324.9999999985
1.107357357357357 	299.9999999999895 	2.754807207685067e-12 	101324.9999999986
1.109859859859859 	299.9999999999857 	3.843014825957793e-12 	101324.9999999987
1.112362362362362 	300.000000000007 	3.573409933527151e-12 	101324.9999999988
1.114864864864865 	300.0000000000048 	3.753713895187201e-12 	101324.9999999988
1.117367367367367 	299.999999999989 	4.236606432434051e-12 	101324.9999999986
1.119869869869869 	299.9999999999781 	3.509110079418891e-12 	101324.9999999985
1.122372372372372 	299.999999999984 	4.372945274992874e-12 	101324.9999999986
1.124874874874874 	299.9999999999834 	4.042279528322608e-12 	101324.9999999985
1.127377377377377 	299.9999999999892 	4.778707389309345e-12 	101324.9999999985
1.129879879879879 	300.0000000000055 	4.614643985893792e-12 	101324.9999999985
1.132382382382382 	300.0000000000077 	4.610554020402099e-12 	101324.9999999987
1.134884884884884 	300.0000000000006 	4.02971849122722e-12 	101324.999999999
1.137387387387387 	300.0000000000031 	3.804749623171207e-12 	101324.9999999992
1.139889889889889 	299.9999999999894 	4.274833451586796e-12 	101324.9999999992
1.142392392392392 	299.9999999999874 	3.727961521046538e-12 	101324.9999999992
1.144894894894894 	300.0000000000022 	3.763679933811458e-12 	101324.9999999991
1.147397397397397 	299.9999999999967 	2.666145204348935e-12 	101324.9999999991
1.149899899899899 	299.9999999999814 	2.91824548409305e-12 	101324.9999999992
1.152402402402402 	299.9999999999795 	3.087687274613089e-12 	101324.9999999993
1.154904904904904 	299.9999999999915 	3.903435101983022e-12 	101324.9999999994
1.157407407407407 	299.9999999999916 	3.530019178431067e-12 	101324.9999999994
1.159909909909909 	299.9999999999851 	3.532225175973389e-12 	101324.9999999994
1.162412412412412 	299.9999999999837 	4.364672522613065e-12 	101324.9999999994
1.164914914914914 	299.9999999999882 	3.931057972697928e-12 	101324.9999999993
1.167417417417417 	299.9999999999867 	4.701979997387401e-12 	101324.9999999992
1.169919919919919 	300.0000000000002 	4.216445035021114e-12 	101324.9999999991
1.172422422422422 	300.0000000000106 	4.728468674184633e-12 	101324.9999999992
1.174924924924925 	299.999999999995 	3.951815273493426e-12 	101324.9999999992
1.177427427427427 	299.9999999999845 	4.047025944832359e-12 	101324.9999999992
1.179929929929929 	299.9999999999995 	4.318601740466393e-12 	101324.9999999992
1.182432432432432 	300.0000000000082 	3.397184380346345e-12 	101324.9999999992
1.184934934934934 	299.9999999999974 	3.874128786311588e-12 	101324.9999999993
1.187437437437437 	299.9999999999891 	3.615308565338502e-12 	101324.9999999994
1.189939939939939 	299.999999999989 	4.272659530813414e-12 	101324.9999999995
1.192442442442442 	299.9999999999791 	4.255351606630748e-12 	101324.9999999996
1.194944944944944 	299.9999999999783 	5.412362155416129e-12 	101324.9999999994
1.197447447447447 	299.9999999999959 	5.544465588835561e-12 	101324.9999999994
1.199949949949949 	300.0000000000017 	5.623213874946717e-12 	101324.9999999994
1.202452452452452 	299.9999999999863 	5.760959495114472e-12 	101324.9999999993
1.204954954954955 	299.9999999999832 	4.902147539520056e-12 	101324.9999999994
1.207457457457457 	299.9999999999931 	5.368945544035491e-12 	101324.9999999996
1.20995995995996 	299.9999999999953 	4.816112395575775e-12 	101324.9999999997
1.212462462462462 	299.9999999999987 	4.979128406654456e-12 	101324.9999999997
1.214964964964964 	299.9999999999987 	4.367393054416421e-12 	101324.9999999997
1.217467467467467 	299.999999999996 	4.716586932656053e-12 	101324.9999999999
1.219969969969969 	299.9999999999895 	4.174659108206643e-12 	101325.0000000001
1.222472472472472 	300.0000000000052 	4.474113058610381e-12 	101325.0000000001
1.224974974974975 	300.0000000000155 	4.791751057737809e-12 	101325.0000000001
1.227477477477477 	299.999999999999 	3.764486803707985e-12 	101325.0000000001
1.229979979979979 	299.9999999999931 	4.082208690377157e-12 	101325.0000000002
1.232482482482482 	299.9999999999889 	3.35673897852383e-12 	101325.0000000003
1.234984984984984 	299.9999999999903 	4.332720607866671e-12 	101325.0000000003
1.237487487487487 	299.9999999999924 	3.768158588479891e-12 	101325.0000000004
1.239989989989989 	299.9999999999927 	4.160629021886254e-12 	101325.0000000004
1.242492492492492 	300.0000000000029 	4.555975808013923e-12 	101325.0000000003
1.244994994994994 	299.9999999999948 	4.066722313528583e-12 	101325.0000000003
1.247497497497497 	299.999999999997 	5.042351280922413e-12 	101325.0000000001
1.249999999999999 	300.0000000000585 	4.836478006938324e-12 	101325
