-1.25 	300 	0.0002497083265691762 	101325
-1.247497497497497 	299.9931103214803 	0.01322984808146694 	101318.0918113452
-1.244994994994995 	299.9887911889029 	0.03426508349773101 	101311.7426718093
-1.242492492492492 	299.9832507636088 	0.04912785832405162 	101305.1984365829
-1.23998998998999 	299.9780695379006 	0.06329032412507131 	101299.0766180465
-1.237487487487487 	299.9732953381605 	0.07718432677915654 	101293.4335753844
-1.234984984984985 	299.9690371439701 	0.0894792186947166 	101288.4007672025
-1.232482482482482 	299.9653347814559 	0.1002255045684106 	101284.0250073053
-1.22997997997998 	299.9622602934911 	0.1091323306652122 	101280.3913666868
-1.227477477477477 	299.9599494353286 	0.1158491711050663 	101277.6602994428
-1.224974974974975 	299.9583650965876 	0.1203705172500378 	101275.787817382
-1.222472472472472 	299.9575005049786 	0.1228166701811451 	101274.7659732018
-1.21996996996997 	299.9574209126007 	0.1230480965637049 	101274.6719195409
-1.217467467467467 	299.9581386380295 	0.1209704709362416 	101275.5200555061
-1.214964964964965 	299.9596540908262 	0.1166007192402397 	101277.3109258621
-1.212462462462462 	299.9619580930021 	0.1098974413684439 	101280.0337308014
-1.20995995995996 	299.9649973555486 	0.1011163799243446 	101283.6255563339
-1.207457457457457 	299.9686677510495 	0.09060536229531116 	101287.9634244753
-1.204954954954955 	299.9728464240812 	0.07854631747860624 	101292.9021585203
-1.202452452452452 	299.9775010872865 	0.06506968582716491 	101298.4036750402
-1.19994994994995 	299.9825874129127 	0.05032678568276065 	101304.4156687607
-1.197447447447447 	299.987987221919 	0.03466538154181307 	101310.7984556899
-1.194944944944945 	299.9935848784369 	0.01847456890119021 	101317.4154430932
-1.192442442442442 	299.9992727307201 	0.00816499830650958 	101324.1393978441
-1.18993993993994 	300.0049776923892 	0.01447118065453676 	101330.8838666531
-1.187437437437437 	300.0106074809647 	0.03068941782326627 	101337.539816413
-1.184934934934935 	300.0160685472898 	0.04647864252355334 	101343.9965802153
-1.182432432432432 	300.0212727644158 	0.06152204381153516 	101350.1499601023
-1.17992992992993 	300.0260968870765 	0.0754685710783117 	101355.8541982798
-1.177427427427427 	300.0304236705102 	0.08797318572040268 	101360.9705313681
-1.174924924924925 	300.0341721089457 	0.09879066732398217 	101365.4031750633
-1.172422422422422 	300.0372738714489 	0.1077887956364149 	101369.071202401
-1.16991991991992 	300.0396877773849 	0.114805132290783 	101371.9258942196
-1.167417417417417 	300.0414033173425 	0.1197486126516551 	101373.95477845
-1.164914914914915 	300.0423844265079 	0.1225119474489991 	101375.115088409
-1.162412412412412 	300.042575234106 	0.1230072021038079 	101375.3407724001
-1.15990990990991 	300.041952016664 	0.1212166820734192 	101374.6038048809
-1.157407407407407 	300.0405206933713 	0.1170999575070074 	101372.9112502987
-1.154904904904904 	300.0383129246691 	0.1107447830166861 	101370.3005094516
-1.152402402402403 	300.0353955651256 	0.10230018576576 	101366.8506033694
-1.1498998998999 	300.0318394657787 	0.09200996136501069 	101362.6454941464
-1.147397397397397 	300.0277146520078 	0.08014091905122429 	101357.7680093113
-1.144894894894895 	300.0230979140273 	0.06679869455844378 	101352.3090198292
-1.142392392392392 	300.0180649242852 	0.05221251767015157 	101346.3581020028
-1.13988988988989 	300.012704995248 	0.03667467640738162 	101340.0208249729
-1.137387387387387 	300.0071291947577 	0.02051170721096067 	101333.4286413548
-1.134884884884885 	300.0014356434879 	0.007779815637847933 	101326.6975325998
-1.132382382382382 	299.9957116890509 	0.01243538132115694 	101319.9307943635
-1.12987987987988 	299.9900342655741 	0.02886780451586045 	101313.2194051313
-1.127377377377377 	299.9844949925988 	0.04487584611352752 	101306.6715695823
-1.124874874874875 	299.9792236819305 	0.06008628323538933 	101300.4407870955
-1.122372372372372 	299.9743606840071 	0.07410390383764814 	101294.6928475038
-1.11986986986987 	299.969996430551 	0.08670926994101866 	101289.5346067706
-1.117367367367367 	299.9662062809164 	0.09770745850413294 	101285.0550820364
-1.114864864864865 	299.9630349848688 	0.106936863927699 	101281.3070240513
-1.112362362362362 	299.9605132198063 	0.1142234989852069 	101278.3267056289
-1.10985985985986 	299.9587010848508 	0.1193824799416503 	101276.1849988116
-1.107357357357357 	299.9576703205184 	0.1223532906782001 	101274.9667567894
-1.104854854854855 	299.957440384838 	0.1230029676108462 	101274.6950093894
-1.102352352352353 	299.9580288880009 	0.1213089242475862 	101275.3904319418
-1.09984984984985 	299.9594100048674 	0.1173324205232349 	101277.0225485699
-1.097347347347347 	299.9615342734489 	0.1111339346253259 	101279.5329321834
-1.094844844844845 	299.9643569781097 	0.1029672467574581 	101282.8688130669
-1.092342342342342 	299.9678330285179 	0.09298236656996024 	101286.9769572935
-1.08983983983984 	299.9718789614894 	0.08129135712260213 	101291.7587639243
-1.087337337337337 	299.976452574908 	0.06808668000957624 	101297.164450681
-1.084834834834835 	299.9814631072104 	0.05357382020237995 	101303.0867820461
-1.082332332332332 	299.9867955221548 	0.03813355596604109 	101309.3898570658
-1.07982982982983 	299.9923318015113 	0.0221327134144629 	101315.9342301474
-1.077327327327327 	299.9979571473526 	0.007227683482765423 	101322.5841942469
-1.074824824824825 	300.0036291384413 	0.01056368367328798 	101329.289622963
-1.072322322322323 	300.0092778505391 	0.02685634644275883 	101335.9678640832
-1.06981981981982 	300.0147756050895 	0.04275847002974404 	101342.467935198
-1.067317317317317 	300.0200042345937 	0.05788278508909789 	101348.6501230851
-1.064814814814815 	300.0248622476756 	0.07192905513133045 	101354.3943529174
-1.062312312312312 	300.029269368339 	0.08465379405530658 	101359.6056348555
-1.05980980980981 	300.0331584140066 	0.09587582055444052 	101364.2045005725
-1.057307307307307 	300.0364546636495 	0.1054179243605574 	101368.1024888341
-1.054804804804805 	300.0390896922316 	0.1130482646008038 	101371.2186575787
-1.052302302302302 	300.041009820555 	0.1185658931373385 	101373.4894638778
-1.0497997997998 	300.0421572991218 	0.1218370961290341 	101374.8465347398
-1.047297297297297 	300.0425035575695 	0.1228319295826991 	101375.2560672379
-1.044794794794795 	300.0420546364751 	0.121552791084499 	101374.7252040927
-1.042292292292292 	300.0408231674247 	0.118001751912272 	101373.2689875121
-1.03978978978979 	300.0388330234003 	0.1122459149012789 	101370.9155918036
-1.037287287287287 	300.0361236003129 	0.1043667452027798 	101367.7115827373
-1.034784784784785 	300.0327310846732 	0.09456227880756317 	101363.6998888088
-1.032282282282283 	300.0287303602219 	0.08304536624743018 	101358.9690960925
-1.02977977977978 	300.0242164509398 	0.06998075945152712 	101353.6316584584
-1.027277277277277 	300.0192706360217 	0.05565056285785408 	101347.7837344912
-1.024774774774775 	300.0139750944402 	0.04031512451661415 	101341.5225369333
-1.022272272272272 	300.0084323776554 	0.02427872313531319 	101334.9693911807
-1.01976976976977 	300.0027328419094 	0.007863852714909175 	101328.2311248922
-1.017267267267267 	299.9969883460946 	0.009661139074493922 	101321.4400421764
-1.014764764764765 	299.9912838376135 	0.02525959018740714 	101314.6965459924
-1.012262262262262 	299.9857225029347 	0.04133619988087501 	101308.1225814145
-1.00975975975976 	299.9804287241294 	0.05663074565200527 	101301.8651834003
-1.007257257257257 	299.9755100132925 	0.07083888681582381 	101296.0513364913
-1.004754754754755 	299.9710363907169 	0.08377053897709774 	101290.7637916435
-1.002252252252252 	299.9670920597355 	0.09520610748166247 	101286.1019915028
-0.9997497497497498 	299.9637403862459 	0.1049118944248299 	101282.140745652
-0.9972472472472473 	299.9610551758651 	0.1126357931576704 	101278.9672525234
-0.9947447447447449 	299.9591090682126 	0.1182038414270859 	101276.6672244476
-0.9922422422422421 	299.9579453462169 	0.1215744277821186 	101275.291831674
-0.9897397397397399 	299.9575594115776 	0.1226715751296615 	101274.8357106068
-0.9872372372372376 	299.9579688917175 	0.1215160577243499 	101275.3195968619
-0.9847347347347346 	299.9591569622274 	0.1180913026475705 	101276.7235654447
-0.9822322322322323 	299.9611044419605 	0.1124345888077961 	101279.0250242695
-0.9797297297297296 	299.963767947744 	0.1047469933131559 	101282.172734114
-0.9772272272272275 	299.9670879436133 	0.09516259510666851 	101286.0964081055
-0.9747247247247248 	299.9709881174851 	0.08386652071934723 	101290.705932019
-0.9722222222222224 	299.975424557784 	0.07103684399816482 	101295.9494329424
-0.9697197197197196 	299.9803133560147 	0.05686957003584017 	101301.7278348906
-0.9672172172172175 	299.9855634493922 	0.04167801087302678 	101307.9335337106
-0.9647147147147147 	299.9910571502159 	0.0258057567404806 	101314.4274861988
-0.9622122122122124 	299.9966693536304 	0.009579979552708753 	101321.0618640475
-0.9597097097097099 	300.0023246105411 	0.009284053588967573 	101327.7474309525
-0.9572072072072073 	300.0079427216697 	0.02295416743082708 	101334.3894254031
-0.9547047047047047 	300.0134235846427 	0.03882372361011998 	101340.8694540638
-0.9522022022022023 	300.0186768259515 	0.05403600775634608 	101347.0806430286
-0.9496996996996998 	300.0236095676831 	0.06830895002009313 	101352.9131843291
-0.9471971971971973 	300.028140201346 	0.0814078981566002 	101358.2704625343
-0.9446946946946947 	300.0321784965067 	0.09305637758380916 	101363.0457666397
-0.9421921921921923 	300.0356275549986 	0.1030448074563583 	101367.1244363959
-0.93968968968969 	300.0384172932309 	0.1111230638205681 	101370.423518029
-0.9371871871871872 	300.0405032099256 	0.1170932155706775 	101372.8903807856
-0.9346846846846848 	300.0418338202202 	0.1209028653086621 	101374.4640256868
-0.9321821821821823 	300.0423873370071 	0.1224769133946339 	101375.1186694786
-0.9296796796796799 	300.0421503218015 	0.1217989668463445 	101374.8383986231
-0.9271771771771771 	300.0411191384533 	0.1188508563740068 	101373.6190086371
-0.9246746746746748 	300.0393175342551 	0.1136413225802524 	101371.488586167
-0.9221721721721724 	300.036789973229 	0.1063075779503305 	101368.4996412362
-0.9196696696696698 	300.0335660830816 	0.09700949619329859 	101364.6873193117
-0.9171671671671672 	300.0297211430845 	0.0859274581605788 	101360.1407256815
-0.9146646646646649 	300.0253276665893 	0.07321043140853607 	101354.9456245422
-0.9121621621621623 	300.0204606633286 	0.05909379573255877 	101349.1908482761
-0.9096596596596597 	300.0152114248833 	0.04389022782482296 	101342.9843475276
-0.9071571571571573 	300.0096972771092 	0.02792198167895365 	101336.4648956267
-0.9046546546546547 	300.0040109473233 	0.01156820055223984 	101329.7421878553
-0.9021521521521524 	299.9982935559987 	0.009020701506703359 	101322.9830547388
-0.8996496496496498 	299.9926064761265 	0.02144279932730891 	101316.2600981492
-0.8971471471471473 	299.9870262214126 	0.03756316420993604 	101309.663708249
-0.894644644644645 	299.9816680418896 	0.05305571254135037 	101303.3301075072
-0.892142142142142 	299.9766406023786 	0.06756730619706482 	101297.3877072088
-0.8896396396396397 	299.9720379135973 	0.08084740940997408 	101291.9475548506
-0.8871371371371374 	299.9679655822611 	0.09265956629123336 	101287.134438376
-0.8846346346346349 	299.9644865426125 	0.1027312291797049 	101283.0226459245
-0.8821321321321324 	299.9616690853487 	0.1108623779197835 	101279.6928254223
-0.8796296296296297 	299.9595738827193 	0.1168855261850479 	101277.216614527
-0.8771271271271271 	299.9582398293372 	0.1207271331614 	101275.6399033886
-0.8746246246246248 	299.9576825394902 	0.1223213861011705 	101274.98127
-0.8721221221221224 	299.9579250861998 	0.1216396564477804 	101275.267888879
-0.8696196196196196 	299.9589438024479 	0.11869199505177 	101276.4717028308
-0.8671171171171175 	299.9607171034987 	0.113543988781322 	101278.5673205994
-0.8646146146146148 	299.9632072098382 	0.1063527520760609 	101281.5100991109
-0.8621121121121121 	299.9663593676752 	0.09724750880391976 	101285.2353910072
-0.8596096096096097 	299.9701198223925 	0.08635922284193037 	101289.6797476141
-0.857107107107107 	299.9744491042693 	0.07385648320613913 	101294.7965398913
-0.8546046046046049 	299.9792509654247 	0.0599576581024765 	101300.4721423453
-0.8521021021021022 	299.984425243139 	0.04497999731102983 	101306.5881755536
-0.8495995995995997 	299.9898520184929 	0.02931462271713118 	101313.0029542613
-0.8470970970970974 	299.995405308958 	0.01325597652186846 	101319.5676176723
-0.8445945945945946 	300.0010051607803 	0.008196949695058804 	101326.187596253
-0.8420920920920922 	300.0065899704933 	0.01906873582395577 	101332.7901564674
-0.8395895895895897 	300.0120775564533 	0.03497108193359517 	101339.2780558017
-0.8370870870870872 	300.0173751913241 	0.05028684525034751 	101345.5416736399
-0.8345845845845846 	300.0223838919605 	0.06476313720491676 	101351.46395373
-0.8320820820820823 	300.0270108472603 	0.07812995288459254 	101356.9350593108
-0.8295795795795798 	300.0311622001475 	0.09011186608667994 	101361.8440219687
-0.8270770770770772 	300.0347503246041 	0.1005077315842439 	101366.0870974881
-0.8245745745745746 	300.0377064770063 	0.1090368542120312 	101369.5829602884
-0.8220720720720721 	300.0399716840097 	0.115541335567608 	101372.2618286628
-0.8195695695695699 	300.0414876396574 	0.1198949161316643 	101374.0546431916
-0.817067067067067 	300.0422261488403 	0.1220271887998267 	101374.9280882504
-0.8145645645645651 	300.0421768463272 	0.1219144851880602 	101374.8697869118
-0.8120620620620621 	300.0413456201404 	0.1195206631590144 	101373.886860487
-0.8095595595595597 	300.0397522510333 	0.1149038281281549 	101372.0026951521
-0.8070570570570572 	300.0374188615051 	0.1081327718506593 	101369.2433501674
-0.8045545545545546 	300.0343709309653 	0.09934890468125003 	101365.6391053521
-0.8020520520520523 	300.0306767158376 	0.08869184116963306 	101361.2707021813
-0.7995495495495494 	300.0264069118035 	0.07631265668937798 	101356.2218118758
-0.7970470470470474 	300.0216425480423 	0.06250575975597794 	101350.5883426592
-0.7945445445445446 	300.016478224128 	0.04754584156980585 	101344.4821652095
-0.7920420420420423 	300.0110188478116 	0.03177805996275723 	101338.0274204106
-0.7895395395395397 	300.0053694515243 	0.01551824723119796 	101331.3482992191
-0.7870370370370371 	299.999660272946 	0.007544201113198888 	101324.5988084963
-0.7845345345345348 	299.9939477548155 	0.01756505922902054 	101317.84570343
-0.7820320320320323 	299.9883169686381 	0.03381742992719621 	101311.1894986748
-0.7795295295295296 	299.9828910636384 	0.04949441370531191 	101304.7757976809
-0.7770270270270272 	299.9777798568767 	0.06424517920922922 	101298.7343086961
-0.7745245245245247 	299.9730838704155 	0.07783407737100721 	101293.1838491361
-0.7720220220220222 	299.9688983830334 	0.08997892142263132 	101288.2369570771
-0.7695195195195199 	299.9652833777795 	0.1004325603454127 	101283.9644254364
-0.767017017017017 	299.962320406756 	0.1089688584795013 	101280.4626398767
-0.7645145145145147 	299.9600788274554 	0.115418463155077 	101277.8134158372
-0.7620120120120122 	299.9585869329877 	0.1197362613845469 	101276.0501734454
-0.7595095095095097 	299.9578585261273 	0.1218167029950217 	101275.1893017834
-0.7570070070070072 	299.9579134930451 	0.1216718190689419 	101275.2542319855
-0.7545045045045048 	299.9587393043851 	0.1192617998448195 	101276.2301062436
-0.7520020020020022 	299.96033699772 	0.1146091663573628 	101278.1181625405
-0.7494994994994997 	299.9626788051594 	0.1078967327681381 	101280.8856692985
-0.7469969969969972 	299.965695581677 	0.09917403937771287 	101284.4509492092
-0.7444944944944945 	299.9693284237484 	0.08866964378980766 	101288.7444435403
-0.7419919919919924 	299.9735215343196 	0.07657309907939855 	101293.7002863263
-0.7394894894894897 	299.9781811988504 	0.06304714952347126 	101299.2077437297
-0.7369869869869872 	299.9832302013508 	0.04844617211297203 	101305.1756383311
-0.7344844844844846 	299.988568920933 	0.03302267367768569 	101311.4862753497
-0.7319819819819822 	299.99406538756 	0.01711084048901922 	101317.9836716225
-0.7294794794794797 	299.9996378782395 	0.006230428046420029 	101324.5712595502
-0.7269769769769773 	300.0052063875805 	0.01509234045956995 	101331.1544475748
-0.7244744744744747 	300.0107043539198 	0.03099825411664745 	101337.6545431644
-0.721971971971972 	300.0160456853112 	0.04643396120149605 	101343.9697619876
-0.7194694694694695 	300.0211261745588 	0.06113176445074322 	101349.9768426335
-0.7169669669669674 	300.0258503877758 	0.07477392084911014 	101355.5629082937
-0.7144644644644647 	300.030118849131 	0.08710297983642437 	101360.6102899727
-0.711961961961962 	300.033837507986 	0.09785535989476465 	101365.0076916133
-0.7094594594594597 	300.0369368939611 	0.1068100212089493 	101368.6729129852
-0.7069569569569573 	300.0393641500382 	0.1138048276575361 	101371.5433856673
-0.7044544544544545 	300.0410621033599 	0.1186927966835199 	101373.5514335765
-0.7019519519519523 	300.0420020222923 	0.1214071347171119 	101374.6630651174
-0.6994494494494495 	300.04216560921 	0.1218757681771671 	101374.8565412127
-0.6969469469469471 	300.0415483566599 	0.1200973418173164 	101374.1266306774
-0.6944444444444446 	300.0401625040905 	0.1160937304321249 	101372.487861562
-0.6919419419419421 	300.0380233767536 	0.1098746200117615 	101369.9582582433
-0.6894394394394396 	300.035136623864 	0.1015540523063524 	101366.5445951658
-0.6869369369369374 	300.0315592751616 	0.09121772119112453 	101362.3143614264
-0.6844344344344344 	300.0273664963742 	0.07908333071496007 	101357.3565148092
-0.6819319319319321 	300.0226652828802 	0.06550067765837284 	101351.7976650416
-0.6794294294294296 	300.0175768849144 	0.05076973806076063 	101345.7812135829
-0.6769269269269272 	300.012209893299 	0.03524569372156845 	101339.4356312008
-0.6744244244244245 	300.0066332136904 	0.01916102397684743 	101332.8424208237
-0.6719219219219222 	300.0009586590492 	0.005235530464442751 	101326.1337918742
-0.6694194194194195 	299.995233695483 	0.01384370374440213 	101319.3658999872
-0.6669169169169172 	299.9895482590671 	0.03024961694220656 	101312.64503573
-0.6644144144144146 	299.9840501432225 	0.04612733911546486 	101306.1458932251
-0.661911911911912 	299.9788743198898 	0.06109965977981462 	101300.0279955799
-0.6594094094094097 	299.9741163510583 	0.07484954512214408 	101294.4042170257
-0.656906906906907 	299.9698449971376 	0.08719411584244298 	101289.3557875721
-0.6544044044044046 	299.9661178963688 	0.09798657771959263 	101284.9507686588
-0.6519019019019021 	299.9629897249041 	0.1070231775930308 	101281.2536901656
-0.6493993993993996 	299.9605408238014 	0.1140951697096482 	101278.3594771726
-0.6468968968968971 	299.9588479987812 	0.1189542641132573 	101276.3587491989
-0.6443943943943946 	299.957968063213 	0.1214645569126894 	101275.3187855998
-0.6418918918918921 	299.957918516483 	0.1216186063536004 	101275.2602178246
-0.6393893893893897 	299.9586672030188 	0.1194899869777532 	101276.1449385723
-0.6368868868868871 	299.9601303797616 	0.1152670347122575 	101277.8740471038
-0.6343843843843846 	299.962248503668 	0.1091224728417841 	101280.377198007
-0.6318818818818821 	299.9649777497725 	0.1012058320400775 	101283.6026441439
-0.6293793793793795 	299.968316876533 	0.0915454222768446 	101287.5489828197
-0.6268768768768773 	299.9722737491472 	0.0800934790585901 	101292.2255382756
-0.6243743743743745 	299.9768339347462 	0.06691980226923229 	101297.6155849448
-0.6218718718718721 	299.9819030852126 	0.05223116954031408 	101303.6072728022
-0.6193693693693696 	299.9873535427041 	0.03649707098768448 	101310.0496930223
-0.6168668668668671 	299.9929863474283 	0.02026965086181204 	101316.708144606
-0.6143643643643645 	299.998612460707 	0.004037120736055991 	101323.3590705007
-0.6118618618618621 	300.0040712938109 	0.01177575526288934 	101329.8125581522
-0.6093593593593596 	300.0092858108188 	0.02685819868246534 	101335.9774978055
-0.6068568568568571 	300.0142710287657 	0.04132161948665895 	101341.8715796196
-0.6043543543543546 	300.0190847120738 	0.05528160371076746 	101347.5630925517
-0.6018518518518521 	300.0237668755156 	0.06883639151059036 	101353.0993170202
-0.5993493493493496 	300.0282926177723 	0.08190620826062112 	101358.4507977343
-0.5968468468468471 	300.0325519545155 	0.09417518141434697 	101363.4874822181
-0.5943443443443446 	300.0363589832019 	0.1051152617600122 	101367.9894719093
-0.591841841841842 	300.0394836700688 	0.1140752371339345 	101371.6847068652
-0.5893393393393397 	300.0416962070175 	0.1204056773906048 	101374.3013434476
-0.5868368368368371 	300.0428127821078 	0.1235884333958821 	101375.6219095666
-0.5843343343343346 	300.0427331757567 	0.123342733839621 	101375.5277626727
-0.5818318318318321 	300.0414624983705 	0.1196878785599965 	101374.025201479
-0.5793293293293297 	300.0391155913981 	0.1129523272645834 	101371.2499301482
-0.5768268268268271 	300.035900372277 	0.1037276960854159 	101367.4478109012
-0.5743243243243245 	300.0320858065898 	0.09277839677367068 	101362.9370207359
-0.5718218218218221 	300.0279615850348 	0.08092760983478588 	101358.0601914595
-0.5693193193193196 	300.0237975095743 	0.06894381701817925 	101353.1363848827
-0.5668168168168171 	300.0198119371018 	0.05745393858480167 	101348.4237932938
-0.5643143143143147 	300.0161578537288 	0.04690265249582153 	101344.1032839542
-0.5618118118118121 	300.0129255985657 	0.03755577829396683 	101340.2816352521
-0.5593093093093094 	300.010153216082 	0.02952800780555218 	101337.0037905989
-0.5568068068068072 	300.0078389636169 	0.02281844976446966 	101334.267654898
-0.5543043043043046 	300.0059536400398 	0.01734602906955292 	101332.0386756504
-0.551801801801802 	300.0044514464835 	0.01298082136122127 	101330.2626851294
-0.5492992992992995 	300.0032787295099 	0.009569385623688101 	101328.8762361964
-0.5467967967967969 	300.0023804425923 	0.006953572241729888 	101327.8142407308
-0.5442942942942947 	300.0017044895982 	0.004983232077676812 	101327.0151025856
-0.5417917917917919 	300.0012042893727 	0.003523783061385151 	101326.4237484047
-0.5392892892892895 	300.0008399704859 	0.002459796707845688 	101325.9930388713
-0.536786786786787 	300.0005785949003 	0.001695751557172412 	101325.6840325853
-0.5342842842842846 	300.0003937577802 	0.001154954925961055 	101325.4655126095
-0.531781781781782 	300.0002648389699 	0.0007774314623904786 	101325.3131009925
-0.5292792792792794 	300.0001761068317 	0.0005173648958820847 	101325.2081992101
-0.526776776776777 	300.0001158098862 	0.0003404892191506499 	101325.1369143429
-0.5242742742742745 	300.0000753382556 	0.0002216697292521411 	101325.0890674394
-0.521771771771772 	300.0000484956606 	0.0001427983992357699 	101325.0573332094
-0.5192692692692695 	300.0000308970068 	9.104672566280745e-05 	101325.0365275771
-0.516766766766767 	300.0000194877873 	5.746895304717512e-05 	101325.023039151
-0.5142642642642645 	300.0000121712544 	3.591931021717299e-05 	101325.0143893412
-0.511761761761762 	300.0000075288577 	2.223521789564817e-05 	101325.0089009573
-0.5092592592592596 	300.0000046135378 	1.363517978766058e-05 	101325.0054543317
-0.506756756756757 	300.0000028010667 	8.284579004496994e-06 	101325.0033116056
-0.5042542542542544 	300.0000016853914 	4.988252557582569e-06 	101325.0019925398
-0.5017517517517521 	300.0000010051553 	2.976952608279911e-06 	101325.0011882885
-0.4992492492492494 	300.0000005942638 	1.761208857184027e-06 	101325.000702514
-0.496746746746747 	300.0000003483021 	1.033088897369623e-06 	101325.0004117885
-0.4942442442442445 	300.0000002024007 	6.00915594034339e-07 	101325.000239356
-0.4917417417417421 	300.0000001166538 	3.466650551737428e-07 	101325.0001379832
-0.4892392392392395 	300.000000066698 	1.983697983992308e-07 	101325.0000788999
-0.486736736736737 	300.0000000378215 	1.126144713863898e-07 	101325.0000447556
-0.4842342342342345 	300.0000000212278 	6.342810000767883e-08 	101325.0000251874
-0.481731731731732 	300.0000000119418 	3.545564965239568e-08 	101325.0000140641
-0.4792292292292296 	300.0000000066227 	1.966562441345308e-08 	101325.0000077921
-0.4767267267267268 	300.0000000035781 	1.083245175513779e-08 	101325.0000042833
-0.4742242242242246 	300.0000000019741 	5.918029473294307e-09 	101325.0000023354
-0.471721721721722 	300.0000000010235 	3.216221510190291e-09 	101325.0000012622
-0.4692192192192195 	300.00000000055 	1.731258053660051e-09 	101325.0000006755
-0.4667167167167169 	300.0000000002103 	9.303195042345733e-10 	101325.0000003568
-0.4642142142142145 	300.0000000001594 	4.935083157580568e-10 	101325.0000001849
-0.461711711711712 	300.0000000001036 	2.642285621944203e-10 	101325.0000000929
-0.4592092092092094 	300.0000000000534 	1.383322661267068e-10 	101325.0000000442
-0.456706706706707 	300.000000000077 	7.575503035269075e-11 	101325.0000000186
-0.4542042042042045 	299.9999999999457 	3.990556261367456e-11 	101325.0000000052
-0.451701701701702 	299.999999999955 	2.37224674908538e-11 	101324.9999999983
-0.4491991991991995 	299.9999999999535 	1.268225346418895e-11 	101324.9999999946
-0.4466966966966969 	299.9999999999474 	1.039234596399856e-11 	101324.9999999928
-0.4441941941941945 	299.9999999999931 	5.088800756533499e-12 	101324.9999999921
-0.441691691691692 	299.9999999999511 	6.881359636086991e-12 	101324.9999999917
-0.4391891891891895 	299.9999999999886 	1.80724414312929e-12 	101324.9999999913
-0.436686686686687 	299.9999999999688 	6.285393426387533e-12 	101324.999999991
-0.4341841841841846 	299.999999999997 	2.425297411573668e-12 	101324.9999999906
-0.431681681681682 	299.9999999999391 	4.407177654229388e-12 	101324.9999999906
-0.4291791791791794 	299.9999999999211 	2.105529349247788e-12 	101324.9999999908
-0.426676676676677 	299.9999999998959 	2.959349504289703e-12 	101324.9999999907
-0.4241741741741744 	299.9999999999632 	1.785714156366405e-12 	101324.9999999906
-0.421671671671672 	300.0000000000045 	2.983796392196504e-12 	101324.9999999904
-0.4191691691691694 	300.0000000000589 	1.002677608884737e-12 	101324.9999999905
-0.4166666666666669 	300.0000000000691 	3.611199684672434e-12 	101324.9999999905
-0.4141641641641645 	299.9999999999312 	2.507186013573511e-12 	101324.9999999905
-0.411661661661662 	300.0000000000059 	3.692489622661802e-12 	101324.9999999905
-0.4091591591591594 	300.0000000000001 	2.61922596902773e-12 	101324.9999999905
-0.406656656656657 	299.9999999999318 	3.558804202747231e-12 	101324.9999999904
-0.4041541541541545 	300.0000000000153 	1.270112059464952e-12 	101324.9999999903
-0.401651651651652 	299.9999999999141 	4.028014912066543e-12 	101324.9999999903
-0.3991491491491494 	299.9999999999949 	1.418497381698804e-12 	101324.9999999904
-0.396646646646647 	299.9999999999518 	4.495387663095489e-12 	101324.9999999905
-0.3941441441441444 	299.9999999999839 	2.203619362306599e-12 	101324.9999999907
-0.3916416416416419 	299.9999999999278 	4.36243468080914e-12 	101324.9999999909
-0.3891391391391395 	299.9999999999502 	1.335519584708625e-12 	101324.9999999912
-0.3866366366366368 	299.9999999999536 	3.270258734321745e-12 	101324.9999999912
-0.3841341341341344 	299.9999999999958 	1.259049443807498e-12 	101324.9999999913
-0.381631631631632 	299.9999999999447 	2.072631348639301e-12 	101324.9999999915
-0.3791291291291294 	300.0000000000022 	1.339900465739954e-12 	101324.9999999916
-0.3766266266266269 	300.0000000000242 	9.256771774599789e-13 	101324.9999999914
-0.3741241241241244 	300.0000000000263 	1.63982269636252e-12 	101324.9999999914
-0.371621621621622 	300.0000000000176 	1.324544689855644e-12 	101324.9999999912
-0.3691191191191194 	300.0000000000156 	2.284173346608192e-12 	101324.9999999911
-0.366616616616617 	300.0000000000147 	1.211564020723319e-12 	101324.9999999909
-0.3641141141141143 	299.9999999999604 	3.3607213482561e-12 	101324.9999999908
-0.3616116116116119 	299.9999999999434 	1.154933346591962e-12 	101324.9999999907
-0.3591091091091095 	299.9999999999835 	2.008402458470339e-12 	101324.9999999907
-0.356606606606607 	299.9999999999685 	1.325900703080637e-12 	101324.9999999907
-0.3541041041041044 	299.9999999999896 	1.147811843894976e-12 	101324.9999999907
-0.3516016016016019 	300.0000000000106 	2.351644251441267e-12 	101324.9999999908
-0.3490990990990994 	299.9999999999927 	7.250735547254689e-13 	101324.9999999911
-0.346596596596597 	300.0000000000447 	2.714306723922977e-12 	101324.9999999914
-0.3440940940940944 	300.0000000000535 	1.083072088863672e-12 	101324.9999999916
-0.3415915915915919 	300.0000000000219 	2.247186743601884e-12 	101324.9999999918
-0.3390890890890895 	299.9999999999751 	9.089544685729472e-13 	101324.9999999917
-0.3365865865865869 	300.0000000000183 	1.450589032081431e-12 	101324.9999999914
-0.3340840840840844 	300.0000000000007 	3.616053290759955e-13 	101324.9999999912
-0.3315815815815819 	300.0000000000236 	1.305738097738887e-12 	101324.9999999911
-0.3290790790790794 	300.000000000026 	7.650879352394766e-13 	101324.9999999909
-0.3265765765765769 	299.999999999923 	2.020079293931627e-12 	101324.9999999907
-0.3240740740740744 	299.9999999999943 	7.356051146105119e-13 	101324.9999999906
-0.3215715715715718 	300.0000000000074 	2.230338249746577e-12 	101324.9999999905
-0.3190690690690695 	299.9999999999258 	1.209648727294308e-12 	101324.9999999906
-0.3165665665665668 	299.9999999999907 	2.4760296323721e-12 	101324.9999999907
-0.3140640640640644 	300.0000000000037 	1.310325734950793e-12 	101324.9999999906
-0.311561561561562 	299.9999999999217 	3.82771143968785e-12 	101324.9999999906
-0.3090590590590593 	299.9999999999922 	1.887910680361329e-12 	101324.9999999909
-0.3065565565565568 	300.0000000000028 	5.985762968498439e-12 	101324.9999999912
-0.3040540540540545 	300.0000000000048 	1.260954947802826e-12 	101324.9999999911
-0.3015515515515518 	300.0000000000392 	6.326869412878573e-12 	101324.999999991
-0.2990490490490494 	299.999999999946 	2.515997669845466e-12 	101324.9999999911
-0.2965465465465469 	299.9999999999858 	4.937750756337745e-12 	101324.9999999909
-0.2940440440440444 	299.999999999994 	3.5738411147647e-12 	101324.9999999909
-0.2915415415415418 	300.0000000000049 	4.411913289102035e-12 	101324.9999999909
-0.2890390390390395 	300.0000000000072 	4.27305575479416e-12 	101324.999999991
-0.2865365365365368 	299.9999999999813 	2.445699094834715e-12 	101324.999999991
-0.2840340340340343 	300.0000000000009 	3.698288657831228e-12 	101324.9999999912
-0.2815315315315318 	299.9999999999208 	8.892457135925814e-13 	101324.9999999911
-0.2790290290290295 	299.9999999999582 	2.405942412665512e-12 	101324.999999991
-0.2765265265265269 	300.0000000000063 	8.857607117839021e-13 	101324.9999999908
-0.2740240240240244 	300.0000000000292 	2.253654749438007e-12 	101324.9999999905
-0.2715215215215219 	300.0000000000135 	2.474128477017736e-12 	101324.9999999903
-0.2690190190190194 	299.9999999999421 	2.655569360688905e-12 	101324.9999999904
-0.2665165165165169 	299.9999999999997 	3.240174361678457e-12 	101324.9999999907
-0.2640140140140144 	299.9999999999666 	2.170197257458724e-12 	101324.9999999909
-0.2615115115115119 	300.0000000000006 	4.172968576631084e-12 	101324.9999999909
-0.2590090090090094 	299.9999999999272 	2.35110551975827e-12 	101324.999999991
-0.2565065065065068 	299.9999999999936 	3.212876018816253e-12 	101324.999999991
-0.2540040040040044 	299.9999999999967 	3.633854550863371e-12 	101324.9999999908
-0.2515015015015019 	300.0000000000408 	3.114882945773233e-12 	101324.9999999907
-0.2489989989989994 	300.0000000000473 	5.249409948447667e-12 	101324.9999999908
-0.2464964964964968 	299.9999999999914 	2.319043698563232e-12 	101324.9999999909
-0.2439939939939944 	299.9999999999945 	6.24734591605265e-12 	101324.999999991
-0.2414914914914919 	299.9999999999616 	1.670434173279187e-12 	101324.9999999911
-0.2389889889889893 	300.0000000000039 	6.383018958559469e-12 	101324.9999999911
-0.2364864864864869 	300.0000000000263 	2.520939262041738e-12 	101324.9999999912
-0.2339839839839843 	299.9999999999241 	7.001850050796746e-12 	101324.9999999913
-0.2314814814814819 	299.999999999983 	2.882689867904789e-12 	101324.9999999911
-0.2289789789789792 	299.9999999999136 	6.792807080534489e-12 	101324.9999999911
-0.2264764764764769 	299.9999999999463 	3.826614161432977e-12 	101324.9999999911
-0.2239739739739743 	299.9999999999554 	5.271394237003535e-12 	101324.9999999911
-0.2214714714714718 	299.999999999937 	4.091048705314173e-12 	101324.9999999911
-0.2189689689689693 	299.9999999999673 	3.454696960740114e-12 	101324.9999999912
-0.2164664664664669 	299.9999999999821 	4.360392951538439e-12 	101324.9999999915
-0.2139639639639643 	299.9999999999268 	2.816419931152433e-12 	101324.9999999915
-0.2114614614614618 	299.999999999971 	3.97168235100273e-12 	101324.9999999916
-0.2089589589589593 	299.9999999999914 	4.146095323681174e-12 	101324.9999999916
-0.2064564564564568 	299.99999999999 	3.922464515660234e-12 	101324.9999999915
-0.2039539539539543 	299.9999999999029 	5.364244005194477e-12 	101324.9999999913
-0.2014514514514518 	299.9999999999421 	2.489315185260481e-12 	101324.9999999914
-0.1989489489489494 	299.9999999999698 	6.315831812969775e-12 	101324.9999999913
-0.1964464464464468 	299.9999999999922 	2.55206857562436e-12 	101324.9999999913
-0.1939439439439443 	299.9999999999903 	6.073016776478955e-12 	101324.9999999912
-0.1914414414414418 	299.9999999999139 	3.079047866772897e-12 	101324.9999999914
-0.1889389389389393 	300.0000000000063 	4.439973459566111e-12 	101324.9999999912
-0.1864364364364368 	300.0000000000438 	2.703352777809172e-12 	101324.9999999911
-0.1839339339339343 	299.999999999974 	4.0128197888712e-12 	101324.9999999909
-0.1814314314314318 	299.9999999999954 	2.986353872669875e-12 	101324.9999999911
-0.1789289289289293 	299.9999999998912 	4.769120791764864e-12 	101324.9999999911
-0.1764264264264268 	299.9999999999808 	2.839089076349153e-12 	101324.9999999911
-0.1739239239239243 	299.9999999998946 	6.111345860941903e-12 	101324.9999999911
-0.1714214214214218 	299.999999999986 	1.798345980835155e-12 	101324.9999999909
-0.1689189189189193 	299.9999999999486 	6.517996476503607e-12 	101324.9999999907
-0.1664164164164168 	300.0000000000058 	7.056727167850736e-13 	101324.9999999905
-0.1639139139139143 	299.9999999999811 	7.256570417515735e-12 	101324.9999999904
-0.1614114114114118 	300.0000000000275 	2.419712399483608e-12 	101324.9999999903
-0.1589089089089093 	299.999999999996 	8.853888553505845e-12 	101324.9999999904
-0.1564064064064068 	299.9999999999798 	3.997051073613092e-12 	101324.99999999
-0.1539039039039043 	299.999999999989 	9.072309570457627e-12 	101324.9999999901
-0.1514014014014018 	300.0000000000246 	3.760710742335892e-12 	101324.99999999
-0.1488988988988993 	299.9999999999787 	8.863613982357135e-12 	101324.9999999902
-0.1463963963963968 	299.9999999999961 	1.205936802677355e-12 	101324.9999999903
-0.1438938938938943 	299.9999999999511 	8.304074659404232e-12 	101324.9999999904
-0.1413913913913918 	299.9999999999204 	9.397545221935098e-13 	101324.9999999905
-0.1388888888888893 	299.9999999999787 	5.876468310231412e-12 	101324.9999999903
-0.1363863863863868 	299.9999999998846 	9.071039876993525e-13 	101324.9999999903
-0.1338838838838843 	299.9999999999093 	4.093991860921779e-12 	101324.9999999901
-0.1313813813813818 	299.9999999999928 	1.437758226510097e-12 	101324.9999999904
-0.1288788788788793 	299.9999999999566 	4.293208941930121e-12 	101324.9999999902
-0.1263763763763768 	299.9999999999656 	1.218833757036604e-12 	101324.9999999899
-0.1238738738738743 	299.9999999999239 	3.852496296077446e-12 	101324.9999999901
-0.1213713713713717 	299.9999999999804 	4.52804010880835e-13 	101324.99999999
-0.1188688688688693 	300.0000000000062 	4.386301485273636e-12 	101324.9999999902
-0.1163663663663668 	299.9999999998999 	5.055595223318904e-13 	101324.9999999903
-0.1138638638638643 	299.999999999991 	5.378769118263632e-12 	101324.9999999907
-0.1113613613613618 	299.9999999999856 	9.262380140601664e-13 	101324.9999999911
-0.1088588588588592 	299.9999999999778 	6.090786257819086e-12 	101324.9999999912
-0.1063563563563568 	299.9999999999507 	4.865796456167091e-13 	101324.9999999914
-0.1038538538538543 	299.9999999999719 	5.905246232018205e-12 	101324.9999999914
-0.1013513513513517 	300.0000000000165 	1.754968660823153e-12 	101324.9999999913
-0.09884884884884926 	299.9999999999382 	5.348565978014213e-12 	101324.9999999914
-0.09634634634634676 	299.9999999998842 	2.402246481486636e-12 	101324.9999999914
-0.09384384384384425 	299.9999999999285 	4.034903834463023e-12 	101324.9999999913
-0.09134134134134177 	300.0000000000254 	2.592440468469183e-12 	101324.9999999914
-0.08883883883883925 	300.0000000000092 	4.161138396119171e-12 	101324.9999999913
-0.08633633633633674 	299.9999999999523 	2.699991024994747e-12 	101324.9999999913
-0.08383383383383426 	300.0000000000094 	2.467820187750771e-12 	101324.9999999913
-0.08133133133133173 	299.999999999968 	2.25271211208764e-12 	101324.9999999913
-0.07882882882882926 	299.9999999998773 	1.382600786115843e-12 	101324.9999999914
-0.07632632632632676 	299.9999999999577 	7.876213488531491e-13 	101324.9999999913
-0.07382382382382424 	299.9999999998939 	5.069668606531409e-13 	101324.9999999912
-0.07132132132132173 	300.00000000001 	4.68953492276481e-14 	101324.999999991
-0.06881881881881925 	299.9999999999574 	5.10749155145893e-13 	101324.9999999909
-0.06631631631631671 	299.9999999998878 	1.343505236386145e-13 	101324.9999999909
-0.06381381381381425 	299.9999999999508 	3.45840951101925e-13 	101324.9999999908
-0.06131131131131173 	299.9999999999524 	8.428590562400279e-13 	101324.9999999908
-0.05880880880880923 	299.9999999999167 	1.3052336771206e-12 	101324.999999991
-0.05630630630630672 	299.9999999999619 	1.713363632975299e-12 	101324.9999999908
-0.05380380380380424 	300.0000000000157 	2.060462488408582e-12 	101324.9999999907
-0.05130130130130173 	300.0000000000116 	2.625826044906434e-12 	101324.9999999907
-0.04879879879879922 	299.9999999999432 	2.761699918771269e-12 	101324.9999999905
-0.04629629629629672 	299.9999999999302 	1.908574769640981e-12 	101324.9999999904
-0.04379379379379422 	299.9999999999133 	1.300384460360279e-12 	101324.9999999904
-0.04129129129129173 	299.9999999999745 	3.623194128980817e-13 	101324.9999999905
-0.03878878878878922 	299.9999999999782 	2.709902299324826e-13 	101324.9999999904
-0.03628628628628671 	299.9999999999766 	4.623261489322658e-13 	101324.9999999904
-0.03378378378378422 	299.9999999999224 	6.950242192156565e-13 	101324.9999999903
-0.03128128128128172 	299.9999999999649 	9.567005583544592e-13 	101324.9999999905
-0.02877877877877922 	299.9999999999657 	6.456088853477504e-13 	101324.9999999905
-0.0262762762762767 	299.9999999998921 	9.852648476018095e-13 	101324.9999999906
-0.02377377377377422 	300.000000000019 	1.071668821687811e-12 	101324.9999999906
-0.0212712712712717 	299.999999999896 	6.049591301831031e-13 	101324.9999999904
-0.01876876876876921 	299.9999999999685 	6.170868684964689e-13 	101324.9999999905
-0.01626626626626671 	300.0000000000119 	4.550583861688775e-13 	101324.9999999906
-0.0137637637637642 	299.9999999999601 	5.128502273116565e-13 	101324.9999999903
-0.0112612612612617 	300.0000000000157 	1.540501539545123e-12 	101324.9999999903
-0.008758758758759198 	299.9999999999967 	1.885243337240668e-12 	101324.9999999905
-0.006256256256256697 	299.9999999998788 	2.073567349790386e-12 	101324.9999999905
-0.003753753753754195 	299.9999999999516 	1.371568293408807e-12 	101324.9999999906
-0.001251251251251693 	299.9999999999204 	1.643228951862913e-12 	101324.9999999907
0.00125125125125081 	299.999999999953 	6.255195315437646e-13 	101324.9999999904
0.003753753753753312 	299.9999999999612 	9.213514052746934e-13 	101324.9999999902
0.006256256256255817 	299.9999999998826 	7.840599440686792e-13 	101324.9999999903
0.008758758758758317 	299.9999999999866 	1.963843851676924e-12 	101324.9999999904
0.01126126126126082 	300.0000000000088 	2.117358315911015e-12 	101324.9999999905
0.01376376376376332 	299.999999999966 	2.224288464430671e-12 	101324.9999999907
0.01626626626626582 	300.0000000000097 	1.934758552665548e-12 	101324.9999999907
0.01876876876876833 	299.9999999999553 	1.794526901445235e-12 	101324.9999999906
0.02127127127127083 	299.999999999967 	1.250060390429384e-12 	101324.9999999905
0.02377377377377332 	299.9999999999956 	8.283900721913968e-13 	101324.9999999907
0.02627627627627583 	299.9999999999025 	6.806752570867743e-13 	101324.9999999906
0.02877877877877833 	300.0000000000075 	1.937924735583698e-13 	101324.9999999907
0.03128128128128083 	299.9999999999432 	9.47365344220257e-13 	101324.9999999909
0.03378378378378333 	299.9999999998972 	6.712137453584444e-13 	101324.9999999906
0.03628628628628584 	299.9999999999644 	7.937995136688625e-13 	101324.9999999904
0.03878878878878834 	299.9999999999793 	5.47589340304125e-13 	101324.9999999906
0.04129129129129084 	299.9999999999742 	2.107435911400099e-13 	101324.9999999908
0.04379379379379333 	299.9999999999366 	2.716462693918749e-14 	101324.9999999908
0.04629629629629585 	299.999999999884 	3.385963731692043e-13 	101324.9999999905
0.04879879879879834 	299.9999999999542 	3.476191632631961e-13 	101324.9999999904
0.05130130130130085 	300.0000000000167 	8.198223525635207e-13 	101324.9999999902
0.05380380380380335 	300.0000000000219 	8.596595113094657e-13 	101324.9999999903
0.05630630630630584 	299.9999999999869 	8.974692260828203e-13 	101324.9999999904
0.05880880880880836 	299.9999999999177 	1.103076604116965e-12 	101324.9999999904
0.06131131131131085 	299.9999999999735 	1.089454190052756e-12 	101324.9999999905
0.06381381381381336 	299.9999999999608 	6.703879476644669e-13 	101324.9999999903
0.06631631631631586 	299.9999999998852 	2.907547666211148e-13 	101324.9999999901
0.06881881881881835 	299.9999999999455 	2.030661451368678e-13 	101324.99999999
0.07132132132132088 	299.9999999999883 	2.208928857164577e-13 	101324.9999999899
0.07382382382382337 	299.9999999998959 	5.591333069150676e-13 	101324.9999999896
0.07632632632632587 	299.9999999999692 	8.078259480031384e-13 	101324.9999999898
0.07882882882882837 	299.9999999999354 	6.861849570615308e-13 	101324.9999999897
0.08133133133133086 	299.9999999999852 	1.400294118223924e-12 	101324.9999999895
0.08383383383383337 	299.9999999999852 	1.179696272222987e-12 	101324.9999999898
0.08633633633633589 	299.9999999998997 	1.558291174008275e-12 	101324.9999999901
0.08883883883883838 	300.0000000000119 	2.412823087913024e-12 	101324.9999999902
0.09134134134134086 	299.9999999999861 	1.920122860511954e-12 	101324.9999999901
0.09384384384384339 	299.9999999998882 	2.369017230096074e-12 	101324.9999999903
0.09634634634634588 	299.999999999959 	2.294829463131802e-12 	101324.9999999903
0.09884884884884838 	299.999999999965 	2.537230796514795e-12 	101324.9999999904
0.1013513513513509 	300.0000000000238 	3.035562386464953e-12 	101324.9999999906
0.1038538538538534 	299.9999999999544 	3.630100691480217e-12 	101324.9999999908
0.1063563563563559 	300.0000000000182 	3.604466172023529e-12 	101324.9999999907
0.1088588588588584 	300.0000000000223 	2.61535647985217e-12 	101324.9999999906
0.1113613613613609 	299.9999999999167 	2.643127952458968e-12 	101324.9999999905
0.1138638638638634 	299.9999999999432 	2.248266550738177e-12 	101324.9999999903
0.1163663663663659 	299.9999999999409 	2.144607688747702e-12 	101324.99999999
0.1188688688688684 	299.999999999964 	2.283751173314425e-12 	101324.9999999899
0.1213713713713709 	299.9999999999933 	2.141193026691192e-12 	101324.9999999901
0.1238738738738734 	299.999999999917 	2.188657017038759e-12 	101324.9999999901
0.1263763763763759 	299.9999999999842 	2.502773722578487e-12 	101324.9999999899
0.1288788788788784 	299.9999999999867 	2.497460167280362e-12 	101324.9999999902
0.1313813813813809 	299.9999999999844 	3.118801058383075e-12 	101324.9999999901
0.1338838838838834 	299.9999999999724 	3.090023090243108e-12 	101324.9999999905
0.1363863863863859 	300.0000000000263 	3.197047249352709e-12 	101324.9999999905
0.1388888888888884 	300.0000000000505 	3.04688878716588e-12 	101324.9999999903
0.1413913913913909 	299.9999999999995 	2.290388739887154e-12 	101324.9999999908
0.1438938938938934 	299.9999999999883 	2.585530983843736e-12 	101324.9999999909
0.1463963963963959 	299.9999999999544 	1.624274907638737e-12 	101324.9999999909
0.1488988988988985 	299.9999999999047 	3.084223903052309e-12 	101324.9999999907
0.1514014014014009 	299.9999999999669 	1.267711755810601e-12 	101324.9999999907
0.1539039039039035 	299.9999999999619 	3.204754205720652e-12 	101324.9999999905
0.1564064064064059 	299.9999999999324 	1.125644041228036e-12 	101324.9999999909
0.1589089089089084 	299.9999999999784 	4.454087736406755e-12 	101324.9999999908
0.1614114114114109 	299.9999999999735 	2.129159693608104e-12 	101324.9999999904
0.1639139139139134 	299.9999999999085 	4.404394409822429e-12 	101324.9999999903
0.166416416416416 	300.0000000000009 	3.864967094411954e-12 	101324.9999999903
0.1689189189189185 	300.0000000000323 	3.857769295627411e-12 	101324.9999999901
0.1714214214214209 	299.9999999999936 	4.136095997936313e-12 	101324.9999999899
0.1739239239239235 	299.9999999999872 	1.935116337765243e-12 	101324.9999999901
0.1764264264264259 	299.9999999999619 	2.913722605337592e-12 	101324.9999999898
0.1789289289289284 	300.0000000000076 	2.143550012986341e-13 	101324.99999999
0.181431431431431 	299.9999999999627 	2.048844999156747e-12 	101324.9999999901
0.1839339339339334 	299.999999999968 	1.515150868356041e-13 	101324.9999999897
0.186436436436436 	299.9999999999217 	1.653567150087789e-12 	101324.9999999898
0.1889389389389385 	299.9999999999843 	2.112609379056483e-12 	101324.99999999
0.191441441441441 	299.999999999978 	1.890364733234234e-12 	101324.9999999903
0.1939439439439434 	299.9999999999114 	3.118730820195798e-12 	101324.9999999903
0.196446446446446 	299.9999999999446 	1.962262991757098e-12 	101324.9999999904
0.1989489489489485 	299.9999999999685 	4.220706430711401e-12 	101324.9999999905
0.2014514514514509 	299.999999999979 	1.665979478217816e-12 	101324.9999999901
0.2039539539539535 	299.9999999999894 	2.879217672323816e-12 	101324.9999999901
0.2064564564564559 	299.9999999999553 	1.645715238208537e-12 	101324.9999999899
0.2089589589589585 	299.999999999979 	1.873131835787858e-12 	101324.99999999
0.211461461461461 	299.9999999999317 	2.248079938043037e-12 	101324.9999999899
0.2139639639639635 	299.9999999999837 	1.751735902764287e-12 	101324.99999999
0.2164664664664659 	299.9999999999956 	2.795744511194018e-12 	101324.9999999902
0.2189689689689684 	299.9999999999949 	5.762487717558201e-13 	101324.9999999901
0.221471471471471 	299.9999999999927 	3.177597187574939e-12 	101324.9999999902
0.2239739739739735 	299.9999999999497 	1.125376205477243e-12 	101324.99999999
0.226476476476476 	299.9999999999783 	3.363551188202038e-12 	101324.9999999899
0.2289789789789785 	299.9999999999951 	2.711016337903765e-12 	101324.9999999897
0.231481481481481 	299.9999999999843 	2.952966846406823e-12 	101324.99999999
0.2339839839839835 	299.9999999999823 	3.558044824957628e-12 	101324.9999999901
0.236486486486486 	300.0000000000198 	2.818975125462199e-12 	101324.9999999899
0.2389889889889885 	300.0000000000002 	3.816821225444149e-12 	101324.9999999899
0.241491491491491 	299.9999999999152 	1.611093669585874e-12 	101324.9999999902
0.2439939939939935 	299.9999999999822 	4.47706663061075e-12 	101324.9999999902
0.246496496496496 	299.9999999999877 	2.477589180880921e-12 	101324.9999999904
0.2489989989989985 	300.0000000000332 	3.583938859692067e-12 	101324.9999999906
0.251501501501501 	300.0000000000268 	2.686794236145471e-12 	101324.9999999907
0.2540040040040035 	299.9999999999854 	2.555780317673837e-12 	101324.9999999907
0.256506506506506 	300.0000000000268 	2.415426041880384e-12 	101324.999999991
0.2590090090090086 	299.9999999999029 	8.600104428005545e-13 	101324.999999991
0.261511511511511 	299.9999999999976 	3.107120331739766e-12 	101324.9999999908
0.2640140140140135 	299.9999999999877 	8.889206503974263e-13 	101324.9999999904
0.2665165165165161 	299.9999999999259 	2.606007712677071e-12 	101324.9999999906
0.2690190190190185 	300.0000000000068 	1.878269532934848e-12 	101324.9999999905
0.271521521521521 	300.0000000000103 	1.975843622919491e-12 	101324.9999999904
0.2740240240240235 	300.0000000000151 	1.904820567664803e-12 	101324.9999999903
0.276526526526526 	300.0000000000057 	1.218431585289197e-12 	101324.9999999903
0.2790290290290286 	299.9999999999377 	1.871842574754901e-12 	101324.9999999906
0.281531531531531 	299.9999999999242 	4.090991984489578e-13 	101324.9999999907
0.2840340340340335 	299.9999999999819 	1.683380523532638e-12 	101324.999999991
0.2865365365365361 	299.9999999999552 	2.376319778400319e-13 	101324.9999999908
0.2890390390390385 	299.9999999999951 	9.066010696022515e-13 	101324.9999999905
0.291541541541541 	299.9999999999944 	8.040520740047479e-13 	101324.9999999903
0.2940440440440436 	299.9999999999873 	8.192400731776723e-13 	101324.99999999
0.296546546546546 	299.9999999999879 	9.934690008521998e-13 	101324.99999999
0.2990490490490486 	299.9999999999351 	2.338276855728091e-12 	101324.99999999
0.3015515515515511 	300.000000000038 	2.751613311283421e-12 	101324.99999999
0.3040540540540535 	299.9999999999938 	3.181616389462818e-12 	101324.9999999901
0.3065565565565562 	299.9999999999975 	3.83476650710522e-12 	101324.9999999902
0.3090590590590585 	299.9999999999881 	3.164580087469395e-12 	101324.99999999
0.3115615615615611 	299.9999999999331 	3.046668957685594e-12 	101324.9999999899
0.3140640640640635 	300.000000000001 	1.574281544577831e-12 	101324.9999999899
0.316566566566566 	299.9999999999877 	2.355929935346766e-12 	101324.9999999901
0.3190690690690687 	299.9999999999503 	1.272464284596073e-12 	101324.9999999902
0.3215715715715711 	300.0000000000123 	1.828904767615159e-12 	101324.99999999
0.3240740740740735 	299.9999999999957 	1.423375140859891e-12 	101324.9999999901
0.326576576576576 	299.9999999998992 	1.344530094209367e-12 	101324.9999999902
0.3290790790790786 	300.0000000000046 	2.120492333367164e-13 	101324.9999999903
0.3315815815815811 	300.0000000000369 	1.222862836393107e-12 	101324.9999999905
0.3340840840840836 	299.9999999999837 	1.778378069087135e-13 	101324.9999999903
0.3365865865865861 	300.0000000000568 	9.419706184124057e-13 	101324.9999999903
0.3390890890890886 	300.00000000005 	8.556424807135225e-13 	101324.9999999902
0.3415915915915911 	300.0000000000041 	9.697791645642474e-13 	101324.99999999
0.3440940940940935 	299.9999999999463 	1.216824694032668e-12 	101324.9999999898
0.3465965965965962 	300.0000000000354 	1.171368252668304e-12 	101324.9999999897
0.3490990990990985 	300.0000000000266 	5.179732105892233e-13 	101324.9999999897
0.3516016016016011 	299.9999999999817 	3.115768987410774e-13 	101324.9999999898
0.3541041041041035 	300.0000000000037 	3.482952434321547e-13 	101324.9999999897
0.3566066066066061 	299.9999999999529 	7.276991679768465e-13 	101324.9999999896
0.3591091091091085 	299.9999999999173 	9.220931549428951e-13 	101324.9999999895
0.3616116116116112 	299.9999999999357 	1.565940615999566e-12 	101324.9999999897
0.3641141141141137 	299.9999999999294 	1.551014727113646e-12 	101324.9999999898
0.3666166166166161 	299.9999999999205 	2.843920635617634e-12 	101324.99999999
0.3691191191191185 	300.0000000000385 	2.257478806315581e-12 	101324.9999999901
0.371621621621621 	300.0000000000141 	2.91011607797797e-12 	101324.9999999902
0.3741241241241237 	300.0000000000513 	1.615713420149613e-12 	101324.9999999903
0.3766266266266261 	300.0000000000263 	2.132405838629749e-12 	101324.9999999904
0.3791291291291286 	299.9999999999788 	1.56176527929999e-12 	101324.9999999906
0.3816316316316311 	299.999999999916 	1.371787666736455e-12 	101324.9999999905
0.3841341341341336 	300.0000000000105 	1.625642041389881e-12 	101324.9999999905
0.3866366366366362 	299.9999999999961 	9.207033579253689e-13 	101324.9999999906
0.3891391391391387 	299.9999999999527 	1.314489699464319e-12 	101324.9999999904
0.391641641641641 	299.9999999999978 	5.868162212097779e-13 	101324.9999999902
0.3941441441441436 	300.000000000004 	5.896934841469367e-13 	101324.9999999901
0.3966466466466462 	299.9999999999962 	1.2456083336264e-12 	101324.9999999899
0.3991491491491486 	299.9999999999472 	4.104001693565957e-13 	101324.99999999
0.4016516516516512 	299.999999999915 	1.343112808527506e-12 	101324.9999999899
0.4041541541541536 	299.9999999999439 	7.271069547573631e-13 	101324.99999999
0.4066566566566561 	299.9999999999471 	1.391631030978403e-12 	101324.9999999902
0.4091591591591587 	299.9999999999911 	4.941574624213572e-13 	101324.9999999902
0.4116616616616612 	300.0000000000017 	1.325115854560253e-12 	101324.9999999901
0.4141641641641635 	300.0000000000438 	3.94700642260241e-13 	101324.99999999
0.4166666666666662 	299.9999999999926 	3.646294736325748e-13 	101324.9999999899
0.4191691691691687 	299.9999999999368 	1.145169475309785e-12 	101324.9999999899
0.421671671671671 	300.0000000000131 	1.732746090244981e-12 	101324.9999999902
0.4241741741741737 	299.9999999999794 	2.828724957404387e-12 	101324.9999999906
0.4266766766766761 	299.9999999999545 	2.585069366804952e-12 	101324.9999999908
0.4291791791791785 	300.0000000000205 	3.501887192805697e-12 	101324.9999999909
0.4316816816816812 	300.0000000000134 	2.473103688186915e-12 	101324.9999999908
0.4341841841841836 	299.9999999999865 	3.776217950668149e-12 	101324.9999999906
0.4366866866866862 	299.9999999999126 	1.716702532480322e-12 	101324.9999999905
0.4391891891891885 	299.9999999999841 	2.167284941796749e-12 	101324.9999999903
0.4416916916916913 	299.9999999999823 	1.583590738321851e-12 	101324.9999999903
0.4441941941941936 	299.9999999999858 	1.295803807376121e-12 	101324.99999999
0.4466966966966961 	299.9999999999177 	1.011300789113739e-12 	101324.9999999898
0.4491991991991987 	299.9999999999796 	1.410107101928779e-13 	101324.9999999896
0.4517017017017012 	299.9999999999783 	3.054839242306456e-13 	101324.9999999898
0.4542042042042035 	299.9999999999795 	3.164954967397885e-13 	101324.9999999896
0.4567067067067062 	299.9999999999966 	4.564212847294797e-14 	101324.9999999896
0.4592092092092087 	299.9999999999263 	2.645559447722268e-13 	101324.9999999896
0.4617117117117112 	300.0000000000184 	5.977781203934165e-13 	101324.9999999896
0.4642142142142137 	299.9999999999612 	8.32448568899198e-13 	101324.9999999896
0.4667167167167162 	299.9999999999913 	8.630273059010706e-13 	101324.9999999895
0.4692192192192187 	299.9999999999579 	2.637323489954691e-13 	101324.9999999894
0.4717217217217212 	300.0000000000127 	3.702191019523707e-13 	101324.9999999894
0.4742242242242236 	299.9999999999534 	7.309926441854548e-13 	101324.9999999897
0.4767267267267262 	299.9999999999762 	7.103359924297024e-13 	101324.9999999898
0.4792292292292287 	300.0000000000139 	9.538684929024105e-13 	101324.9999999899
0.4817317317317312 	300.0000000000282 	1.133510329943124e-12 	101324.9999999901
0.4842342342342336 	299.999999999976 	1.014863404979542e-12 	101324.9999999901
0.4867367367367362 	299.9999999999521 	1.45154223660487e-12 	101324.99999999
0.4892392392392387 	300.0000000000249 	9.114055898482871e-13 	101324.99999999
0.4917417417417412 	300.0000000000042 	2.432397123863742e-12 	101324.99999999
0.4942442442442437 	299.999999999908 	1.072736803147548e-12 	101324.9999999902
0.4967467467467462 	299.9999999999263 	2.035898988326432e-12 	101324.99999999
0.4992492492492487 	299.9999999999188 	8.026976068693485e-13 	101324.9999999899
0.5017517517517511 	299.9999999999517 	5.869403631313378e-13 	101324.9999999898
0.5042542542542537 	299.9999999999629 	4.001884812276825e-13 	101324.9999999899
0.5067567567567562 	299.9999999999477 	1.001361183394237e-12 	101324.99999999
0.5092592592592589 	299.9999999999736 	1.455099024406544e-12 	101324.9999999901
0.5117617617617611 	299.9999999999583 	7.943130413394147e-13 	101324.9999999899
0.5142642642642637 	299.9999999999856 	1.975509450189925e-12 	101324.99999999
0.5167667667667663 	299.999999999971 	2.094515982130513e-12 	101324.9999999899
0.5192692692692688 	299.9999999999196 	2.948135681977748e-12 	101324.99999999
0.5217717717717714 	299.9999999999353 	3.689426898897701e-12 	101324.9999999901
0.5242742742742736 	299.9999999999409 	2.485193184948036e-12 	101324.9999999902
0.5267767767767763 	299.9999999999641 	2.89845144074005e-12 	101324.9999999903
0.5292792792792789 	299.9999999999471 	1.948176795505811e-12 	101324.9999999904
0.5317817817817813 	299.999999999912 	2.426314614487063e-12 	101324.9999999905
0.5342842842842837 	300.0000000000189 	1.096895275495387e-12 	101324.9999999906
0.5367867867867864 	300.000000000004 	1.727028072222597e-12 	101324.9999999904
0.5392892892892888 	299.9999999999591 	6.939101823629551e-13 	101324.9999999902
0.5417917917917912 	300.0000000000037 	1.810904610144689e-12 	101324.9999999903
0.5442942942942938 	299.9999999999805 	5.757771935094017e-13 	101324.9999999904
0.5467967967967964 	299.9999999999442 	1.566276944075321e-12 	101324.9999999905
0.5492992992992988 	299.9999999999389 	7.307429461755436e-13 	101324.9999999907
0.5518018018018012 	299.9999999999383 	2.015184141944061e-12 	101324.9999999908
0.5543043043043039 	300.0000000000213 	1.24706093513072e-12 	101324.9999999909
0.5568068068068063 	299.9999999999922 	2.040967875602031e-12 	101324.9999999908
0.5593093093093087 	299.9999999999059 	9.282819611727726e-13 	101324.9999999907
0.5618118118118114 	299.9999999999628 	2.81679378871268e-12 	101324.9999999905
0.5643143143143137 	299.999999999947 	1.607728684085972e-12 	101324.9999999906
0.5668168168168163 	299.9999999999962 	2.030827911451806e-12 	101324.9999999905
0.5693193193193188 	300.0000000000289 	1.501167345112096e-12 	101324.9999999903
0.5718218218218213 	300.0000000000223 	9.306691277594632e-13 	101324.9999999901
0.5743243243243239 	300.0000000000054 	2.015859559806685e-12 	101324.9999999898
0.5768268268268262 	300.0000000000076 	1.85569111790863e-12 	101324.9999999898
0.5793293293293288 	299.999999999948 	2.888465811976868e-12 	101324.9999999898
0.5818318318318314 	299.9999999999203 	2.721610288951384e-12 	101324.9999999898
0.5843343343343338 	299.999999999979 	3.461041647164402e-12 	101324.99999999
0.5868368368368363 	299.9999999999748 	2.375049749663314e-12 	101324.9999999901
0.5893393393393387 	299.9999999999468 	3.068134805965758e-12 	101324.9999999903
0.5918418418418413 	299.9999999999389 	1.163518910408022e-12 	101324.9999999902
0.5943443443443439 	300.0000000000165 	3.344340413797171e-12 	101324.9999999903
0.5968468468468463 	300.0000000000169 	1.847840443367008e-12 	101324.9999999905
0.5993493493493487 	300.0000000000372 	3.346549365835788e-12 	101324.9999999906
0.6018518518518514 	299.9999999999823 	1.788636933609799e-12 	101324.9999999906
0.6043543543543537 	299.9999999999903 	2.862876340716226e-12 	101324.9999999907
0.6068568568568564 	299.9999999999797 	1.145950994961431e-12 	101324.9999999906
0.6093593593593587 	299.9999999999328 	1.806028925944229e-12 	101324.9999999907
0.6118618618618614 	299.9999999999239 	9.131837295588049e-13 	101324.9999999909
0.6143643643643638 	300.0000000000152 	2.090670889103772e-12 	101324.9999999909
0.6168668668668662 	299.9999999999816 	1.177502547298215e-12 	101324.9999999909
0.6193693693693688 	299.9999999999545 	2.247423227563457e-12 	101324.9999999909
0.6218718718718714 	299.9999999999646 	1.261544563989254e-12 	101324.9999999909
0.6243743743743737 	299.9999999999377 	3.402806493035744e-12 	101324.9999999908
0.6268768768768762 	299.9999999999279 	2.277271583394623e-12 	101324.9999999908
0.629379379379379 	299.9999999999519 	2.979204997513568e-12 	101324.999999991
0.6318818818818812 	299.9999999999772 	2.826435607795882e-12 	101324.9999999911
0.6343843843843838 	300.0000000000177 	3.045030126972766e-12 	101324.9999999912
0.6368868868868864 	299.9999999999816 	3.666327801218995e-12 	101324.9999999911
0.6393893893893888 	299.9999999999252 	2.482919087641607e-12 	101324.999999991
0.6418918918918912 	300.0000000000084 	4.83758038444047e-12 	101324.9999999911
0.6443943943943939 	299.999999999982 	2.307722375424873e-12 	101324.9999999912
0.6468968968968963 	299.9999999999828 	5.669076034830194e-12 	101324.9999999913
0.6493993993993988 	299.9999999999753 	1.657404321759638e-12 	101324.9999999912
0.6519019019019012 	299.9999999999756 	4.295629370013357e-12 	101324.999999991
0.6544044044044038 	299.999999999902 	1.929253171475161e-12 	101324.9999999908
0.6569069069069065 	299.999999999953 	3.770694945965261e-12 	101324.9999999908
0.6594094094094087 	299.999999999961 	1.12965220040267e-12 	101324.9999999909
0.6619119119119113 	299.9999999999511 	3.139246086675765e-12 	101324.9999999909
0.664414414414414 	299.9999999999989 	1.219261981565087e-12 	101324.9999999911
0.6669169169169162 	300.0000000000178 	2.599137130260309e-12 	101324.9999999912
0.6694194194194188 	299.9999999999856 	9.479492779168006e-13 	101324.9999999912
0.6719219219219214 	299.9999999999224 	2.236796435042347e-12 	101324.9999999912
0.674424424424424 	299.9999999999703 	1.602492177574938e-12 	101324.9999999909
0.6769269269269262 	299.9999999999206 	2.730906704494614e-12 	101324.9999999909
0.679429429429429 	300.000000000002 	2.042777149555341e-12 	101324.9999999907
0.6819319319319311 	299.999999999977 	2.376668527476112e-12 	101324.9999999907
0.6844344344344341 	299.9999999999937 	1.742096247065594e-12 	101324.9999999906
0.686936936936936 	299.9999999999896 	2.453116098634569e-12 	101324.9999999908
0.6894394394394392 	299.9999999999852 	1.749314177407088e-12 	101324.9999999908
0.6919419419419413 	299.9999999999845 	1.487192174215536e-12 	101324.9999999908
0.694444444444444 	299.9999999999357 	1.362386630278106e-12 	101324.9999999909
0.6969469469469463 	299.9999999999258 	1.291159467681081e-12 	101324.999999991
0.6994494494494489 	299.9999999999196 	1.888594555796033e-12 	101324.999999991
0.7019519519519515 	299.9999999999833 	9.22035714065376e-13 	101324.9999999911
0.7044544544544538 	299.9999999999562 	2.263222336162943e-12 	101324.9999999908
0.7069569569569564 	299.9999999999924 	1.840873799186992e-12 	101324.9999999906
0.7094594594594589 	299.9999999999646 	1.898973124148554e-12 	101324.9999999905
0.7119619619619615 	299.9999999999119 	1.464078804496665e-12 	101324.9999999904
0.7144644644644638 	299.9999999999481 	1.351381656678476e-12 	101324.9999999904
0.7169669669669665 	299.9999999999163 	7.93716095284041e-13 	101324.9999999905
0.7194694694694688 	299.9999999999847 	5.706769401616199e-13 	101324.9999999906
0.7219719719719715 	299.9999999999845 	1.798816527595698e-13 	101324.9999999907
0.7244744744744737 	300.0000000000005 	5.07757027856337e-13 	101324.9999999908
0.7269769769769764 	299.999999999993 	1.119792977657475e-12 	101324.9999999908
0.7294794794794791 	299.9999999999851 	1.222070621278093e-12 	101324.9999999909
0.7319819819819813 	299.9999999999807 	1.146756409963773e-12 	101324.9999999909
0.7344844844844839 	299.9999999999232 	5.589785998983648e-13 	101324.9999999909
0.7369869869869864 	299.9999999999507 	9.324980722246677e-13 	101324.9999999911
0.739489489489489 	299.9999999999374 	8.233524224503855e-13 	101324.999999991
0.7419919919919914 	299.999999999927 	9.518611628460265e-13 	101324.9999999911
0.7444944944944939 	299.9999999999769 	2.011068571829067e-12 	101324.9999999911
0.7469969969969963 	299.9999999999694 	2.198500051984421e-12 	101324.9999999911
0.7494994994994989 	299.999999999945 	2.576062112982755e-12 	101324.9999999909
0.7520020020020015 	299.9999999999701 	2.25022727385578e-12 	101324.9999999909
0.7545045045045039 	299.9999999999686 	2.085440793280904e-12 	101324.999999991
0.7570070070070062 	299.9999999999415 	1.808210881003531e-12 	101324.9999999911
0.7595095095095092 	299.9999999999274 	4.199875410572498e-13 	101324.9999999911
0.7620120120120112 	300.0000000000026 	8.215483329209726e-13 	101324.999999991
0.7645145145145138 	299.9999999999852 	9.010924141821346e-13 	101324.9999999908
0.7670170170170165 	299.9999999999302 	8.991537487547216e-13 	101324.9999999907
0.7695195195195191 	299.999999999921 	2.083081334905895e-12 	101324.9999999907
0.7720220220220213 	299.999999999932 	1.374167940063732e-12 	101324.9999999908
0.7745245245245239 	299.9999999999326 	1.385919445377129e-12 	101324.999999991
0.7770270270270263 	299.9999999999735 	1.552384255684376e-12 	101324.9999999911
0.779529529529529 	299.9999999999778 	9.091109004332273e-13 	101324.9999999911
0.7820320320320313 	299.9999999999713 	1.474883197945971e-12 	101324.9999999912
0.784534534534534 	299.9999999999964 	1.255313593997064e-12 	101324.9999999915
0.7870370370370364 	299.9999999999908 	1.167311938518952e-12 	101324.9999999916
0.7895395395395389 	299.9999999999778 	2.168442871242968e-12 	101324.9999999915
0.7920420420420413 	299.9999999999706 	1.475215419302608e-12 	101324.9999999915
0.794544544544544 	299.9999999999735 	3.21438317943533e-12 	101324.9999999914
0.7970470470470463 	300.0000000000006 	1.98258303802989e-12 	101324.9999999912
0.799549549549549 	299.9999999999828 	3.099783396960627e-12 	101324.9999999911
0.8020520520520515 	299.9999999999902 	1.041819345251432e-12 	101324.999999991
0.8045545545545539 	299.9999999999476 	2.146897667794691e-12 	101324.9999999909
0.8070570570570563 	299.9999999999775 	1.13926819346311e-12 	101324.9999999908
0.8095595595595589 	299.9999999999546 	1.569113464856473e-12 	101324.9999999909
0.8120620620620614 	299.9999999999373 	1.381172157908952e-12 	101324.9999999908
0.8145645645645638 	299.9999999999991 	9.72348877253058e-13 	101324.9999999906
0.8170670670670666 	299.9999999999899 	2.028816994794174e-12 	101324.9999999905
0.8195695695695689 	299.999999999971 	1.936064973985078e-12 	101324.9999999906
0.8220720720720714 	299.9999999999428 	2.034803202160949e-12 	101324.9999999906
0.8245745745745739 	299.999999999997 	1.329285739228134e-12 	101324.9999999905
0.8270770770770765 	299.9999999999761 	1.317294873195866e-12 	101324.9999999906
0.8295795795795788 	299.9999999999536 	1.235773583142211e-12 	101324.9999999907
0.8320820820820815 	300.0000000000155 	7.299692984089317e-13 	101324.9999999905
0.834584584584584 	300.0000000000055 	1.734853211507376e-12 	101324.9999999905
0.8370870870870865 	299.9999999999727 	1.991849202374366e-12 	101324.9999999906
0.8395895895895891 	299.9999999999269 	1.960078783232318e-12 	101324.9999999906
0.8420920920920915 	299.9999999999383 	2.297792128003228e-12 	101324.9999999906
0.844594594594594 	299.9999999999337 	2.255201351277631e-12 	101324.9999999907
0.8470970970970964 	299.999999999943 	1.569473047812539e-12 	101324.9999999907
0.8495995995995991 	299.9999999999791 	1.411027189033973e-12 	101324.9999999906
0.8521021021021015 	299.9999999999747 	9.440375355604635e-13 	101324.9999999906
0.8546046046046039 	299.9999999999779 	2.108624685143143e-12 	101324.9999999905
0.8571071071071066 	299.9999999999942 	2.159273728167876e-12 	101324.9999999906
0.8596096096096089 	299.9999999999517 	2.329897702590881e-12 	101324.9999999906
0.8621121121121116 	299.9999999999259 	1.770606783308522e-12 	101324.9999999905
0.8646146146146139 	299.9999999999858 	9.921934292434226e-13 	101324.9999999905
0.8671171171171166 	299.9999999999693 	6.941865681562658e-13 	101324.9999999905
0.8696196196196189 	299.9999999999488 	4.310259774188524e-13 	101324.9999999907
0.8721221221221216 	299.9999999999771 	2.798512679905043e-13 	101324.9999999909
0.874624624624624 	299.9999999999993 	8.679032285077551e-13 	101324.9999999909
0.8771271271271264 	300.0000000000036 	1.700001628787848e-12 	101324.9999999909
0.879629629629629 	300.0000000000108 	1.742574088212044e-12 	101324.9999999908
0.8821321321321317 	299.9999999999827 	2.616789167049451e-12 	101324.9999999907
0.8846346346346339 	299.9999999999204 	1.451469571335414e-12 	101324.9999999905
0.8871371371371364 	299.9999999999593 	1.926644882652529e-12 	101324.9999999904
0.8896396396396391 	299.9999999999645 	1.110268534041806e-12 	101324.9999999903
0.8921421421421414 	299.9999999999678 	9.310286612610827e-13 	101324.9999999905
0.8946446446446441 	299.9999999999839 	8.424023792922324e-13 	101324.9999999906
0.8971471471471464 	300.0000000000032 	1.804259679808267e-12 	101324.9999999907
0.8996496496496489 	299.9999999999735 	1.992767420316737e-12 	101324.9999999908
0.9021521521521517 	299.9999999999627 	1.682605777307465e-12 	101324.9999999907
0.9046546546546541 	299.9999999999889 	2.293503271970783e-12 	101324.9999999906
0.9071571571571564 	299.9999999999484 	2.130697083807631e-12 	101324.9999999905
0.9096596596596589 	299.9999999999476 	1.608653762990528e-12 	101324.9999999905
0.9121621621621616 	300.0000000000061 	1.461533503685318e-12 	101324.9999999905
0.9146646646646639 	299.9999999999814 	1.344576271590198e-12 	101324.9999999904
0.9171671671671666 	299.9999999999504 	2.143808225476047e-12 	101324.9999999905
0.9196696696696689 	300.0000000000013 	2.088805567006324e-12 	101324.9999999907
0.9221721721721714 	300.0000000000046 	3.050603256630844e-12 	101324.9999999909
0.9246746746746741 	299.9999999999466 	1.564741505610597e-12 	101324.999999991
0.9271771771771765 	299.999999999946 	2.407285244618737e-12 	101324.9999999909
0.9296796796796791 	299.9999999999878 	8.139052440635852e-13 	101324.9999999907
0.9321821821821816 	299.9999999999629 	1.188136761892059e-12 	101324.9999999906
0.9346846846846838 	299.9999999999385 	5.678446347273288e-13 	101324.9999999906
0.9371871871871866 	299.9999999999987 	1.23543523187804e-12 	101324.9999999903
0.9396896896896891 	299.9999999999999 	1.67901468687545e-12 	101324.99999999
0.9421921921921914 	299.9999999999981 	2.016073461664732e-12 	101324.9999999898
0.9446946946946939 	299.9999999999586 	2.906131536997602e-12 	101324.9999999896
0.9471971971971965 	299.9999999999216 	1.83768826094197e-12 	101324.9999999895
0.9496996996996991 	299.9999999999624 	2.946024700857561e-12 	101324.9999999898
0.9522022022022016 	299.9999999999736 	1.892301127278808e-12 	101324.99999999
0.9547047047047038 	299.999999999967 	2.378773035923436e-12 	101324.9999999901
0.9572072072072064 	299.9999999999574 	1.401173016776308e-12 	101324.99999999
0.9597097097097093 	299.9999999999725 	1.628521726863218e-12 	101324.99999999
0.9622122122122114 	299.9999999999625 	1.697184069770519e-12 	101324.9999999899
0.964714714714714 	299.9999999999627 	1.442864619136223e-12 	101324.9999999898
0.9672172172172167 	299.9999999999636 	1.596166437572094e-12 	101324.9999999898
0.969719719719719 	299.9999999999873 	1.267469020788383e-12 	101324.9999999899
0.9722222222222214 	299.9999999999802 	1.100271041113075e-12 	101324.9999999899
0.9747247247247239 	299.9999999999712 	1.688315665203306e-12 	101324.9999999898
0.9772272272272267 	299.9999999999974 	1.814989732551388e-12 	101324.9999999898
0.9797297297297292 	299.9999999999885 	2.71283191798893e-12 	101324.9999999897
0.9822322322322313 	299.999999999993 	2.749321514190153e-12 	101324.9999999898
0.9847347347347344 	299.9999999999861 	3.090864316858132e-12 	101324.9999999898
0.9872372372372363 	299.9999999999525 	1.90699034036581e-12 	101324.9999999896
0.9897397397397389 	299.9999999999724 	2.270925217070008e-12 	101324.9999999895
0.9922422422422417 	299.9999999999469 	1.308409959407172e-12 	101324.9999999895
0.9947447447447441 	299.9999999999529 	2.330284992929034e-12 	101324.9999999894
0.9972472472472468 	299.9999999999662 	1.655426081033751e-12 	101324.9999999894
0.999749749749749 	299.9999999999634 	2.027015407964567e-12 	101324.9999999894
1.002252252252252 	299.9999999999804 	1.763957274187492e-12 	101324.9999999896
1.004754754754754 	299.999999999982 	1.695402910690555e-12 	101324.9999999898
1.007257257257256 	299.9999999999658 	2.596304814739901e-12 	101324.9999999899
1.009759759759759 	299.9999999999579 	1.818319217384381e-12 	101324.9999999901
1.012262262262261 	299.9999999999557 	2.869029530120536e-12 	101324.9999999901
1.014764764764764 	299.9999999999235 	2.169766489697363e-12 	101324.99999999
1.017267267267267 	299.9999999999156 	3.000089853570849e-12 	101324.9999999898
1.019769769769769 	299.9999999999685 	2.215005039230186e-12 	101324.9999999897
1.022272272272272 	299.9999999999744 	2.610795561947726e-12 	101324.9999999898
1.024774774774774 	299.9999999999603 	2.457054679110541e-12 	101324.9999999897
1.027277277277277 	299.9999999999616 	2.190421460602002e-12 	101324.9999999895
1.029779779779779 	299.9999999999998 	2.308518613800401e-12 	101324.9999999896
1.032282282282282 	299.9999999999994 	2.194714917501237e-12 	101324.9999999895
1.034784784784784 	299.9999999999897 	2.547858957420064e-12 	101324.9999999894
1.037287287287286 	299.9999999999632 	2.863122137377621e-12 	101324.9999999894
1.039789789789789 	299.9999999999747 	3.2078877309423e-12 	101324.9999999893
1.042292292292291 	300.000000000004 	4.09197167077694e-12 	101324.9999999894
1.044794794794794 	300.0000000000122 	4.525960786321778e-12 	101324.9999999895
1.047297297297296 	300.0000000000354 	5.031435334382366e-12 	101324.9999999897
1.049799799799799 	299.9999999999827 	3.891773168214735e-12 	101324.9999999897
1.052302302302302 	299.9999999999473 	4.885143631906479e-12 	101324.9999999897
1.054804804804804 	299.9999999999307 	3.385145313490691e-12 	101324.9999999899
1.057307307307306 	299.9999999999142 	3.561408318768774e-12 	101324.99999999
1.059809809809809 	299.9999999999524 	2.94584180804545e-12 	101324.9999999898
1.062312312312312 	299.9999999999479 	3.222113079275771e-12 	101324.9999999895
1.064814814814814 	299.9999999999418 	2.771958294144107e-12 	101324.9999999892
1.067317317317317 	299.9999999999147 	3.210213471026793e-12 	101324.999999989
1.069819819819819 	299.9999999999173 	3.214713071966567e-12 	101324.9999999889
1.072322322322321 	299.9999999999776 	2.298794835207705e-12 	101324.9999999889
1.074824824824824 	299.9999999999908 	3.272738012659337e-12 	101324.9999999889
1.077327327327327 	300.0000000000124 	2.739507233375691e-12 	101324.9999999888
1.079829829829829 	300.0000000000279 	3.662898094557082e-12 	101324.9999999888
1.082332332332332 	300.0000000000006 	3.84645544034163e-12 	101324.9999999888
1.084834834834834 	299.999999999977 	4.184806422549083e-12 	101324.9999999888
1.087337337337337 	299.9999999999377 	4.307338699289554e-12 	101324.9999999888
1.089839839839839 	299.9999999999294 	3.254932740728457e-12 	101324.9999999887
1.092342342342342 	299.9999999999641 	4.091127550817827e-12 	101324.9999999888
1.094844844844844 	299.9999999999745 	3.313085697367639e-12 	101324.9999999887
1.097347347347347 	299.9999999999451 	4.573032606795161e-12 	101324.9999999886
1.099849849849849 	299.9999999999366 	2.863973434980184e-12 	101324.9999999886
1.102352352352352 	299.999999999952 	3.328737593185537e-12 	101324.9999999886
1.104854854854854 	299.9999999999669 	2.12047552150453e-12 	101324.9999999887
1.107357357357357 	299.999999999955 	3.026091672755677e-12 	101324.9999999888
1.109859859859859 	299.9999999999378 	1.904976709914003e-12 	101324.9999999888
1.112362362362362 	300.0000000000067 	2.907977211028906e-12 	101324.9999999886
1.114864864864865 	300.0000000000056 	3.228429816170675e-12 	101324.9999999886
1.117367367367367 	299.999999999959 	3.669877839712622e-12 	101324.9999999885
1.119869869869869 	299.9999999999268 	4.61688668716839e-12 	101324.9999999886
1.122372372372372 	299.9999999999476 	4.474808825889352e-12 	101324.9999999885
1.124874874874874 	299.9999999999529 	5.291454094526203e-12 	101324.9999999883
1.127377377377377 	299.9999999999708 	4.617414915394096e-12 	101324.9999999884
1.129879879879879 	300.0000000000209 	4.324793603723061e-12 	101324.9999999887
1.132382382382382 	300.0000000000257 	3.625431364041643e-12 	101324.9999999888
1.134884884884884 	299.9999999999952 	3.569006501586486e-12 	101324.9999999888
1.137387387387387 	300.0000000000049 	3.260922079251018e-12 	101324.9999999888
1.139889889889889 	299.9999999999525 	2.380468029242157e-12 	101324.9999999886
1.142392392392392 	299.9999999999476 	2.681716004800338e-12 	101324.9999999886
1.144894894894894 	300.000000000003 	1.928784529910765e-12 	101324.9999999885
1.147397397397397 	299.9999999999842 	2.941377185855055e-12 	101324.9999999884
1.149899899899899 	299.999999999926 	2.347808506081762e-12 	101324.9999999884
1.152402402402402 	299.999999999916 	2.746664084708165e-12 	101324.9999999884
1.154904904904904 	299.9999999999554 	2.240203982462141e-12 	101324.9999999884
1.157407407407407 	299.9999999999552 	2.757266166680831e-12 	101324.9999999884
1.159909909909909 	299.9999999999318 	2.874252742606913e-12 	101324.9999999883
1.162412412412412 	299.9999999999259 	2.19935401525645e-12 	101324.9999999881
1.164914914914914 	299.9999999999437 	2.999756789072864e-12 	101324.9999999879
1.167417417417417 	299.9999999999458 	2.193515836674333e-12 	101324.9999999878
1.169919919919919 	299.9999999999894 	3.051561097666703e-12 	101324.9999999879
1.172422422422422 	300.0000000000197 	2.918694873448784e-12 	101324.999999988
1.174924924924925 	299.9999999999751 	3.884392197186685e-12 	101324.9999999881
1.177427427427427 	299.9999999999449 	3.443923604954947e-12 	101324.9999999882
1.179929929929929 	299.999999999991 	3.21813924515734e-12 	101324.9999999882
1.182432432432432 	300.0000000000192 	4.41048951133432e-12 	101324.9999999883
1.184934934934934 	299.9999999999943 	3.799509003692741e-12 	101324.9999999883
1.187437437437437 	299.9999999999749 	4.493050581838029e-12 	101324.9999999883
1.189939939939939 	299.9999999999658 	3.725711673905053e-12 	101324.9999999882
1.192442442442442 	299.9999999999261 	4.16658818630003e-12 	101324.9999999882
1.194944944944944 	299.999999999926 	3.329620520537472e-12 	101324.9999999884
1.197447447447447 	299.9999999999829 	3.819748405162519e-12 	101324.9999999884
1.199949949949949 	299.9999999999982 	4.013001086981718e-12 	101324.9999999882
1.202452452452452 	299.9999999999443 	3.479853665901881e-12 	101324.999999988
1.204954954954955 	299.9999999999358 	4.249454347975742e-12 	101324.999999988
1.207457457457457 	299.9999999999677 	3.34993704751467e-12 	101324.9999999881
1.20995995995996 	299.9999999999668 	3.947180975191011e-12 	101324.999999988
1.212462462462462 	299.9999999999777 	3.116085935623921e-12 	101324.9999999878
1.214964964964964 	299.9999999999812 	3.840200528820563e-12 	101324.9999999878
1.217467467467467 	299.9999999999862 	3.383096280673635e-12 	101324.999999988
1.219969969969969 	299.9999999999652 	4.378100161611494e-12 	101324.9999999881
1.222472472472472 	300.0000000000042 	4.477412857986328e-12 	101324.9999999883
1.224974974974975 	300.0000000000376 	4.402674593470655e-12 	101324.9999999884
1.227477477477477 	299.9999999999933 	5.503413482835625e-12 	101324.9999999884
1.229979979979979 	299.9999999999814 	4.938341767918042e-12 	101324.9999999886
1.232482482482482 	299.9999999999511 	6.042541532595791e-12 	101324.9999999885
1.234984984984984 	299.9999999999491 	5.166607379459669e-12 	101324.9999999885
1.237487487487487 	299.9999999999706 	6.133677071758412e-12 	101324.9999999885
1.239989989989989 	299.9999999999742 	5.834850002681368e-12 	101324.9999999886
1.242492492492492 	300.0000000000042 	5.555112072328538e-12 	101324.9999999885
1.244994994994994 	299.9999999999768 	6.431047124335499e-12 	101324.9999999884
1.247497497497497 	299.999999999987 	5.399198150098664e-12 	101324.9999999884
1.249999999999999 	300.0000000000249 	5.860311765843962e-12 	101324.9999999883
