-1.25 	349.9013364214183 	0.00319835675974762 	101325.033929198
-1.247497497497497 	300.0487024699369 	0.003162920571275854 	101325.0359054999
-1.244994994994995 	300.0026862338142 	0.002922779358556561 	101325.0341054191
-1.242492492492492 	300.0000916257949 	0.002691525852799787 	101325.0369587943
-1.23998998998999 	300.0000299336282 	0.002466009069016651 	101325.034389259
-1.237487487487487 	300.0000317778832 	0.002250910808814937 	101325.0376017426
-1.234984984984985 	300.0000290262204 	0.002042561092377461 	101325.0342804889
-1.232482482482482 	300.00003163649 	0.00184896469874457 	101325.0374320742
-1.22997997997998 	300.0000286196113 	0.001661283540182551 	101325.0338104548
-1.227477477477477 	300.0000315814365 	0.00149022939123772 	101325.0373573238
-1.224974974974975 	300.000028483961 	0.001319206011092446 	101325.0336571155
-1.222472472472472 	300.0000312136438 	0.001162238768772681 	101325.0369182216
-1.21996996996997 	300.0000283921531 	0.001004467545844517 	101325.0335548949
-1.217467467467467 	300.0000318786649 	0.0008631720930790726 	101325.0376979028
-1.214964964964965 	300.0000285849547 	0.0007159472971313856 	101325.0337893882
-1.212462462462462 	300.0000321349366 	0.0005881873239359933 	101325.0379920969
-1.20995995995996 	300.0000289373943 	0.0004576479543166576 	101325.0342081322
-1.207457457457457 	300.0000325387311 	0.0003482468237552663 	101325.0384671976
-1.204954954954955 	300.0000294536276 	0.0002359191265453962 	101325.0348287998
-1.202452452452452 	300.0000331671404 	0.0001467243849190518 	101325.0392044726
-1.19994994994995 	300.000029946364 	0.0001279348204470918 	101325.0354095967
-1.197447447447447 	300.0000334958295 	5.676216361585099e-05 	101325.0395849319
-1.194944944944945 	300.0000303278541 	0.000120595454168344 	101325.0358629073
-1.192442442442442 	300.0000335953347 	0.00011498076375869 	101325.0397014566
-1.18993993993994 	300.0000305862663 	0.0001459697210530264 	101325.0361798746
-1.187437437437437 	300.0000316655446 	0.0001324028698718653 	101325.0374228743
-1.184934934934935 	300.0000308773177 	0.000120506131746196 	101325.0365237466
-1.182432432432432 	300.0000317032066 	9.994391196232472e-05 	101325.0374612634
-1.17992992992993 	300.0000313845022 	7.993122765751823e-05 	101325.0371188111
-1.177427427427427 	300.000032098288 	0.0001060553994375179 	101325.0379270663
-1.174924924924925 	300.0000320413486 	7.744224367716523e-05 	101325.0378956535
-1.172422422422422 	300.0000325481373 	0.0001113610231691471 	101325.0384587212
-1.16991991991992 	300.0000325047422 	7.513817693332919e-05 	101325.0384445415
-1.167417417417417 	300.000032727459 	0.0001153141399141957 	101325.0386756222
-1.164914914914915 	300.0000326159294 	0.0001154721755695254 	101325.0385763224
-1.162412412412412 	300.0000325818323 	0.0001552496961550537 	101325.0385021151
-1.15990990990991 	300.0000324750708 	0.0001671896736749333 	101325.0384088479
-1.157407407407407 	300.0000323363689 	0.0002034749156342888 	101325.0382126655
-1.154904904904904 	300.000032413591 	0.0002096639436388267 	101325.038335479
-1.152402402402403 	300.0000323448269 	0.000241582334370299 	101325.0382249288
-1.1498998998999 	300.0000326454708 	0.0002400712769711247 	101325.0386097074
-1.147397397397397 	300.0000326820711 	0.0002656199678106259 	101325.038624901
-1.144894894894895 	300.0000330082673 	0.0002512532884008208 	101325.0390351366
-1.142392392392392 	300.0000331233161 	0.0002635252580198122 	101325.0391440777
-1.13988988988989 	300.0000332839768 	0.0002396136063248751 	101325.0393584115
-1.137387387387387 	300.0000333039872 	0.0002491292072775944 	101325.039358598
-1.134884884884885 	300.0000333264218 	0.0002232067764747105 	101325.0394072878
-1.132382382382382 	300.0000332665743 	0.0002324678842248351 	101325.0393165055
-1.12987987987988 	300.0000332396268 	0.0002056039312575687 	101325.0393105671
-1.127377377377377 	300.0000332244391 	0.0002157237439108369 	101325.0392688047
-1.124874874874875 	300.0000332826368 	0.0001881004452661556 	101325.03935758
-1.122372372372372 	300.0000333955746 	0.0001998459185547782 	101325.0394725693
-1.11986986986987 	300.0000335719164 	0.0001715236405825474 	101325.0396985748
-1.117367367367367 	300.0000337709366 	0.0001850907565113079 	101325.0399146343
-1.114864864864865 	300.0000339498266 	0.0001564003355165013 	101325.0401434823
-1.112362362362362 	300.0000340645005 	0.0001713595972513972 	101325.0402629965
-1.10985985985986 	300.0000340854048 	0.0001427915490194847 	101325.0403039994
-1.107357357357357 	300.0000340016019 	0.0001585390056771142 	101325.0401894134
-1.104854854854855 	300.0000338424364 	0.0001302489596125948 	101325.0400148786
-1.102352352352353 	300.0000336388425 	0.0001466239223739075 	101325.0397601023
-1.09984984984985 	300.0000334675019 	0.000118136081051546 	101325.0395700751
-1.097347347347347 	300.0000333627307 	0.0001355843384449219 	101325.0394336456
-1.094844844844845 	300.0000333903066 	0.0001060733201099165 	101325.0394784473
-1.092342342342342 	300.0000335377445 	0.0001252066704017752 	101325.0396433743
-1.08983983983984 	300.0000338179888 	9.413011591660899e-05 	101325.0399863039
-1.087337337337337 	300.0000341570224 	0.0001151073622118232 	101325.0403779688
-1.084834834834835 	300.0000345160582 	8.986589852126054e-05 	101325.0408104406
-1.082332332332332 	300.0000347895675 	0.0001104292552567212 	101325.0411249681
-1.07982982982983 	300.0000349446763 	9.199006772616671e-05 	101325.0413141802
-1.077327327327327 	300.0000349125281 	0.0001097951177132643 	101325.041268751
-1.074824824824825 	300.0000347304639 	9.230391710228269e-05 	101325.041059396
-1.072322322322323 	300.000034409695 	0.0001074061068278447 	101325.0406748052
-1.06981981981982 	300.0000340589494 	9.134636663224349e-05 	101325.0402652474
-1.067317317317317 	300.0000337309945 	0.000104559880820486 	101325.0398733578
-1.064814814814815 	300.0000335351063 	9.081700959234827e-05 	101325.0396462479
-1.062312312312312 	300.0000334895104 	0.0001029885513774946 	101325.0395891186
-1.05980980980981 	300.0000336323476 	9.20223223748945e-05 	101325.0397617517
-1.057307307307307 	300.0000339053385 	0.0001032980090323591 	101325.0400824598
-1.054804804804805 	300.0000342652644 	9.468162393803578e-05 	101325.0405103969
-1.052302302302302 	300.0000346047714 	0.0001044203786161554 	101325.0409090055
-1.0497997997998 	300.0000348606067 	9.716249466941229e-05 	101325.0412127369
-1.047297297297297 	300.0000349568635 	0.0001046009991893142 	101325.0413247803
-1.044794794794795 	300.0000348954972 	9.801633591983571e-05 	101325.0412533102
-1.042292292292292 	300.0000346871767 	0.000103098264574455 	101325.0410059996
-1.03978978978979 	300.0000344088199 	9.735696590146581e-05 	101325.0406777766
-1.037287287287287 	300.0000341238102 	0.0001008456986977061 	101325.0403399574
-1.034784784784785 	300.0000339160664 	9.661640406608109e-05 	101325.0400946614
-1.032282282282283 	300.0000338208062 	9.939914495167831e-05 	101325.0399821236
-1.02977977977978 	300.0000338602798 	9.702347112494432e-05 	101325.0400294452
-1.027277277277277 	300.0000340027233 	9.939217225197851e-05 	101325.0401981208
-1.024774774774775 	300.0000342041818 	9.845201355047163e-05 	101325.0404363089
-1.022272272272272 	300.0000343994147 	0.0001000788429199424 	101325.0406669509
-1.01976976976977 	300.0000345409553 	9.976250654121597e-05 	101325.0408346541
-1.017267267267267 	300.000034599499 	0.0001003366636335264 	101325.0409046231
-1.014764764764765 	300.0000345801408 	0.0001001390001866901 	101325.0408817792
-1.012262262262262 	300.0000345097355 	9.990840408541612e-05 	101325.0407977741
-1.00975975975976 	300.0000344269945 	9.984274201961231e-05 	101325.0406987056
-1.007257257257257 	300.0000343664013 	9.945072916940589e-05 	101325.040626074
-1.004754754754755 	300.0000343430739 	9.958464482819926e-05 	101325.0405983358
-1.002252252252252 	300.0000343489589 	9.947240312333468e-05 	101325.0406063092
-0.9997497497497498 	300.0000343544812 	9.951076366350117e-05 	101325.0406137817
-0.9972472472472473 	300.0000343205374 	9.939593228634354e-05 	101325.0405737295
-0.9947447447447449 	300.0000342135717 	9.908019698811677e-05 	101325.0404466865
-0.9922422422422421 	300.0000340204216 	9.852349835045833e-05 	101325.0402174473
-0.9897397397397399 	300.0000337547997 	9.777011976088663e-05 	101325.0399036133
-0.9872372372372376 	300.0000334584841 	9.693651462448911e-05 	101325.0395546362
-0.9847347347347346 	300.0000331914183 	9.618915411657791e-05 	101325.0392405258
-0.9822322322322323 	300.0000330158425 	9.569839321427664e-05 	101325.0390332266
-0.9797297297297296 	300.0000329771808 	9.558818941288409e-05 	101325.0389861946
-0.9772272272272275 	300.0000330885802 	9.589685901983307e-05 	101325.0391159116
-0.9747247247247248 	300.0000333223909 	9.654771205059346e-05 	101325.0393909539
-0.9722222222222224 	300.000033614025 	9.736255634460177e-05 	101325.0397361787
-0.9697197197197196 	300.0000338805147 	9.810838803470024e-05 	101325.0400525582
-0.9672172172172175 	300.0000340413355 	9.855724071008989e-05 	101325.0402443353
-0.9647147147147147 	300.0000340409952 	9.855228704871695e-05 	101325.0402448915
-0.9622122122122124 	300.0000338637057 	9.804957319583167e-05 	101325.0400353038
-0.9597097097097099 	300.0000335387084 	9.713060308679834e-05 	101325.0396503687
-0.9572072072072073 	300.0000331330358 	9.598540415255716e-05 	101325.0391698589
-0.9547047047047047 	300.0000327346671 	9.48596468005072e-05 	101325.0386975501
-0.9522022022022023 	300.0000324279453 	9.399195445795896e-05 	101325.0383343908
-0.9496996996996998 	300.0000322747579 	9.355563147388881e-05 	101325.0381528574
-0.9471971971971973 	300.0000322970786 	9.361056257149321e-05 	101325.0381785798
-0.9446946946946947 	300.0000324715186 	9.409354548317169e-05 	101325.0383846675
-0.9421921921921923 	300.0000327395355 	9.484101250790332e-05 	101325.038701119
-0.93968968968969 	300.0000330233583 	9.563492232840699e-05 	101325.0390362789
-0.9371871871871872 	300.0000332485036 	9.626861302124961e-05 	101325.0393026519
-0.9346846846846848 	300.0000333629039 	9.659502362163626e-05 	101325.0394386432
-0.9321821821821823 	300.0000333472547 	9.655579771412579e-05 	101325.0394208391
-0.9296796796796799 	300.0000332147993 	9.618750492755835e-05 	101325.0392647379
-0.9271771771771771 	300.0000330028121 	9.559288064267218e-05 	101325.0390148383
-0.9246746746746748 	300.000032759917 	9.490558942579379e-05 	101325.0387279663
-0.9221721721721724 	300.0000325296926 	9.424876461034212e-05 	101325.0384556511
-0.9196696696696698 	300.0000323398203 	9.370159628134024e-05 	101325.0382312122
-0.9171671671671672 	300.0000321989654 	9.328974204532155e-05 	101325.0380646343
-0.9146646646646649 	300.0000320985386 	9.299014695681032e-05 	101325.03794523
-0.9121621621621623 	300.0000320183931 	9.27490823299511e-05 	101325.0378500588
-0.9096596596596597 	300.0000319378123 	9.251153182611179e-05 	101325.037755013
-0.9071571571571573 	300.0000318449007 	9.224255385419012e-05 	101325.0376450626
-0.9046546546546547 	300.0000317394811 	9.194173938643075e-05 	101325.0375204402
-0.9021521521521524 	300.0000316342993 	9.164695609975291e-05 	101325.0373967544
-0.8996496496496498 	300.0000315512985 	9.141536284624047e-05 	101325.0372990452
-0.8971471471471473 	300.0000315113799 	9.130411344146415e-05 	101325.0372519405
-0.894644644644645 	300.0000315259319 	9.134591118261359e-05 	101325.0372693371
-0.892142142142142 	300.0000315916964 	9.152884542419329e-05 	101325.0373471236
-0.8896396396396397 	300.0000316886126 	9.179713277113484e-05 	101325.037461545
-0.8871371371371374 	300.0000317835585 	9.205919548370981e-05 	101325.0375739762
-0.8846346346346349 	300.0000318400988 	9.221017433921289e-05 	101325.0376405702
-0.8821321321321324 	300.0000318262187 	9.216242543422076e-05 	101325.0376237307
-0.8796296296296297 	300.000031723398 	9.186464426826035e-05 	101325.0375021166
-0.8771271271271271 	300.0000315322987 	9.131831872907197e-05 	101325.0372764194
-0.8746246246246248 	300.0000312725028 	9.057852418217065e-05 	101325.0369693748
-0.8721221221221224 	300.0000309768125 	8.973698657015259e-05 	101325.0366201532
-0.8696196196196196 	300.0000306845232 	8.89045806044496e-05 	101325.0362749778
-0.8671171171171175 	300.0000304323196 	8.818442881527444e-05 	101325.0359769403
-0.8646146146146148 	300.0000302465271 	8.765192089506419e-05 	101325.0357577461
-0.8621121121121121 	300.0000301410082 	8.734607643111553e-05 	101325.035632981
-0.8596096096096097 	300.0000301146764 	8.726408392543291e-05 	101325.035601409
-0.857107107107107 	300.0000301541623 	8.737013976656399e-05 	101325.0356478314
-0.8546046046046049 	300.0000302395686 	8.760796986234629e-05 	101325.0357482225
-0.8521021021021022 	300.0000303476262 	8.791189263740559e-05 	101325.035875485
-0.8495995995995997 	300.000030456515 	8.822130034346838e-05 	101325.0360043537
-0.8470970970970974 	300.0000305491312 	8.848732847908613e-05 	101325.0361145577
-0.8445945945945946 	300.0000306145341 	8.867477648358293e-05 	101325.0361921123
-0.8420920920920922 	300.0000306463165 	8.876494809698032e-05 	101325.0362291788
-0.8395895895895897 	300.0000306412903 	8.875060621067363e-05 	101325.0362230716
-0.8370870870870872 	300.000030600538 	8.863325102753589e-05 	101325.0361748862
-0.8345845845845846 	300.0000305270186 	8.842215290621685e-05 	101325.0360880587
-0.8320820820820823 	300.0000304242023 	8.812688798202228e-05 	101325.0359670534
-0.8295795795795798 	300.0000302963387 	8.775872353678166e-05 	101325.0358163793
-0.8270770770770772 	300.0000301473204 	8.732831021447088e-05 	101325.0356401355
-0.8245745745745746 	300.0000299798785 	8.684429627930103e-05 	101325.0354422039
-0.8220720720720721 	300.0000297980833 	8.63189393167666e-05 	101325.0352269888
-0.8195695695695699 	300.000029606647 	8.57659906426157e-05 	101325.0350003095
-0.817067067067067 	300.0000294115116 	8.520387107574081e-05 	101325.0347698556
-0.8145645645645651 	300.0000292207967 	8.465519919064073e-05 	101325.0345447044
-0.8120620620620621 	300.0000290426332 	8.414028857654271e-05 	101325.034333796
-0.8095595595595597 	300.0000288820389 	8.367545322106929e-05 	101325.0341438125
-0.8070570570570572 	300.0000287409018 	8.326683809442754e-05 	101325.0339773012
-0.8045545545545546 	300.0000286178943 	8.290824715410971e-05 	101325.0338319107
-0.8020520520520523 	300.0000285080409 	8.258545328731192e-05 	101325.0337012004
-0.7995495495495494 	300.000028403598 	8.227834480377389e-05 	101325.0335767962
-0.7970470470470474 	300.0000282974094 	8.196851961287643e-05 	101325.0334510593
-0.7945445445445446 	300.000028185776 	8.164564164743719e-05 	101325.0333192514
-0.7920420420420423 	300.0000280677677 	8.13064341781571e-05 	101325.0331805019
-0.7895395395395397 	300.0000279457336 	8.095767401262752e-05 	101325.0330374798
-0.7870370370370371 	300.0000278244764 	8.061117650678823e-05 	101325.0328952192
-0.7845345345345348 	300.0000277097248 	8.028086038367596e-05 	101325.0327597318
-0.7820320320320323 	300.0000276066659 	7.998134454115042e-05 	101325.0326368507
-0.7795295295295296 	300.0000275184364 	7.972382677862153e-05 	101325.0325313723
-0.7770270270270272 	300.0000274475143 	7.951531908614764e-05 	101325.0324463435
-0.7745245245245247 	300.0000273938206 	7.935802898966331e-05 	101325.0323824075
-0.7720220220220222 	300.0000273554645 	7.924577630817705e-05 	101325.0323373341
-0.7695195195195199 	300.0000273279954 	7.916671266581863e-05 	101325.0323060013
-0.767017017017017 	300.0000273060112 	7.910297467009731e-05 	101325.032281003
-0.7645145145145147 	300.0000272827021 	7.903375514116415e-05 	101325.0322537841
-0.7620120120120122 	300.0000272505005 	7.893924738428048e-05 	101325.0322159925
-0.7595095095095097 	300.0000272031039 	7.880253170661039e-05 	101325.032160698
-0.7570070070070072 	300.0000271369913 	7.86120502273738e-05 	101325.032083267
-0.7545045045045048 	300.0000270506475 	7.836395702524339e-05 	101325.0319818475
-0.7520020020020022 	300.0000269444528 	7.806008662962286e-05 	101325.0318575018
-0.7494994994994997 	300.0000268228015 	7.77103114671364e-05 	101325.03171404
-0.7469969969969972 	300.0000266910994 	7.732913507482154e-05 	101325.0315575654
-0.7444944944944945 	300.0000265551948 	7.693501760352482e-05 	101325.0313957437
-0.7419919919919924 	300.0000264220497 	7.654824217662107e-05 	101325.031236852
-0.7394894894894897 	300.0000262973909 	7.618753923395745e-05 	101325.031088769
-0.7369869869869872 	300.0000261873458 	7.586876599498038e-05 	101325.0309580608
-0.7344844844844846 	300.0000260952108 	7.560314809868677e-05 	101325.0308492874
-0.7319819819819822 	300.0000260233957 	7.539545160544219e-05 	101325.0307645883
-0.7294794794794797 	300.0000259711788 	7.524491758553209e-05 	101325.0307035364
-0.7269769769769773 	300.0000259365329 	7.514442722824693e-05 	101325.0306631843
-0.7244744744744747 	300.0000259149548 	7.508094099982718e-05 	101325.0306383005
-0.721971971971972 	300.0000259007602 	7.503808524708422e-05 	101325.0306218442
-0.7194694694694695 	300.0000258878536 	7.499559178153535e-05 	101325.0306056417
-0.7169669669669674 	300.0000258682655 	7.493288085864073e-05 	101325.0305811299
-0.7144644644644647 	300.0000258354499 	7.483024197946007e-05 	101325.0305400807
-0.711961961961962 	300.000025782359 	7.466984225686234e-05 	101325.0304753193
-0.7094594594594597 	300.0000257035347 	7.443902873649983e-05 	101325.0303814224
-0.7069569569569573 	300.0000255966679 	7.413016309749612e-05 	101325.0302553303
-0.7044544544544545 	300.0000254618996 	7.374268649558064e-05 	101325.0300968311
-0.7019519519519523 	300.00002530188 	7.328438048702697e-05 	101325.0299089176
-0.6994494494494495 	300.0000251222633 	7.277024430117865e-05 	101325.0296979656
-0.6969469469469471 	300.0000249320053 	7.222405927240951e-05 	101325.0294735981
-0.6944444444444446 	300.0000247409479 	7.167540346253779e-05 	101325.0292480585
-0.6919419419419421 	300.0000245607858 	7.115710051033054e-05 	101325.0290350226
-0.6894394394394396 	300.00002440182 	7.070194152771022e-05 	101325.028847894
-0.6869369369369374 	300.0000242744462 	7.033596734325214e-05 	101325.02869776
-0.6844344344344344 	300.0000241840457 	7.007564775161032e-05 	101325.0285913525
-0.6819319319319321 	300.0000241312069 	6.992273358033349e-05 	101325.0285295151
-0.6794294294294296 	300.0000241119128 	6.986328603832405e-05 	101325.0285066307
-0.6769269269269272 	300.0000241160232 	6.987024537560962e-05 	101325.0285112445
-0.6744244244244245 	300.0000241309119 	6.990541893313494e-05 	101325.0285277922
-0.6719219219219222 	300.0000241408267 	6.992791157144791e-05 	101325.0285390411
-0.6694194194194195 	300.0000241326679 	6.989823620083213e-05 	101325.0285286851
-0.6669169169169172 	300.0000240946345 	6.978463940726938e-05 	101325.0284835917
-0.6644144144144146 	300.0000240194874 	6.956765499551061e-05 	101325.0283954254
-0.661911911911912 	300.0000239057793 	6.924036208998211e-05 	101325.0282615753
-0.6594094094094097 	300.0000237565399 	6.88116952557118e-05 	101325.028085438
-0.656906906906907 	300.0000235793952 	6.830324310485225e-05 	101325.0278761088
-0.6544044044044046 	300.000023386261 	6.774834783135777e-05 	101325.0276474514
-0.6519019019019021 	300.000023191505 	6.718836831464657e-05 	101325.0274165061
-0.6493993993993996 	300.0000230100691 	6.666597990124017e-05 	101325.0272013046
-0.6468968968968971 	300.0000228554447 	6.622148113847631e-05 	101325.0270183388
-0.6443943943943946 	300.0000227384369 	6.588419819775376e-05 	101325.0268800441
-0.6418918918918921 	300.0000226649074 	6.566971741239389e-05 	101325.0267927546
-0.6393893893893897 	300.0000226338891 	6.557591562037673e-05 	101325.0267555539
-0.6368868868868871 	300.0000226381611 	6.558266490760868e-05 	101325.0267602026
-0.6343843843843846 	300.0000226651697 	6.565490741757026e-05 	101325.0267920311
-0.6318818818818821 	300.0000226979071 	6.574522712865089e-05 	101325.0268315748
-0.6293793793793795 	300.000022718679 	6.580070959567447e-05 	101325.0268568448
-0.6268768768768773 	300.0000227088896 	6.576937638707231e-05 	101325.026846244
-0.6243743743743745 	300.0000226539591 	6.560875874518337e-05 	101325.0267820771
-0.6218718718718721 	300.0000225461935 	6.529500195514449e-05 	101325.026654149
-0.6193693693693696 	300.0000223841568 	6.482822735815862e-05 	101325.0264624644
-0.6168668668668671 	300.000022177991 	6.423534387134294e-05 	101325.0262180578
-0.6143643643643645 	300.0000219442155 	6.356587007682144e-05 	101325.0259415256
-0.6118618618618621 	300.0000217052044 	6.288380316949782e-05 	101325.0256596121
-0.6093593593593596 	300.0000214858482 	6.22579264025155e-05 	101325.0254007868
-0.6068568568568571 	300.0000213078323 	6.174951052849882e-05 	101325.0251907781
-0.6043543543543546 	300.0000211877474 	6.140405493925243e-05 	101325.025048511
-0.6018518518518521 	300.0000211328685 	6.124183404406803e-05 	101325.0249826739
-0.5993493493493496 	300.0000211392859 	6.125280609920676e-05 	101325.0249893309
-0.5968468468468471 	300.0000211922217 	6.139589148626613e-05 	101325.0250513578
-0.5943443443443446 	300.0000212676292 	6.160306777924292e-05 	101325.0251404659
-0.591841841841842 	300.0000213358085 	6.179152652441781e-05 	101325.025221925
-0.5893393393393397 	300.0000213681496 	6.187837025497176e-05 	101325.0252610262
-0.5868368368368371 	300.0000213415468 	6.179722181119066e-05 	101325.0252298964
-0.5843343343343346 	300.0000212429237 	6.151220247806938e-05 	101325.0251134032
-0.5818318318318321 	300.0000210733471 	6.10270811740202e-05 	101325.0249129816
-0.5793293293293297 	300.0000208483065 	6.038662001819427e-05 	101325.0246473521
-0.5768268268268271 	300.0000205963916 	5.966954207755498e-05 	101325.0243494988
-0.5743243243243245 	300.0000203519303 	5.897312207449897e-05 	101325.0240601684
-0.5718218218218221 	300.000020148532 	5.839244559680356e-05 	101325.0238193822
-0.5693193193193196 	300.0000200127809 	5.800121957730799e-05 	101325.0236579059
-0.5668168168168171 	300.0000199560331 	5.783361686111383e-05 	101325.0235902995
-0.5643143143143147 	300.0000199740582 	5.787616129586561e-05 	101325.023610974
-0.5618118118118121 	300.00002004562 	5.806787596718492e-05 	101325.0236943729
-0.5593093093093094 	300.0000201351367 	5.831130356117039e-05 	101325.0237997422
-0.5568068068068072 	300.000020202539 	5.849399531634077e-05 	101325.0238797623
-0.5543043043043046 	300.0000202113591 	5.851236044192584e-05 	101325.0238909844
-0.551801801801802 	300.0000201363498 	5.829607645019523e-05 	101325.0238038362
-0.5492992992992995 	300.0000199718068 	5.782614308901024e-05 	101325.0236100482
-0.5467967967967969 	300.0000197306113 	5.714029046100094e-05 	101325.0233255383
-0.5442942942942947 	300.0000194443443 	5.632772377263783e-05 	101325.0229876303
-0.5417917917917919 	300.0000191554587 	5.550879578584451e-05 	101325.0226468508
-0.5392892892892895 	300.0000189086082 	5.480688346096228e-05 	101325.0223552906
-0.536786786786787 	300.0000187386963 	5.43211692585988e-05 	101325.0221543748
-0.5342842842842846 	300.0000186625081 	5.409906272526215e-05 	101325.0220645419
-0.531781781781782 	300.0000186750282 	5.41257630524807e-05 	101325.0220794705
-0.5292792792792794 	300.0000187495756 	5.432591366632052e-05 	101325.0221672221
-0.526776776776777 	300.000018844615 	5.458317794532407e-05 	101325.0222788983
-0.5242742742742745 	300.0000189163871 	5.477548746051052e-05 	101325.0223624493
-0.521771771771772 	300.0000189299711 	5.480506927357073e-05 	101325.0223769723
-0.5192692692692695 	300.0000188683367 	5.46260758395373e-05 	101325.0223032307
-0.516766766766767 	300.0000187375887 	5.425314275478801e-05 	101325.0221474027
-0.5142642642642645 	300.00001855977 	5.374854116625602e-05 	101325.0219368468
-0.511761761761762 	300.0000183677091 	5.320244977486844e-05 	101325.0217094104
-0.5092592592592596 	300.000018190971 	5.269700239184786e-05 	101325.0215004035
-0.506756756756757 	300.0000180479459 	5.228596289675016e-05 	101325.0213321873
-0.5042542542542544 	300.000017943741 	5.198296367248931e-05 	101325.0212097265
-0.5017517517517521 	300.0000178695246 	5.176461770972552e-05 	101325.0211230363
-0.4992492492492494 	300.000017810707 	5.159312328741816e-05 	101325.0210548938
-0.496746746746747 	300.0000177546476 	5.143221822696045e-05 	101325.020990057
-0.4942442442442445 	300.0000176957853 	5.12654395403239e-05 	101325.0209216981
-0.4917417417417421 	300.0000176364115 	5.109827212261022e-05 	101325.0208522807
-0.4892392392392395 	300.0000175825617 	5.094406896790925e-05 	101325.0207889149
-0.486736736736737 	300.0000175376008 	5.081324624753371e-05 	101325.0207359388
-0.4842342342342345 	300.0000174977423 	5.069344375073085e-05 	101325.0206889159
-0.481731731731732 	300.0000174517389 	5.055140373151847e-05 	101325.0206335868
-0.4792292292292296 	300.000017382033 	5.034429005609018e-05 	101325.020550846
-0.4767267267267268 	300.0000172762251 	5.003656067419292e-05 	101325.0204257913
-0.4742242242242246 	300.0000171337965 	4.962762446230316e-05 	101325.0202567531
-0.471721721721722 	300.0000169672572 	4.915458538397403e-05 	101325.0200597896
-0.4692192192192195 	300.0000168034323 	4.869023211044592e-05 	101325.0198657996
-0.4667167167167169 	300.0000166721912 	4.83200070845912e-05 	101325.0197107982
-0.4642142142142145 	300.0000165984553 	4.810684680005274e-05 	101325.0196229403
-0.461711711711712 	300.0000165884431 	4.807337318769242e-05 	101325.0196110399
-0.4592092092092094 	300.0000166291942 	4.817935451303851e-05 	101325.0196591656
-0.456706706706707 	300.000016689424 	4.833816417489853e-05 	101325.0197300771
-0.4542042042042045 	300.0000167283589 	4.843988512446243e-05 	101325.0197767135
-0.451701701701702 	300.0000167120877 	4.838432368222698e-05 	101325.0197573114
-0.4491991991991995 	300.0000166204312 	4.812045130385123e-05 	101325.0196489393
-0.4466966966966969 	300.0000164565307 	4.765390070159259e-05 	101325.0194550724
-0.4441941941941945 	300.0000162450057 	4.705386015729153e-05 	101325.0192045227
-0.441691691691692 	300.0000160228816 	4.642565999304979e-05 	101325.0189420422
-0.4391891891891895 	300.0000158305131 	4.587801753995738e-05 	101325.0187143542
-0.436686686686687 	300.0000156972093 	4.549809158974678e-05 	101325.0185569808
-0.4341841841841846 	300.0000156368405 	4.532077919593668e-05 	101325.0184856491
-0.431681681681682 	300.0000156436022 	4.533418027178515e-05 	101325.018494093
-0.4291791791791794 	300.0000156975976 	4.548108669637885e-05 	101325.0185581523
-0.426676676676677 	300.0000157701795 	4.568057277346635e-05 	101325.0186440884
-0.4241741741741744 	300.0000158329353 	4.585374351825711e-05 	101325.0187178781
-0.421671671671672 	300.0000158626636 	4.593302514145807e-05 	101325.0187524903
-0.4191691691691694 	300.0000158456031 	4.588126708206447e-05 	101325.0187318759
-0.4166666666666669 	300.0000157782979 	4.568765641997989e-05 	101325.0186519574
-0.4141641641641645 	300.0000156657292 	4.536711127533182e-05 	101325.0185194803
-0.411661661661662 	300.0000155224487 	4.495816023051277e-05 	101325.0183496964
-0.4091591591591594 	300.0000153647164 	4.450857513239581e-05 	101325.0181634613
-0.406656656656657 	300.0000152125031 	4.407577175475618e-05 	101325.0179839341
-0.4041541541541545 	300.0000150851008 	4.371127199521039e-05 	101325.0178329249
-0.401651651651652 	300.0000149948344 	4.34536875178508e-05 	101325.0177270012
-0.3991491491491494 	300.0000149499575 	4.332280643372424e-05 	101325.0176738142
-0.396646646646647 	300.0000149460272 	4.330717118098347e-05 	101325.0176696508
-0.3941441441441444 	300.0000149710886 	4.337283599034351e-05 	101325.0176994101
-0.3916416416416419 	300.0000150046337 	4.346338914934119e-05 	101325.0177397017
-0.3891391391391395 	300.0000150255995 	4.351729631950596e-05 	101325.0177646346
-0.3866366366366368 	300.0000150154513 	4.348518634420438e-05 	101325.0177526972
-0.3841341341341344 	300.000014964953 	4.33386448135767e-05 	101325.0176927867
-0.381631631631632 	300.0000148757809 	4.30864804060538e-05 	101325.0175875793
-0.3791291291291294 	300.0000147625066 	4.276420966862465e-05 	101325.0174530071
-0.3766266266266269 	300.0000146451719 	4.243123008277957e-05 	101325.0173138067
-0.3741241241241244 	300.0000145464795 	4.215085690755915e-05 	101325.0171965426
-0.371621621621622 	300.0000144840093 	4.197141691011325e-05 	101325.0171223621
-0.3691191191191194 	300.0000144667502 	4.19197262376396e-05 	101325.0171014359
-0.366616616616617 	300.0000144915508 	4.198555828915804e-05 	101325.0171304954
-0.3641141141141143 	300.0000145451536 	4.213433547428231e-05 	101325.0171940897
-0.3616116116116119 	300.0000146087631 	4.231117847865682e-05 	101325.0172691343
-0.3591091091091095 	300.0000146614602 	4.24569636964077e-05 	101325.0173312795
-0.356606606606607 	300.0000146863098 	4.252781784041104e-05 	101325.0173611248
-0.3541041041041044 	300.0000146756228 	4.249722662527109e-05 	101325.0173486973
-0.3516016016016019 	300.0000146301289 	4.236981913772339e-05 	101325.0172952408
-0.3490990990990994 	300.000014559406 	4.217142778435776e-05 	101325.017212007
-0.346596596596597 	300.0000144785933 	4.194256848990665e-05 	101325.0171165275
-0.3440940940940944 	300.000014403164 	4.173002856754627e-05 	101325.0170276085
-0.3415915915915919 	300.0000143462044 	4.156799758004863e-05 	101325.0169606326
-0.3390890890890895 	300.0000143154187 	4.148005880510608e-05 	101325.0169244075
-0.3365865865865869 	300.0000143121117 	4.146823750110415e-05 	101325.0169201396
-0.3340840840840844 	300.0000143310135 	4.151978345228161e-05 	101325.0169424608
-0.3315815815815819 	300.0000143645136 	4.161367121641012e-05 	101325.0169818368
-0.3290790790790794 	300.0000144029891 	4.172146580160644e-05 	101325.0170273629
-0.3265765765765769 	300.0000144377637 	4.182156262669487e-05 	101325.0170690198
-0.3240740740740744 	300.0000144633329 	4.189253034102211e-05 	101325.0170989012
-0.3215715715715718 	300.000014474086 	4.192200396979203e-05 	101325.0171114965
-0.3190690690690695 	300.0000144669054 	4.190230402403801e-05 	101325.017103483
-0.3165665665665668 	300.0000144418846 	4.182837099762828e-05 	101325.0170735333
-0.3140640640640644 	300.0000143988092 	4.170511208986812e-05 	101325.0170224512
-0.311561561561562 	300.000014340297 	4.153813323753404e-05 	101325.0169536364
-0.3090590590590593 	300.0000142730592 	4.134536957398144e-05 	101325.0168736079
-0.3065565565565568 	300.0000142044015 	4.115033241334844e-05 	101325.016792176
-0.3040540540540545 	300.0000141450737 	4.098176383598048e-05 	101325.0167219043
-0.3015515515515518 	300.0000141070697 	4.087602169349555e-05 	101325.0166767361
-0.2990490490490494 	300.0000141008273 	4.086152491372415e-05 	101325.0166698663
-0.2965465465465469 	300.0000141359945 	4.096432714758483e-05 	101325.016711204
-0.2940440440440444 	300.0000142153393 	4.119336981970529e-05 	101325.0168049863
-0.2915415415415418 	300.0000143364054 	4.154032160468075e-05 	101325.0169481442
-0.2890390390390395 	300.0000144900483 	4.198119755484638e-05 	101325.0171299478
-0.2865365365365368 	300.000014661756 	4.247191773704079e-05 	101325.0173331399
-0.2840340340340343 	300.0000148336138 	4.296349610814814e-05 	101325.0175363872
-0.2815315315315318 	300.0000149863255 	4.340099312965205e-05 	101325.0177174405
-0.2790290290290295 	300.0000151037158 	4.37362550297269e-05 	101325.0178562838
-0.2765265265265269 	300.0000151729237 	4.393409288303787e-05 	101325.0179378463
-0.2740240240240244 	300.0000151867157 	4.397297925386146e-05 	101325.01795398
-0.2715215215215219 	300.0000151448849 	4.385488456000568e-05 	101325.0179045622
-0.2690190190190194 	300.0000150541768 	4.359745882166998e-05 	101325.017797669
-0.2665165165165169 	300.0000149286989 	4.323910258906534e-05 	101325.0176487926
-0.2640140140140144 	300.0000147851907 	4.283125952389502e-05 	101325.0174791399
-0.2615115115115119 	300.0000146450591 	4.24312916327204e-05 	101325.0173131204
-0.2590090090090094 	300.0000145282562 	4.210091489972778e-05 	101325.017175375
-0.2565065065065068 	300.000014454511 	4.189059622675648e-05 	101325.0170877228
-0.2540040040040044 	300.0000144363504 	4.184057804847534e-05 	101325.0170662688
-0.2515015015015019 	300.0000144810657 	4.19700187327996e-05 	101325.0171190417
-0.2489989989989994 	300.0000145871239 	4.227403088097891e-05 	101325.0172445912
-0.2464964964964968 	300.000014745242 	4.272839122995069e-05 	101325.0174319883
-0.2439939939939944 	300.000014940061 	4.328541582830329e-05 	101325.0176623661
-0.2414914914914919 	300.0000151508368 	4.38893134925605e-05 	101325.0179118808
-0.2389889889889893 	300.0000153570978 	4.447981833252469e-05 	101325.0181555478
-0.2364864864864869 	300.0000155397956 	4.500236800750973e-05 	101325.0183711618
-0.2339839839839843 	300.0000156844945 	4.54205296772671e-05 	101325.0185426356
-0.2314814814814819 	300.0000157861969 	4.571378374563548e-05 	101325.0186623824
-0.2289789789789792 	300.000015845163 	4.588874664114133e-05 	101325.0187323689
-0.2264764764764769 	300.0000158717832 	4.597110239592874e-05 	101325.0187635692
-0.2239739739739743 	300.0000158806059 	4.600233414819131e-05 	101325.0187737497
-0.2214714714714718 	300.000015888981 	4.603416384561892e-05 	101325.0187838683
-0.2189689689689693 	300.0000159143652 	4.611183537412689e-05 	101325.0188137779
-0.2164664664664669 	300.0000159688535 	4.627190111893512e-05 	101325.0188781732
-0.2139639639639643 	300.0000160575497 	4.652928458048961e-05 	101325.0189835658
-0.2114614614614618 	300.000016178853 	4.687630477464424e-05 	101325.0191269204
-0.2089589589589593 	300.000016322109 	4.728580387389684e-05 	101325.0192962476
-0.2064564564564568 	300.000016471441 	4.771194987839464e-05 	101325.0194730309
-0.2039539539539543 	300.000016608889 	4.810547858557597e-05 	101325.0196359849
-0.2014514514514518 	300.0000167186291 	4.841840882896354e-05 	101325.0197654029
-0.1989489489489494 	300.0000167881824 	4.861777193617483e-05 	101325.0198473772
-0.1964464464464468 	300.00001681368 	4.869291145568377e-05 	101325.019877095
-0.1939439439439443 	300.0000167996022 	4.865616309670737e-05 	101325.0198603232
-0.1914414414414418 	300.0000167589126 	4.854620928642482e-05 	101325.0198125241
-0.1889389389389393 	300.0000167112701 	4.841384699171008e-05 	101325.0197556696
-0.1864364364364368 	300.0000166758568 	4.831709616016105e-05 	101325.0197136313
-0.1839339339339343 	300.0000166702312 	4.830680850177541e-05 	101325.0197074497
-0.1814314314314318 	300.0000167075128 	4.841591300020389e-05 	101325.019751515
-0.1789289289289293 	300.0000167912779 	4.865980310228892e-05 	101325.0198512427
-0.1764264264264268 	300.0000169195145 	4.902644555635863e-05 	101325.0200025159
-0.1739239239239243 	300.0000170801394 	4.948747865326994e-05 	101325.0201928429
-0.1714214214214218 	300.0000172591189 	4.999901554806579e-05 	101325.0204039484
-0.1689189189189193 	300.0000174377121 	5.051063478520905e-05 	101325.0206153386
-0.1664164164164168 	300.0000176011673 	5.097948764948247e-05 	101325.0208081952
-0.1639139139139143 	300.000017737114 	5.137065128875798e-05 	101325.0209688834
-0.1614114114114118 	300.0000178409417 	5.16715383680079e-05 	101325.0210914203
-0.1589089089089093 	300.0000179142746 	5.188769953371349e-05 	101325.0211782927
-0.1564064064064068 	300.0000179658429 	5.204087250019574e-05 	101325.0212392827
-0.1539039039039043 	300.0000180076152 	5.216714994730632e-05 	101325.0212885758
-0.1514014014014018 	300.0000180521544 	5.229876719792668e-05 	101325.0213409711
-0.1488988988988993 	300.0000181089677 	5.246630668472305e-05 	101325.0214083139
-0.1463963963963968 	300.0000181841027 	5.268416011802087e-05 	101325.0214970441
-0.1438938938938943 	300.0000182769828 	5.295219760055897e-05 	101325.0216072915
-0.1413913913913918 	300.0000183836672 	5.325945136477066e-05 	101325.0217335547
-0.1388888888888893 	300.0000184964286 	5.358178467552075e-05 	101325.0218666638
-0.1363863863863868 	300.000018605822 	5.38976733167029e-05 	101325.0219964996
-0.1338838838838843 	300.0000187058862 	5.418642496495836e-05 	101325.0221148205
-0.1313813813813818 	300.0000187933194 	5.443814864746845e-05 	101325.0222175501
-0.1288788788788793 	300.0000188679489 	5.465762087899032e-05 	101325.0223060135
-0.1263763763763768 	300.0000189364457 	5.485816617105406e-05 	101325.0223867983
-0.1238738738738743 	300.000019006856 	5.506676501994961e-05 	101325.0224702357
-0.1213713713713717 	300.0000190896113 	5.530860881512109e-05 	101325.0225678151
-0.1188688688688693 	300.0000191924938 	5.560715413307382e-05 	101325.0226890895
-0.1163663663663668 	300.0000193184156 	5.597360013364465e-05 	101325.0228386874
-0.1138638638638643 	300.0000194672108 	5.64000013171462e-05 	101325.0230141495
-0.1113613613613618 	300.0000196288933 	5.686438227517285e-05 	101325.0232053451
-0.1088588588588592 	300.0000197900188 	5.732555818099511e-05 	101325.023396
-0.1063563563563568 	300.0000199347276 	5.7740378085218e-05 	101325.0235673069
-0.1038538538538543 	300.0000200494221 	5.807034452845843e-05 	101325.023702885
-0.1013513513513517 	300.0000201266566 	5.82931483626754e-05 	101325.0237938253
-0.09884884884884926 	300.0000201671892 	5.841708928699251e-05 	101325.0238423185
-0.09634634634634676 	300.0000201841895 	5.847351673152373e-05 	101325.0238625643
-0.09384384384384425 	300.0000201976901 	5.852130402203015e-05 	101325.0238783477
-0.09134134134134177 	300.0000202316593 	5.862635362263931e-05 	101325.0239176972
-0.08883883883883925 	300.0000203062627 	5.884776646527252e-05 	101325.0240059246
-0.08633633633633674 	300.0000204350578 	5.922412300992051e-05 	101325.0241586235
-0.08383383383383426 	300.0000206195718 	5.975349267578496e-05 	101325.0243763582
-0.08133133133133173 	300.0000208446103 	6.039899579482011e-05 	101325.0246427375
-0.07882882882882926 	300.0000210845546 	6.108551128301803e-05 	101325.0249268678
-0.07632632632632676 	300.0000213073021 	6.172081425961184e-05 	101325.0251898905
-0.07382382382382424 	300.0000214795334 	6.221604564802676e-05 	101325.025393838
-0.07132132132132173 	300.0000215789435 	6.250315124691459e-05 	101325.025510741
-0.06881881881881925 	300.0000215950157 	6.256063214421894e-05 	101325.0255300517
-0.06631631631631671 	300.0000215377119 	6.241264437287926e-05 	101325.0254625361
-0.06381381381381425 	300.0000214338156 	6.21360776605409e-05 	101325.0253393523
-0.06131131131131173 	300.0000213210832 	6.183984802017684e-05 	101325.0252060937
-0.05880880880880923 	300.0000212422959 	6.164353996297219e-05 	101325.0251131217
-0.05630630630630672 	300.000021235324 	6.165585308142682e-05 	101325.0251047051
-0.05380380380380424 	300.0000213239405 	6.194175336587737e-05 	101325.0252090284
-0.05130130130130173 	300.000021511543 	6.25168009473603e-05 	101325.0254309846
-0.04879879879879922 	300.0000217806514 	6.333082128438103e-05 	101325.0257496746
-0.04629629629629672 	300.0000220953762 	6.428296860765213e-05 	101325.0261217969
-0.04379379379379422 	300.0000224075964 	6.524246881599649e-05 	101325.0264907244
-0.04129129129129173 	300.0000226684214 	6.607255800194772e-05 	101325.0267990029
-0.03878878878878922 	300.0000228395486 	6.667158024484524e-05 	101325.0270010452
-0.03628628628628671 	300.0000229007112 	6.698459642844184e-05 	101325.0270734853
-0.03378378378378422 	300.0000228558131 	6.702854916879099e-05 	101325.0270207299
-0.03128128128128172 	300.0000227318197 	6.688207505602472e-05 	101325.0268738453
-0.02877877877877922 	300.000022570154 	6.666663631541945e-05 	101325.0266825069
-0.0262762762762767 	300.0000224170745 	6.652303930536682e-05 	101325.0265020094
-0.02377377377377422 	300.0000223138285 	6.656599949024969e-05 	101325.0263793795
-0.0212712712712717 	300.0000222817786 	6.687168123793617e-05 	101325.026342144
-0.01876876876876921 	300.0000223242858 	6.744967964607729e-05 	101325.0263920915
-0.01626626626626671 	300.0000224205829 	6.825211345965272e-05 	101325.0265056945
-0.0137637637637642 	300.0000225350232 	6.918944373405086e-05 	101325.0266413082
-0.0112612612612617 	300.0000226281584 	7.015232001288948e-05 	101325.0267511286
-0.008758758758759198 	300.000022664552 	7.105381354985112e-05 	101325.0267943288
-0.006256256256256697 	300.0000226246815 	7.183968312328525e-05 	101325.0267475154
-0.003753753753754195 	300.0000225085818 	7.251354673383669e-05 	101325.0266098315
-0.001251251251251693 	300.0000223322587 	7.312227343611954e-05 	101325.026401239
0.00125125125125081 	300.0000221235209 	7.374006281780366e-05 	101325.0261543323
0.003753753753753312 	300.0000219106132 	7.44446092845045e-05 	101325.0259027075
0.006256256256255817 	300.000021713315 	7.52805174543229e-05 	101325.0256699166
0.008758758758758317 	300.0000215382641 	7.625774071844181e-05 	101325.0254627394
0.01126126126126082 	300.000021375909 	7.733477059325487e-05 	101325.0252707564
0.01376376376376332 	300.00002120759 	7.844552611112905e-05 	101325.0250722117
0.01626626626626582 	300.0000210148886 	7.951574283578859e-05 	101325.0248441651
0.01876876876876833 	300.0000207856673 	8.048899021824404e-05 	101325.0245733955
0.02127127127127083 	300.0000205239851 	8.135230985165353e-05 	101325.0242640552
0.02377377377377332 	300.0000202496506 	8.21271696257533e-05 	101325.0239391328
0.02627627627627583 	300.0000199919178 	8.287455836121652e-05 	101325.0236348737
0.02877877877877833 	300.0000197851527 	8.36532886641789e-05 	101325.0233897351
0.03128128128128083 	300.0000196509549 	8.450476541916775e-05 	101325.023231431
0.03378378378378333 	300.0000195955822 	8.542316381763239e-05 	101325.0231662412
0.03628628628628584 	300.0000196028965 	8.634510500749094e-05 	101325.0231745584
0.03878878878878834 	300.0000196376287 	8.717160974220594e-05 	101325.0232154864
0.04129129129129084 	300.0000196575244 	8.778333201810575e-05 	101325.0232393141
0.04379379379379333 	300.0000196277267 	8.809839550469807e-05 	101325.0232042733
0.04629629629629585 	300.0000195324951 	8.809104954693324e-05 	101325.0230920515
0.04879879879879834 	300.0000193836906 	8.782230218529262e-05 	101325.0229160345
0.05130130130130085 	300.0000192172088 	8.742685004337687e-05 	101325.0227187701
0.05380380380380335 	300.0000190818306 	8.707695047096859e-05 	101325.0225584901
0.05630630630630584 	300.000019022888 	8.694179110268894e-05 	101325.0224890784
0.05880880880880836 	300.0000190663023 	8.712517534960741e-05 	101325.0225404779
0.06131131131131085 	300.0000192063894 	8.764733784888608e-05 	101325.0227058131
0.06381381381381336 	300.0000194053588 	8.842711995635587e-05 	101325.0229410118
0.06631631631631586 	300.0000196051603 	8.932057608571626e-05 	101325.0231776645
0.06881881881881835 	300.0000197463609 	9.01622413572578e-05 	101325.0233444301
0.07132132132132088 	300.0000197844896 	9.081853145922665e-05 	101325.0233893182
0.07382382382382337 	300.0000197041815 	9.122747086197053e-05 	101325.0232949799
0.07632632632632587 	300.0000195246848 	9.140319648268076e-05 	101325.0230823676
0.07882882882882837 	300.0000192876506 	9.142850094659489e-05 	101325.0228021238
0.08133133133133086 	300.0000190467123 	9.140756697717769e-05 	101325.0225169631
0.08383383383383337 	300.0000188484457 	9.14364907523963e-05 	101325.0222823099
0.08633633633633589 	300.0000187210165 	9.156360040605944e-05 	101325.0221321892
0.08883883883883838 	300.0000186724643 	9.179006236276457e-05 	101325.0220742691
0.09134134134134086 	300.0000186891819 	9.20767684610077e-05 	101325.0220943558
0.09384384384384339 	300.0000187501515 	9.236967586077251e-05 	101325.0221669325
0.09634634634634588 	300.0000188347228 	9.263085004288447e-05 	101325.0222665832
0.09884884884884838 	300.0000189267629 	9.284282987288012e-05 	101325.0223753212
0.1013513513513509 	300.0000190188271 	9.302233991362502e-05 	101325.0224837347
0.1038538538538534 	300.0000191055183 	9.318991798496156e-05 	101325.0225865916
0.1063563563563559 	300.0000191818041 	9.336439482344351e-05 	101325.0226764175
0.1088588588588584 	300.0000192351279 	9.353815729477681e-05 	101325.0227392383
0.1113613613613609 	300.000019248096 	9.36790075737432e-05 	101325.0227552148
0.1138638638638634 	300.000019205541 	9.374330439744788e-05 	101325.0227048279
0.1163663663663659 	300.0000190982956 	9.368981495575531e-05 	101325.0225780555
0.1188688688688684 	300.0000189328515 	9.351358128391736e-05 	101325.0223824165
0.1213713713713709 	300.000018733477 	9.324289664902224e-05 	101325.0221465978
0.1238738738738734 	300.0000185379106 	9.295203785828519e-05 	101325.0219160336
0.1263763763763759 	300.0000183906636 	9.272640024129615e-05 	101325.0217417103
0.1288788788788784 	300.0000183262068 	9.264437487967445e-05 	101325.0216656569
0.1313813813813809 	300.0000183613311 	9.274398522560755e-05 	101325.0217071573
0.1338838838838834 	300.0000184865349 	9.3003753937133e-05 	101325.0218549995
0.1363863863863859 	300.0000186675186 	9.335142159895637e-05 	101325.022068516
0.1388888888888884 	300.00001885344 	9.367300738162513e-05 	101325.0222878521
0.1413913913913909 	300.0000189910422 	9.385907465083866e-05 	101325.0224504822
0.1438938938938934 	300.0000190398787 	9.382428260129667e-05 	101325.0225082582
0.1463963963963959 	300.0000189822173 	9.354496792354386e-05 	101325.0224403593
0.1488988988988985 	300.0000188281277 	9.305611976793434e-05 	101325.0222585204
0.1514014014014009 	300.0000186119772 	9.244765210368025e-05 	101325.022003054
0.1539039039039035 	300.000018381745 	9.183716779024116e-05 	101325.0217312725
0.1564064064064059 	300.0000181873974 	9.13339513782784e-05 	101325.0215020228
0.1589089089089084 	300.0000180685112 	9.101982882156642e-05 	101325.0213614705
0.1614114114114109 	300.0000180448776 	9.092083395710597e-05 	101325.0213335885
0.1639139139139134 	300.0000181152682 	9.101854125141211e-05 	101325.0214169044
0.166416416416416 	300.0000182604437 	9.124795058007635e-05 	101325.0215876466
0.1689189189189185 	300.0000184469631 	9.152855909844738e-05 	101325.0218074682
0.1714214214214209 	300.0000186382059 	9.177809508048808e-05 	101325.0220332985
0.1739239239239235 	300.0000188016725 	9.193222918348244e-05 	101325.0222264075
0.1764264264264259 	300.0000189137412 	9.195512945597988e-05 	101325.0223587621
0.1789289289289284 	300.0000189624541 	9.183236263318696e-05 	101325.0224160744
0.181431431431431 	300.0000189464677 	9.157619587347584e-05 	101325.0223976259
0.1839339339339334 	300.0000188752986 	9.120533458213955e-05 	101325.0223137874
0.186436436436436 	300.0000187638137 	9.075045466256606e-05 	101325.0221825487
0.1889389389389385 	300.0000186313722 	9.023910378196263e-05 	101325.0220260737
0.191441441441441 	300.0000184970933 	8.970132169305891e-05 	101325.0218676475
0.1939439439439434 	300.0000183794111 	8.916736494021589e-05 	101325.0217290387
0.196446446446446 	300.0000182940468 	8.866548825107628e-05 	101325.0216280746
0.1989489489489485 	300.0000182505975 	8.822583366054292e-05 	101325.0215764166
0.2014514514514509 	300.0000182519966 	8.786835694003176e-05 	101325.0215777829
0.2039539539539535 	300.0000182939879 	8.760465703417736e-05 	101325.0216270559
0.2064564564564559 	300.0000183648881 	8.742404175859949e-05 	101325.0217107198
0.2089589589589585 	300.0000184484294 	8.730007962287372e-05 	101325.0218088786
0.211461461461461 	300.0000185243115 	8.718702173344502e-05 	101325.0218987108
0.2139639639639635 	300.0000185755683 	8.703230761044531e-05 	101325.0219588662
0.2164664664664659 	300.0000185884 	8.678824133313265e-05 	101325.0219738365
0.2189689689689684 	300.0000185574217 	8.641961032200368e-05 	101325.0219373383
0.221471471471471 	300.0000184864631 	8.591896857740956e-05 	101325.0218537729
0.2239739739739735 	300.0000183875513 	8.530299761324072e-05 	101325.021737299
0.226476476476476 	300.0000182786993 	8.461681122540524e-05 	101325.0216087483
0.2289789789789785 	300.0000181791787 	8.391917488809807e-05 	101325.0214911844
0.231481481481481 	300.0000181063414 	8.32743103685555e-05 	101325.0214053821
0.2339839839839835 	300.0000180733166 	8.273646660555434e-05 	101325.0213662692
0.236486486486486 	300.0000180859644 	8.233823276814261e-05 	101325.0213808776
0.2389889889889885 	300.0000181424664 	8.208738654539972e-05 	101325.021447833
0.241491491491491 	300.0000182355691 	8.196240693356924e-05 	101325.0215581968
0.2439939939939935 	300.0000183535636 	8.192071045092726e-05 	101325.0216972551
0.246496496496496 	300.0000184801988 	8.190279314218582e-05 	101325.0218467591
0.2489989989989985 	300.0000185992229 	8.184704437620715e-05 	101325.0219871266
0.251501501501501 	300.0000186942261 	8.169560044380727e-05 	101325.0220993993
0.2540040040040035 	300.0000187513457 	8.14057789417482e-05 	101325.0221670573
0.256506506506506 	300.0000187606403 	8.095459596929313e-05 	101325.0221778893
0.2590090090090086 	300.0000187160726 	8.033883799884504e-05 	101325.0221258357
0.261511511511511 	300.0000186206127 	7.957740783618626e-05 	101325.022012468
0.2640140140140135 	300.0000184810772 	7.870291867542422e-05 	101325.021847702
0.2665165165165161 	300.0000183130591 	7.776389632443443e-05 	101325.0216493461
0.2690190190190185 	300.000018137426 	7.681311041765357e-05 	101325.0214412751
0.271521521521521 	300.0000179759106 	7.590531021090986e-05 	101325.0212502396
0.2740240240240235 	300.0000178503823 	7.509176200197885e-05 	101325.0211018514
0.276526526526526 	300.0000177780441 	7.44114588590741e-05 	101325.0210165423
0.2790290290290286 	300.0000177691345 	7.389229788152101e-05 	101325.0210064091
0.281531531531531 	300.0000178259564 	7.354273214952412e-05 	101325.0210736616
0.2840340340340335 	300.0000179422819 	7.335509079089812e-05 	101325.0212109289
0.2865365365365361 	300.0000181049182 	7.330384795137596e-05 	101325.0214031694
0.2890390390390385 	300.0000182975052 	7.33485578765339e-05 	101325.0216306044
0.291541541541541 	300.0000185016895 	7.344081155904236e-05 	101325.0218719611
0.2940440440440436 	300.0000187007399 	7.35268995121296e-05 	101325.0221073408
0.296546546546546 	300.0000188807012 	7.355851061350821e-05 	101325.0223202112
0.2990490490490486 	300.0000190310545 	7.349593797678735e-05 	101325.0224983964
0.3015515515515511 	300.000019146339 	7.331440284040762e-05 	101325.0226342623
0.3040540540540535 	300.0000192224074 	7.300612120535894e-05 	101325.0227243794
0.3065565565565562 	300.0000192600545 	7.257632842500436e-05 	101325.0227689296
0.3090590590590585 	300.0000192618327 	7.204329061943223e-05 	101325.0227710584
0.3115615615615611 	300.0000192321993 	7.142832549887078e-05 	101325.0227362745
0.3140640640640635 	300.000019178192 	7.075407185095076e-05 	101325.0226718823
0.316566566566566 	300.0000191058332 	7.003976512119242e-05 	101325.0225863426
0.3190690690690687 	300.0000190227707 	6.929949093188201e-05 	101325.0224884746
0.3215715715715711 	300.0000189369347 	6.854514644821346e-05 	101325.0223865429
0.3240740740740735 	300.000018852963 	6.778592869946508e-05 	101325.0222874233
0.326576576576576 	300.0000187752938 	6.703178670872271e-05 	101325.0221960823
0.3290790790790786 	300.000018707666 	6.629311729246376e-05 	101325.0221155279
0.3315815815815811 	300.0000186499153 	6.558070500049099e-05 	101325.0220472091
0.3340840840840836 	300.0000186027555 	6.490461672546128e-05 	101325.0219917185
0.3365865865865861 	300.0000185672453 	6.427175400308113e-05 	101325.0219495103
0.3390890890890886 	300.0000185434229 	6.368543565529619e-05 	101325.0219213353
0.3415915915915911 	300.0000185320219 	6.314407348041987e-05 	101325.0219081985
0.3440940940940935 	300.0000185340957 	6.264286353314138e-05 	101325.0219108674
0.3465965965965962 	300.0000185500773 	6.217507177974441e-05 	101325.0219291798
0.3490990990990985 	300.0000185774177 	6.173346014085856e-05 	101325.0219614822
0.3516016016016011 	300.0000186137243 	6.131145503129225e-05 	101325.0220044662
0.3541041041041035 	300.0000186552062 	6.090276043270192e-05 	101325.0220535932
0.3566066066066061 	300.0000186974 	6.050120908269914e-05 	101325.0221039585
0.3591091091091085 	300.0000187372983 	6.010019949613266e-05 	101325.0221512777
0.3616116116116112 	300.0000187723605 	5.9693033062222e-05 	101325.0221926584
0.3641141141141137 	300.0000188011755 	5.927402679217661e-05 	101325.0222268839
0.3666166166166161 	300.0000188242675 	5.883986892949809e-05 	101325.0222541472
0.3691191191191185 	300.0000188429314 	5.838994161253249e-05 	101325.0222754298
0.371621621621621 	300.0000188567074 	5.792717474248031e-05 	101325.0222917631
0.3741241241241237 	300.0000188670036 	5.745511730519193e-05 	101325.0223036853
0.3766266266266261 	300.0000188731098 	5.697695553222101e-05 	101325.022311041
0.3791291291291286 	300.0000188746346 	5.649347671345689e-05 	101325.0223130801
0.3816316316316311 	300.0000188705556 	5.600217278261213e-05 	101325.02230868
0.3841341341341336 	300.0000188605929 	5.549778635632774e-05 	101325.0222965679
0.3866366366366362 	300.0000188425685 	5.497385563842174e-05 	101325.0222754774
0.3891391391391387 	300.0000188161141 	5.44251841178907e-05 	101325.0222443344
0.391641641641641 	300.0000187809752 	5.38494408026701e-05 	101325.0222025431
0.3941441441441436 	300.0000187369687 	5.324920425792496e-05 	101325.0221504331
0.3966466466466462 	300.0000186856844 	5.263283919482935e-05 	101325.0220897938
0.3991491491491486 	300.0000186300597 	5.20127023660431e-05 	101325.0220242993
0.4016516516516512 	300.0000185752062 	5.140421859664937e-05 	101325.0219595454
0.4041541541541536 	300.0000185271463 	5.082348929875165e-05 	101325.0219024713
0.4066566566566561 	300.0000184913863 	5.028479639328184e-05 	101325.0218601652
0.4091591591591587 	300.0000184731047 	4.979909493833397e-05 	101325.021838321
0.4116616616616612 	300.0000184743399 	4.937072525437161e-05 	101325.0218397372
0.4141641641641635 	300.0000184942672 	4.89964213865025e-05 	101325.0218632233
0.4166666666666662 	300.0000185278378 	4.866386458468937e-05 	101325.0219032122
0.4191691691691687 	300.0000185672758 	4.835126419678962e-05 	101325.0219502629
0.421671671671671 	300.0000186032154 	4.80316033299714e-05 	101325.0219924472
0.4241741741741737 	300.0000186241018 	4.767505383237902e-05 	101325.0220173777
0.4266766766766761 	300.000018621633 	4.725719260014365e-05 	101325.0220145054
0.4291791791791785 	300.0000185906292 	4.676363069355431e-05 	101325.0219772851
0.4316816816816812 	300.0000185292875 	4.619232642047987e-05 	101325.0219047829
0.4341841841841836 	300.0000184426251 	4.55590025399262e-05 	101325.0218022844
0.4366866866866862 	300.0000183394716 	4.488977797219172e-05 	101325.0216806574
0.4391891891891885 	300.0000182331806 	4.422065990931891e-05 	101325.0215545523
0.4416916916916913 	300.000018136112 	4.359040658329147e-05 	101325.0214398549
0.4441941941941936 	300.000018060758 	4.303216737719495e-05 	101325.0213509828
0.4466966966966961 	300.0000180158687 	4.257284588399474e-05 	101325.0212984825
0.4491991991991987 	300.0000180065497 	4.222315645594605e-05 	101325.0212872106
0.4517017017017012 	300.0000180300368 	4.197885765681896e-05 	101325.0213151834
0.4542042042042035 	300.0000180792283 	4.181811237078179e-05 	101325.0213731576
0.4567067067067062 	300.0000181402183 	4.170129651225143e-05 	101325.0214451357
0.4592092092092087 	300.0000181949344 	4.158025508875858e-05 	101325.0215101547
0.4617117117117112 	300.0000182255241 	4.139938318627398e-05 	101325.0215455528
0.4642142142142137 	300.0000182134422 	4.111139597715483e-05 	101325.0215314704
0.4667167167167162 	300.0000181498374 	4.068560124870925e-05 	101325.0214558448
0.4692192192192187 	300.0000180335288 	4.011716511509067e-05 	101325.0213186326
0.4717217217217212 	300.0000178773643 	3.943715321895357e-05 	101325.0211337051
0.4742242242242236 	300.0000177022185 	3.870349130701102e-05 	101325.0209271868
0.4767267267267262 	300.0000175371214 	3.799465960696555e-05 	101325.0207321062
0.4792292292292287 	300.0000174092856 	3.738755622140092e-05 	101325.020580689
0.4817317317317312 	300.0000173378612 	3.693647363502471e-05 	101325.0204962609
0.4842342342342336 	300.0000173295041 	3.666143446066994e-05 	101325.020486687
0.4867367367367362 	300.0000173755949 	3.653617713358463e-05 	101325.0205413334
0.4892392392392387 	300.000017453481 	3.649964095612044e-05 	101325.0206330385
0.4917417417417412 	300.0000175313934 	3.646975328272676e-05 	101325.0207251392
0.4942442442442437 	300.0000175783705 	3.636525922840088e-05 	101325.0207813627
0.4967467467467462 	300.0000175731508 	3.612979609617187e-05 	101325.020775225
0.4992492492492487 	300.0000175063579 	3.574160931248092e-05 	101325.0206964
0.5017517517517511 	300.0000173846616 	3.522172638863359e-05 	101325.0205524209
0.5042542542542537 	300.0000172265483 	3.462287892735198e-05 	101325.0203654151
0.5067567567567562 	300.0000170568562 	3.401503962805207e-05 	101325.0201651193
0.5092592592592589 	300.0000169006859 	3.346620171802735e-05 	101325.0199806162
0.5117617617617611 	300.0000167761808 	3.30232469305545e-05 	101325.0198334805
0.5142642642642637 	300.000016691878 	3.270684056073684e-05 	101325.0197337559
0.5167667667667663 	300.0000166456373 	3.250549974334151e-05 	101325.0196791558
0.5192692692692688 	300.0000166268085 	3.23852987360454e-05 	101325.0196572654
0.5217717717717714 	300.0000166207877 	3.229864540369763e-05 	101325.0196497505
0.5242742742742736 	300.0000166102781 	3.219441506111528e-05 	101325.0196371419
0.5267767767767763 	300.0000165815339 	3.203221500241724e-05 	101325.0196029393
0.5292792792792789 	300.0000165252222 	3.178476030237608e-05 	101325.019536309
0.5317817817817813 	300.0000164380986 	3.144585123834563e-05 	101325.0194333621
0.5342842842842837 	300.0000163234463 	3.102798219144746e-05 	101325.0192972485
0.5367867867867864 	300.0000161880722 	3.055825449977494e-05 	101325.0191371966
0.5392892892892888 	300.0000160436817 	3.007699858450635e-05 	101325.018966674
0.5417917917917912 	300.0000159037567 	2.962508492625236e-05 	101325.018800922
0.5442942942942938 	300.0000157795494 	2.924212451950194e-05 	101325.018654085
0.5467967967967964 	300.000015680008 	2.895539019118915e-05 	101325.0185362935
0.5492992992992988 	300.0000156081654 	2.877288811668535e-05 	101325.0184512089
0.5518018018018012 	300.0000155604178 	2.8682843198709e-05 	101325.0183946139
0.5543043043043039 	300.0000155270729 	2.864886741464613e-05 	101325.0183547664
0.5568068068068063 	300.0000154931323 	2.862284060210084e-05 	101325.0183147704
0.5593093093093087 	300.0000154434154 	2.855201947839308e-05 	101325.0182565289
0.5618118118118114 	300.0000153663941 	2.839348356309421e-05 	101325.0181654143
0.5643143143143137 	300.0000152553422 	2.812835219039649e-05 	101325.0180343769
0.5668168168168163 	300.0000151132787 	2.776212850610344e-05 	101325.0178662812
0.5693193193193188 	300.0000149503201 	2.733021971784826e-05 	101325.0176734628
0.5718218218218213 	300.0000147818686 	2.68838379405255e-05 	101325.0174743338
0.5743243243243239 	300.0000146244084 	2.647867413944148e-05 	101325.0172882189
0.5768268268268262 	300.0000144906101 	2.616169767455245e-05 	101325.0171301915
0.5793293293293288 	300.0000143864187 	2.595507280469263e-05 	101325.0170073295
0.5818318318318314 	300.0000143101796 	2.585746335998377e-05 	101325.016917218
0.5843343343343338 	300.0000142527549 	2.584002244140319e-05 	101325.0168489804
0.5868368368368363 	300.0000141998469 	2.585847418379621e-05 	101325.0167865718
0.5893393393393387 	300.0000141375261 	2.586463569532207e-05 	101325.0167132564
0.5918418418418413 	300.0000140551319 	2.58146075695023e-05 	101325.016615817
0.5943443443443439 	300.0000139467184 	2.568398634085507e-05 	101325.0164873714
0.5968468468468463 	300.0000138122483 	2.546655382793887e-05 	101325.0163283521
0.5993493493493487 	300.0000136578615 	2.517790983917762e-05 	101325.0161457126
0.6018518518518514 	300.0000134926582 	2.484965980681294e-05 	101325.0159506905
0.6043543543543537 	300.0000133278655 	2.451742244543591e-05 	101325.0157557244
0.6068568568568564 	300.0000131719041 	2.421840029192767e-05 	101325.015571433
0.6093593593593587 	300.0000130303757 	2.397754158535984e-05 	101325.0154044499
0.6118618618618614 	300.0000129053132 	2.380748182173051e-05 	101325.01525653
0.6143643643643638 	300.0000127944363 	2.370682684197491e-05 	101325.0151249826
0.6168668668668662 	300.0000126919698 	2.365890766293284e-05 	101325.0150040522
0.6193693693693688 	300.0000125925914 	2.364249916832936e-05 	101325.0148867443
0.6218718718718714 	300.000012490834 	2.36310367496704e-05 	101325.0147665231
0.6243743743743737 	300.0000123821978 	2.360169779146855e-05 	101325.0146384296
0.6268768768768762 	300.0000122646563 	2.353870103924494e-05 	101325.014499541
0.629379379379379 	300.0000121373278 	2.343149775631727e-05 	101325.0143488378
0.6318818818818812 	300.0000120003983 	2.328196376758479e-05 	101325.0141868334
0.6343843843843838 	300.0000118554149 	2.309742431144281e-05 	101325.01401522
0.6368868868868864 	300.0000117043294 	2.28930430655092e-05 	101325.0138367025
0.6393893893893888 	300.0000115503634 	2.268988368372425e-05 	101325.0136550063
0.6418918918918912 	300.0000113982022 	2.250710193355515e-05 	101325.0134746955
0.6443943943943939 	300.0000112508362 	2.236516334617733e-05 	101325.0133005729
0.6468968968968963 	300.0000111121735 	2.227492013023506e-05 	101325.0131364984
0.6493993993993988 	300.0000109832336 	2.22375353830244e-05 	101325.0129840651
0.6519019019019012 	300.0000108628941 	2.224362461404964e-05 	101325.0128416664
0.6544044044044038 	300.00001074642 	2.226918262626783e-05 	101325.0127044453
0.6569069069069065 	300.0000106288649 	2.228821257942586e-05 	101325.012565314
0.6594094094094087 	300.0000105033516 	2.227355382500659e-05 	101325.0124168124
0.6619119119119113 	300.0000103650797 	2.220749341103966e-05 	101325.0122534044
0.664414414414414 	300.0000102129682 	2.208968643142572e-05 	101325.0120734651
0.6669169169169162 	300.0000100494519 	2.193248644073571e-05 	101325.0118802742
0.6694194194194188 	300.0000098809678 	2.17658076904705e-05 	101325.0116813597
0.6719219219219214 	300.0000097156199 	2.162222761178199e-05 	101325.0114863015
0.674424424424424 	300.0000095612006 	2.152986758632656e-05 	101325.0113035964
0.6769269269269262 	300.0000094205856 	2.150532280985792e-05 	101325.0111377006
0.679429429429429 	300.0000092937183 	2.154220881346387e-05 	101325.0109872992
0.6819319319319311 	300.0000091737049 	2.162007488370893e-05 	101325.0108455179
0.6844344344344341 	300.0000090524372 	2.170393034853967e-05 	101325.0107021262
0.686936936936936 	300.0000089210948 	2.175846615697476e-05 	101325.0105469171
0.6894394394394392 	300.0000087741354 	2.176030826455542e-05 	101325.0103731962
0.6919419419419413 	300.0000086108213 	2.169989859896624e-05 	101325.0101802551
0.694444444444444 	300.0000084360105 	2.159232211364001e-05 	101325.0099740653
0.6969469469469463 	300.0000082598646 	2.146603357440716e-05 	101325.0097657839
0.6994494494494489 	300.000008093104 	2.135813701367272e-05 	101325.0095684676
0.7019519519519515 	300.0000079450536 	2.130434394728742e-05 	101325.0093930421
0.7044544544544538 	300.0000078196107 	2.132320713701154e-05 	101325.0092447835
0.7069569569569564 	300.0000077156042 	2.141750589416359e-05 	101325.009121352
0.7094594594594589 	300.0000076238761 	2.156645249527629e-05 	101325.0090129866
0.7119619619619615 	300.0000075322998 	2.173394584634005e-05 	101325.0089048928
0.7144644644644638 	300.0000074278315 	2.187940363815641e-05 	101325.0087810928
0.7169669669669665 	300.0000072986186 	2.19634057044786e-05 	101325.0086285372
0.7194694694694688 	300.0000071398662 	2.196469804649799e-05 	101325.0084404533
0.7219719719719715 	300.0000069517031 	2.188027537754689e-05 	101325.0082181252
0.7244744744744737 	300.0000067424147 	2.172779850843008e-05 	101325.007970671
0.7269769769769764 	300.0000065243916 	2.154438225143671e-05 	101325.0077129725
0.7294794794794791 	300.0000063122974 	2.137173026426658e-05 	101325.0074623144
0.7319819819819813 	300.0000061196702 	2.125371387853485e-05 	101325.0072346808
0.7344844844844839 	300.0000059560281 	2.122276932052864e-05 	101325.0070415553
0.7369869869869864 	300.0000058261147 	2.129249832044132e-05 	101325.0068877266
0.739489489489489 	300.0000057270661 	2.146070411498933e-05 	101325.0067704906
0.7419919919919914 	300.0000056508024 	2.170375776737624e-05 	101325.0066803836
0.7444944944944939 	300.000005585827 	2.198668191683185e-05 	101325.0066032731
0.7469969969969963 	300.000005518154 	2.226812459451351e-05 	101325.0065232761
0.7494994994994989 	300.0000054354422 	2.25063076569378e-05 	101325.0064258028
0.7520020020020015 	300.0000053291918 	2.267170864351062e-05 	101325.0063000863
0.7545045045045039 	300.0000051944237 	2.274706664405191e-05 	101325.006140866
0.7570070070070062 	300.0000050320753 	2.273401425283856e-05 	101325.0059491313
0.7595095095095092 	300.0000048483913 	2.26524150405975e-05 	101325.005732024
0.7620120120120112 	300.0000046540134 	2.253394255973775e-05 	101325.0055018793
0.7645145145145138 	300.0000044615296 	2.242217481231983e-05 	101325.0052743991
0.7670170170170165 	300.0000042850841 	2.2360593392589e-05 	101325.005066067
0.7695195195195191 	300.0000041372817 	2.238687968389009e-05 	101325.0048912152
0.7720220220220213 	300.0000040257421 	2.25275765753087e-05 	101325.0047591685
0.7745245245245239 	300.0000039519518 	2.278688982484475e-05 	101325.0046719253
0.7770270270270263 	300.0000039107438 	2.315060202213297e-05 	101325.0046229326
0.779529529529529 	300.0000038894541 	2.3581337727279e-05 	101325.0045975746
0.7820320320320313 	300.0000038708267 	2.402527028395586e-05 	101325.0045756256
0.784534534534534 	300.0000038367959 	2.44256940651357e-05 	101325.0045352142
0.7870370370370364 	300.0000037707435 	2.472843943811416e-05 	101325.0044572805
0.7895395395395389 	300.0000036626017 	2.490163828224366e-05 	101325.0043295662
0.7920420420420413 	300.0000035101315 	2.493900158259249e-05 	101325.0041494014
0.794544544544544 	300.000003319921 	2.486130938243203e-05 	101325.003924656
0.7970470470470463 	300.0000031067387 	2.471808013827194e-05 	101325.003672509
0.799549549549549 	300.0000028897035 	2.45698208312693e-05 	101325.0034160109
0.8020520520520515 	300.0000026892136 	2.448002699759376e-05 	101325.0031791155
0.8045545545545539 	300.000002521757 	2.450049993215845e-05 	101325.0029814373
0.8070570570570563 	300.0000023971806 	2.465742917964252e-05 	101325.0028339959
0.8095595595595589 	300.0000023151015 	2.495287477015205e-05 	101325.0027371346
0.8120620620620614 	300.0000022677672 	2.53589299957266e-05 	101325.002681248
0.8145645645645638 	300.0000022416018 	2.582766822621362e-05 	101325.0026499938
0.8170670670670666 	300.0000022202782 	2.630537290378657e-05 	101325.0026247772
0.8195695695695689 	300.0000021899087 	2.673989395152575e-05 	101325.0025890429
0.8220720720720714 	300.0000021408208 	2.709893932623332e-05 	101325.00253132
0.8245745745745739 	300.0000020693678 	2.736919853353507e-05 	101325.0024465789
0.8270770770770765 	300.0000019757016 	2.755572143506462e-05 	101325.0023358455
0.8295795795795788 	300.0000018644117 	2.768082079422309e-05 	101325.0022043206
0.8320820820820815 	300.0000017415911 	2.776916399164996e-05 	101325.0020587565
0.834584584584584 	300.0000016116138 	2.784865224827362e-05 	101325.0019051327
0.8370870870870865 	300.0000014781001 	2.794012685907686e-05 	101325.0017475414
0.8395895895895891 	300.0000013435001 	2.805421825039851e-05 	101325.0015885199
0.8420920920920915 	300.0000012098919 	2.819905729255831e-05 	101325.0014303904
0.844594594594594 	300.0000010799262 	2.837570765846253e-05 	101325.0012767755
0.8470970970970964 	300.0000009587745 	2.858899594205854e-05 	101325.0011335157
0.8495995995995991 	300.0000008532169 	2.884688244055912e-05 	101325.0010084626
0.8521021021021015 	300.0000007698005 	2.915460683848251e-05 	101325.0009099327
0.8546046046046039 	300.0000007139805 	2.951971113707048e-05 	101325.0008440372
0.8571071071071066 	300.0000006867153 	2.993930589947459e-05 	101325.0008116812
0.8596096096096089 	300.0000006821983 	3.040010476284669e-05 	101325.0008065604
0.8621121121121116 	300.0000006894276 	3.087991471804073e-05 	101325.0008152743
0.8646146146146139 	300.0000006935263 	3.134405888676371e-05 	101325.0008197901
0.8671171171171166 	300.0000006778828 	3.176057042465959e-05 	101325.0008014797
0.8696196196196189 	300.0000006304662 	3.210235450613887e-05 	101325.0007456076
0.8721221221221216 	300.0000005458969 	3.235629505275798e-05 	101325.0006453271
0.874624624624624 	300.0000004266751 	3.253236288158722e-05 	101325.0005042179
0.8771271271271264 	300.0000002846422 	3.265714008191593e-05 	101325.0003363221
0.879629629629629 	300.0000001382796 	3.277695327293869e-05 	101325.0001632537
0.8821321321321317 	300.0000000076785 	3.294138397582726e-05 	101325.0000090179
0.8846346346346339 	299.9999999100692 	3.319381728460603e-05 	101324.9998940493
0.8871371371371364 	299.9999998559708 	3.355867740557653e-05 	101324.9998299979
0.8896396396396391 	299.9999998446007 	3.4034644058083e-05 	101324.9998165483
0.8921421421421414 	299.9999998655911 	3.459648411954632e-05 	101324.9998413519
0.8946446446446441 	299.9999999012147 	3.519673583770242e-05 	101324.999883337
0.8971471471471464 	299.9999999310475 	3.578158013244022e-05 	101324.9999184637
0.8996496496496489 	299.9999999373758 	3.630512387906917e-05 	101324.9999260331
0.9021521521521517 	299.9999999100225 	3.673966632617509e-05 	101324.9998937488
0.9046546546546541 	299.9999998480709 	3.708114299580753e-05 	101324.9998203924
0.9071571571571564 	299.9999997590532 	3.735072192286682e-05 	101324.9997154516
0.9096596596596589 	299.999999657747 	3.758423999298792e-05 	101324.9995957485
0.9121621621621616 	299.9999995602202 	3.782754232595186e-05 	101324.9994801374
0.9146646646646639 	299.9999994788107 	3.811460511342979e-05 	101324.999384073
0.9171671671671666 	299.9999994208164 	3.846284378094554e-05 	101324.9993157391
0.9196696696696689 	299.9999993863482 	3.887326164024261e-05 	101324.9992746913
0.9221721721721714 	299.9999993682077 	3.932596258136663e-05 	101324.9992532619
0.9246746746746741 	299.9999993568605 	3.979670030865083e-05 	101324.9992402055
0.9271771771771765 	299.9999993441842 	4.02613140726119e-05 	101324.9992251521
0.9296796796796791 	299.9999993248788 	4.070717201945981e-05 	101324.9992021708
0.9321821821821816 	299.9999992986172 	4.113754520689905e-05 	101324.9991712893
0.9346846846846838 	299.9999992700138 	4.15625398436098e-05 	101324.9991376422
0.9371871871871866 	299.9999992457724 	4.200206078880113e-05 	101324.9991087193
0.9396896896896891 	299.9999992305342 	4.247247601327713e-05 	101324.9990907512
0.9421921921921914 	299.9999992261094 	4.297810473204424e-05 	101324.9990855733
0.9446946946946939 	299.9999992289831 	4.351052182244465e-05 	101324.9990891478
0.9471971971971965 	299.9999992314919 	4.404675874298502e-05 	101324.9990922926
0.9496996996996991 	299.9999992242364 	4.456156156738169e-05 	101324.9990834468
0.9522022022022016 	299.9999991984317 	4.502871737337115e-05 	101324.9990527023
0.9547047047047038 	299.9999991504916 	4.543463435078883e-05 	101324.9989959024
0.9572072072072064 	299.9999990840903 	4.578624985809438e-05 	101324.998917396
0.9597097097097093 	299.9999990104421 	4.610667239775086e-05 	101324.9988302375
0.9622122122122114 	299.9999989454925 	4.643555879177833e-05 	101324.9987534172
0.964714714714714 	299.9999989059763 	4.681737450074534e-05 	101324.9987067349
0.9672172172172167 	299.9999989042776 	4.728943891689745e-05 	101324.9987047529
0.969719719719719 	299.9999989440581 	4.786801764567292e-05 	101324.9987516414
0.9722222222222214 	299.9999990175926 	4.854095239792725e-05 	101324.9988385969
0.9747247247247239 	299.9999991074528 	4.927117527960029e-05 	101324.9989448932
0.9772272272272267 	299.9999991902128 	5.000283704281387e-05 	101324.9990426031
0.9797297297297292 	299.9999992418316 	5.067574770814699e-05 	101324.9991037709
0.9822322322322313 	299.9999992454813 	5.124304755430762e-05 	101324.9991081081
0.9847347347347344 	299.9999991955938 	5.168581229164075e-05 	101324.9990491779
0.9872372372372363 	299.999999100634 	5.201754237016735e-05 	101324.9989371681
0.9897397397397389 	299.9999989821937 	5.228553951539095e-05 	101324.9987970559
0.9922422422422417 	299.9999988681593 	5.255817832865595e-05 	101324.9986623017
0.9947447447447441 	299.9999987867998 	5.290397437568409e-05 	101324.9985659475
0.9972472472472468 	299.9999987579218 	5.337594177039616e-05 	101324.9985317855
0.999749749749749 	299.9999987884509 	5.399414068591216e-05 	101324.9985679066
1.002252252252252 	299.9999988701336 	5.47397747351708e-05 	101324.9986644139
1.004754754754754 	299.9999989815187 	5.556248481779431e-05 	101324.9987960217
1.007257257257256 	299.9999990938005 	5.639164634976116e-05 	101324.9989289059
1.009759759759759 	299.9999991791227 	5.715649257403015e-05 	101324.9990298525
1.012262262262261 	299.9999992173009 	5.780524903126082e-05 	101324.9990750366
1.014764764764764 	299.9999992011424 	5.831793257404807e-05 	101324.9990560984
1.017267267267267 	299.9999991382509 	5.871232880036175e-05 	101324.9989818092
1.019769769769769 	299.9999990478805 	5.903554999279976e-05 	101324.9988747253
1.022272272272272 	299.9999989541742 	5.934857931368327e-05 	101324.9987638648
1.024774774774774 	299.9999988797737 	5.97071007367029e-05 	101324.9986758945
1.027277277277277 	299.9999988390794 	6.014733550287124e-05 	101324.9986278343
1.029779779779779 	299.9999988355673 	6.067665978344009e-05 	101324.9986235329
1.032282282282282 	299.9999988620293 	6.127666244499822e-05 	101324.9986548084
1.034784784784784 	299.9999989057353 	6.191669922038637e-05 	101324.9987065571
1.037287287287286 	299.9999989538384 	6.25632904371296e-05 	101324.9987635899
1.039789789789789 	299.99999899854 	6.31955965501166e-05 	101324.9988163805
1.042292292292291 	299.9999990385473 	6.381051397475304e-05 	101324.9988634962
1.044794794794794 	299.999999077949 	6.441481889677927e-05 	101324.9989099558
1.047297297297296 	299.9999991224348 	6.501715606450357e-05 	101324.9989624778
1.049799799799799 	299.9999991741592 	6.561582105138495e-05 	101324.9990239412
1.052302302302302 	299.9999992296823 	6.619270856723214e-05 	101324.9990898255
1.054804804804804 	299.9999992792135 	6.671623229592034e-05 	101324.9991485498
1.057307307307306 	299.9999993107047 	6.715286307149433e-05 	101324.9991858419
1.059809809809809 	299.9999993155894 	6.748309745092482e-05 	101324.9991914023
1.062312312312312 	299.9999992932075 	6.771446273583979e-05 	101324.9991649429
1.064814814814814 	299.9999992541448 	6.788793647088617e-05 	101324.9991187589
1.067317317317317 	299.9999992172907 	6.806799644856053e-05 	101324.9990753411
1.069819819819819 	299.9999992047931 	6.832751148178816e-05 	101324.9990605729
1.072322322322321 	299.9999992341978 	6.872772441206361e-05 	101324.9990949197
1.074824824824824 	299.9999993112395 	6.929617673943501e-05 	101324.9991857884
1.077327327327327 	299.9999994281641 	7.00189636732167e-05 	101324.999323876
1.079829829829829 	299.9999995645427 	7.084411574001198e-05 	101324.9994850454
1.082332332332332 	299.9999996929677 	7.169674545970959e-05 	101324.9996371268
1.084834834834834 	299.9999997875863 	7.250029927857011e-05 	101324.9997491818
1.087337337337337 	299.9999998304485 	7.319697118289139e-05 	101324.9998000773
1.089839839839839 	299.9999998165723 	7.376101730736915e-05 	101324.9997837747
1.092342342342342 	299.9999997544206 	7.420156705550553e-05 	101324.9997100947
1.094844844844844 	299.9999996622895 	7.4555877854398e-05 	101324.9996011726
1.097347347347347 	299.9999995639679 	7.48755565588435e-05 	101324.9994850886
1.099849849849849 	299.9999994826131 	7.521303979265509e-05 	101324.999388939
1.102352352352352 	299.9999994357794 	7.560627839498773e-05 	101324.9993333488
1.104854854854854 	299.9999994325353 	7.607725397536764e-05 	101324.9993293928
1.107357357357357 	299.999999473486 	7.663038610135505e-05 	101324.9993779286
1.109859859859859 	299.9999995519805 	7.724736756940237e-05 	101324.9994707554
1.112362362362362 	299.9999996555459 	7.790466297646337e-05 	101324.9995928099
1.114864864864865 	299.9999997672453 	7.856925070870807e-05 	101324.9997248448
1.117367367367367 	299.9999998698071 	7.920619429390493e-05 	101324.9998463627
1.119869869869869 	299.9999999477595 	7.978360466412155e-05 	101324.9999387055
1.122372372372372 	299.9999999898292 	8.027858907530932e-05 	101324.9999882288
1.124874874874874 	299.9999999906304 	8.068540219857621e-05 	101324.9999891926
1.127377377377377 	299.9999999537562 	8.10146669205281e-05 	101324.9999455861
1.129879879879879 	299.9999998910205 	8.129270506337824e-05 	101324.9998711303
1.132382382382382 	299.9999998199575 	8.15612686743402e-05 	101324.999786995
1.134884884884884 	299.999999760883 	8.186657827647449e-05 	101324.9997173611
1.137387387387387 	299.9999997325191 	8.224540982299673e-05 	101324.9996838334
1.139889889889889 	299.9999997459836 	8.27186481507659e-05 	101324.9997000578
1.142392392392392 	299.999999803381 	8.328061915551318e-05 	101324.9997679676
1.144894894894894 	299.9999998958274 	8.389816398300572e-05 	101324.9998768602
1.147397397397397 	300.0000000047639 	8.45199508661275e-05 	101325.0000057475
1.149899899899899 	300.0000001082439 	8.508911493642228e-05 	101325.0001284188
1.152402402402402 	300.0000001855508 	8.555465732373201e-05 	101325.0002198622
1.154904904904904 	300.0000002216162 	8.588686185438183e-05 	101325.0002623259
1.157407407407407 	300.0000002107551 	8.608572403214209e-05 	101325.0002495342
1.159909909909909 	300.0000001585981 	8.618206120530422e-05 	101325.0001880749
1.162412412412412 	300.0000000803824 	8.622710721548313e-05 	101325.000095658
1.164914914914914 	299.9999999968992 	8.628661215661585e-05 	101324.9999967909
1.167417417417417 	299.9999999294908 	8.642483854303487e-05 	101324.9999170255
1.169919919919919 	299.9999998960739 	8.668710004338875e-05 	101324.9998771666
1.172422422422422 	299.9999999060113 	8.709186546811874e-05 	101324.9998886703
1.174924924924925 	299.9999999586619 	8.762688686612751e-05 	101324.9999511647
1.177427427427427 	300.0000000443644 	8.82496814686577e-05 	101325.0000526258
1.179929929929929 	300.0000001457984 	8.889661368398748e-05 	101325.0001722251
1.182432432432432 	300.0000002414865 	8.949720150835553e-05 	101325.000285193
1.184934934934934 	300.0000003117013 	8.998909788640068e-05 	101325.0003685272
1.187437437437437 	300.0000003433843 	9.03337606372321e-05 	101325.0004062568
1.189939939939939 	300.0000003321832 	9.052416243224081e-05 	101325.0003931206
1.192442442442442 	300.0000002835508 	9.058699145374343e-05 	101325.0003358289
1.194944944944944 	300.0000002122182 	9.057790636289496e-05 	101325.0002514976
1.197447447447447 	300.0000001381207 	9.05675102758148e-05 	101325.000163545
1.199949949949949 	300.0000000811874 	9.062390478457546e-05 	101325.0000960432
1.202452452452452 	300.0000000571735 	9.079991207140993e-05 	101325.0000679077
1.204954954954955 	300.0000000745005 	9.111808374377555e-05 	101325.0000883813
1.207457457457457 	300.0000001309777 	9.156063830375376e-05 	101325.0001549164
1.20995995995996 	300.0000002148479 	9.207960307550803e-05 	101325.0002540405
1.212462462462462 	300.0000003087586 	9.260912256208462e-05 	101325.0003650105
1.214964964964964 	300.0000003934651 	9.30786387022005e-05 	101325.000465202
1.217467467467467 	300.0000004530929 	9.343061776573771e-05 	101325.0005357818
1.219969969969969 	300.0000004786983 	9.363541699082229e-05 	101325.0005662167
1.222472472472472 	300.000000470706 	9.36987871986998e-05 	101325.0005564948
1.224974974974975 	300.0000004370439 	9.365786895284104e-05 	101325.0005165425
1.227477477477477 	300.0000003915599 	9.357207574472439e-05 	101325.0004630853
1.229979979979979 	300.0000003507647 	9.350671571521524e-05 	101325.0004148991
1.232482482482482 	300.0000003276889 	9.351718066551611e-05 	101325.0003877291
1.234984984984984 	300.0000003299124 	9.363595364309936e-05 	101325.0003902839
1.237487487487487 	300.0000003572462 	9.386149222756212e-05 	101325.0004223605
1.239989989989989 	300.0000004021956 	9.416560750080918e-05 	101325.0004754131
1.242492492492492 	300.0000004529495 	9.449008747453869e-05 	101325.0005352292
1.244994994994994 	300.0000004864557 	9.478409797299454e-05 	101325.0005859414
1.247497497497497 	299.9999982647855 	9.499128608390433e-05 	101325.000614318
1.249999999999999 	299.9994377516347 	9.506162625102531e-05 	101325.0005974676
