-1.25 	300 	0.1203999040355472 	101275.8856374636
-1.247497497497497 	299.9572781036313 	0.119934833046073 	101276.0127989247
-1.244994994994995 	299.9586585985083 	0.1196146748157087 	101276.1537690987
-1.242492492492492 	299.9588020786234 	0.119425003463019 	101276.3036512587
-1.23998998998999 	299.9589356667709 	0.1189348039957311 	101276.4624030642
-1.237487487487487 	299.9590774778427 	0.1185627668597596 	101276.6300263103
-1.234984984984985 	299.9592269298891 	0.118128328472271 	101276.8066582613
-1.232482482482482 	299.9593841276136 	0.1176715354292546 	101276.9924434939
-1.22997997997998 	299.9595487922202 	0.1171952851051493 	101277.1870538074
-1.227477477477477 	299.9597206794905 	0.116699949155993 	101277.3902006636
-1.224974974974975 	299.9598998248695 	0.1161816577703609 	101277.6019253794
-1.222472472472472 	299.9600863123551 	0.1156398593878479 	101277.8223267002
-1.21996996996997 	299.9602802683042 	0.1150739479114446 	101278.0515542963
-1.217467467467467 	299.9604815563221 	0.1144865986784252 	101278.2894471661
-1.214964964964965 	299.9606899490895 	0.1138854511009207 	101278.5357378208
-1.212462462462462 	299.9609056651639 	0.1132622302853512 	101278.7906833358
-1.20995995995996 	299.9611290393117 	0.112616192010952 	101279.0546791404
-1.207457457457457 	299.9613598033184 	0.1119470255571995 	101279.3274087439
-1.204954954954955 	299.961597479597 	0.1112570085461497 	101279.6083081174
-1.202452452452452 	299.9618418371434 	0.1105526284006326 	101279.8971051389
-1.19994994994995 	299.9620929809192 	0.1098259354702707 	101280.1939219685
-1.197447447447447 	299.9623513490069 	0.1090769632508642 	101280.4992765133
-1.194944944944945 	299.9626168102848 	0.1083047153784166 	101280.8130147226
-1.192442442442442 	299.9628888712012 	0.1075118298775386 	101281.1345532102
-1.18993993993994 	299.9631676154573 	0.1067058414117434 	101281.4639918415
-1.187437437437437 	299.9634534216532 	0.1058796411318192 	101281.8017770945
-1.184934934934935 	299.9637464723919 	0.1050328325196654 	101282.1481244704
-1.182432432432432 	299.9640463728508 	0.1041658351442892 	101282.5025678203
-1.17992992992993 	299.9643524559519 	0.1032781533277717 	101282.8643190215
-1.177427427427427 	299.9646646391925 	0.1023732328432894 	101283.2332811073
-1.174924924924925 	299.9649834986439 	0.1014496956333334 	101283.6101341858
-1.172422422422422 	299.9653090833418 	0.1005076741621796 	101283.99493556
-1.16991991991992 	299.9656408318301 	0.0995455799626852 	101284.3870215305
-1.167417417417417 	299.9659787063679 	0.09856420316313344 	101284.7863494207
-1.164914914914915 	299.966322895811 	0.09756578926171006 	101285.1931446439
-1.162412412412412 	299.9666735326995 	0.09655013604808939 	101285.6075620447
-1.15990990990991 	299.9670307885737 	0.09551825098091332 	101286.0298011315
-1.157407407407407 	299.9673940079034 	0.09446707103998919 	101286.4590851928
-1.154904904904904 	299.9677626855098 	0.09339703218357795 	101286.8948190825
-1.152402402402403 	299.9681374316127 	0.09231076920486343 	101287.3377294448
-1.1498998998999 	299.968518196053 	0.0912080890133958 	101287.7877602151
-1.147397397397397 	299.9689044826779 	0.09008993540412068 	101288.2443233871
-1.144894894894895 	299.9692964452457 	0.0889542454017566 	101288.7075957385
-1.142392392392392 	299.9696940084393 	0.08780083722679888 	101289.177483367
-1.13988988988989 	299.9700972016536 	0.08663105522580306 	101289.6540186128
-1.137387387387387 	299.9705063929134 	0.08544630421347367 	101290.1376385596
-1.134884884884885 	299.970921152971 	0.08424694783446895 	101290.6278398598
-1.132382382382382 	299.971341006823 	0.08303043975143597 	101291.1240627507
-1.12987987987988 	299.971765980628 	0.08179890683680252 	101291.626340357
-1.127377377377377 	299.9721961462282 	0.08055129700276953 	101292.1347589464
-1.124874874874875 	299.9726314094282 	0.07928931616287291 	101292.6492066139
-1.122372372372372 	299.9730714332511 	0.07801708924780117 	101293.1692855587
-1.11986986986987 	299.9735160564633 	0.07672889775330727 	101293.6948046997
-1.117367367367367 	299.9739661027949 	0.07542424964472247 	101294.2267361102
-1.114864864864865 	299.9744213266363 	0.07410289577341191 	101294.7647890279
-1.112362362362362 	299.9748808305515 	0.07276921381151201 	101295.3079034556
-1.10985985985986 	299.9753451157887 	0.07142749655674295 	101295.8566725162
-1.107357357357357 	299.9758146738315 	0.07006983142784354 	101296.4116753041
-1.104854854854855 	299.9762880882824 	0.06869817663671896 	101296.9712375853
-1.102352352352353 	299.9767651533526 	0.06731263743993487 	101297.5351172096
-1.09984984984985 	299.9772468719499 	0.06591499975836941 	101298.1044997932
-1.097347347347347 	299.9777332156179 	0.06450994537256043 	101298.6793515263
-1.094844844844845 	299.9782230146467 	0.06309244189441456 	101299.2582888927
-1.092342342342342 	299.9787163442859 	0.06166312799978913 	101299.8414019145
-1.08983983983984 	299.9792140951504 	0.06021875179475921 	101300.4297438429
-1.087337337337337 	299.9797167655204 	0.05876088077814864 	101301.0239024946
-1.084834834834835 	299.9802232156302 	0.05729639007356592 	101301.6225306898
-1.082332332332332 	299.9807322814144 	0.05582245964665418 	101302.2242527692
-1.07982982982983 	299.9812443960446 	0.05433885300339181 	101302.829581371
-1.077327327327327 	299.9817604575695 	0.05284367185828798 	101303.4395783087
-1.074824824824825 	299.9822802136699 	0.05133706097936643 	101304.0539447345
-1.072322322322323 	299.9828033008905 	0.04982231114533575 	101304.6722508092
-1.06981981981982 	299.9833294409247 	0.04829901663848537 	101305.2941676185
-1.067317317317317 	299.9838581183637 	0.04676809468058764 	101305.9190865965
-1.064814814814815 	299.9843892457214 	0.04522861354470786 	101306.5469042099
-1.062312312312312 	299.984923211635 	0.04368045870282933 	101307.1780802048
-1.05980980980981 	299.9854606817464 	0.04212261023771127 	101307.8134016914
-1.057307307307307 	299.9860024416254 	0.04055347047864739 	101308.4537962024
-1.054804804804805 	299.9865477167162 	0.03897624858517357 	101309.0983476591
-1.052302302302302 	299.9870939311098 	0.03739425078028102 	101309.7440112737
-1.0497997997998 	299.9876396619542 	0.03581208618735907 	101310.3891059008
-1.047297297297297 	299.9881858961542 	0.03422902198979471 	101311.0347996897
-1.044794794794795 	299.9887351887692 	0.03263713339716037 	101311.6841135807
-1.042292292292292 	299.9892902540201 	0.03103005692537157 	101312.3402552549
-1.03978978978979 	299.9898512406738 	0.02940598000948313 	101313.0033986057
-1.037287287287287 	299.9904144430632 	0.02777391270713989 	101313.6691609827
-1.034784784784785 	299.9909760737759 	0.0261463026151199 	101314.3330655425
-1.032282282282283 	299.9915344956185 	0.02452892776963232 	101314.9931806469
-1.02977977977978 	299.9920908514079 	0.02291708889813925 	101315.650859881
-1.027277277277277 	299.9926487344611 	0.02129919250509964 	101316.3103491667
-1.024774774774775 	299.9932117450037 	0.01966819535123519 	101316.9759029648
-1.022272272272272 	299.9937806746473 	0.01801975666207634 	101317.6484573277
-1.01976976976977 	299.9943552642783 	0.0163573818064858 	101318.3277058339
-1.017267267267267 	299.9949325568479 	0.01468905476768829 	101319.0101512215
-1.014764764764765 	299.9955082785114 	0.01301941908188027 	101319.6907385703
-1.012262262262262 	299.9960804038861 	0.01135922434180611 	101320.3670743555
-1.00975975975976 	299.9966491434744 	0.009710874258280497 	101321.0394140406
-1.007257257257257 	299.997213625495 	0.008072917798159293 	101321.7067279303
-1.004754754754755 	299.9977770981687 	0.006442549947877373 	101322.3728512541
-1.002252252252252 	299.9983417234923 	0.004807978086083761 	101323.0403366469
-0.9997497497497498 	299.9989088035139 	0.003163763942040888 	101323.7107281279
-0.9972472472472473 	299.9994810403377 	0.001506662447818852 	101324.3872257008
-0.9947447447447449 	300.0000579266174 	0.0008341583278128541 	101325.069226109
-0.9922422422422421 	300.0006360352106 	0.001836229045292155 	101325.7526690047
-0.9897397397397399 	300.0012132106863 	0.003508014613675395 	101326.435002077
-0.9872372372372376 	300.0017890968029 	0.005176271933372258 	101327.1158108299
-0.9847347347347346 	300.0023637924892 	0.006841135449208433 	101327.7952236311
-0.9822322322322323 	300.0029374318289 	0.008502965142576292 	101328.4734024451
-0.9797297297297296 	300.0035101159442 	0.01016202063785377 	101329.1504568345
-0.9772272272272275 	300.0040818952727 	0.01181841472674862 	101329.8264328172
-0.9747247247247248 	300.0046527639898 	0.01347212722765316 	101330.5013214038
-0.9722222222222224 	300.0052226690865 	0.01512303782070482 	101331.1750724217
-0.9697197197197196 	300.0057915312807 	0.01677095744307827 	101331.8476075815
-0.9672172172172175 	300.0063592664372 	0.01841565169155049 	101332.5188306785
-0.9647147147147147 	300.0069257948576 	0.02005685924241853 	101333.1886346998
-0.9622122122122124 	300.0074910358614 	0.02169430334549796 	101333.856906362
-0.9597097097097099 	300.0080548972056 	0.02332769795991852 	101334.5235288779
-0.9572072072072073 	300.0086172704227 	0.02495675238925901 	101335.188383541
-0.9547047047047047 	300.009178038455 	0.02658117345073128 	101335.8513506319
-0.9522022022022023 	300.0097370877149 	0.0282006665831159 	101336.5123100184
-0.9496996996996998 	300.0102943172923 	0.02981493750760931 	101337.1711414826
-0.9471971971971973 	300.0108496382473 	0.03142369202466951 	101337.8277249177
-0.9446946946946947 	300.0114029649434 	0.03302663596920431 	101338.4819404655
-0.9421921921921923 	300.0119542055984 	0.0346234767213946 	101339.1336685075
-0.93968968968969 	300.012503256494 	0.03621392230814372 	101339.7827897334
-0.9371871871871872 	300.0130500047141 	0.03779768101300141 	101340.4291852669
-0.9346846846846848 	300.0135943357577 	0.03937446284740787 	101341.07273668
-0.9321821821821823 	300.0141361402515 	0.04094397917604754 	101341.7133260562
-0.9296796796796799 	300.0146753177324 	0.04250594228764562 	101342.3508360275
-0.9271771771771771 	300.0152117759552 	0.04406006604006556 	101342.9851497125
-0.9246746746746748 	300.0157454280204 	0.04560606556477116 	101343.6161507965
-0.9221721721721724 	300.0162761882899 	0.04714365726368075 	101344.2437235816
-0.9196696696696698 	300.0168039675698 	0.04867255945296636 	101344.8677529405
-0.9171671671671672 	300.0173286716068 	0.05019249175843926 	101345.4881244189
-0.9146646646646649 	300.0178502014221 	0.05170317552231181 	101346.1047242453
-0.9121621621621623 	300.0183684555052 	0.05320433406714817 	101346.7174392845
-0.9096596596596597 	300.0188833327284 	0.05469569192985065 	101347.3261571717
-0.9071571571571573 	300.0193947333266 	0.05617697568200802 	101347.9307662738
-0.9046546546546547 	300.0199025595209 	0.05764791396124753 	101348.5311556119
-0.9021521521521524 	300.0204067157259 	0.05910823680635909 	101349.1272150762
-0.8996496496496498 	300.0209071086943 	0.06055767667320949 	101349.71883543
-0.8971471471471473 	300.0214036467478 	0.06199596825985527 	101350.3059081677
-0.894644644644645 	300.0218962393417 	0.06342284760441387 	101350.8883256289
-0.892142142142142 	300.0223847972427 	0.06483805308307927 	101351.4659809699
-0.8896396396396397 	300.0228692318121 	0.0662413253736511 	101352.0387681282
-0.8871371371371374 	300.0233494551429 	0.06763240696337949 	101352.606582054
-0.8846346346346349 	300.0238253802576 	0.06901104286762318 	101353.1693185796
-0.8821321321321324 	300.0242969202466 	0.07037698005524262 	101353.7268742235
-0.8796296296296297 	300.0247639891274 	0.07172996744940974 	101354.279146541
-0.8771271271271271 	300.0252265015549 	0.07306975692860834 	101354.8260341952
-0.8746246246246248 	300.0256843729694 	0.07439610288664154 	101355.3674367216
-0.8721221221221224 	300.0261375195394 	0.07570876187222787 	101355.9032547516
-0.8696196196196196 	300.0265858582529 	0.07700749338475087 	101356.4333900267
-0.8671171171171175 	300.0270293070464 	0.07829205909311188 	101356.9577451233
-0.8646146146146148 	300.0274677843871 	0.07956222329566633 	101357.4762237626
-0.8621121121121121 	300.0279012102116 	0.08081775348460268 	101357.9887309644
-0.8596096096096097 	300.0283295050721 	0.08205841940757895 	101358.4951726747
-0.857107107107107 	300.028752590185 	0.08328399379800458 	101358.9954559616
-0.8546046046046049 	300.0291703884726 	0.08449425243278691 	101359.4894892657
-0.8521021021021022 	300.0295828231937 	0.08568897292253597 	101359.9771819313
-0.8495995995995997 	300.02998981852 	0.08686793590198591 	101360.4584442689
-0.8470970970970974 	300.0303913000303 	0.08803092557712291 	101360.9331881306
-0.8445945945945946 	300.0307871942954 	0.08917772864619476 	101361.4013266387
-0.8420920920920922 	300.031177428843 	0.09030813500691566 	101361.8627738645
-0.8395895895895897 	300.0315619318883 	0.09142193799763948 	101362.3174451846
-0.8370870870870872 	300.0319406330045 	0.09251893325508688 	101362.7652570984
-0.8345845845845846 	300.0323134623645 	0.09359891938996738 	101363.2061269105
-0.8320820820820823 	300.0326803511955 	0.09466169856624584 	101363.6399734025
-0.8295795795795798 	300.0330412326703 	0.09570707629367968 	101364.0667172401
-0.8270770770770772 	300.033396040707 	0.0967348610359357 	101364.4862803682
-0.8245745745745746 	300.0337447103167 	0.09774486369979306 	101364.8985858619
-0.8220720720720721 	300.034087177827 	0.0987368983209793 	101365.3035583305
-0.8195695695695699 	300.0344233805968 	0.09971078259332131 	101365.7011236631
-0.817067067067067 	300.0347532567261 	0.1006663372230693 	101366.0912085875
-0.8145645645645651 	300.0350767452703 	0.101603386747534 	101366.4737410362
-0.8120620620620621 	300.0353937869354 	0.1025217599475823 	101366.8486506563
-0.8095595595595597 	300.0357043234217 	0.1034212883091159 	101367.2158686034
-0.8070570570570572 	300.0360082975119 	0.1043018063423694 	101367.5753272636
-0.8045545545545546 	300.0363056537485 	0.1051631526582732 	101367.926960717
-0.8020520520520523 	300.0365963378717 	0.106005170218257 	101368.2707048817
-0.7995495495495494 	300.0368802963723 	0.106827705647563 	101368.606496394
-0.7970470470470474 	300.0371574759856 	0.1076306075364198 	101368.9342722653
-0.7945445445445446 	300.0374278252775 	0.1084137278654538 	101369.2539716241
-0.7920420420420423 	300.037691295137 	0.1091769231722534 	101369.5655362506
-0.7895395395395397 	300.0379478368473 	0.1099200516701264 	101369.8689086025
-0.7870370370370371 	300.0381974026605 	0.1106429744182859 	101370.1640320716
-0.7845345345345348 	300.0384399477986 	0.111345560113779 	101370.4508536572
-0.7820320320320323 	300.0386754292416 	0.1120276810142069 	101370.7293224833
-0.7795295295295296 	300.0389038027471 	0.1126892079190647 	101370.9993861843
-0.7770270270270272 	300.0391250251674 	0.1133300165583511 	101371.2609936782
-0.7745245245245247 	300.0393390577874 	0.1139499935569448 	101371.5140989445
-0.7720220220220222 	300.0395458617356 	0.1145490278410994 	101371.7586561805
-0.7695195195195199 	300.0397453955403 	0.1151270048790326 	101371.9946163427
-0.767017017017017 	300.039937621725 	0.1156838186216481 	101372.2219348848
-0.7645145145145147 	300.0401225086929 	0.1162193754409391 	101372.4405745652
-0.7620120120120122 	300.0403000222146 	0.1167335753749144 	101372.6504947324
-0.7595095095095097 	300.0404701239456 	0.1172263108187189 	101372.8516501595
-0.7570070070070072 	300.0406327839977 	0.1176974915224166 	101373.0440053951
-0.7545045045045048 	300.0407879797525 	0.118147042415647 	101373.2275336023
-0.7520020020020022 	300.040935680088 	0.118574873597862 	101373.4021980924
-0.7494994994994997 	300.0410758492509 	0.1189808895963175 	101373.5679560974
-0.7469969969969972 	300.0412084647385 	0.1193650262872745 	101373.7247813798
-0.7444944944944945 	300.041333511949 	0.1197272353139346 	101373.8726567543
-0.7419919919919924 	300.0414509609651 	0.1200674366962738 	101374.0115467722
-0.7394894894894897 	300.0415607768898 	0.1203855413589349 	101374.1414100707
-0.7369869869869872 	300.0416629488006 	0.1206815084937227 	101374.2622332676
-0.7344844844844846 	300.0417574742019 	0.1209553129535368 	101374.3740136921
-0.7319819819819822 	300.0418443243809 	0.121206875714447 	101374.4767173557
-0.7294794794794797 	300.0419234620454 	0.121436108010517 	101374.5703006246
-0.7269769769769773 	300.0419948858279 	0.1216429989721743 	101374.6547617462
-0.7244744744744747 	300.0420586079518 	0.1218275635921536 	101374.7301147415
-0.721971971971972 	300.0421145999833 	0.1219897323380712 	101374.7963257544
-0.7194694694694695 	300.0421628182397 	0.1221294078388601 	101374.8533430317
-0.7169669669669674 	300.0422032713861 	0.1222466041729805 	101374.901177468
-0.7144644644644647 	300.0422359957196 	0.1223413870754607 	101374.9398722032
-0.711961961961962 	300.0422609687394 	0.1224136962147078 	101374.9694004836
-0.7094594594594597 	300.0422781296658 	0.1224634000472516 	101374.9896901803
-0.7069569569569573 	300.0422874870593 	0.1224905218849493 	101375.0007507478
-0.7044544544544545 	300.042289109147 	0.1224952064826823 	101375.00266241
-0.7019519519519523 	300.0422829901664 	0.1224774372726882 	101374.9954197243
-0.6994494494494495 	300.0422690422508 	0.1224370257514529 	101374.9789196859
-0.6969469469469471 	300.0422472539017 	0.1223739526884983 	101374.9531478296
-0.6944444444444446 	300.0422177337215 	0.1222884568672296 	101374.9182324672
-0.6919419419419421 	300.042180534082 	0.1221806445431853 	101374.8742349035
-0.6894394394394396 	300.042135546951 	0.1220502802967451 	101374.8210271683
-0.6869369369369374 	300.042082689304 	0.1218972011544419 	101374.7585109283
-0.6844344344344344 	300.0420220808165 	0.1217216895405791 	101374.6868284764
-0.6819319319319321 	300.0419538781576 	0.1215240885990365 	101374.6061657816
-0.6794294294294296 	300.0418780082981 	0.1213042261313803 	101374.5164366177
-0.6769269269269272 	300.0417942757304 	0.1210616802068634 	101374.4174097359
-0.6744244244244245 	300.0417027196208 	0.1207965694671908 	101374.3091309656
-0.6719219219219222 	300.0416036198073 	0.1205095345264053 	101374.1919307029
-0.6694194194194195 	300.0414970750631 	0.1202007844417935 	101374.0659249733
-0.6669169169169172 	300.0413828206071 	0.1198697217870075 	101373.9308007558
-0.6644144144144146 	300.0412606504776 	0.1195159163790245 	101373.7863154093
-0.661911911911912 	300.0411308230202 	0.1191399936801298 	101373.6327752548
-0.6594094094094097 	300.0409937504846 	0.118742893891656 	101373.4706683023
-0.656906906906907 	300.0408493703221 	0.118324453531425 	101373.2999205247
-0.6544044044044046 	300.0406971942298 	0.1178835670351982 	101373.1199541293
-0.6519019019019021 	300.0405370736335 	0.1174199509613415 	101372.9305933418
-0.6493993993993996 	300.0403695560774 	0.1169349099765506 	101372.7324852607
-0.6468968968968971 	300.040195185771 	0.1164296851328944 	101372.5262726831
-0.6443943943943946 	300.0400136837892 	0.1159035942871392 	101372.3116250181
-0.6418918918918921 	300.0398242774422 	0.1153548642963769 	101372.0876285085
-0.6393893893893897 	300.0396268570918 	0.1147833249790338 	101371.8541545387
-0.6368868868868871 	300.0394223222768 	0.11419113974126 	101371.6122677024
-0.6343843843843846 	300.0392114630295 	0.1135801346265848 	101371.3629021613
-0.6318818818818821 	300.0389938148886 	0.1129491602994541 	101371.105508558
-0.6293793793793795 	300.0387681697716 	0.1122953850913352 	101370.8386585617
-0.6268768768768773 	300.0385342527016 	0.1116182681821544 	101370.562027515
-0.6243743743743745 	300.0382932901891 	0.1109209259217876 	101370.2771233073
-0.6218718718718721 	300.038046718872 	0.11020656083924 	101369.9855494505
-0.6193693693693696 	300.0377941950483 	0.1094741968798213 	101369.6868643512
-0.6168668668668671 	300.0375338070797 	0.1087194581657701 	101369.378915122
-0.6143643643643645 	300.0372645802533 	0.1079400818487481 	101369.0605325915
-0.6118618618618621 	300.0369878832124 	0.1071394760978047 	101368.7333187517
-0.6093593593593596 	300.0367060778483 	0.106323369745844 	101368.400065947
-0.6068568568568571 	300.036419712168 	0.1054929803823489 	101368.0614205095
-0.6043543543543546 	300.036126614859 	0.104642938650392 	101367.7148135943
-0.6018518518518521 	300.0358242667323 	0.1037671721901013 	101367.3572671163
-0.5993493493493496 	300.0355129116849 	0.1028664685600982 	101366.9890718744
-0.5968468468468471 	300.0351957216736 	0.1019487330530676 	101366.6139795245
-0.5943443443443446 	300.0348754951704 	0.1010207901369165 	101366.235297809
-0.591841841841842 	300.0345513992222 	0.1000804235211622 	101365.8520394262
-0.5893393393393397 	300.0342195176977 	0.09911788101293544 	101365.4595728601
-0.5868368368368371 	300.0338769551901 	0.09812611761138493 	101365.0544765241
-0.5843343343343346 	300.0335252552577 	0.09710920344279932 	101364.6385787713
-0.5818318318318321 	300.0331693185179 	0.09607947347199131 	101364.2176751033
-0.5793293293293297 	300.032812594512 	0.09504545568324564 	101363.7958420137
-0.5768268268268271 	300.0324533394115 	0.09400258310534254 	101363.3710139713
-0.5743243243243245 	300.0320859193441 	0.09293661571821354 	101362.9365285205
-0.5718218218218221 	300.0317062060792 	0.09183729477973872 	101362.4875072418
-0.5693193193193196 	300.0313159395042 	0.09070927600204789 	101362.026011437
-0.5668168168168171 	300.0309216749116 	0.08956932152957987 	101361.5597940202
-0.5643143143143147 	300.0305289834364 	0.08843151375576358 	101361.0954395852
-0.5618118118118121 	300.0301371442856 	0.08729380795110482 	101360.6320910701
-0.5593093093093094 	300.0297393152912 	0.08613858959819132 	101360.1616560507
-0.5568068068068072 	300.0293283104361 	0.084947534953261 	101359.6756398843
-0.5543043043043046 	300.0289030742721 	0.08371818338720229 	101359.1727998012
-0.551801801801802 	300.0284701763057 	0.08246766697418233 	101358.6609077008
-0.5492992992992995 	300.0280388067974 	0.08121973418096265 	101358.150829189
-0.5467967967967969 	300.0276132709114 	0.07998537029791965 	101357.6476498304
-0.5442942942942947 	300.0271891483599 	0.07875291348743554 	101357.1461377261
-0.5417917917917919 	300.0267563466563 	0.07749605293716325 	101356.6343582727
-0.5392892892892895 	300.026306799795 	0.07619389861711828 	101356.1027782144
-0.536786786786787 	300.0258409322175 	0.07484780402341804 	101355.5519058677
-0.5342842842842846 	300.0253679131259 	0.07348196012539526 	101354.9925872569
-0.531781781781782 	300.0248993768317 	0.07212691687908121 	101354.438577349
-0.5292792792792794 	300.0244411306102 	0.07079782540715651 	101353.8967365687
-0.526776776776777 	300.023988793482 	0.0694829665354017 	101353.361878375
-0.5242742742742745 	300.0235304227181 	0.0681506882627662 	101352.8198792379
-0.521771771771772 	300.0230543356944 	0.06677011405176199 	101352.2569292558
-0.5192692692692695 	300.0225569344774 	0.06533188338447909 	101351.6687816944
-0.516766766766767 	300.0220454427857 	0.06385539791807227 	101351.0639839109
-0.5142642642642645 	300.0215338026097 	0.06237790720298125 	101350.4590226304
-0.511761761761762 	300.0210343386111 	0.06093230971450687 	101349.86846585
-0.5092592592592596 	300.0205503425178 	0.05952732576096004 	101349.2961980489
-0.506756756756757 	300.0200739528743 	0.0581417481957977 	101348.7329176555
-0.5042542542542544 	300.0195903843242 	0.05673574746991229 	101348.1611409927
-0.5017517517517521 	300.019085970501 	0.05527253091708373 	101347.5647135817
-0.4992492492492494 	300.0185556012081 	0.05373843043737604 	101346.9376010882
-0.496746746746747 	300.0180056676633 	0.05215088159725912 	101346.2873676382
-0.4942442442442445 	300.0174510998215 	0.05055044385427573 	101345.6316690665
-0.4917417417417421 	300.0169081541891 	0.04898130687204373 	101344.9897238734
-0.4892392392392395 	300.0163866708291 	0.04747025978735702 	101344.3731597161
-0.486736736736737 	300.015885509121 	0.04601416303775374 	101343.7806200195
-0.4842342342342345 	300.0153930340389 	0.04458113836296046 	101343.1983426501
-0.481731731731732 	300.0148920888861 	0.04312410038271211 	101342.606041395
-0.4792292292292296 	300.0143670859035 	0.04160023111738209 	101341.9852907544
-0.4767267267267268 	300.0138102838296 	0.03998829383185603 	101341.326945303
-0.4742242242242246 	300.0132248915634 	0.03829722670031244 	101340.6348065881
-0.471721721721722 	300.0126239889926 	0.0365632166427004 	101339.9243449341
-0.4692192192192195 	300.0120258787533 	0.0348369392927156 	101339.2172007358
-0.4667167167167169 	300.011447780512 	0.03316619678985049 	101338.5337297154
-0.4642142142142145 	300.0109002400566 	0.0315803700566378 	101337.8863933589
-0.461711711711712 	300.0103839976687 	0.03008158292469738 	101337.2760597312
-0.4592092092092094 	300.0098899754944 	0.02864453268209145 	101336.6919898767
-0.456706706706707 	300.0094020223628 	0.02722398951511209 	101336.1150850199
-0.4542042042042045 	300.0089012381228 	0.02576685315578127 	101335.5230002068
-0.451701701701702 	300.0083705636084 	0.02422509108250817 	101334.8955695697
-0.4491991991991995 	300.0077985838139 	0.0225665257677363 	101334.2193032355
-0.4466966966966969 	300.0071818658178 	0.02078149098700744 	101333.4901491854
-0.4441941941941945 	300.0065255399053 	0.01888451570062902 	101332.7141790183
-0.441691691691692 	300.0058422027413 	0.0169112577677476 	101331.906290359
-0.4391891891891895 	300.0051495297269 	0.01491178831156516 	101331.0873823549
-0.436686686686687 	300.0044671962472 	0.01294196542200894 	101330.2807163811
-0.4341841841841846 	300.0038138573833 	0.01105504964464711 	101329.5083449539
-0.431681681681682 	300.0032049913058 	0.00929553519707816 	101328.7885635964
-0.4291791791791794 	300.0026518315022 	0.007695903042974475 	101328.1346487226
-0.426676676676677 	300.0021611123667 	0.006275781076552756 	101327.5545578163
-0.4241741741741744 	300.0017353803465 	0.005042772178896958 	101327.0512977579
-0.421671671671672 	300.0013736611664 	0.003994326695814419 	101326.6237139129
-0.4191691691691694 	300.001072298358 	0.003120125834553115 	101326.2674814089
-0.4166666666666669 	300.0008258167762 	0.002404554000132989 	101325.9761261143
-0.4141641641641645 	300.0006277107796 	0.001828966351643682 	101325.741956407
-0.411661661661662 	300.0004710997059 	0.00137358056994779 	101325.5568371627
-0.4091591591591594 	300.0003492247481 	0.001018922212262616 	101325.4127786131
-0.406656656656657 	300.0002557938426 	0.000746826952946669 	101325.3023425851
-0.4041541541541545 	300.000185188803 	0.000541049368027884 	101325.2188874292
-0.401651651651652 	300.0001325612741 	0.0003875521356579123 	101325.1566824196
-0.3991491491491494 	300.0000938487277 	0.0002745559070740102 	101325.1109248714
-0.396646646646647 	300.0000657314109 	0.0001924257039083704 	101325.0776910722
-0.3941441441441444 	300.0000455584618 	0.0001334580012144817 	101325.053847376
-0.3916416416416419 	300.000031255531 	9.161929437510859e-05 	101325.0369420304
-0.3891391391391395 	300.0000212302102 	6.227241543791737e-05 	101325.0250925917
-0.3866366366366368 	300.0000142807148 	4.191517863611158e-05 	101325.0168787049
-0.3841341341341344 	300.0000095150638 	2.794530903477579e-05 	101325.011245967
-0.381631631631632 	300.0000062809013 	1.845861377061052e-05 	101325.0074235056
-0.3791291291291294 	300.0000041084946 	1.208169308651075e-05 	101325.0048558119
-0.3766266266266269 	300.0000026635751 	7.837492042503448e-06 	101325.0031480174
-0.3741241241241244 	300.0000017117749 	5.03993725890928e-06 	101325.0020230788
-0.371621621621622 	300.0000010906865 	3.213261555102287e-06 	101325.0012890301
-0.3691191191191194 	300.0000006891262 	2.031477250676025e-06 	101325.0008144397
-0.366616616616617 	300.0000004318362 	1.273764983367071e-06 	101325.0005103497
-0.3641141141141143 	300.0000002683685 	7.922206940155736e-07 	101325.0003172159
-0.3616116116116119 	300.0000001654523 	4.888109158753616e-07 	101325.0001956055
-0.3591091091091095 	300.0000001012561 	2.992536946395782e-07 	101325.000119675
-0.356606606606607 	300.000000061462 	1.818001078152434e-07 	101325.0000726572
-0.3541041041041044 	300.0000000370258 	1.096138930040951e-07 	101325.0000437778
-0.3516016016016019 	300.000000022162 	6.56011450839406e-08 	101325.00002618
-0.3490990990990994 	300.0000000131424 	3.897388279955799e-08 	101325.0000155408
-0.346596596596597 	300.0000000078153 	2.299096698875829e-08 	101325.0000091573
-0.3440940940940944 	300.0000000046101 	1.346455820279851e-08 	101325.000005356
-0.3415915915915919 	300.0000000026616 	7.833455752048573e-09 	101325.0000031092
-0.3390890890890895 	300.0000000015011 	4.523248942029625e-09 	101325.0000017906
-0.3365865865865869 	300.0000000009035 	2.596555104371505e-09 	101325.0000010224
-0.3340840840840844 	300.0000000005077 	1.478753432035692e-09 	101325.0000005778
-0.3315815815815819 	300.0000000003108 	8.387741070314526e-10 	101325.0000003221
-0.3290790790790794 	300.0000000001777 	4.71088367113953e-10 	101325.0000001763
-0.3265765765765769 	299.9999999999942 	2.650725191553923e-10 	101325.0000000934
-0.3240740740740744 	300.0000000000437 	1.45948254073768e-10 	101325.0000000469
-0.3215715715715718 	300.0000000000364 	8.377190914177762e-11 	101325.0000000208
-0.3190690690690695 	299.9999999999223 	4.48069544965905e-11 	101325.0000000061
-0.3165665665665668 	299.9999999999971 	2.740224818939802e-11 	101324.9999999983
-0.3140640640640644 	300.0000000000084 	1.312299126724286e-11 	101324.999999994
-0.311561561561562 	299.999999999907 	1.152905487491319e-11 	101324.9999999919
-0.3090590590590593 	299.9999999999927 	2.912034306343814e-12 	101324.9999999908
-0.3065565565565568 	300.0000000000022 	7.097194100308721e-12 	101324.9999999902
-0.3040540540540545 	300.0000000000292 	1.981985964477622e-12 	101324.9999999897
-0.3015515515515518 	300.0000000000449 	5.858391795034187e-12 	101324.9999999892
-0.2990490490490494 	299.9999999999311 	1.010611427275752e-12 	101324.9999999892
-0.2965465465465469 	299.9999999999807 	4.109441153590757e-12 	101324.9999999889
-0.2940440440440444 	300.0000000000002 	1.449912472385332e-12 	101324.999999989
-0.2915415415415418 	300.0000000000001 	2.696159769375642e-12 	101324.9999999889
-0.2890390390390395 	300.0000000000023 	2.697953408821681e-12 	101324.9999999889
-0.2865365365365368 	299.999999999976 	3.024443006207344e-12 	101324.9999999889
-0.2840340340340343 	300.0000000000014 	4.676469322051487e-12 	101324.999999989
-0.2815315315315318 	299.9999999999094 	2.898831912299058e-12 	101324.9999999889
-0.2790290290290295 	299.999999999947 	3.661263987972465e-12 	101324.9999999893
-0.2765265265265269 	300.0000000000134 	2.629705573051249e-12 	101324.9999999894
-0.2740240240240244 	300.0000000000389 	2.661349385659686e-12 	101324.9999999895
-0.2715215215215219 	300.0000000000196 	3.272626389041894e-12 	101324.9999999897
-0.2690190190190194 	299.9999999999298 	3.236390944464872e-12 	101324.9999999897
-0.2665165165165169 	299.9999999999972 	4.140024491178851e-12 	101324.9999999897
-0.2640140140140144 	299.9999999999548 	2.698842227764934e-12 	101324.9999999896
-0.2615115115115119 	299.9999999999995 	4.427961263580572e-12 	101324.9999999897
-0.2590090090090094 	299.9999999999196 	2.743802546843012e-12 	101324.9999999898
-0.2565065065065068 	299.9999999999948 	3.79973305473091e-12 	101324.9999999897
-0.2540040040040044 	300.0000000000001 	4.426373984588848e-12 	101324.99999999
-0.2515015015015019 	300.0000000000524 	2.663252318067185e-12 	101324.9999999902
-0.2489989989989994 	300.0000000000589 	4.65034702571068e-12 	101324.9999999902
-0.2464964964964968 	299.999999999993 	2.033747767236055e-12 	101324.9999999902
-0.2439939939939944 	299.9999999999973 	6.817875020855344e-12 	101324.9999999898
-0.2414914914914919 	299.9999999999673 	2.626683058661018e-12 	101324.9999999896
-0.2389889889889893 	300.0000000000082 	7.893747268237311e-12 	101324.9999999893
-0.2364864864864869 	300.000000000027 	4.242517552395953e-12 	101324.9999999894
-0.2339839839839843 	299.9999999998989 	9.23559687539666e-12 	101324.9999999895
-0.2314814814814819 	299.9999999999761 	4.56095375624406e-12 	101324.9999999893
-0.2289789789789792 	299.9999999999032 	8.828721542973499e-12 	101324.9999999895
-0.2264764764764769 	299.9999999999358 	5.832445512340308e-12 	101324.9999999891
-0.2239739739739743 	299.9999999999489 	8.048304053051215e-12 	101324.999999989
-0.2214714714714718 	299.9999999999204 	6.241194767325996e-12 	101324.9999999889
-0.2189689689689693 	299.9999999999603 	6.341351435015172e-12 	101324.9999999888
-0.2164664664664669 	299.9999999999777 	6.683831416051615e-12 	101324.9999999889
-0.2139639639639643 	299.9999999999087 	5.056557916029531e-12 	101324.9999999886
-0.2114614614614618 	299.999999999962 	5.326796682200181e-12 	101324.9999999888
-0.2089589589589593 	299.9999999999917 	4.312595746106941e-12 	101324.9999999889
-0.2064564564564568 	299.9999999999919 	3.253832809030017e-12 	101324.9999999894
-0.2039539539539543 	299.999999999884 	3.907127528495622e-12 	101324.9999999896
-0.2014514514514518 	299.9999999999382 	1.68255943078246e-12 	101324.9999999896
-0.1989489489489494 	299.9999999999702 	4.054080431749899e-12 	101324.9999999895
-0.1964464464464468 	299.9999999999957 	5.80307576350265e-13 	101324.9999999896
-0.1939439439439443 	299.9999999999811 	3.418545487027284e-12 	101324.9999999894
-0.1914414414414418 	299.9999999998993 	5.129075911107881e-13 	101324.9999999894
-0.1889389389389393 	300.0000000000075 	2.195773686342708e-12 	101324.9999999895
-0.1864364364364368 	300.0000000000512 	2.105075435820074e-13 	101324.9999999894
-0.1839339339339343 	299.9999999999654 	2.383148951638887e-12 	101324.9999999896
-0.1814314314314318 	299.9999999999944 	5.323511336192762e-13 	101324.9999999898
-0.1789289289289293 	299.9999999998811 	3.470375725116388e-12 	101324.9999999899
-0.1764264264264268 	299.9999999999699 	8.024245056948707e-13 	101324.9999999903
-0.1739239239239243 	299.9999999998712 	4.178215803325565e-12 	101324.9999999904
-0.1714214214214218 	299.9999999999866 	1.785890382534145e-12 	101324.9999999903
-0.1689189189189193 	299.9999999999391 	5.588696474243558e-12 	101324.9999999902
-0.1664164164164168 	300.0000000000052 	3.412721839950656e-12 	101324.9999999901
-0.1639139139139143 	299.9999999999873 	6.442603154770739e-12 	101324.99999999
-0.1614114114114118 	300.0000000000388 	4.533801543181109e-12 	101324.9999999898
-0.1589089089089093 	300.0000000000046 	8.799637198123812e-12 	101324.9999999899
-0.1564064064064068 	299.9999999999885 	5.246562829715157e-12 	101324.9999999897
-0.1539039039039043 	299.9999999999935 	8.925344428235183e-12 	101324.9999999896
-0.1514014014014018 	300.0000000000325 	4.317172077692493e-12 	101324.9999999899
-0.1488988988988993 	299.999999999987 	8.892025229755786e-12 	101324.9999999897
-0.1463963963963968 	300.0000000000063 	2.226560857852285e-12 	101324.9999999898
-0.1438938938938943 	299.9999999999384 	8.958375542634756e-12 	101324.9999999897
-0.1413913913913918 	299.9999999998988 	7.273989868745131e-13 	101324.9999999895
-0.1388888888888893 	299.9999999999753 	7.226340391441385e-12 	101324.9999999892
-0.1363863863863868 	299.999999999859 	1.774889841880107e-12 	101324.9999999892
-0.1338838838838843 	299.9999999999002 	6.683446636290759e-12 	101324.999999989
-0.1313813813813818 	299.9999999999945 	2.724369769444108e-12 	101324.9999999889
-0.1288788788788793 	299.9999999999578 	6.826419739353369e-12 	101324.999999989
-0.1263763763763768 	299.9999999999649 	2.09899147263255e-12 	101324.9999999892
-0.1238738738738743 	299.9999999999063 	7.008403191344156e-12 	101324.9999999895
-0.1213713713713717 	299.9999999999719 	2.154472773977649e-12 	101324.9999999896
-0.1188688688688693 	300.0000000000088 	7.794963019790818e-12 	101324.9999999896
-0.1163663663663668 	299.9999999998807 	1.789275711694756e-12 	101324.9999999898
-0.1138638638638643 	299.9999999999848 	7.98654214930308e-12 	101324.9999999896
-0.1113613613613618 	299.9999999999842 	1.352516231547294e-12 	101324.9999999899
-0.1088588588588592 	299.9999999999696 	7.918550841663815e-12 	101324.9999999896
-0.1063563563563568 	299.9999999999363 	1.199970771059264e-12 	101324.9999999899
-0.1038538538538543 	299.9999999999648 	6.680710886475181e-12 	101324.9999999898
-0.1013513513513517 	300.0000000000201 	1.300297118558329e-12 	101324.9999999896
-0.09884884884884926 	299.9999999999197 	5.651063073105324e-12 	101324.9999999893
-0.09634634634634676 	299.9999999998662 	1.378113046526328e-12 	101324.9999999895
-0.09384384384384425 	299.9999999999101 	4.402472784872152e-12 	101324.9999999893
-0.09134134134134177 	300.0000000000328 	1.38317142077004e-12 	101324.9999999893
-0.08883883883883925 	300.0000000000092 	3.661818465552915e-12 	101324.9999999889
-0.08633633633633674 	299.9999999999395 	1.477536737332175e-12 	101324.9999999886
-0.08383383383383426 	300.0000000000146 	2.410542747065645e-12 	101324.9999999884
-0.08133133133133173 	299.9999999999547 	1.903701526379128e-12 	101324.9999999886
-0.07882882882882926 	299.9999999998578 	2.419253524592734e-12 	101324.9999999887
-0.07632632632632676 	299.9999999999483 	2.174155958501572e-12 	101324.9999999887
-0.07382382382382424 	299.9999999998693 	2.300826612752558e-12 	101324.9999999886
-0.07132132132132173 	300.0000000000157 	1.425769687424061e-12 	101324.9999999889
-0.06881881881881925 	299.9999999999487 	1.639263647425187e-12 	101324.9999999892
-0.06631631631631671 	299.9999999998672 	4.836678381946159e-13 	101324.9999999891
-0.06381381381381425 	299.9999999999463 	4.197211024157794e-13 	101324.999999989
-0.06131131131131173 	299.9999999999483 	7.061249593839772e-13 	101324.9999999887
-0.05880880880880923 	299.9999999998879 	6.478418551331365e-13 	101324.9999999887
-0.05630630630630672 	299.9999999999611 	4.536064353699784e-13 	101324.9999999888
-0.05380380380380424 	300.0000000000165 	2.88501339244832e-13 	101324.999999989
-0.05130130130130173 	300.0000000000159 	9.511406839771116e-13 	101324.9999999893
-0.04879879879879922 	299.9999999999264 	7.713460278676146e-13 	101324.9999999895
-0.04629629629629672 	299.9999999999108 	1.264947609759713e-12 	101324.9999999896
-0.04379379379379422 	299.9999999998926 	9.542786800384786e-13 	101324.9999999898
-0.04129129129129173 	299.9999999999739 	1.132921710837167e-12 	101324.9999999894
-0.03878878878878922 	299.9999999999797 	1.623973654189515e-13 	101324.9999999893
-0.03628628628628671 	299.9999999999798 	1.036990798935385e-13 	101324.9999999892
-0.03378378378378422 	299.9999999999028 	9.673232860202868e-13 	101324.9999999891
-0.03128128128128172 	299.9999999999562 	3.062277515497037e-13 	101324.9999999891
-0.02877877877877922 	299.9999999999558 	4.993116264923959e-13 	101324.9999999891
-0.0262762762762767 	299.9999999998781 	1.252001049502358e-13 	101324.9999999892
-0.02377377377377422 	300.0000000000253 	3.511843830438096e-13 	101324.999999989
-0.0212712712712717 	299.999999999875 	1.36526470558281e-13 	101324.999999989
-0.01876876876876921 	299.9999999999495 	5.679110688728114e-13 	101324.9999999888
-0.01626626626626671 	300.0000000000184 	1.05154183914971e-12 	101324.9999999886
-0.0137637637637642 	299.9999999999546 	6.535590285052675e-14 	101324.9999999886
-0.0112612612612617 	300.0000000000225 	8.589045138539938e-13 	101324.9999999885
-0.008758758758759198 	299.999999999997 	1.340273625989038e-12 	101324.9999999886
-0.006256256256256697 	299.9999999998552 	1.717435102437793e-12 	101324.9999999887
-0.003753753753754195 	299.9999999999457 	1.713730098254796e-12 	101324.9999999884
-0.001251251251251693 	299.9999999999112 	6.72435908897339e-13 	101324.9999999882
0.00125125125125081 	299.9999999999461 	1.129490374771614e-12 	101324.9999999883
0.003753753753753312 	299.9999999999496 	1.356889165318439e-13 	101324.9999999881
0.006256256256255817 	299.9999999998593 	3.749438535029841e-13 	101324.9999999882
0.008758758758758317 	299.9999999999893 	9.739760224209495e-14 	101324.9999999882
0.01126126126126082 	300.0000000000028 	1.819287800824177e-13 	101324.9999999881
0.01376376376376332 	299.9999999999576 	2.852937943496948e-13 	101324.9999999882
0.01626626626626582 	300.0000000000086 	7.296387052534046e-13 	101324.9999999882
0.01876876876876833 	299.9999999999463 	4.790525341528092e-13 	101324.9999999884
0.02127127127127083 	299.9999999999563 	7.838045645717397e-13 	101324.9999999886
0.02377377377377332 	299.9999999999943 	9.905975874239639e-13 	101324.9999999888
0.02627627627627583 	299.9999999998769 	8.016409519388974e-13 	101324.9999999886
0.02877877877877833 	300.0000000000094 	1.251086330398403e-12 	101324.9999999885
0.03128128128128083 	299.9999999999362 	1.49013507497014e-13 	101324.9999999886
0.03378378378378333 	299.999999999876 	2.599035754517569e-14 	101324.9999999888
0.03628628628628584 	299.9999999999655 	5.632610910195319e-13 	101324.999999989
0.03878878878878834 	299.9999999999736 	8.100139575388327e-13 	101324.9999999888
0.04129129129129084 	299.999999999971 	8.451343701517845e-13 	101324.9999999887
0.04379379379379333 	299.999999999936 	9.290484804087059e-13 	101324.9999999886
0.04629629629629585 	299.9999999998574 	1.348475721378515e-12 	101324.9999999888
0.04879879879879834 	299.9999999999496 	1.67034045799812e-13 	101324.9999999888
0.05130130130130085 	300.0000000000174 	3.524449130360179e-13 	101324.9999999883
0.05380380380380335 	300.0000000000269 	1.148931162483847e-12 	101324.9999999885
0.05630630630630584 	299.9999999999907 	1.583053954528454e-12 	101324.9999999886
0.05880880880880836 	299.9999999999032 	1.953339084052311e-12 	101324.9999999885
0.06131131131131085 	299.9999999999574 	2.27152584496403e-12 	101324.9999999885
0.06381381381381336 	299.9999999999504 	2.568535113810186e-12 	101324.9999999883
0.06631631631631586 	299.9999999998619 	1.828917527130926e-12 	101324.999999988
0.06881881881881835 	299.9999999999438 	1.380984969934125e-12 	101324.9999999881
0.07132132132132088 	299.9999999999814 	3.938199014161326e-13 	101324.9999999881
0.07382382382382337 	299.9999999998733 	6.799878012831318e-13 	101324.9999999884
0.07632632632632587 	299.9999999999602 	3.588270190999019e-13 	101324.9999999886
0.07882882882882837 	299.9999999999205 	4.408023286676685e-13 	101324.999999989
0.08133133133133086 	299.9999999999767 	3.953859612115179e-13 	101324.9999999887
0.08383383383383337 	299.9999999999815 	8.876928549667388e-13 	101324.9999999886
0.08633633633633589 	299.9999999998777 	1.203488598009451e-12 	101324.9999999886
0.08883883883883838 	300.0000000000092 	1.900582357579374e-12 	101324.9999999887
0.09134134134134086 	299.9999999999704 	1.697819732381936e-12 	101324.9999999886
0.09384384384384339 	299.9999999998639 	1.839139767381098e-12 	101324.9999999884
0.09634634634634588 	299.9999999999541 	1.283818874045556e-12 	101324.9999999883
0.09884884884884838 	299.9999999999656 	8.022002794231129e-13 	101324.9999999884
0.1013513513513509 	300.0000000000296 	6.015595666328568e-13 	101324.9999999886
0.1038538538538534 	299.9999999999438 	5.2750398639899e-13 	101324.9999999886
0.1063563563563559 	300.0000000000037 	9.829231284348293e-13 	101324.9999999886
0.1088588588588584 	300.0000000000361 	4.279643473715859e-14 	101324.9999999886
0.1113613613613609 	299.9999999999049 	3.546846304168564e-13 	101324.9999999886
0.1138638638638634 	299.9999999999313 	1.036257432459661e-12 	101324.9999999885
0.1163663663663659 	299.9999999999351 	1.467934842213034e-12 	101324.9999999883
0.1188688688688684 	299.9999999999728 	1.243566854495899e-12 	101324.9999999881
0.1213713713713709 	299.9999999999951 	5.32002042008302e-13 	101324.9999999884
0.1238738738738734 	299.9999999999065 	1.080122240934631e-12 	101324.9999999885
0.1263763763763759 	299.9999999999832 	1.3684716181736e-12 	101324.9999999887
0.1288788788788784 	299.9999999999814 	1.157165465968415e-12 	101324.9999999888
0.1313813813813809 	299.9999999999781 	8.813771545802642e-13 	101324.999999989
0.1338838838838834 	299.9999999999707 	1.0870633693952e-12 	101324.9999999892
0.1363863863863859 	300.000000000021 	7.862898866045977e-13 	101324.9999999896
0.1388888888888884 	300.0000000000496 	1.819164314368226e-12 	101324.9999999898
0.1413913913913909 	300.000000000007 	1.11114703919007e-12 	101324.9999999898
0.1438938938938934 	299.9999999999884 	1.594020199811372e-12 	101324.9999999898
0.1463963963963959 	299.9999999999487 	3.585246400645208e-13 	101324.9999999895
0.1488988988988985 	299.9999999998842 	1.830146862001389e-12 	101324.9999999893
0.1514014014014009 	299.9999999999604 	3.196433350731137e-13 	101324.9999999894
0.1539039039039035 	299.9999999999573 	2.0923193784171e-12 	101324.999999989
0.1564064064064059 	299.9999999999151 	1.504223606199571e-12 	101324.9999999889
0.1589089089089084 	299.999999999965 	1.726931177466561e-12 	101324.9999999889
0.1614114114114109 	299.9999999999598 	1.169082953935424e-12 	101324.9999999889
0.1639139139139134 	299.9999999998926 	1.340617330804506e-12 	101324.9999999888
0.166416416416416 	300.0000000000038 	1.080283250173942e-12 	101324.9999999886
0.1689189189189185 	300.0000000000488 	1.343048525112851e-12 	101324.9999999888
0.1714214214214209 	300.0000000000032 	2.183771573136667e-12 	101324.9999999888
0.1739239239239235 	299.9999999999908 	1.576905377946263e-12 	101324.999999989
0.1764264264264259 	299.9999999999668 	3.706855533776323e-12 	101324.9999999891
0.1789289289289284 	300.0000000000056 	1.246358299655437e-12 	101324.9999999887
0.181431431431431 	299.9999999999586 	2.558617122697554e-12 	101324.999999989
0.1839339339339334 	299.9999999999639 	2.429871833807409e-13 	101324.9999999885
0.186436436436436 	299.9999999999093 	1.238538399055008e-12 	101324.9999999891
0.1889389389389385 	299.9999999999747 	1.578809445166576e-12 	101324.999999989
0.191441441441441 	299.9999999999678 	1.75777008128175e-12 	101324.999999989
0.1939439439439434 	299.9999999998956 	2.121500055461768e-12 	101324.9999999888
0.196446446446446 	299.9999999999285 	6.081183561843394e-13 	101324.9999999886
0.1989489489489485 	299.9999999999566 	1.949880029322143e-12 	101324.9999999885
0.2014514514514509 	299.999999999974 	1.190496718541912e-13 	101324.9999999881
0.2039539539539535 	299.9999999999866 	7.306481503842727e-13 	101324.9999999882
0.2064564564564559 	299.9999999999455 	2.988164157760758e-13 	101324.9999999882
0.2089589589589585 	299.9999999999814 	4.176393078056574e-13 	101324.9999999885
0.211461461461461 	299.9999999999152 	6.692603533600414e-13 	101324.9999999887
0.2139639639639635 	299.9999999999698 	7.598535604460282e-13 	101324.9999999888
0.2164664664664659 	300.0000000000011 	2.267605754194174e-12 	101324.9999999886
0.2189689689689684 	299.9999999999969 	4.537355096281127e-13 	101324.9999999885
0.221471471471471 	299.9999999999927 	2.259861811341137e-12 	101324.9999999885
0.2239739739739735 	299.9999999999376 	4.489128632828537e-13 	101324.9999999884
0.226476476476476 	299.9999999999715 	2.26776703449822e-12 	101324.9999999884
0.2289789789789785 	299.9999999999951 	1.669394399868852e-12 	101324.9999999884
0.231481481481481 	299.9999999999794 	1.767464094937689e-12 	101324.9999999887
0.2339839839839835 	299.9999999999751 	1.980646044693507e-12 	101324.9999999888
0.236486486486486 	300.000000000028 	8.781173323776937e-13 	101324.9999999887
0.2389889889889885 	300.0000000000017 	1.683985463056074e-12 	101324.9999999886
0.241491491491491 	299.9999999999016 	6.635185239690365e-13 	101324.9999999884
0.2439939939939935 	299.9999999999824 	2.041210796402862e-12 	101324.9999999883
0.246496496496496 	299.9999999999895 	9.342389947263687e-13 	101324.9999999886
0.2489989989989985 	300.000000000047 	6.42495742644805e-13 	101324.9999999887
0.251501501501501 	300.000000000039 	3.035622991790051e-13 	101324.9999999887
0.2540040040040035 	299.9999999999865 	8.761196160856433e-13 	101324.9999999884
0.256506506506506 	300.0000000000325 	2.253237732736697e-12 	101324.9999999883
0.2590090090090086 	299.9999999998898 	1.543985573518123e-12 	101324.9999999884
0.261511511511511 	300.0000000000032 	3.840128653366651e-12 	101324.9999999886
0.2640140140140135 	299.9999999999903 	1.400167661601926e-12 	101324.9999999884
0.2665165165165161 	299.9999999999091 	3.282469638282117e-12 	101324.9999999885
0.2690190190190185 	300.0000000000127 	2.272868936532141e-12 	101324.9999999887
0.271521521521521 	300.0000000000235 	2.764365105522014e-12 	101324.9999999887
0.2740240240240235 	300.0000000000244 	2.019313968931867e-12 	101324.9999999886
0.276526526526526 	300.0000000000132 	1.028703900847562e-12 	101324.9999999883
0.2790290290290286 	299.9999999999265 	1.960599885206449e-12 	101324.9999999885
0.281531531531531 	299.9999999999076 	7.378475094348663e-13 	101324.9999999887
0.2840340340340335 	299.9999999999823 	2.424472654832205e-12 	101324.9999999888
0.2865365365365361 	299.999999999949 	2.274701653756411e-12 	101324.9999999888
0.2890390390390385 	299.9999999999934 	2.76356657917802e-12 	101324.9999999886
0.291541541541541 	299.9999999999943 	2.820574796787429e-12 	101324.9999999884
0.2940440440440436 	299.9999999999887 	1.876291637778337e-12 	101324.9999999883
0.296546546546546 	299.9999999999909 	3.541893571570333e-12 	101324.9999999882
0.2990490490490486 	299.9999999999204 	1.03203135904029e-12 	101324.9999999883
0.3015515515515511 	300.0000000000444 	4.447877360385549e-12 	101324.9999999881
0.3040540540540535 	299.9999999999954 	2.146067288421819e-12 	101324.9999999878
0.3065565565565562 	299.9999999999964 	4.51736231416952e-12 	101324.999999988
0.3090590590590585 	299.9999999999861 	2.670408719729111e-12 	101324.999999988
0.3115615615615611 	299.9999999999227 	3.015594041307198e-12 	101324.9999999881
0.3140640640640635 	300.0000000000031 	2.136751486921494e-12 	101324.9999999883
0.316566566566566 	299.9999999999875 	2.159334833486215e-12 	101324.9999999886
0.3190690690690687 	299.9999999999342 	1.910616059362961e-12 	101324.999999989
0.3215715715715711 	300.0000000000098 	2.734455466213357e-12 	101324.9999999895
0.3240740740740735 	299.9999999999894 	1.040407714050742e-12 	101324.9999999898
0.326576576576576 	299.9999999998757 	2.347732723484659e-12 	101324.9999999899
0.3290790790790786 	300.0000000000109 	6.775479750879892e-13 	101324.9999999901
0.3315815815815811 	300.0000000000463 	1.172539223513415e-12 	101324.99999999
0.3340840840840836 	299.9999999999829 	9.847629382979292e-13 	101324.9999999897
0.3365865865865861 	300.0000000000692 	5.74423361828192e-13 	101324.9999999894
0.3390890890890886 	300.00000000006 	2.24222584033312e-12 	101324.999999989
0.3415915915915911 	300.0000000000033 	7.53487908012172e-13 	101324.9999999886
0.3440940940940935 	299.9999999999436 	2.400743982172061e-12 	101324.9999999886
0.3465965965965962 	300.0000000000462 	6.744402966283084e-13 	101324.9999999882
0.3490990990990985 	300.0000000000326 	1.899479216706624e-12 	101324.9999999879
0.3516016016016011 	299.9999999999769 	1.176052073767604e-12 	101324.9999999879
0.3541041041041035 	300.000000000006 	1.2279314615915e-12 	101324.9999999879
0.3566066066066061 	299.9999999999456 	1.559147656462784e-12 	101324.999999988
0.3591091091091085 	299.9999999998986 	1.213609982685611e-12 	101324.9999999882
0.3616116116116112 	299.9999999999266 	1.398133532840655e-12 	101324.9999999883
0.3641141141141137 	299.999999999917 	3.513468320106512e-12 	101324.9999999886
0.3666166166166161 	299.9999999999025 	1.04461724260921e-12 	101324.9999999886
0.3691191191191185 	300.0000000000467 	4.574890399839386e-12 	101324.9999999883
0.371621621621621 	300.0000000000176 	1.294288640036696e-12 	101324.9999999882
0.3741241241241237 	300.0000000000563 	3.168797988902459e-12 	101324.9999999885
0.3766266266266261 	300.0000000000347 	1.044640772511742e-12 	101324.9999999886
0.3791291291291286 	299.9999999999775 	2.816313499120378e-12 	101324.9999999887
0.3816316316316311 	299.9999999999008 	1.078808245013357e-12 	101324.9999999886
0.3841341341341336 	300.0000000000173 	3.297199517492969e-12 	101324.9999999886
0.3866366366366362 	299.9999999999999 	5.652868453011929e-13 	101324.9999999889
0.3891391391391387 	299.9999999999493 	1.999060349412741e-12 	101324.9999999887
0.391641641641641 	299.9999999999964 	1.003902329312109e-12 	101324.999999989
0.3941441441441436 	300.000000000013 	8.890168063388976e-13 	101324.9999999893
0.3966466466466462 	300.0000000000013 	1.506463905281219e-12 	101324.9999999892
0.3991491491491486 	299.9999999999323 	5.653360206363729e-13 	101324.9999999894
0.4016516516516512 	299.9999999999005 	1.381871388940897e-12 	101324.9999999894
0.4041541541541536 	299.9999999999325 	9.617275330685933e-13 	101324.9999999894
0.4066566566566561 	299.9999999999324 	8.816464003973358e-13 	101324.9999999893
0.4091591591591587 	299.9999999999795 	1.121720300886188e-12 	101324.9999999895
0.4116616616616612 	299.9999999999955 	2.118895698383223e-13 	101324.9999999894
0.4141641641641635 	300.0000000000575 	4.514052387998057e-14 	101324.9999999894
0.4166666666666662 	299.9999999999957 	3.243279333139923e-13 	101324.9999999893
0.4191691691691687 	299.9999999999308 	1.779958861822943e-12 	101324.9999999894
0.421671671671671 	300.0000000000157 	1.610623265607218e-12 	101324.9999999894
0.4241741741741737 	299.9999999999681 	3.141401239780455e-12 	101324.9999999894
0.4266766766766761 	299.9999999999442 	2.315833218623728e-12 	101324.9999999895
0.4291791791791785 	300.0000000000263 	3.983070068334152e-12 	101324.9999999895
0.4316816816816812 	300.0000000000195 	2.542436491047507e-12 	101324.9999999895
0.4341841841841836 	299.9999999999868 	3.971160976950534e-12 	101324.9999999895
0.4366866866866862 	299.9999999998997 	1.259909985981583e-12 	101324.9999999895
0.4391891891891885 	299.999999999986 	2.791040234176366e-12 	101324.9999999895
0.4416916916916913 	299.9999999999845 	1.223827790049652e-12 	101324.9999999896
0.4441941941941936 	299.9999999999866 	1.880425054473868e-12 	101324.9999999894
0.4466966966966961 	299.9999999998993 	1.240204998564102e-12 	101324.9999999892
0.4491991991991987 	299.9999999999734 	8.213449112478294e-13 	101324.9999999891
0.4517017017017012 	299.9999999999707 	1.885357770636173e-12 	101324.999999989
0.4542042042042035 	299.999999999993 	1.185434416485797e-12 	101324.9999999889
0.4567067067067062 	299.9999999999931 	9.548040374025862e-13 	101324.9999999891
0.4592092092092087 	299.99999999991 	6.721935445830577e-13 	101324.9999999891
0.4617117117117112 	300.0000000000258 	5.409020785507726e-13 	101324.9999999893
0.4642142142142137 	299.9999999999616 	2.905391433643227e-13 	101324.9999999894
0.4667167167167162 	299.9999999999882 	3.450818941401331e-13 	101324.9999999895
0.4692192192192187 	299.9999999999455 	4.003500541373385e-13 	101324.9999999893
0.4717217217217212 	300.000000000017 	3.467697333491093e-13 	101324.9999999894
0.4742242242242236 	299.9999999999515 	4.09274320843578e-13 	101324.9999999893
0.4767267267267262 	299.9999999999579 	8.102973866022812e-13 	101324.9999999893
0.4792292292292287 	300.00000000002 	7.894567073218181e-13 	101324.9999999894
0.4817317317317312 	300.0000000000391 	1.325776114261931e-13 	101324.9999999893
0.4842342342342336 	299.9999999999844 	4.803788955594861e-13 	101324.9999999893
0.4867367367367362 	299.999999999946 	1.198498377867829e-12 	101324.9999999891
0.4892392392392387 	300.0000000000334 	9.323662456433401e-13 	101324.9999999889
0.4917417417417412 	300.0000000000065 	1.415927692280648e-12 	101324.9999999889
0.4942442442442437 	299.9999999998873 	9.973828178104544e-13 	101324.9999999888
0.4967467467467462 	299.9999999999131 	1.267092759505271e-12 	101324.9999999889
0.4992492492492487 	299.9999999999018 	8.233945718562977e-13 	101324.9999999891
0.5017517517517511 	299.9999999999418 	3.581825846953651e-13 	101324.9999999893
0.5042542542542537 	299.9999999999501 	6.717068882230723e-13 	101324.9999999894
0.5067567567567562 	299.9999999999297 	7.358137443049839e-13 	101324.9999999894
0.5092592592592589 	299.9999999999672 	6.878636465742407e-13 	101324.9999999893
0.5117617617617611 	299.9999999999534 	2.033152370458692e-12 	101324.9999999893
0.5142642642642637 	299.9999999999864 	1.343644189667853e-12 	101324.9999999891
0.5167667667667663 	299.9999999999676 	3.483349876421359e-12 	101324.9999999891
0.5192692692692688 	299.999999999904 	2.188614861308515e-12 	101324.9999999892
0.5217717717717714 	299.9999999999307 	5.073699694598195e-12 	101324.9999999892
0.5242742742742736 	299.9999999999359 	1.484529095352471e-12 	101324.9999999893
0.5267767767767763 	299.9999999999507 	3.949291281243415e-12 	101324.9999999894
0.5292792792792789 	299.9999999999276 	1.391356562562315e-12 	101324.9999999895
0.5317817817817813 	299.9999999998914 	3.009781749740699e-12 	101324.9999999897
0.5342842842842837 	300.00000000002 	9.349277476988292e-13 	101324.9999999896
0.5367867867867864 	300.0000000000064 	2.216152686465245e-12 	101324.9999999895
0.5392892892892888 	299.9999999999552 	1.282509490944192e-12 	101324.9999999896
0.5417917917917912 	300.0000000000084 	1.351048870954514e-12 	101324.9999999898
0.5442942942942938 	299.9999999999801 	9.093583155188172e-13 	101324.99999999
0.5467967967967964 	299.9999999999285 	2.021170179073567e-12 	101324.9999999899
0.5492992992992988 	299.9999999999275 	1.167631426743871e-12 	101324.9999999902
0.5518018018018012 	299.9999999999309 	2.582486207649029e-12 	101324.9999999905
0.5543043043043039 	300.00000000002 	1.388744455114368e-12 	101324.9999999904
0.5568068068068063 	299.999999999986 	1.854321715825972e-12 	101324.9999999902
0.5593093093093087 	299.9999999998888 	7.993806891238805e-13 	101324.99999999
0.5618118118118114 	299.9999999999517 	2.509311462179796e-12 	101324.9999999897
0.5643143143143137 	299.9999999999353 	2.123791135250085e-12 	101324.9999999895
0.5668168168168163 	299.9999999999926 	3.683473434003675e-12 	101324.9999999893
0.5693193193193188 	300.0000000000343 	3.76779065743829e-12 	101324.9999999893
0.5718218218218213 	300.0000000000285 	3.251524953212901e-12 	101324.9999999892
0.5743243243243239 	300.0000000000128 	4.175529450838981e-12 	101324.9999999891
0.5768268268268262 	300.0000000000074 	2.719023385605877e-12 	101324.9999999892
0.5793293293293288 	299.9999999999313 	5.634872359226592e-12 	101324.9999999891
0.5818318318318314 	299.9999999999024 	3.19368749682012e-12 	101324.9999999891
0.5843343343343338 	299.9999999999783 	7.274345182927174e-12 	101324.9999999892
0.5868368368368363 	299.9999999999716 	3.415135526051575e-12 	101324.9999999893
0.5893393393393387 	299.9999999999379 	6.529912821034861e-12 	101324.9999999894
0.5918418418418413 	299.999999999931 	3.68404626931247e-12 	101324.9999999893
0.5943443443443439 	300.0000000000175 	5.977565899585098e-12 	101324.9999999891
0.5968468468468463 	300.0000000000167 	4.109035256269713e-12 	101324.9999999892
0.5993493493493487 	300.0000000000417 	5.350708803481154e-12 	101324.9999999891
0.6018518518518514 	299.9999999999797 	3.03702925781456e-12 	101324.9999999891
0.6043543543543537 	299.9999999999923 	4.444905405247979e-12 	101324.9999999895
0.6068568568568564 	299.9999999999782 	3.174421488500437e-12 	101324.9999999896
0.6093593593593587 	299.9999999999191 	4.616560106563379e-12 	101324.9999999895
0.6118618618618614 	299.9999999999122 	3.762471415636529e-12 	101324.9999999899
0.6143643643643638 	300.0000000000223 	5.052679872332131e-12 	101324.99999999
0.6168668668668662 	299.9999999999879 	3.066619801463271e-12 	101324.9999999898
0.6193693693693688 	299.9999999999532 	4.656959096510966e-12 	101324.9999999901
0.6218718718718714 	299.999999999964 	2.705143132249955e-12 	101324.99999999
0.6243743743743737 	299.9999999999272 	4.444537798021234e-12 	101324.9999999901
0.6268768768768762 	299.9999999999161 	2.948631478886415e-12 	101324.9999999899
0.629379379379379 	299.9999999999508 	3.256196840227466e-12 	101324.9999999898
0.6318818818818812 	299.9999999999822 	2.461563174703609e-12 	101324.99999999
0.6343843843843838 	300.0000000000218 	2.088731643138146e-12 	101324.9999999902
0.6368868868868864 	299.9999999999832 	2.69305412937193e-12 	101324.9999999902
0.6393893893893888 	299.9999999999105 	1.981613456196006e-12 	101324.9999999901
0.6418918918918912 	300.0000000000015 	4.69202095604887e-12 	101324.99999999
0.6443943943943939 	299.9999999999697 	2.95344305868351e-12 	101324.9999999898
0.6468968968968963 	299.9999999999833 	5.761724351656298e-12 	101324.9999999893
0.6493993993993988 	299.9999999999711 	2.07714089083365e-12 	101324.9999999892
0.6519019019019012 	299.9999999999719 	5.51911519019021e-12 	101324.9999999891
0.6544044044044038 	299.999999999887 	2.22462938069526e-12 	101324.9999999889
0.6569069069069065 	299.9999999999366 	4.847224419733581e-12 	101324.9999999888
0.6594094094094087 	299.9999999999546 	1.664437707719732e-12 	101324.999999989
0.6619119119119113 	299.9999999999492 	3.671076287663611e-12 	101324.9999999892
0.664414414414414 	300.0000000000076 	1.364609716373783e-12 	101324.9999999894
0.6669169169169162 	300.0000000000225 	3.365767624279727e-12 	101324.9999999893
0.6694194194194188 	299.9999999999811 	2.351927658736528e-12 	101324.9999999893
0.6719219219219214 	299.9999999999037 	4.51930004509482e-12 	101324.9999999893
0.674424424424424 	299.9999999999661 	3.545573209359302e-12 	101324.9999999892
0.6769269269269262 	299.9999999999071 	4.409480628361666e-12 	101324.9999999893
0.679429429429429 	299.9999999999989 	3.35417356020819e-12 	101324.9999999893
0.6819319319319311 	299.9999999999757 	4.114222295781436e-12 	101324.9999999894
0.6844344344344341 	299.9999999999897 	3.307836037055129e-12 	101324.9999999897
0.686936936936936 	299.9999999999831 	3.988265134775967e-12 	101324.9999999899
0.6894394394394392 	299.9999999999757 	3.23049773305201e-12 	101324.9999999901
0.6919419419419413 	299.9999999999812 	3.645904142346099e-12 	101324.9999999902
0.694444444444444 	299.99999999992 	4.548376432370523e-12 	101324.9999999902
0.6969469469469463 	299.9999999999127 	4.833127175126679e-12 	101324.9999999905
0.6994494494494489 	299.9999999999059 	5.23120020675355e-12 	101324.9999999906
0.7019519519519515 	299.9999999999771 	3.937806555157044e-12 	101324.9999999903
0.7044544544544538 	299.9999999999428 	4.807310599773496e-12 	101324.9999999898
0.7069569569569564 	299.999999999999 	2.510004181295442e-12 	101324.9999999896
0.7094594594594589 	299.9999999999638 	4.658141891352203e-12 	101324.9999999895
0.7119619619619615 	299.9999999999026 	2.813304575709638e-12 	101324.9999999896
0.7144644644644638 	299.9999999999434 	5.263835771196278e-12 	101324.9999999901
0.7169669669669665 	299.9999999999076 	4.779302936248957e-12 	101324.9999999906
0.7194694694694688 	299.9999999999986 	6.051919637310995e-12 	101324.999999991
0.7219719719719715 	299.9999999999899 	5.003347101431747e-12 	101324.9999999909
0.7244744744744737 	300.000000000009 	5.110249527287763e-12 	101324.9999999908
0.7269769769769764 	299.9999999999969 	5.079203284722793e-12 	101324.9999999908
0.7294794794794791 	299.9999999999885 	4.272369049222155e-12 	101324.9999999907
0.7319819819819813 	299.99999999998 	5.802228573892059e-12 	101324.9999999907
0.7344844844844839 	299.9999999999098 	4.689241538293926e-12 	101324.9999999908
0.7369869869869864 	299.9999999999324 	5.919305707721594e-12 	101324.9999999908
0.739489489489489 	299.9999999999283 	5.587712252153776e-12 	101324.999999991
0.7419919919919914 	299.9999999999181 	5.138465484143287e-12 	101324.9999999911
0.7444944944944939 	299.9999999999766 	5.461918113714031e-12 	101324.999999991
0.7469969969969963 	299.9999999999666 	3.733265702639526e-12 	101324.999999991
0.7494994994994989 	299.9999999999324 	5.787595280796803e-12 	101324.9999999909
0.7520020020020015 	299.9999999999686 	3.456339799653825e-12 	101324.9999999907
0.7545045045045039 	299.9999999999648 	6.422642599754809e-12 	101324.9999999908
0.7570070070070062 	299.9999999999343 	3.699882541576102e-12 	101324.9999999908
0.7595095095095092 	299.9999999999243 	5.872442497448853e-12 	101324.9999999907
0.7620120120120112 	300.0000000000062 	4.716270359134948e-12 	101324.9999999907
0.7645145145145138 	299.9999999999808 	4.975369073203269e-12 	101324.9999999907
0.7670170170170165 	299.999999999917 	5.336952243620194e-12 	101324.9999999907
0.7695195195195191 	299.9999999999167 	5.082832353161287e-12 	101324.9999999907
0.7720220220220213 	299.9999999999251 	7.554367034947973e-12 	101324.9999999908
0.7745245245245239 	299.9999999999142 	5.726211740636711e-12 	101324.9999999907
0.7770270270270263 	299.99999999996 	7.568429069751885e-12 	101324.9999999907
0.779529529529529 	299.9999999999792 	6.368908345202976e-12 	101324.9999999907
0.7820320320320313 	299.9999999999673 	6.791752465403036e-12 	101324.9999999908
0.784534534534534 	300.0000000000031 	6.172090946675693e-12 	101324.9999999907
0.7870370370370364 	299.9999999999904 	5.487637288792487e-12 	101324.9999999907
0.7895395395395389 	299.9999999999753 	6.287733369507775e-12 	101324.9999999907
0.7920420420420413 	299.9999999999702 	5.063066944539129e-12 	101324.9999999906
0.794544544544544 	299.9999999999604 	6.910336803591941e-12 	101324.9999999906
0.7970470470470463 	299.9999999999961 	4.965706111266082e-12 	101324.9999999905
0.799549549549549 	299.9999999999822 	8.077830516113574e-12 	101324.9999999903
0.8020520520520515 	299.9999999999803 	5.868866988666572e-12 	101324.9999999905
0.8045545545545539 	299.9999999999357 	7.787568439782358e-12 	101324.9999999908
0.8070570570570563 	299.9999999999733 	6.366931875724142e-12 	101324.9999999911
0.8095595595595589 	299.9999999999442 	6.913614567652446e-12 	101324.9999999911
0.8120620620620614 	299.999999999928 	6.876266309746609e-12 	101324.9999999912
0.8145645645645638 	300.0000000000011 	6.713475196371601e-12 	101324.9999999913
0.8170670670670666 	299.9999999999957 	7.330183347235357e-12 	101324.9999999912
0.8195695695695689 	299.9999999999715 	5.839650682269476e-12 	101324.9999999911
0.8220720720720714 	299.9999999999327 	8.251863293892407e-12 	101324.9999999912
0.8245745745745739 	299.9999999999896 	5.574374584381484e-12 	101324.9999999912
0.8270770770770765 	299.9999999999649 	6.471907234518529e-12 	101324.9999999912
0.8295795795795788 	299.9999999999413 	4.924414525453987e-12 	101324.9999999912
0.8320820820820815 	300.0000000000124 	5.382116909580263e-12 	101324.9999999912
0.834584584584584 	300.0000000000064 	4.799840237899094e-12 	101324.9999999911
0.8370870870870865 	299.9999999999649 	5.287666908455367e-12 	101324.9999999912
0.8395895895895891 	299.9999999999176 	6.543194972208288e-12 	101324.9999999909
0.8420920920920915 	299.9999999999345 	6.285512134732135e-12 	101324.9999999907
0.844594594594594 	299.9999999999308 	6.593352622262561e-12 	101324.9999999906
0.8470970970970964 	299.9999999999518 	6.700784673141567e-12 	101324.9999999908
0.8495995995995991 	299.999999999992 	5.751277862984679e-12 	101324.9999999909
0.8521021021021015 	299.9999999999782 	6.279358511062613e-12 	101324.999999991
0.8546046046046039 	299.9999999999665 	5.94945483891816e-12 	101324.9999999909
0.8571071071071066 	299.9999999999994 	7.341666330751449e-12 	101324.9999999908
0.8596096096096089 	299.9999999999614 	5.164526908263511e-12 	101324.9999999909
0.8621121121121116 	299.999999999925 	7.455191759766881e-12 	101324.999999991
0.8646146146146139 	299.9999999999957 	5.071650194525662e-12 	101324.9999999911
0.8671171171171166 	299.9999999999696 	6.116129480391075e-12 	101324.9999999911
0.8696196196196189 	299.999999999935 	4.972970029629399e-12 	101324.9999999911
0.8721221221221216 	299.9999999999789 	5.577037257407114e-12 	101324.9999999909
0.874624624624624 	300.0000000000036 	5.326933008657601e-12 	101324.9999999907
0.8771271271271264 	300.0000000000005 	4.998804534277607e-12 	101324.9999999908
0.879629629629629 	300.0000000000044 	5.863370607019836e-12 	101324.9999999907
0.8821321321321317 	299.9999999999756 	4.668934926455678e-12 	101324.9999999909
0.8846346346346339 	299.999999999912 	6.69214572634646e-12 	101324.9999999911
0.8871371371371364 	299.9999999999501 	4.335197530891493e-12 	101324.9999999911
0.8896396396396391 	299.9999999999588 	5.772610030142836e-12 	101324.9999999909
0.8921421421421414 	299.999999999966 	4.251629869598899e-12 	101324.9999999907
0.8946446446446441 	299.9999999999824 	4.793565329525452e-12 	101324.9999999905
0.8971471471471464 	299.9999999999989 	3.957518340940912e-12 	101324.9999999906
0.8996496496496489 	299.9999999999789 	3.677816228142529e-12 	101324.9999999906
0.9021521521521517 	299.9999999999632 	4.737121513684377e-12 	101324.9999999904
0.9046546546546541 	299.9999999999974 	4.970711445829086e-12 	101324.9999999905
0.9071571571571564 	299.9999999999515 	5.936666780217156e-12 	101324.9999999905
0.9096596596596589 	299.999999999942 	6.613839828842068e-12 	101324.9999999905
0.9121621621621616 	300.000000000005 	6.767502800563771e-12 	101324.9999999905
0.9146646646646639 	299.9999999999702 	6.634831479298587e-12 	101324.9999999907
0.9171671671671666 	299.9999999999371 	5.795913618453745e-12 	101324.9999999909
0.9196696696696689 	299.9999999999958 	6.287144651916291e-12 	101324.9999999909
0.9221721721721714 	299.9999999999892 	4.524034297848109e-12 	101324.9999999911
0.9246746746746741 	299.9999999999258 	6.572365835834628e-12 	101324.9999999914
0.9271771771771765 	299.9999999999463 	4.452519322533682e-12 	101324.9999999914
0.9296796796796791 	299.9999999999877 	6.35101961223312e-12 	101324.9999999915
0.9321821821821816 	299.9999999999574 	5.302281250064085e-12 	101324.9999999914
0.9346846846846838 	299.9999999999409 	6.862345606615079e-12 	101324.9999999914
0.9371871871871866 	300.0000000000102 	6.671678876211779e-12 	101324.9999999912
0.9396896896896891 	300.0000000000059 	7.098644802600862e-12 	101324.9999999912
0.9421921921921914 	300.0000000000018 	7.395131287405363e-12 	101324.9999999912
0.9446946946946939 	299.9999999999673 	6.586509758948498e-12 	101324.9999999911
0.9471971971971965 	299.9999999999213 	8.211923752605377e-12 	101324.9999999909
0.9496996996996991 	299.9999999999583 	5.917881917398209e-12 	101324.9999999911
0.9522022022022016 	299.9999999999773 	6.625983237296162e-12 	101324.9999999912
0.9547047047047038 	299.9999999999793 	5.504475386538613e-12 	101324.9999999913
0.9572072072072064 	299.999999999957 	6.467936642713077e-12 	101324.9999999912
0.9597097097097093 	299.9999999999536 	6.404455183824679e-12 	101324.9999999912
0.9622122122122114 	299.9999999999474 	6.424886943077426e-12 	101324.9999999913
0.964714714714714 	299.9999999999395 	6.947758246539242e-12 	101324.9999999912
0.9672172172172167 	299.9999999999479 	6.227183046242693e-12 	101324.9999999911
0.969719719719719 	299.9999999999858 	6.458236314336474e-12 	101324.9999999913
0.9722222222222214 	299.9999999999729 	5.982153390912023e-12 	101324.9999999915
0.9747247247247239 	299.9999999999662 	6.086696237843573e-12 	101324.9999999916
0.9772272272272267 	300.0000000000049 	6.2972764835223e-12 	101324.9999999918
0.9797297297297292 	299.9999999999824 	5.306977297845586e-12 	101324.9999999918
0.9822322322322313 	299.9999999999819 	5.625845505482723e-12 	101324.9999999918
0.9847347347347344 	299.9999999999772 	3.713301649437287e-12 	101324.9999999919
0.9872372372372363 	299.9999999999229 	5.640570406457867e-12 	101324.9999999917
0.9897397397397389 	299.9999999999526 	3.631839233900764e-12 	101324.9999999916
0.9922422422422417 	299.9999999999425 	5.788388954919045e-12 	101324.9999999915
0.9947447447447441 	299.9999999999495 	5.465992221490479e-12 	101324.9999999914
0.9972472472472468 	299.9999999999683 	6.859801403962497e-12 	101324.9999999914
0.999749749749749 	299.9999999999583 	6.1310476271389e-12 	101324.9999999916
1.002252252252252 	299.9999999999674 	6.474723790668042e-12 	101324.9999999917
1.004754754754754 	299.9999999999941 	6.469016087749997e-12 	101324.9999999917
1.007257257257256 	299.9999999999629 	5.514462641913804e-12 	101324.9999999917
1.009759759759759 	299.9999999999478 	6.955964607305526e-12 	101324.9999999917
1.012262262262261 	299.9999999999523 	5.297039276908057e-12 	101324.9999999919
1.014764764764764 	299.9999999999234 	6.66289781358064e-12 	101324.9999999919
1.017267267267267 	299.9999999999138 	5.502727588035852e-12 	101324.9999999919
1.019769769769769 	299.9999999999663 	6.087544108795778e-12 	101324.9999999919
1.022272272272272 	299.9999999999795 	5.565777483004694e-12 	101324.9999999919
1.024774774774774 	299.9999999999791 	5.836565452546707e-12 	101324.999999992
1.027277277277277 	299.9999999999758 	6.175547371987625e-12 	101324.9999999921
1.029779779779779 	300.0000000000111 	5.369649689267407e-12 	101324.9999999922
1.032282282282282 	300.0000000000116 	5.958533946185558e-12 	101324.999999992
1.034784784784784 	300.0000000000013 	5.751102417008566e-12 	101324.999999992
1.037287287287286 	299.9999999999714 	6.278418267639398e-12 	101324.9999999921
1.039789789789789 	299.9999999999727 	6.491769143081552e-12 	101324.999999992
1.042292292292291 	300.0000000000057 	6.71325147183341e-12 	101324.9999999919
1.044794794794794 	300.0000000000217 	7.071087705808423e-12 	101324.999999992
1.047297297297296 	300.0000000000406 	5.907824729633594e-12 	101324.9999999921
1.049799799799799 	299.9999999999984 	6.592663294511747e-12 	101324.9999999919
1.052302302302302 	299.9999999999511 	4.198690555131762e-12 	101324.9999999919
1.054804804804804 	299.9999999999263 	5.755503792213124e-12 	101324.999999992
1.057307307307306 	299.9999999999163 	5.244967853188404e-12 	101324.9999999921
1.059809809809809 	299.9999999999554 	6.175597234244574e-12 	101324.9999999921
1.062312312312312 	299.9999999999558 	5.368004933239659e-12 	101324.999999992
1.064814814814814 	299.9999999999558 	5.561121733151801e-12 	101324.9999999919
1.067317317317317 	299.9999999999229 	5.308215975004823e-12 	101324.9999999919
1.069819819819819 	299.9999999999191 	5.127750933335014e-12 	101324.9999999918
1.072322322322321 	299.9999999999914 	6.023669962095439e-12 	101324.9999999918
1.074824824824824 	300.0000000000153 	4.255389601752199e-12 	101324.9999999919
1.077327327327327 	300.0000000000327 	5.257153787650688e-12 	101324.999999992
1.079829829829829 	300.0000000000457 	4.729986584742183e-12 	101324.9999999921
1.082332332332332 	300.0000000000066 	5.549791186249225e-12 	101324.9999999923
1.084834834834834 	299.9999999999749 	5.504234087131537e-12 	101324.9999999924
1.087337337337337 	299.9999999999339 	5.174592843476821e-12 	101324.9999999924
1.089839839839839 	299.9999999999152 	6.160110185458344e-12 	101324.9999999925
1.092342342342342 	299.9999999999634 	4.790279571408037e-12 	101324.9999999925
1.094844844844844 	299.9999999999644 	6.179783475538971e-12 	101324.9999999926
1.097347347347347 	299.9999999999262 	4.976243566831644e-12 	101324.9999999925
1.099849849849849 	299.9999999999094 	6.944788952554409e-12 	101324.9999999924
1.102352352352352 	299.9999999999546 	4.857214989286848e-12 	101324.9999999922
1.104854854854854 	299.9999999999833 	6.266409322317061e-12 	101324.9999999922
1.107357357357357 	299.999999999955 	4.72640184615446e-12 	101324.9999999923
1.109859859859859 	299.9999999999435 	6.485606573787356e-12 	101324.9999999923
1.112362362362362 	300.0000000000214 	5.730898442260733e-12 	101324.9999999923
1.114864864864865 	300.0000000000223 	5.968460137091875e-12 	101324.9999999923
1.117367367367367 	299.9999999999579 	6.389206577814538e-12 	101324.999999992
1.119869869869869 	299.9999999999139 	5.781080476383225e-12 	101324.9999999919
1.122372372372372 	299.9999999999572 	7.32415036863378e-12 	101324.9999999921
1.124874874874874 	299.9999999999526 	6.905144072887057e-12 	101324.999999992
1.127377377377377 	299.9999999999659 	7.805602798833686e-12 	101324.999999992
1.129879879879879 	300.0000000000246 	7.000826201907552e-12 	101324.999999992
1.132382382382382 	300.000000000036 	6.843831322129474e-12 	101324.9999999921
1.134884884884884 	300.000000000007 	6.096102014082515e-12 	101324.9999999923
1.137387387387387 	300.0000000000176 	5.63675103374975e-12 	101324.9999999925
1.139889889889889 	299.9999999999509 	6.231117888171267e-12 	101324.9999999927
1.142392392392392 	299.9999999999374 	5.046015049969629e-12 	101324.9999999928
1.144894894894894 	300.0000000000173 	5.773983276481588e-12 	101324.9999999928
1.147397397397397 	300 	4.710383887138199e-12 	101324.9999999927
1.149899899899899 	299.99999999993 	5.808692645235954e-12 	101324.9999999924
1.152402402402402 	299.9999999999102 	5.658229888874636e-12 	101324.9999999921
1.154904904904904 	299.9999999999508 	6.93871598705228e-12 	101324.999999992
1.157407407407407 	299.9999999999521 	6.754033710373132e-12 	101324.9999999919
1.159909909909909 	299.9999999999221 	6.635830742156343e-12 	101324.999999992
1.162412412412412 	299.9999999999132 	7.754390751492049e-12 	101324.9999999922
1.164914914914914 	299.9999999999442 	7.159357413948794e-12 	101324.9999999924
1.167417417417417 	299.9999999999532 	9.090512920658745e-12 	101324.9999999925
1.169919919919919 	300.0000000000068 	8.402313571969793e-12 	101324.9999999924
1.172422422422422 	300.0000000000391 	8.847818685082536e-12 	101324.9999999921
1.174924924924925 	299.9999999999861 	7.59272407840071e-12 	101324.9999999921
1.177427427427427 	299.9999999999529 	8.045429274076477e-12 	101324.9999999922
1.179929929929929 	300.0000000000058 	9.069139631876067e-12 	101324.9999999922
1.182432432432432 	300.0000000000385 	7.56544794726104e-12 	101324.9999999923
1.184934934934934 	300.0000000000073 	8.047187179935744e-12 	101324.9999999923
1.187437437437437 	299.9999999999714 	7.051217709661834e-12 	101324.9999999924
1.189939939939939 	299.9999999999513 	8.083160455683028e-12 	101324.9999999924
1.192442442442442 	299.9999999999151 	7.872823870831676e-12 	101324.9999999923
1.194944944944944 	299.9999999999314 	9.22866347114687e-12 	101324.9999999921
1.197447447447447 	299.9999999999999 	8.927149499177619e-12 	101324.9999999919
1.199949949949949 	300.0000000000093 	9.084929786841083e-12 	101324.999999992
1.202452452452452 	299.999999999945 	9.932507648745309e-12 	101324.9999999921
1.204954954954955 	299.999999999938 	8.997795069988445e-12 	101324.9999999921
1.207457457457457 	299.9999999999761 	1.007776734668565e-11 	101324.9999999921
1.20995995995996 	299.9999999999723 	9.126583355558917e-12 	101324.9999999922
1.212462462462462 	299.999999999982 	9.515617803048988e-12 	101324.9999999923
1.214964964964964 	299.9999999999845 	8.245371020165465e-12 	101324.9999999921
1.217467467467467 	299.9999999999762 	8.99118037339599e-12 	101324.9999999921
1.219969969969969 	299.9999999999584 	8.53360475642763e-12 	101324.9999999919
1.222472472472472 	300.0000000000193 	9.057186945731621e-12 	101324.9999999918
1.224974974974975 	300.000000000046 	9.48957185368997e-12 	101324.9999999916
1.227477477477477 	299.9999999999879 	8.578195094302693e-12 	101324.9999999914
1.229979979979979 	299.999999999971 	9.796043401702e-12 	101324.9999999913
1.232482482482482 	299.9999999999422 	8.766978953986519e-12 	101324.9999999912
1.234984984984984 	299.9999999999416 	9.519023368030755e-12 	101324.9999999912
1.237487487487487 	299.9999999999698 	8.127487479128636e-12 	101324.9999999913
1.239989989989989 	299.9999999999784 	8.588553731014853e-12 	101324.9999999915
1.242492492492492 	300.0000000000143 	9.370650019812058e-12 	101324.9999999916
1.244994994994994 	299.9999999999825 	8.885490534231793e-12 	101324.9999999915
1.247497497497497 	299.9999999999807 	9.869176136044204e-12 	101324.9999999915
1.249999999999999 	300 	9.151535644279482e-12 	101324.9999999917
