-1.25 	300 	0.07207092618221364 	101295.6107373854
-1.247497497497497 	299.9788249649088 	0.05968836842632934 	101301.3304257498
-1.244994994994995 	299.985320597662 	0.04186527923931269 	101307.6421680506
-1.242492492492492 	299.9906863081994 	0.02744669854634472 	101313.9856427832
-1.23998998998999 	299.9963091183566 	0.01039695468981662 	101320.6359640346
-1.237487487487487 	300.0020553330087 	0.008345278757185952 	101327.4288991811
-1.234984984984985 	300.007758796955 	0.02251584904573497 	101334.1718196625
-1.232482482482482 	300.0133448503583 	0.03865061206489988 	101340.776205877
-1.22997997997998 	300.0187262496318 	0.05414139240215801 	101347.1389039427
-1.227477477477477 	300.0237492762646 	0.06863610004999787 	101353.0781797052
-1.224974974974975 	300.0283174866095 	0.08188187709769131 	101358.4798978422
-1.222472472472472 	300.0324144687767 	0.09369115592620685 	101363.3246119856
-1.21996996996997 	300.0358979316506 	0.1037453514550335 	101367.444015594
-1.217467467467467 	300.0386511571087 	0.1117382616901986 	101370.6999341174
-1.214964964964965 	300.0406861376578 	0.1176429364074042 	101373.1065426194
-1.212462462462462 	300.0420061754795 	0.1215038625553174 	101374.6676887411
-1.20995995995996 	300.0425785162278 	0.123144150218332 	101375.3445918594
-1.207457457457457 	300.0423746364708 	0.1225027019958278 	101375.1035253035
-1.204954954954955 	300.041373220738 	0.1195720018864369 	101373.9193302816
-1.202452452452452 	300.039572865853 	0.1143418435949267 	101371.7903631945
-1.19994994994995 	300.0369946749217 	0.1069261949231265 	101368.7415599373
-1.197447447447447 	300.033726044048 	0.09748866894210778 	101364.8763120703
-1.194944944944945 	300.0298680340945 	0.08630643895909956 	101360.314243992
-1.192442442442442 	300.0254849386552 	0.0736321531599119 	101355.1314505971
-1.18993993993994 	300.0206426810553 	0.05968831164109817 	101349.4058927386
-1.187437437437437 	300.0154436236026 	0.0446823441832095 	101343.2587169104
-1.184934934934935 	300.0099608233267 	0.02879627129289824 	101336.7763172745
-1.182432432432432 	300.0042946959255 	0.01239711827803247 	101330.0774760402
-1.17992992992993 	299.9985796423696 	0.008481818769554899 	101323.3211254815
-1.177427427427427 	299.9928854270133 	0.02064511353714588 	101316.5896898197
-1.174924924924925 	299.9872828714348 	0.03683200507918413 	101309.9669330472
-1.172422422422422 	299.9818778603814 	0.05241926616623192 	101303.5779536532
-1.16991991991992 	299.9767881343246 	0.06709866072269824 	101297.5619288714
-1.167417417417417 	299.9721340596445 	0.08053874055011054 	101292.0610688136
-1.164914914914915 	299.9680199875133 	0.09245179910739257 	101287.1985875099
-1.162412412412412 	299.9645193087077 	0.102577061175637 	101283.0612260234
-1.15990990990991 	299.9616753836048 	0.1107927254439276 	101279.700117548
-1.157407407407407 	299.959515445475 	0.1170511272756057 	101277.1474173293
-1.154904904904904 	299.9580782944518 	0.1212053447698468 	101275.4489041667
-1.152402402402403 	299.9574250094576 	0.1231019131122128 	101274.6767848134
-1.1498998998999 	299.9575884004661 	0.1226140836760639 	101274.869864978
-1.147397397397397 	299.9585610415619 	0.11975297450273 	101276.0192278689
-1.144894894894895 	299.960316811687 	0.1146677826860901 	101278.0941136849
-1.142392392392392 	299.9628051885655 	0.1074914789412897 	101281.0348726413
-1.13988988988989 	299.9659582817758 	0.09838506631372233 	101284.7612470204
-1.137387387387387 	299.9697235771926 	0.08749201954839507 	101289.2113167951
-1.134884884884885 	299.9740441601595 	0.07498523914939703 	101294.3178156898
-1.132382382382382 	299.9788444621639 	0.06112138855510238 	101299.9915422371
-1.12987987987988 	299.9840308637625 	0.04616653864285779 	101306.121910945
-1.127377377377377 	299.9894849446846 	0.0304345819502046 	101312.5689267525
-1.124874874874875 	299.9950817377944 	0.0142147185803936 	101319.1849862374
-1.122372372372372 	300.0007375560286 	0.008362775229815465 	101325.8711150101
-1.11986986986987 	300.0064065032957 	0.01861302483807578 	101332.5731113878
-1.117367367367367 	300.0120124761258 	0.03479346424628244 	101339.2009989477
-1.114864864864865 	300.0174249061313 	0.05041212080167062 	101345.6003222953
-1.112362362362362 	300.0225166169059 	0.06511547594419415 	101351.6207566173
-1.10985985985986 	300.0271883699318 	0.07861428010488887 	101357.1448449788
-1.107357357357357 	300.0313501187837 	0.09061343665072721 	101362.0660944894
-1.104854854854855 	300.034928390748 	0.1009633338399623 	101366.2975554597
-1.102352352352353 	300.0378803136475 	0.1094918282852719 	101369.7883978103
-1.09984984984985 	300.0401552821688 	0.1160670446831742 	101372.4788042741
-1.097347347347347 	300.0417021994786 	0.1205668153307529 	101374.308242041
-1.094844844844845 	300.042475967031 	0.1227728435797091 	101375.223372225
-1.092342342342342 	300.0424393998137 	0.122646098693309 	101375.1801663725
-1.08983983983984 	300.041585746037 	0.1201814937509614 	101374.1706925991
-1.087337337337337 	300.0399560195492 	0.1154563073223467 	101372.243522581
-1.084834834834835 	300.0375885751934 	0.1086327971267239 	101369.443915556
-1.082332332332332 	300.0345321089827 	0.09978214814673987 	101365.829551647
-1.07982982982983 	300.0308425862311 	0.08910097484556678 	101361.4667121453
-1.077327327327327 	300.0265832070999 	0.07678643752991385 	101356.430133861
-1.074824824824825 	300.021833234129 	0.06308576700708408 	101350.8136613531
-1.072322322322323 	300.0167035028728 	0.0482707507591253 	101344.7483919133
-1.06981981981982 	300.0112762244243 	0.03254880346081243 	101338.3315648162
-1.067317317317317 	300.0056538922151 	0.0162862214033243 	101331.6844482593
-1.064814814814815 	299.999941667524 	0.008171375851810929 	101324.9313448397
-1.062312312312312 	299.9942016842295 	0.01686969918146998 	101318.1457400685
-1.05980980980981 	299.9885341969227 	0.03320954420017355 	101311.4461575353
-1.057307307307307 	299.9830722317555 	0.0489681768972156 	101304.9897908342
-1.054804804804805 	299.9779367183063 	0.0637983287249651 	101298.9195944168
-1.052302302302302 	299.9732284237178 	0.077430555167495 	101293.3545832971
-1.0497997997998 	299.9690153964154 	0.08965016704828802 	101288.3751172674
-1.047297297297297 	299.9653555735001 	0.1002158023664595 	101284.0496393425
-1.044794794794795 	299.962319028328 	0.1089751000699848 	101280.4608647357
-1.042292292292292 	299.9599771342417 	0.1157325085564306 	101277.6931266574
-1.03978978978979 	299.9583923683228 	0.1203013444479029 	101275.8201351936
-1.037287287287287 	299.9576045713995 	0.1225898873455702 	101274.8890586397
-1.034784784784785 	299.9576158198592 	0.1225284361306753 	101274.9023345466
-1.032282282282283 	299.9584132770845 	0.1201870561919785 	101275.844672867
-1.02977977977978 	299.95997705166 	0.1156708527456156 	101277.6926658506
-1.027277277277277 	299.9622731773371 	0.1090463306068955 	101280.4061824962
-1.024774774774775 	299.9652621375274 	0.1004315357074515 	101283.9385721776
-1.022272272272272 	299.9688949519823 	0.08993205196106879 	101288.2320217253
-1.01976976976977 	299.9730973473668 	0.07776017168437549 	101293.1987848798
-1.017267267267267 	299.9777885049479 	0.06419784394517257 	101298.7434712526
-1.014764764764765 	299.9828748065275 	0.04950207030909143 	101304.7554460225
-1.012262262262262 	299.9882488844614 	0.03396984353253988 	101311.1078443246
-1.00975975975976 	299.9938061401012 	0.01786671694153141 	101317.677093756
-1.007257257257257 	299.9994514207576 	0.007607559011819721 	101324.3506920137
-1.004754754754755 	300.0051111468091 	0.01486420717165305 	101331.0417203671
-1.002252252252252 	300.0107017585445 	0.03098431309503439 	101337.6513597605
-0.9997497497497498 	300.0161034515135 	0.04656473833077455 	101344.0379307415
-0.9972472472472473 	300.0212184177757 	0.06135406534982425 	101350.0857912659
-0.9947447447447449 	300.025967846283 	0.07509084161163572 	101355.7016694102
-0.9922422422422421 	300.0302634731082 	0.08747569436125364 	101360.7811668653
-0.9897397397397399 	300.0340147754673 	0.09832751555533374 	101365.2171886361
-0.9872372372372376 	300.0371497411659 	0.107373212293392 	101368.9244832978
-0.9847347347347346 	300.0395907515739 	0.1144696919521606 	101371.8112242268
-0.9822322322322323 	300.0412984547714 	0.1194543755402211 	101373.8308166403
-0.9797297297297296 	300.0422484677109 	0.122137709102058 	101374.9543662139
-0.9772272272272275 	300.0424112747599 	0.1225678692840172 	101375.1469300396
-0.9747247247247248 	300.0417715313395 	0.1207045219452144 	101374.3904281026
-0.9722222222222224 	300.0403551823234 	0.1166076679670039 	101372.7155836662
-0.9697197197197196 	300.0381743125345 	0.1103357799992735 	101370.136632328
-0.9672172172172175 	300.0352829814026 	0.1019442151381773 	101366.717522761
-0.9647147147147147 	300.0317428833015 	0.09169247608050179 	101362.5313287038
-0.9622122122122124 	300.0276173815922 	0.07978262223953383 	101357.6530434402
-0.9597097097097099 	300.0229830983131 	0.06645337732371816 	101352.1733162054
-0.9572072072072073 	300.0179364268011 	0.05185613448027022 	101346.20620438
-0.9547047047047047 	300.0125411526211 	0.03621252332549841 	101339.8271570203
-0.9522022022022023 	300.0069202414586 	0.01995548258758747 	101333.1816238188
-0.9496996996996998 	300.0012058340474 	0.007012003404982339 	101326.4258896848
-0.9471971971971973 	299.9954775716228 	0.01317491513714491 	101319.6540723107
-0.9446946946946947 	299.9898203061065 	0.02951038348861704 	101312.9664966765
-0.9421921921921923 	299.9843358300947 	0.04532447408742466 	101306.4834661146
-0.93968968968969 	299.9791323533883 	0.06033466336816271 	101300.332855253
-0.9371871871871872 	299.9743108747965 	0.0742923577007627 	101294.6340278598
-0.9346846846846848 	299.9699594924633 	0.08688784414890327 	101289.4910044174
-0.9321821821821823 	299.9661623566072 	0.09786263924312241 	101285.0031973063
-0.9296796796796799 	299.962995615157 	0.1070098237701361 	101281.2605441598
-0.9271771771771771 	299.9605214145535 	0.1141498355070006 	101278.3364156434
-0.9246746746746748 	299.9587917846027 	0.1191718542174035 	101276.2922336186
-0.9221721721721724 	299.9578361290187 	0.121938802754401 	101275.1627712711
-0.9196696696696698 	299.9576652816285 	0.1223917685066185 	101274.9608355372
-0.9171671671671672 	299.958283150912 	0.1205623790454926 	101275.6909707117
-0.9146646646646649 	299.9596741964945 	0.116529396056391 	101277.3348014184
-0.9121621621621623 	299.9618024630256 	0.1103995419327629 	101279.8499467102
-0.9096596596596597 	299.964627847474 	0.1022537618788996 	101283.1890107785
-0.9071571571571573 	299.9680976945248 	0.09221611454887335 	101287.2898089534
-0.9046546546546547 	299.9721515991877 	0.08046946210021062 	101292.081055739
-0.9021521521521524 	299.9767243532974 	0.06726595976180161 	101297.4857244481
-0.8996496496496498 	299.9817213637722 	0.05285925668155838 	101303.3921071032
-0.8971471471471473 	299.9870281485842 	0.03751621290162255 	101309.6649068021
-0.894644644644645 	299.9925352227325 	0.02155668929452989 	101316.1747490798
-0.892142142142142 	299.9981323624817 	0.00595719114422847 	101322.7913858999
-0.8896396396396397 	300.0037480734433 	0.01092629763304935 	101329.4302883054
-0.8871371371371374 	300.0093198149358 	0.02699064751212756 	101336.0175398096
-0.8846346346346349 	300.0147423979153 	0.0426538382663957 	101342.4287423579
-0.8821321321321324 	300.0199252953761 	0.05764836909252274 	101348.5568316231
-0.8796296296296297 	300.0247758308364 	0.07166590693906132 	101354.292216184
-0.8771271271271271 	300.029186233515 	0.08438052680159792 	101359.5073788053
-0.8746246246246248 	300.0330665379985 	0.09559037023804691 	101364.0959036191
-0.8721221221221224 	300.0363455291985 	0.1050591039574995 	101367.9734909127
-0.8696196196196196 	300.0389489636387 	0.1126465737571043 	101371.052273676
-0.8671171171171175 	300.0408428881311 	0.1181488761153806 	101373.2920875552
-0.8646146146146148 	300.0419893974404 	0.1213890988890719 	101374.6480211664
-0.8621121121121121 	300.0423454193829 	0.1223912163592837 	101375.0690968281
-0.8596096096096097 	300.041907040469 	0.1211079930609825 	101374.5506935756
-0.857107107107107 	300.0406918674678 	0.117601057965916 	101373.1137471086
-0.8546046046046049 	300.0387108681014 	0.1119002635126022 	101370.7711666811
-0.8521021021021022 	300.0360123886801 	0.1040562833833425 	101367.5801092896
-0.8495995995995997 	300.0326404962081 	0.09427555848654473 	101363.5927993952
-0.8470970970970974 	300.0286391893205 	0.08274432690828351 	101358.8613327481
-0.8445945945945946 	300.0240988458161 	0.06968442124734862 	101353.4926253166
-0.8420920920920922 	300.0191135258296 	0.05526934878701781 	101347.5980106407
-0.8395895895895897 	300.0137687916854 	0.03979225167015091 	101341.2786551685
-0.8370870870870872 	300.0081968965865 	0.02365878948257721 	101334.6910195188
-0.8345845845845846 	300.0025235102448 	0.007213700743108583 	101327.9836976383
-0.8320820820820823 	299.9968147523033 	0.01044158365177705 	101321.234853664
-0.8295795795795798 	299.9911403523359 	0.02568329342062951 	101314.5269659795
-0.8270770770770772 	299.9856008681349 	0.04164982715152834 	101307.9788378907
-0.8245745745745746 	299.9803190707538 	0.05690896144870117 	101301.735602402
-0.8220720720720721 	299.9754019271264 	0.07114380976192926 	101295.9236421932
-0.8195695695695699 	299.9709391173706 	0.0840569510991824 	101290.6488649032
-0.817067067067067 	299.9670142867819 	0.095377461458718 	101286.0101173253
-0.8145645645645651 	299.9637107070031 	0.104927509711801 	101282.1057100658
-0.8120620620620621 	299.9610885374508 	0.1125184606945304 	101279.0067082076
-0.8095595595595597 	299.959203900848 	0.1179831675904846 	101276.7793439896
-0.8070570570570572 	299.9580867695404 	0.1212120935429326 	101275.4590108959
-0.8045545545545546 	299.9577507766878 	0.1221313018036141 	101275.0619279077
-0.8020520520520523 	299.9581950541221 	0.1208134995011887 	101275.5869098783
-0.7995495495495494 	299.9594079533958 	0.1173225943421379 	101277.0202273413
-0.7970470470470474 	299.961353984236 	0.111699709499935 	101279.3199859095
-0.7945445445445446 	299.9640102325785 	0.1040291856156116 	101282.459132258
-0.7920420420420423 	299.9673344190831 	0.09439795822568982 	101286.3877745234
-0.7895395395395397 	299.9712715060942 	0.08301750069868077 	101291.0409101606
-0.7870370370370371 	299.9757400021256 	0.07013144057258942 	101296.322319738
-0.7845345345345348 	299.9806428367809 	0.05598779257329523 	101302.1173284299
-0.7820320320320323 	299.985860475609 	0.04088253507074316 	101308.284688034
-0.7795295295295296 	299.9912990302181 	0.0251203940633789 	101314.7134895574
-0.7770270270270272 	299.9968463162971 	0.009047518463302887 	101321.271097332
-0.7745245245245247 	300.0024269476093 	0.009582548702194381 	101327.8684710575
-0.7720220220220222 	300.0079789563397 	0.02313916079287887 	101334.4323138921
-0.7695195195195199 	300.0134150596194 	0.03885053028625532 	101340.8594135248
-0.767017017017017 	300.0186476361167 	0.05394266189489251 	101347.0462003826
-0.7645145145145147 	300.0235735025403 	0.06815421709386595 	101352.8705635944
-0.7620120120120122 	300.0280826880057 	0.0811653185549831 	101358.2024984807
-0.7595095095095097 	300.03208950027 	0.09277257546072376 	101362.9405745367
-0.7570070070070072 	300.0355122309704 	0.1026782124766428 	101366.9880865659
-0.7545045045045048 	300.0382831326731 	0.1107071972810308 	101370.2649237773
-0.7520020020020022 	300.0403546579234 	0.1166977602930786 	101372.714721069
-0.7494994994994997 	300.041677438086 	0.1204817823474552 	101374.279118138
-0.7469969969969972 	300.0422195338339 	0.1220793391154526 	101374.9202734053
-0.7444944944944945 	300.0419913310428 	0.121376784608251 	101374.6503797041
-0.7419919919919924 	300.0409875351875 	0.1184295467601572 	101373.463433743
-0.7394894894894897 	300.0392123309559 	0.1132992233565252 	101371.3641930026
-0.7369869869869872 	300.0366934262918 	0.1059804963745404 	101368.385486549
-0.7344844844844846 	300.0334710535353 	0.09670273847626011 	101364.5749893508
-0.7319819819819822 	300.0296057602612 	0.08557464070900705 	101360.0042941166
-0.7294794794794797 	300.0252020181141 	0.07283643930594744 	101354.7971043964
-0.7269769769769773 	300.0203251163443 	0.05876255749458558 	101349.0305978312
-0.7244744744744747 	300.0150675084401 	0.04355264611428628 	101342.8141999664
-0.721971971971972 	300.0095459767404 	0.02759761266641391 	101336.2860597002
-0.7194694694694695 	300.0038851253178 	0.01117532979243501 	101329.5934558814
-0.7169669669669674 	299.9981713717204 	0.009092193049376154 	101322.8386620309
-0.7144644644644647 	299.9924761488817 	0.02185504963141699 	101316.1060603377
-0.711961961961962 	299.9868819509342 	0.03796159118794887 	101309.4931938826
-0.7094594594594597 	299.9815263726795 	0.05340294508612564 	101303.1626983933
-0.7069569569569573 	299.9765198241063 	0.06792144843433769 	101297.2449814316
-0.7044544544544545 	299.9719509619187 	0.0811553580215145 	101291.8448408574
-0.7019519519519523 	299.9679032358648 	0.09278631955993472 	101287.060786715
-0.6994494494494495 	299.9644703996773 	0.102700840256413 	101283.003599053
-0.6969469469469471 	299.9617045098134 	0.1106794396149351 	101279.7347388687
-0.6944444444444446 	299.9596735563737 	0.1166382768903688 	101277.3344525414
-0.6919419419419421 	299.958387298388 	0.1204092774367913 	101275.8142348407
-0.6894394394394396 	299.9578592215955 	0.121835340886144 	101275.1901292399
-0.6869369369369374 	299.9581102808246 	0.1210390640505792 	101275.4867896854
-0.6844344344344344 	299.9591606867857 	0.1180221134333651 	101276.7280623955
-0.6819319319319321 	299.9609566171073 	0.1128675890823123 	101278.850434614
-0.6794294294294296 	299.9634741327595 	0.1056331091990148 	101281.825616387
-0.6769269269269272 	299.9666389476034 	0.09639003629754432 	101285.5658662753
-0.6744244244244245 	299.9704105231417 	0.08544292099961648 	101290.0233768065
-0.6719219219219222 	299.9747322873156 	0.07299174637376576 	101295.1313008231
-0.6694194194194195 	299.9795292518021 	0.05926349681689606 	101300.8011279501
-0.6669169169169172 	299.984653362884 	0.04443209690565123 	101306.8578788649
-0.6644144144144146 	299.990033978509 	0.02878041831699991 	101313.2180967506
-0.661911911911912 	299.9955324109726 	0.0128330887447766 	101319.7179226911
-0.6594094094094097 	300.0010694690353 	0.007717469616107598 	101326.2636812837
-0.656906906906907 	300.0066099694383 	0.01917813644148302 	101332.8138434443
-0.6544044044044046 	300.0120660832637 	0.03494668647994997 	101339.2645413681
-0.6519019019019021 	300.0173436889979 	0.05022632919992066 	101345.5044622991
-0.6493993993993996 	300.0223425700584 	0.06463620559671311 	101351.4151403463
-0.6468968968968971 	300.0269467439285 	0.07790862347753741 	101356.859305861
-0.6443943943943946 	300.0310768685649 	0.08982966142952364 	101361.74315465
-0.6418918918918921 	300.0346354871968 	0.1001213172793118 	101365.9513492087
-0.6393893893893897 	300.0375531022233 	0.1086467201966647 	101369.4016233473
-0.6368868868868871 	300.0397896224313 	0.1151123536010284 	101372.0465662514
-0.6343843843843846 	300.0413066780101 	0.1194189019829482 	101373.8406810432
-0.6318818818818821 	300.0420576427784 	0.121611276508566 	101374.7288449444
-0.6293793793793795 	300.0420546151258 	0.1215631133025432 	101374.7252711569
-0.6268768768768773 	300.0412656491394 	0.1193054236298523 	101373.7923188907
-0.6243743743743745 	300.0396888339584 	0.1147233979665258 	101371.9275338156
-0.6218718718718721 	300.0373322674515 	0.1078343721810833 	101369.1407967023
-0.6193693693693696 	300.0342387950056 	0.09889255678194687 	101365.482823416
-0.6168668668668671 	300.0304705804949 	0.08808030975581026 	101361.0269831038
-0.6143643643643645 	300.0261712326868 	0.07568762548905265 	101355.9431703295
-0.6118618618618621 	300.0213983930998 	0.06188928487530463 	101350.2996708833
-0.6093593593593596 	300.0162431544678 	0.04693425397412581 	101344.2042708717
-0.6068568568568571 	300.0107855337598 	0.03115599362056793 	101337.7515967231
-0.6043543543543546 	300.0051436157967 	0.01483419202946518 	101331.0813456631
-0.6018518518518521 	299.9994151143702 	0.006967841552368362 	101324.3090274003
-0.5993493493493496 	299.993686136092 	0.01829500600312881 	101317.5364580591
-0.5968468468468471 	299.9880745595108 	0.03450549305430483 	101310.9029983074
-0.5943443443443446 	299.9826987100319 	0.05004538206281013 	101304.5484477312
-0.591841841841842 	299.9776509388898 	0.06464772835267127 	101298.5819725435
-0.5893393393393397 	299.9730046438309 	0.07807983439798458 	101293.0902500124
-0.5868368368368371 	299.9688308538575 	0.09013555990326623 	101288.1571701687
-0.5843343343343346 	299.9652164140972 	0.100565003583653 	101283.8853356407
-0.5818318318318321 	299.9622566538443 	0.1091027578227494 	101280.3873139966
-0.5793293293293297 	299.9600411069362 	0.1154964376303516 	101277.7688714471
-0.5768268268268271 	299.9586295644085 	0.1195757253152326 	101276.1005748083
-0.5743243243243245 	299.9580303833552 	0.1213223833496858 	101275.3924394046
-0.5718218218218221 	299.9582038548128 	0.1208332131727071 	101275.5974156937
-0.5693193193193196 	299.9590922341717 	0.1182715733493249 	101276.6472275495
-0.5668168168168171 	299.9606496429431 	0.1137616207467792 	101278.4876970216
-0.5643143143143147 	299.9628614843847 	0.1073406303691723 	101281.1016266323
-0.5618118118118121 	299.965739019431 	0.09899363673611015 	101284.5023389643
-0.5593093093093094 	299.9692915967955 	0.08870033126791149 	101288.7009625437
-0.5568068068068072 	299.9734972609879 	0.07653436788788326 	101293.6716243183
-0.5543043043043046 	299.9782797195018 	0.06272478255095414 	101299.3242180175
-0.551801801801802 	299.9834982755776 	0.04767108997445411 	101305.4925462232
-0.5492992992992995 	299.9889650587975 	0.0319029579644345 	101311.9545809744
-0.5467967967967969 	299.9944877085667 	0.01595905160134791 	101318.4829678371
-0.5442942942942947 	299.9999161211969 	0.005171074096152143 	101324.9002713465
-0.5417917917917919 	300.0051775334263 	0.01498391988567115 	101331.1204163435
-0.5392892892892895 	300.010276476621 	0.02977271722270833 	101337.148753456
-0.536786786786787 	300.015259187218 	0.04422059622991637 	101343.039916226
-0.5342842842842846 	300.0201607050835 	0.05841258523766232 	101348.835314453
-0.531781781781782 	300.0249606671701 	0.07228176400349001 	101354.5108869561
-0.5292792792792794 	300.029561870082 	0.08554752830354567 	101359.9516587873
-0.526776776776777 	300.0337942246211 	0.09772520882688961 	101364.9564910771
-0.5242742742742745 	300.0374393691679 	0.1081947388423271 	101369.2671163426
-0.521771771771772 	300.0402678989454 	0.1163058589956238 	101372.6121557146
-0.5192692692692695 	300.0420803892499 	0.1214945220988766 	101374.7557166617
-0.516766766766767 	300.0427440957386 	0.123386486134521 	101375.5406913245
-0.5142642642642645 	300.0422180817487 	0.1218686588123899 	101374.9186300487
-0.511761761761762 	300.0405628532384 	0.1171168465915918 	101372.961351385
-0.5092592592592596 	300.0379345660396 	0.109575886901955 	101369.8533108372
-0.506756756756757 	300.0345615842772 	0.09989588506294089 	101365.8646477286
-0.5042542542542544 	300.0307117096477 	0.08883866327772078 	101361.3121458877
-0.5017517517517521 	300.0266552804976 	0.07717374824604316 	101356.5155268025
-0.4992492492492494 	300.0226315201523 	0.06558455348069855 	101351.757680172
-0.496746746746747 	300.0188257344359 	0.0546054777419543 	101347.2577081939
-0.4942442442442445 	300.0153629058836 	0.04460110419823335 	101343.1633631644
-0.4917417417417421 	300.0123132781933 	0.03577880777385495 	101339.557664002
-0.4892392392392395 	300.0097024928441 	0.02821681663370809 	101336.4708923824
-0.486736736736737 	300.0075228005011 	0.0218962561872645 	101333.8938551372
-0.4842342342342345 	300.0057437510269 	0.01673189735256206 	101331.7905265569
-0.481731731731732 	300.0043214356793 	0.01259885194169314 	101330.1089758024
-0.4792292292292296 	300.0032058440045 	0.009353909332596553 	101328.790065108
-0.4767267267267268 	300.0023462690667 	0.006851274008819136 	101327.7738377111
-0.4742242242242246 	300.0016949273862 	0.004953162505725549 	101327.0037965037
-0.471721721721722 	300.0012090926118 	0.003536100201791955 	101326.4294259943
-0.4692192192192195 	300.000852086975 	0.002493895306455596 	101326.0073625977
-0.4667167167167169 	300.0005934582852 	0.001738240584231882 	101325.7016040776
-0.4642142142142145 	300.0004086316007 	0.001197769207602018 	101325.4830964565
-0.461711711711712 	300.0002782602517 	0.0008162258591358858 	101325.3289676541
-0.4592092092092094 	300.0001874477026 	0.0005502422191160837 	101325.2216064337
-0.456706706706707 	300.0001249517801 	0.0003670518370725849 	101325.1477218555
-0.4542042042042045 	300.0000824427929 	0.0002423519221603171 	101325.0974666124
-0.451701701701702 	300.0000538543292 	0.00015842352165323 	101325.0636684273
-0.4491991991991995 	300.0000348375383 	0.0001025531651697012 	101325.0411861776
-0.4466966966966969 	300.000022321808 	6.575533715581573e-05 	101325.0263896811
-0.4441941941941945 	300.0000141696405 	4.176922103584258e-05 	101325.0167518564
-0.441691691691692 	300.0000089128644 	2.629126197942217e-05 	101325.0105371676
-0.4391891891891895 	300.0000055564013 	1.640127440815176e-05 	101325.0065689889
-0.436686686686687 	300.0000034336525 	1.014221767555072e-05 	101325.0040594233
-0.4341841841841846 	300.0000021037324 	6.217996124170246e-06 	101325.00248711
-0.431681681681682 	300.0000012780165 	3.780087817080379e-06 	101325.0015109868
-0.4291791791791794 	300.0000007699818 	2.279042752606665e-06 	101325.0009103914
-0.426676676676677 	300.0000004601071 	1.362916835253555e-06 	101325.000544078
-0.4241741741741744 	300.0000002728118 	8.085555668702954e-07 	101325.0003225672
-0.421671671671672 	300.0000001605108 	4.759264359216754e-07 	101325.0001897418
-0.4191691691691694 	300.0000000937512 	2.779758945457391e-07 	101325.00011075
-0.4166666666666669 	300.0000000543499 	1.611319158223536e-07 	101325.0000641525
-0.4141641641641645 	300.0000000311309 	9.270299240583567e-08 	101325.0000368822
-0.411661661661662 	300.0000000178196 	5.294551102175755e-08 	101325.000021047
-0.4091591591591594 	300.000000010092 	3.001893099297273e-08 	101325.0000119222
-0.406656656656657 	300.0000000056058 	1.690135620424116e-08 	101325.0000067037
-0.4041541541541545 	300.0000000031901 	9.446893856034189e-09 	101325.0000037412
-0.401651651651652 	300.0000000016673 	5.247972454074896e-09 	101325.0000020719
-0.3991491491491494 	300.0000000009673 	2.891236450414462e-09 	101325.0000011378
-0.396646646646647 	300.000000000479 	1.587807893241213e-09 	101325.0000006186
-0.3941441441441444 	300.0000000002674 	8.602930219475966e-10 	101325.000000332
-0.3916416416416419 	300.0000000000778 	4.6846989454722e-10 	101325.0000001748
-0.3891391391391395 	300.0000000000283 	2.494377632321483e-10 	101325.0000000893
-0.3866366366366368 	299.9999999999938 	1.356486491979837e-10 	101325.000000043
-0.3841341341341344 	300.0000000000188 	7.134294455293551e-11 	101325.0000000181
-0.381631631631632 	299.9999999999494 	3.896354310537908e-11 	101325.0000000049
-0.3791291291291294 	300.0000000000087 	2.092652401438777e-11 	101324.9999999981
-0.3766266266266269 	300.0000000000289 	1.209125128291996e-11 	101324.9999999942
-0.3741241241241244 	300.0000000000301 	8.671488983208892e-12 	101324.9999999923
-0.371621621621622 	300.0000000000236 	4.926070061467626e-12 	101324.9999999913
-0.3691191191191194 	300.000000000021 	6.268989892293261e-12 	101324.9999999908
-0.366616616616617 	300.0000000000173 	2.253222756077361e-12 	101324.9999999904
-0.3641141141141143 	299.9999999999587 	4.48176176779988e-12 	101324.99999999
-0.3616116116116119 	299.999999999941 	2.028205744963654e-12 	101324.99999999
-0.3591091091091095 	299.9999999999833 	2.942962733152885e-12 	101324.9999999899
-0.356606606606607 	299.9999999999639 	1.827703015743173e-12 	101324.9999999901
-0.3541041041041044 	299.9999999999879 	1.404650021475266e-12 	101324.9999999903
-0.3516016016016019 	300.0000000000081 	2.224949418189352e-12 	101324.9999999905
-0.3490990990990994 	299.9999999999904 	7.929367527523843e-13 	101324.9999999907
-0.346596596596597 	300.0000000000513 	3.693947023655278e-12 	101324.9999999909
-0.3440940940940944 	300.0000000000604 	9.901679016498489e-13 	101324.9999999909
-0.3415915915915919 	300.0000000000227 	3.233528912366373e-12 	101324.9999999908
-0.3390890890890895 	299.9999999999745 	6.988324648392768e-13 	101324.9999999909
-0.3365865865865869 	300.0000000000227 	1.926895443955596e-12 	101324.9999999907
-0.3340840840840844 	300.0000000000047 	4.079212322679498e-13 	101324.9999999904
-0.3315815815815819 	300.000000000024 	1.805358095132286e-12 	101324.9999999902
-0.3290790790790794 	300.0000000000243 	1.331500263824935e-12 	101324.9999999902
-0.3265765765765769 	299.9999999999146 	3.10849385611776e-12 	101324.9999999901
-0.3240740740740744 	299.9999999999931 	1.593843592019475e-12 	101324.9999999901
-0.3215715715715718 	300.0000000000048 	4.354885162541993e-12 	101324.9999999898
-0.3190690690690695 	299.999999999919 	2.202972035541217e-12 	101324.9999999897
-0.3165665665665668 	299.9999999999908 	5.160404120062474e-12 	101324.99999999
-0.3140640640640644 	300.0000000000057 	2.251554534108939e-12 	101324.99999999
-0.311561561561562 	299.9999999999142 	6.186722769136446e-12 	101324.9999999901
-0.3090590590590593 	299.9999999999925 	1.463368587229454e-12 	101324.9999999901
-0.3065565565565568 	300.0000000000017 	7.379646054570387e-12 	101324.9999999901
-0.3040540540540545 	300.0000000000057 	1.497046791304386e-12 	101324.99999999
-0.3015515515515518 	300.0000000000451 	6.14342617576444e-12 	101324.9999999899
-0.2990490490490494 	299.9999999999438 	2.25804778523374e-12 	101324.9999999898
-0.2965465465465469 	299.9999999999839 	4.903842465887161e-12 	101324.9999999898
-0.2940440440440444 	299.999999999995 	2.986931480300291e-12 	101324.9999999901
-0.2915415415415418 	300.0000000000062 	4.127600495380036e-12 	101324.9999999901
-0.2890390390390395 	300.0000000000069 	4.292488857306282e-12 	101324.9999999902
-0.2865365365365368 	299.9999999999814 	3.152786352040307e-12 	101324.9999999903
-0.2840340340340343 	300.0000000000014 	5.065891686845991e-12 	101324.9999999904
-0.2815315315315318 	299.9999999999121 	2.935187342168478e-12 	101324.9999999904
-0.2790290290290295 	299.9999999999533 	4.837385620995385e-12 	101324.9999999901
-0.2765265265265269 	300.0000000000055 	3.442360968748245e-12 	101324.9999999901
-0.2740240240240244 	300.0000000000313 	4.375108074630968e-12 	101324.9999999901
-0.2715215215215219 	300.0000000000127 	4.332328376320652e-12 	101324.99999999
-0.2690190190190194 	299.9999999999371 	3.59598402787421e-12 	101324.9999999896
-0.2665165165165169 	299.9999999999997 	3.785706666833977e-12 	101324.9999999897
-0.2640140140140144 	299.9999999999602 	2.672497701314623e-12 	101324.9999999897
-0.2615115115115119 	299.9999999999998 	4.23304643773839e-12 	101324.9999999897
-0.2590090090090094 	299.99999999992 	2.390416227364642e-12 	101324.9999999898
-0.2565065065065068 	299.9999999999935 	3.144253562818604e-12 	101324.9999999897
-0.2540040040040044 	299.9999999999956 	3.114172080249799e-12 	101324.9999999896
-0.2515015015015019 	300.0000000000458 	2.359232403969494e-12 	101324.9999999896
-0.2489989989989994 	300.0000000000517 	4.671422313304038e-12 	101324.9999999895
-0.2464964964964968 	299.9999999999918 	1.6404222410406e-12 	101324.9999999897
-0.2439939939939944 	299.9999999999946 	5.872423812888018e-12 	101324.9999999898
-0.2414914914914919 	299.9999999999601 	1.498534276711487e-12 	101324.9999999897
-0.2389889889889893 	300.0000000000037 	6.192291184877762e-12 	101324.9999999897
-0.2364864864864869 	300.0000000000263 	2.357212366751028e-12 	101324.9999999901
-0.2339839839839843 	299.9999999999129 	7.053668793446846e-12 	101324.9999999901
-0.2314814814814819 	299.9999999999778 	2.617156988040671e-12 	101324.9999999903
-0.2289789789789792 	299.9999999999054 	5.929709791290743e-12 	101324.9999999902
-0.2264764764764769 	299.9999999999365 	2.621753116385799e-12 	101324.9999999902
-0.2239739739739743 	299.9999999999484 	3.998380792112746e-12 	101324.99999999
-0.2214714714714718 	299.9999999999296 	3.25333703948648e-12 	101324.9999999898
-0.2189689689689693 	299.9999999999617 	3.155191130262612e-12 	101324.9999999894
-0.2164664664664669 	299.9999999999799 	4.289739783158921e-12 	101324.9999999893
-0.2139639639639643 	299.9999999999176 	2.806782283830949e-12 	101324.9999999894
-0.2114614614614618 	299.9999999999666 	3.817914098749589e-12 	101324.9999999893
-0.2089589589589593 	299.9999999999868 	4.096880483854746e-12 	101324.9999999893
-0.2064564564564568 	299.9999999999866 	3.75951275844875e-12 	101324.9999999892
-0.2039539539539543 	299.9999999998969 	5.207670203024591e-12 	101324.9999999889
-0.2014514514514518 	299.9999999999384 	2.252098944734165e-12 	101324.999999989
-0.1989489489489494 	299.9999999999595 	5.32659864759555e-12 	101324.999999989
-0.1964464464464468 	299.9999999999864 	1.455316279106055e-12 	101324.999999989
-0.1939439439439443 	299.999999999987 	4.767230485637022e-12 	101324.999999989
-0.1914414414414418 	299.9999999999023 	1.169878748264842e-12 	101324.9999999891
-0.1889389389389393 	300.0000000000088 	3.032596053818224e-12 	101324.9999999892
-0.1864364364364368 	300.0000000000471 	2.230609272740841e-12 	101324.9999999893
-0.1839339339339343 	299.9999999999683 	4.224132613572132e-12 	101324.9999999896
-0.1814314314314318 	299.9999999999948 	2.490913866175e-12 	101324.9999999896
-0.1789289289289293 	299.999999999883 	4.610775571340689e-12 	101324.9999999899
-0.1764264264264268 	299.9999999999785 	1.906590143380546e-12 	101324.9999999899
-0.1739239239239243 	299.999999999886 	4.745915575253336e-12 	101324.99999999
-0.1714214214214218 	299.9999999999895 	3.634661250988205e-13 	101324.9999999902
-0.1689189189189193 	299.9999999999473 	5.786994919664076e-12 	101324.9999999904
-0.1664164164164168 	300.0000000000067 	1.523446537677331e-12 	101324.9999999907
-0.1639139139139143 	299.999999999982 	7.508650089793487e-12 	101324.9999999906
-0.1614114114114118 	300.0000000000335 	2.250943390061734e-12 	101324.9999999903
-0.1589089089089093 	299.9999999999967 	1.068695401945297e-11 	101324.9999999902
-0.1564064064064068 	299.9999999999839 	2.626635153006473e-12 	101324.99999999
-0.1539039039039043 	299.9999999999891 	1.135731972586242e-11 	101324.99999999
-0.1514014014014018 	300.0000000000288 	2.562461563885141e-12 	101324.9999999902
-0.1488988988988993 	299.9999999999789 	9.916188472684339e-12 	101324.9999999902
-0.1463963963963968 	300.0000000000007 	1.828871894065191e-12 	101324.9999999904
-0.1438938938938943 	299.9999999999473 	8.450287980744045e-12 	101324.9999999903
-0.1413913913913918 	299.9999999999158 	9.164146145199958e-13 	101324.9999999902
-0.1388888888888893 	299.9999999999778 	6.932848308221692e-12 	101324.9999999901
-0.1363863863863868 	299.9999999998701 	1.440889722731643e-12 	101324.9999999904
-0.1338838838838843 	299.9999999999006 	4.911886293060117e-12 	101324.9999999903
-0.1313813813813818 	299.9999999999962 	1.489041754717659e-12 	101324.9999999904
-0.1288788788788793 	299.9999999999558 	4.741716979135748e-12 	101324.9999999909
-0.1263763763763768 	299.999999999964 	8.266523464677006e-13 	101324.9999999906
-0.1238738738738743 	299.9999999999194 	4.877590346868075e-12 	101324.9999999907
-0.1213713713713717 	299.9999999999768 	1.03236661725228e-12 	101324.9999999905
-0.1188688688688693 	300.0000000000063 	6.265444588396521e-12 	101324.9999999903
-0.1163663663663668 	299.9999999998938 	5.881357353598187e-13 	101324.9999999904
-0.1138638638638643 	299.9999999999883 	5.947163381243513e-12 	101324.9999999901
-0.1113613613613618 	299.9999999999787 	7.624799942568053e-13 	101324.99999999
-0.1088588588588592 	299.9999999999663 	6.155865486060935e-12 	101324.9999999898
-0.1063563563563568 	299.9999999999486 	1.042401865351969e-12 	101324.9999999898
-0.1038538538538543 	299.9999999999674 	5.306468420453239e-12 	101324.9999999895
-0.1013513513513517 	300.0000000000152 	9.370031254556036e-13 	101324.9999999896
-0.09884884884884926 	299.9999999999348 	5.591955709705043e-12 	101324.9999999896
-0.09634634634634676 	299.9999999998758 	2.061881131019557e-12 	101324.9999999898
-0.09384384384384425 	299.99999999992 	4.380162914238626e-12 	101324.9999999897
-0.09134134134134177 	300.0000000000247 	1.612643095469816e-12 	101324.9999999897
-0.08883883883883925 	300.0000000000122 	2.949957600866963e-12 	101324.99999999
-0.08633633633633674 	299.9999999999469 	1.576162417597794e-12 	101324.99999999
-0.08383383383383426 	300.0000000000123 	2.316997356151356e-12 	101324.99999999
-0.08133133133133173 	299.9999999999595 	2.742699405633536e-12 	101324.99999999
-0.07882882882882926 	299.9999999998633 	2.742839807509192e-12 	101324.9999999898
-0.07632632632632676 	299.9999999999503 	2.170778130619724e-12 	101324.9999999898
-0.07382382382382424 	299.9999999998803 	2.076243737289669e-12 	101324.9999999899
-0.07132132132132173 	300.0000000000111 	1.180943607816629e-12 	101324.9999999894
-0.06881881881881925 	299.999999999955 	1.578122354291112e-12 	101324.9999999892
-0.06631631631631671 	299.9999999998774 	1.002979902798583e-12 	101324.9999999889
-0.06381381381381425 	299.999999999947 	8.72369655093534e-13 	101324.9999999887
-0.06131131131131173 	299.9999999999498 	2.134623993471418e-13 	101324.9999999889
-0.05880880880880923 	299.9999999999056 	8.063732223473345e-14 	101324.9999999888
-0.05630630630630672 	299.9999999999634 	6.070559210562647e-14 	101324.9999999888
-0.05380380380380424 	300.0000000000142 	1.066793982853233e-12 	101324.9999999889
-0.05130130130130173 	300.0000000000151 	2.017160999218055e-12 	101324.9999999892
-0.04879879879879922 	299.9999999999321 	2.226347953139743e-12 	101324.9999999892
-0.04629629629629672 	299.9999999999167 	2.37893408274632e-12 	101324.9999999892
-0.04379379379379422 	299.9999999999063 	2.914743028800588e-12 	101324.9999999894
-0.04129129129129173 	299.999999999975 	2.714408447607569e-12 	101324.9999999899
-0.03878878878878922 	299.999999999978 	2.594202169378387e-12 	101324.9999999903
-0.03628628628628671 	299.9999999999769 	2.410078094357527e-12 	101324.9999999904
-0.03378378378378422 	299.9999999999151 	2.35985895379091e-12 	101324.9999999902
-0.03128128128128172 	299.9999999999642 	1.601440955816325e-12 	101324.9999999902
-0.02877877877877922 	299.9999999999641 	2.252333283319236e-12 	101324.9999999901
-0.0262762762762767 	299.999999999882 	2.656749782022041e-12 	101324.9999999901
-0.02377377377377422 	300.0000000000225 	3.073637025834162e-12 	101324.99999999
-0.0212712712712717 	299.9999999998859 	3.105970300729215e-12 	101324.99999999
-0.01876876876876921 	299.999999999966 	2.497723481692249e-12 	101324.9999999898
-0.01626626626626671 	300.0000000000161 	2.41674108299532e-12 	101324.9999999901
-0.0137637637637642 	299.9999999999611 	2.018662814677042e-12 	101324.9999999899
-0.0112612612612617 	300.0000000000182 	2.29044157616569e-12 	101324.9999999899
-0.008758758758759198 	299.9999999999999 	1.430704872449985e-12 	101324.9999999897
-0.006256256256256697 	299.9999999998735 	1.473965150218279e-12 	101324.9999999895
-0.003753753753754195 	299.9999999999494 	7.361786149875178e-13 	101324.9999999892
-0.001251251251251693 	299.999999999917 	1.639698489400213e-12 	101324.9999999889
0.00125125125125081 	299.9999999999496 	1.328370290906921e-12 	101324.9999999892
0.003753753753753312 	299.9999999999595 	1.460050518084914e-12 	101324.9999999893
0.006256256256255817 	299.9999999998665 	3.997693459855445e-13 	101324.9999999893
0.008758758758758317 	299.9999999999841 	7.911191607410163e-13 	101324.9999999897
0.01126126126126082 	300.0000000000131 	1.124775701402236e-12 	101324.9999999897
0.01376376376376332 	299.9999999999614 	1.20751161513623e-12 	101324.9999999897
0.01626626626626582 	300.0000000000133 	8.860420842796558e-13 	101324.9999999896
0.01876876876876833 	299.999999999949 	1.365153150044191e-12 	101324.9999999892
0.02127127127127083 	299.9999999999641 	1.132510388063771e-12 	101324.9999999892
0.02377377377377332 	299.9999999999921 	1.14469667026882e-12 	101324.9999999893
0.02627627627627583 	299.9999999998893 	4.852143031636171e-13 	101324.9999999892
0.02877877877877833 	300.0000000000064 	4.327701262557119e-13 	101324.9999999891
0.03128128128128083 	299.9999999999349 	6.887600280952752e-13 	101324.9999999893
0.03378378378378333 	299.9999999998852 	1.820101669145478e-12 	101324.9999999895
0.03628628628628584 	299.999999999968 	2.336482643384317e-12 	101324.9999999895
0.03878878878878834 	299.9999999999746 	2.390432779387698e-12 	101324.9999999895
0.04129129129129084 	299.9999999999698 	1.660830488502383e-12 	101324.9999999896
0.04379379379379333 	299.9999999999314 	5.755001141644417e-13 	101324.9999999897
0.04629629629629585 	299.9999999998695 	6.595691073748401e-14 	101324.9999999897
0.04879879879879834 	299.9999999999459 	7.004501952148696e-13 	101324.9999999896
0.05130130130130085 	300.0000000000153 	6.599750269716484e-13 	101324.9999999894
0.05380380380380335 	300.0000000000208 	4.168216679699672e-13 	101324.9999999896
0.05630630630630584 	299.9999999999895 	5.300209863868603e-13 	101324.9999999897
0.05880880880880836 	299.9999999999067 	4.296002706784063e-13 	101324.9999999899
0.06131131131131085 	299.9999999999731 	3.239395375918494e-13 	101324.99999999
0.06381381381381336 	299.9999999999572 	2.314379616370241e-13 	101324.9999999897
0.06631631631631586 	299.9999999998702 	4.048268968416789e-13 	101324.9999999898
0.06881881881881835 	299.9999999999382 	1.142309487492477e-13 	101324.9999999897
0.07132132132132088 	299.9999999999875 	2.626005065519006e-13 	101324.9999999896
0.07382382382382337 	299.9999999998846 	2.097918090337679e-13 	101324.9999999896
0.07632632632632587 	299.9999999999675 	2.361537330879947e-13 	101324.9999999901
0.07882882882882837 	299.9999999999204 	6.176663299690645e-13 	101324.9999999899
0.08133133133133086 	299.9999999999831 	5.406440387894425e-13 	101324.9999999898
0.08383383383383337 	299.999999999982 	9.213660789088314e-13 	101324.9999999897
0.08633633633633589 	299.999999999888 	8.568970064092413e-13 	101324.9999999896
0.08883883883883838 	300.0000000000121 	5.417261119312454e-13 	101324.9999999896
0.09134134134134086 	299.9999999999815 	1.024133346605468e-12 	101324.9999999894
0.09384384384384339 	299.9999999998763 	2.347459415066431e-12 	101324.9999999895
0.09634634634634588 	299.9999999999573 	2.703952230475664e-12 	101324.9999999896
0.09884884884884838 	299.9999999999661 	2.656336967333384e-12 	101324.9999999897
0.1013513513513509 	300.0000000000258 	2.077231110604582e-12 	101324.9999999899
0.1038538538538534 	299.9999999999442 	1.693295616692084e-12 	101324.9999999899
0.1063563563563559 	300.0000000000216 	1.406923503239415e-12 	101324.99999999
0.1088588588588584 	300.0000000000269 	3.068606868234986e-13 	101324.9999999898
0.1113613613613609 	299.9999999999092 	5.257106506828696e-13 	101324.9999999898
0.1138638638638634 	299.9999999999373 	7.302576360261004e-13 	101324.9999999897
0.1163663663663659 	299.9999999999337 	9.539212794691443e-13 	101324.9999999898
0.1188688688688684 	299.9999999999646 	1.326531623837504e-12 	101324.9999999895
0.1213713713713709 	299.9999999999886 	1.301697842194873e-12 	101324.9999999896
0.1238738738738734 	299.9999999999104 	2.284042927875284e-12 	101324.9999999897
0.1263763763763759 	299.9999999999818 	2.119514498498733e-12 	101324.9999999897
0.1288788788788784 	299.999999999986 	2.095176783648462e-12 	101324.9999999897
0.1313813813813809 	299.9999999999847 	1.77025100215233e-12 	101324.9999999897
0.1338838838838834 	299.9999999999729 	1.73059860694995e-12 	101324.9999999896
0.1363863863863859 	300.0000000000367 	1.828623038140136e-12 	101324.9999999896
0.1388888888888884 	300.0000000000522 	2.576220114685377e-12 	101324.9999999893
0.1413913913913909 	300.0000000000005 	2.175315470455969e-12 	101324.9999999894
0.1438938938938934 	299.9999999999912 	2.84672928924011e-12 	101324.9999999892
0.1463963963963959 	299.9999999999561 	1.124387429619569e-12 	101324.9999999893
0.1488988988988985 	299.9999999998964 	2.70241110207435e-12 	101324.9999999896
0.1514014014014009 	299.9999999999675 	1.448816710889102e-12 	101324.9999999896
0.1539039039039035 	299.9999999999537 	3.661172731991662e-12 	101324.9999999895
0.1564064064064059 	299.9999999999173 	9.598935079615597e-13 	101324.9999999897
0.1589089089089084 	299.999999999976 	4.489455850328095e-12 	101324.9999999899
0.1614114114114109 	299.9999999999712 	1.817271672584125e-12 	101324.9999999898
0.1639139139139134 	299.9999999999061 	3.774329545582067e-12 	101324.9999999894
0.166416416416416 	300.0000000000018 	2.852000140402288e-12 	101324.9999999894
0.1689189189189185 	300.0000000000357 	2.80316497556376e-12 	101324.9999999892
0.1714214214214209 	299.9999999999947 	3.139382401225585e-12 	101324.9999999893
0.1739239239239235 	299.9999999999899 	1.542412994648586e-12 	101324.9999999893
0.1764264264264259 	299.9999999999609 	3.431075741546691e-12 	101324.9999999892
0.1789289289289284 	300.0000000000094 	6.260804367033607e-13 	101324.9999999891
0.181431431431431 	299.99999999996 	3.007851093991524e-12 	101324.999999989
0.1839339339339334 	299.9999999999675 	1.03523623195955e-12 	101324.9999999889
0.186436436436436 	299.9999999999129 	2.657265466378945e-12 	101324.9999999889
0.1889389389389385 	299.9999999999828 	2.477038874787726e-12 	101324.999999989
0.191441441441441 	299.9999999999758 	1.837578517967856e-12 	101324.9999999892
0.1939439439439434 	299.9999999999023 	2.928121272462866e-12 	101324.9999999892
0.196446446446446 	299.9999999999343 	1.119257905218267e-12 	101324.999999989
0.1989489489489485 	299.9999999999613 	3.218986891436566e-12 	101324.9999999887
0.2014514514514509 	299.9999999999725 	1.05150986838765e-12 	101324.9999999887
0.2039539539539535 	299.9999999999894 	2.397285141567004e-12 	101324.9999999885
0.2064564564564559 	299.9999999999531 	1.582407435647182e-12 	101324.9999999885
0.2089589589589585 	299.9999999999783 	1.902881295948468e-12 	101324.9999999888
0.211461461461461 	299.999999999922 	2.368121470943195e-12 	101324.9999999888
0.2139639639639635 	299.9999999999795 	1.621178331845449e-12 	101324.9999999892
0.2164664664664659 	299.9999999999931 	2.863421073544099e-12 	101324.9999999892
0.2189689689689684 	299.9999999999933 	6.790844826924309e-13 	101324.9999999892
0.221471471471471 	299.9999999999897 	2.73842985857364e-12 	101324.9999999894
0.2239739739739735 	299.9999999999445 	3.70025911254219e-13 	101324.9999999892
0.226476476476476 	299.9999999999753 	1.991161815238124e-12 	101324.9999999892
0.2289789789789785 	299.9999999999985 	1.318817742972231e-12 	101324.999999989
0.231481481481481 	299.9999999999863 	1.326495664381923e-12 	101324.9999999891
0.2339839839839835 	299.9999999999823 	2.027601974478748e-12 	101324.9999999891
0.236486486486486 	300.0000000000206 	1.937189120473323e-12 	101324.9999999891
0.2389889889889885 	299.9999999999956 	4.167088646667318e-12 	101324.9999999893
0.241491491491491 	299.9999999999037 	2.651393776142566e-12 	101324.9999999893
0.2439939939939935 	299.9999999999811 	5.771128707505743e-12 	101324.9999999894
0.246496496496496 	299.9999999999875 	3.093340576799319e-12 	101324.9999999896
0.2489989989989985 	300.0000000000395 	4.300417359429638e-12 	101324.9999999895
0.251501501501501 	300.0000000000341 	3.140044989920876e-12 	101324.9999999894
0.2540040040040035 	299.9999999999866 	2.882562009509488e-12 	101324.9999999893
0.256506506506506 	300.000000000029 	3.015551563970886e-12 	101324.9999999891
0.2590090090090086 	299.9999999998895 	1.572170375561717e-12 	101324.9999999888
0.261511511511511 	299.9999999999959 	3.900823992599069e-12 	101324.9999999891
0.2640140140140135 	299.9999999999843 	1.52139984190083e-12 	101324.9999999893
0.2665165165165161 	299.9999999999187 	3.459757242760934e-12 	101324.999999989
0.2690190190190185 	300.0000000000014 	2.790918463596285e-12 	101324.9999999892
0.271521521521521 	300.0000000000027 	3.340379694972194e-12 	101324.9999999893
0.2740240240240235 	300.0000000000159 	3.188070715979355e-12 	101324.9999999895
0.276526526526526 	300.0000000000066 	2.378738389139862e-12 	101324.9999999894
0.2790290290290286 	299.9999999999294 	3.10321219341979e-12 	101324.9999999894
0.281531531531531 	299.9999999999184 	1.582526802498071e-12 	101324.9999999892
0.2840340340340335 	299.9999999999771 	2.838276721948994e-12 	101324.9999999891
0.2865365365365361 	299.9999999999486 	1.440101748389912e-12 	101324.9999999889
0.2890390390390385 	299.9999999999955 	1.978261361387869e-12 	101324.9999999891
0.291541541541541 	299.9999999999948 	2.113337442816134e-12 	101324.9999999889
0.2940440440440436 	299.9999999999891 	7.319279933168374e-13 	101324.9999999889
0.296546546546546 	299.9999999999879 	2.065233758050218e-12 	101324.9999999888
0.2990490490490486 	299.999999999926 	1.567567578018879e-12 	101324.9999999889
0.3015515515515511 	300.0000000000425 	3.642262963490108e-12 	101324.9999999889
0.3040540540540535 	299.9999999999914 	2.757783908957482e-12 	101324.9999999889
0.3065565565565562 	299.999999999997 	3.836675714901694e-12 	101324.9999999889
0.3090590590590585 	299.9999999999875 	2.693367381566634e-12 	101324.9999999891
0.3115615615615611 	299.9999999999312 	3.273646328680705e-12 	101324.9999999891
0.3140640640640635 	300.0000000000038 	1.771326983644522e-12 	101324.9999999891
0.316566566566566 	299.9999999999924 	2.259590979937504e-12 	101324.9999999894
0.3190690690690687 	299.9999999999461 	1.385231909955642e-12 	101324.9999999895
0.3215715715715711 	300.0000000000179 	2.57382868455237e-12 	101324.9999999897
0.3240740740740735 	299.9999999999991 	1.020237658134386e-12 	101324.9999999898
0.326576576576576 	299.9999999998908 	1.86654521329442e-12 	101324.99999999
0.3290790790790786 	300.0000000000072 	4.925976163600285e-13 	101324.9999999902
0.3315815815815811 	300.0000000000385 	1.454374651935095e-12 	101324.9999999901
0.3340840840840836 	299.9999999999851 	2.29773828682155e-13 	101324.9999999901
0.3365865865865861 	300.0000000000593 	1.380683375585e-12 	101324.9999999901
0.3390890890890886 	300.0000000000538 	6.459028974091842e-13 	101324.99999999
0.3415915915915911 	300.0000000000048 	7.827154924393317e-13 	101324.9999999899
0.3440940940940935 	299.9999999999461 	6.499057253628869e-13 	101324.9999999898
0.3465965965965962 	300.0000000000369 	1.324477738227614e-12 	101324.9999999898
0.3490990990990985 	300.0000000000276 	6.34547645318308e-13 	101324.9999999899
0.3516016016016011 	299.9999999999834 	1.383885823522842e-12 	101324.9999999896
0.3541041041041035 	300.0000000000068 	1.720719788015469e-12 	101324.9999999895
0.3566066066066061 	299.999999999948 	6.832649111061618e-13 	101324.9999999894
0.3591091091091085 	299.9999999999081 	2.26338651217473e-12 	101324.9999999894
0.3616116116116112 	299.9999999999326 	1.208680920191277e-12 	101324.9999999894
0.3641141141141137 	299.9999999999242 	3.305812107925614e-12 	101324.9999999894
0.3666166166166161 	299.9999999999158 	1.917809626827313e-12 	101324.9999999897
0.3691191191191185 	300.0000000000484 	3.740278184365914e-12 	101324.9999999898
0.371621621621621 	300.0000000000185 	2.256943442525098e-12 	101324.9999999898
0.3741241241241237 	300.0000000000591 	2.894993953428672e-12 	101324.99999999
0.3766266266266261 	300.0000000000389 	1.317785215091897e-12 	101324.99999999
0.3791291291291286 	299.999999999982 	2.386778192251545e-12 	101324.9999999899
0.3816316316316311 	299.9999999999064 	1.027992048228484e-12 	101324.9999999897
0.3841341341341336 	300.0000000000105 	2.24019476313489e-12 	101324.9999999898
0.3866366366366362 	299.9999999999919 	9.476852559649663e-13 	101324.9999999896
0.3891391391391387 	299.9999999999476 	1.343478355560651e-12 	101324.9999999897
0.391641641641641 	299.9999999999965 	9.73608060538592e-13 	101324.9999999897
0.3941441441441436 	300.000000000007 	1.007283236625922e-12 	101324.9999999897
0.3966466466466462 	299.9999999999986 	8.937781510593643e-13 	101324.9999999899
0.3991491491491486 	299.9999999999447 	6.384100975855151e-13 	101324.9999999898
0.4016516516516512 	299.9999999999097 	1.531257278419546e-12 	101324.9999999899
0.4041541541541536 	299.9999999999488 	8.193055636199986e-13 	101324.9999999898
0.4066566566566561 	299.9999999999472 	2.008368396598144e-12 	101324.9999999899
0.4091591591591587 	299.9999999999964 	7.694472560714434e-13 	101324.9999999899
0.4116616616616612 	300.0000000000115 	2.158341006884673e-12 	101324.9999999899
0.4141641641641635 	300.0000000000524 	1.101500432688553e-12 	101324.9999999898
0.4166666666666662 	299.9999999999936 	5.383817780506266e-13 	101324.9999999898
0.4191691691691687 	299.9999999999325 	1.572509294279585e-12 	101324.99999999
0.421671671671671 	300.0000000000141 	2.106485049779803e-12 	101324.99999999
0.4241741741741737 	299.9999999999758 	2.29281471192343e-12 	101324.99999999
0.4266766766766761 	299.9999999999496 	2.972911685569109e-12 	101324.9999999898
0.4291791791791785 	300.0000000000188 	2.818754805666153e-12 	101324.9999999895
0.4316816816816812 	300.0000000000085 	3.592370992181345e-12 	101324.9999999893
0.4341841841841836 	299.9999999999791 	2.793645065328666e-12 	101324.9999999893
0.4366866866866862 	299.9999999999117 	2.480420515267341e-12 	101324.9999999893
0.4391891891891885 	299.999999999986 	2.089244160127115e-12 	101324.9999999893
0.4416916916916913 	299.9999999999774 	1.50718375886616e-12 	101324.9999999892
0.4441941941941936 	299.9999999999832 	1.177542889416327e-12 	101324.9999999894
0.4466966966966961 	299.9999999999035 	1.407823700878639e-12 	101324.9999999893
0.4491991991991987 	299.9999999999753 	1.820184698883547e-13 	101324.999999989
0.4517017017017012 	299.9999999999725 	4.538203953657414e-13 	101324.9999999889
0.4542042042042035 	299.9999999999784 	2.700154912141979e-13 	101324.9999999891
0.4567067067067062 	299.9999999999951 	2.63968955293105e-13 	101324.9999999892
0.4592092092092087 	299.9999999999176 	3.903816237856043e-13 	101324.9999999893
0.4617117117117112 	300.0000000000196 	3.661829648870976e-13 	101324.9999999894
0.4642142142142137 	299.9999999999554 	3.050598304750846e-13 	101324.9999999894
0.4667167167167162 	299.9999999999892 	1.708816911151855e-13 	101324.9999999896
0.4692192192192187 	299.9999999999488 	3.575223841986798e-13 	101324.9999999892
0.4717217217217212 	300.0000000000152 	3.885387054373344e-13 	101324.9999999892
0.4742242242242236 	299.9999999999475 	4.916355435430164e-13 	101324.9999999891
0.4767267267267262 	299.9999999999758 	8.293567972143363e-13 	101324.9999999893
0.4792292292292287 	300.0000000000164 	1.22084879610147e-12 	101324.9999999893
0.4817317317317312 	300.0000000000352 	8.352065831764836e-13 	101324.9999999894
0.4842342342342336 	299.9999999999845 	1.032396283688888e-12 	101324.9999999894
0.4867367367367362 	299.9999999999463 	3.078375353821011e-13 	101324.9999999893
0.4892392392392387 	300.0000000000261 	1.139371374519455e-12 	101324.9999999894
0.4917417417417412 	300.0000000000081 	1.060869273764771e-12 	101324.9999999896
0.4942442442442437 	299.9999999998971 	1.313814929188727e-12 	101324.9999999897
0.4967467467467462 	299.9999999999185 	8.853874668191164e-13 	101324.9999999897
0.4992492492492487 	299.9999999999125 	1.951829042431775e-12 	101324.9999999898
0.5017517517517511 	299.9999999999499 	1.060669592916442e-12 	101324.99999999
0.5042542542542537 	299.9999999999648 	1.589131592862001e-12 	101324.9999999903
0.5067567567567562 	299.9999999999416 	1.429767244378962e-12 	101324.9999999905
0.5092592592592589 	299.9999999999654 	1.423902425495363e-12 	101324.9999999907
0.5117617617617611 	299.9999999999536 	2.626436137154759e-12 	101324.9999999905
0.5142642642642637 	299.999999999985 	1.446016026919773e-12 	101324.9999999904
0.5167667667667663 	299.9999999999698 	3.938856582913267e-12 	101324.9999999902
0.5192692692692688 	299.9999999999164 	2.062590614157267e-12 	101324.9999999901
0.5217717717717714 	299.999999999937 	5.369019356146464e-12 	101324.9999999899
0.5242742742742736 	299.9999999999341 	1.468765824220444e-12 	101324.9999999897
0.5267767767767763 	299.999999999953 	4.833310510666955e-12 	101324.9999999895
0.5292792792792789 	299.9999999999317 	1.263759990606477e-12 	101324.9999999893
0.5317817817817813 	299.9999999999008 	3.943061130977093e-12 	101324.9999999893
0.5342842842842837 	300.0000000000169 	1.613343530205877e-12 	101324.9999999896
0.5367867867867864 	300.0000000000033 	3.044356484379732e-12 	101324.9999999898
0.5392892892892888 	299.9999999999555 	1.609906101974031e-12 	101324.9999999901
0.5417917917917912 	300.0000000000072 	3.280345010960802e-12 	101324.9999999903
0.5442942942942938 	299.9999999999835 	1.955895292392647e-12 	101324.9999999905
0.5467967967967964 	299.999999999947 	3.331147081566676e-12 	101324.9999999904
0.5492992992992988 	299.9999999999404 	2.669075667676338e-12 	101324.9999999904
0.5518018018018012 	299.9999999999322 	3.850572704038635e-12 	101324.9999999905
0.5543043043043039 	300.000000000026 	2.593007837080696e-12 	101324.9999999905
0.5568068068068063 	299.9999999999932 	3.39313509964053e-12 	101324.9999999904
0.5593093093093087 	299.9999999998985 	2.31640036179532e-12 	101324.9999999901
0.5618118118118114 	299.9999999999584 	4.280636172052369e-12 	101324.9999999902
0.5643143143143137 	299.9999999999381 	3.318234864214417e-12 	101324.9999999902
0.5668168168168163 	299.9999999999915 	4.402693398210512e-12 	101324.9999999903
0.5693193193193188 	300.0000000000307 	4.170775452413189e-12 	101324.9999999903
0.5718218218218213 	300.0000000000244 	3.66789717976256e-12 	101324.9999999903
0.5743243243243239 	300.000000000006 	4.821629554220787e-12 	101324.9999999903
0.5768268268268262 	300.0000000000045 	2.891454870085488e-12 	101324.9999999902
0.5793293293293288 	299.9999999999444 	5.17069840970067e-12 	101324.9999999901
0.5818318318318314 	299.9999999999154 	2.045610933219718e-12 	101324.9999999903
0.5843343343343338 	299.9999999999805 	5.49576360417779e-12 	101324.9999999903
0.5868368368368363 	299.9999999999744 	1.621977564480928e-12 	101324.9999999904
0.5893393393393387 	299.9999999999436 	4.993390484993597e-12 	101324.9999999906
0.5918418418418413 	299.9999999999355 	2.762667892654851e-12 	101324.9999999906
0.5943443443443439 	300.0000000000109 	5.315624329032993e-12 	101324.9999999905
0.5968468468468463 	300.0000000000178 	3.614975415797683e-12 	101324.9999999904
0.5993493493493487 	300.0000000000406 	5.733505520109057e-12 	101324.9999999904
0.6018518518518514 	299.9999999999799 	4.405256018126484e-12 	101324.9999999906
0.6043543543543537 	299.9999999999913 	5.989678758517098e-12 	101324.9999999904
0.6068568568568564 	299.9999999999776 	4.268802707646956e-12 	101324.9999999903
0.6093593593593587 	299.9999999999241 	5.401799599882587e-12 	101324.9999999902
0.6118618618618614 	299.9999999999179 	4.369003170799786e-12 	101324.9999999905
0.6143643643643638 	300.0000000000137 	5.774384887900615e-12 	101324.9999999906
0.6168668668668662 	299.9999999999832 	4.012549367659906e-12 	101324.9999999908
0.6193693693693688 	299.9999999999557 	5.520878778305827e-12 	101324.9999999909
0.6218718718718714 	299.9999999999638 	3.462653991165907e-12 	101324.999999991
0.6243743743743737 	299.9999999999309 	5.750661610024836e-12 	101324.999999991
0.6268768768768762 	299.999999999919 	4.399151136621733e-12 	101324.9999999909
0.629379379379379 	299.9999999999511 	5.402048800016227e-12 	101324.9999999912
0.6318818818818812 	299.9999999999815 	5.640264285512582e-12 	101324.9999999914
0.6343843843843838 	300.0000000000273 	6.067751526654495e-12 	101324.9999999916
0.6368868868868864 	299.9999999999884 	7.263096196411686e-12 	101324.9999999918
0.6393893893893888 	299.9999999999201 	6.366564327992207e-12 	101324.9999999917
0.6418918918918912 	300.0000000000142 	9.404095243115768e-12 	101324.9999999917
0.6443943943943939 	299.9999999999987 	5.771181474730453e-12 	101324.9999999918
0.6468968968968963 	299.9999999999893 	9.80836647335727e-12 	101324.9999999918
0.6493993993993988 	299.9999999999745 	5.218706262202204e-12 	101324.9999999919
0.6519019019019012 	299.9999999999717 	8.199974699214324e-12 	101324.9999999916
0.6544044044044038 	299.9999999998982 	4.68770046960328e-12 	101324.9999999914
0.6569069069069065 	299.9999999999483 	8.16031097143275e-12 	101324.9999999916
0.6594094094094087 	299.9999999999576 	5.969384838286322e-12 	101324.9999999916
0.6619119119119113 	299.9999999999498 	8.13004722993546e-12 	101324.9999999915
0.664414414414414 	300.0000000000003 	5.93692211910484e-12 	101324.9999999913
0.6669169169169162 	300.0000000000226 	7.471615130601986e-12 	101324.9999999914
0.6694194194194188 	299.999999999986 	5.990402273814168e-12 	101324.9999999915
0.6719219219219214 	299.9999999999175 	7.454545314640876e-12 	101324.9999999915
0.674424424424424 	299.9999999999708 	6.455955604212046e-12 	101324.9999999914
0.6769269269269262 	299.9999999999144 	7.434816746539587e-12 	101324.9999999916
0.679429429429429 	300.0000000000066 	6.53219391497542e-12 	101324.9999999916
0.6819319319319311 	299.9999999999795 	6.684516988012655e-12 	101324.9999999914
0.6844344344344341 	299.9999999999947 	5.661198947986326e-12 	101324.9999999914
0.686936936936936 	299.9999999999902 	6.699195716889514e-12 	101324.9999999916
0.6894394394394392 	299.9999999999858 	6.056596493688457e-12 	101324.9999999919
0.6919419419419413 	299.9999999999833 	5.988145719696727e-12 	101324.999999992
0.694444444444444 	299.9999999999288 	6.241182935861988e-12 	101324.9999999921
0.6969469469469463 	299.9999999999196 	6.849405101560349e-12 	101324.999999992
0.6994494494494489 	299.9999999999175 	8.233913596984995e-12 	101324.9999999923
0.7019519519519515 	299.9999999999854 	7.294458442868726e-12 	101324.9999999925
0.7044544544544538 	299.9999999999465 	8.669588862977363e-12 	101324.9999999924
0.7069569569569564 	300.0000000000002 	6.776404057358689e-12 	101324.9999999922
0.7094594594594589 	299.9999999999654 	9.416374361941025e-12 	101324.9999999922
0.7119619619619615 	299.9999999999092 	7.3046513381511e-12 	101324.9999999923
0.7144644644644638 	299.9999999999477 	9.351484139340714e-12 	101324.9999999925
0.7169669669669665 	299.9999999999166 	8.221090042656466e-12 	101324.9999999927
0.7194694694694688 	299.9999999999957 	9.036353620304213e-12 	101324.9999999928
0.7219719719719715 	299.9999999999896 	8.292302375277259e-12 	101324.9999999929
0.7244744744744737 	300.0000000000044 	8.622533961260914e-12 	101324.999999993
0.7269769769769764 	299.9999999999969 	9.189920508967995e-12 	101324.9999999929
0.7294794794794791 	299.9999999999862 	8.259593453047999e-12 	101324.9999999928
0.7319819819819813 	299.9999999999746 	1.072961363475549e-11 	101324.9999999926
0.7344844844844839 	299.999999999913 	9.139674132672335e-12 	101324.9999999927
0.7369869869869864 	299.9999999999476 	1.020118203704782e-11 	101324.9999999928
0.739489489489489 	299.9999999999412 	9.036140355536082e-12 	101324.9999999928
0.7419919919919914 	299.9999999999277 	8.428349183521561e-12 	101324.9999999926
0.7444944944944939 	299.9999999999753 	9.053861909792744e-12 	101324.9999999926
0.7469969969969963 	299.9999999999688 	8.107817198690194e-12 	101324.9999999928
0.7494994994994989 	299.9999999999353 	1.059601261798072e-11 	101324.9999999929
0.7520020020020015 	299.9999999999719 	7.705593334487534e-12 	101324.9999999928
0.7545045045045039 	299.999999999969 	1.056799850900331e-11 	101324.9999999929
0.7570070070070062 	299.9999999999423 	7.868281303869904e-12 	101324.9999999928
0.7595095095095092 	299.9999999999308 	1.008171633264108e-11 	101324.999999993
0.7620120120120112 	300.0000000000095 	9.706376412921946e-12 	101324.9999999932
0.7645145145145138 	299.9999999999856 	1.00940492683561e-11 	101324.9999999935
0.7670170170170165 	299.9999999999256 	1.040974547986814e-11 	101324.9999999936
0.7695195195195191 	299.9999999999225 	8.623839643418179e-12 	101324.9999999936
0.7720220220220213 	299.9999999999327 	1.094675777298929e-11 	101324.9999999935
0.7745245245245239 	299.9999999999301 	8.580687458436525e-12 	101324.9999999934
0.7770270270270263 	299.9999999999665 	1.050708689114053e-11 	101324.9999999934
0.779529529529529 	299.9999999999783 	9.38210455383485e-12 	101324.9999999935
0.7820320320320313 	299.9999999999709 	1.044140554258531e-11 	101324.9999999936
0.784534534534534 	300.000000000006 	1.025261610182501e-11 	101324.9999999934
0.7870370370370364 	300.0000000000028 	9.437723529852444e-12 	101324.9999999935
0.7895395395395389 	299.9999999999947 	9.695924566151111e-12 	101324.9999999934
0.7920420420420413 	299.9999999999809 	7.842311825650283e-12 	101324.9999999934
0.794544544544544 	299.9999999999721 	9.122463450887491e-12 	101324.9999999934
0.7970470470470463 	300.0000000000007 	6.247474577226823e-12 	101324.9999999935
0.799549549549549 	299.9999999999852 	9.301542001039896e-12 	101324.9999999936
0.8020520520520515 	299.9999999999915 	6.50397601336422e-12 	101324.9999999937
0.8045545545545539 	299.9999999999475 	9.177085616023164e-12 	101324.9999999939
0.8070570570570563 	299.99999999998 	8.387367416470152e-12 	101324.999999994
0.8095595595595589 	299.9999999999548 	9.480542505712605e-12 	101324.999999994
0.8120620620620614 	299.9999999999338 	9.542850075757513e-12 	101324.999999994
0.8145645645645638 	299.9999999999988 	9.204280009647584e-12 	101324.9999999941
0.8170670670670666 	299.9999999999995 	9.633551694971275e-12 	101324.9999999941
0.8195695695695689 	299.9999999999793 	8.145282995029381e-12 	101324.999999994
0.8220720720720714 	299.9999999999418 	1.080279814161401e-11 	101324.9999999939
0.8245745745745739 	299.9999999999985 	8.575216066659122e-12 	101324.999999994
0.8270770770770765 	299.9999999999764 	1.062100201010865e-11 	101324.9999999941
0.8295795795795788 	299.9999999999512 	9.450836154514152e-12 	101324.999999994
0.8320820820820815 	300.0000000000201 	1.033169205397332e-11 	101324.9999999938
0.834584584584584 	300.0000000000101 	9.654952605884561e-12 	101324.9999999937
0.8370870870870865 	299.9999999999652 	9.591447165036287e-12 	101324.9999999937
0.8395895895895891 	299.9999999999245 	1.07667734752543e-11 	101324.9999999938
0.8420920920920915 	299.9999999999472 	1.009323946565157e-11 	101324.9999999939
0.844594594594594 	299.9999999999372 	1.074688418535493e-11 	101324.999999994
0.8470970970970964 	299.9999999999421 	1.084128718627486e-11 	101324.9999999939
0.8495995995995991 	299.99999999999 	1.076709427838217e-11 	101324.9999999937
0.8521021021021015 	299.999999999982 	1.115465306074024e-11 	101324.9999999939
0.8546046046046039 	299.9999999999806 	1.040174581375285e-11 	101324.9999999942
0.8571071071071066 	300.0000000000051 	1.142398285324504e-11 	101324.9999999942
0.8596096096096089 	299.9999999999652 	8.88000989496321e-12 	101324.9999999943
0.8621121121121116 	299.9999999999299 	1.15957169830156e-11 	101324.9999999946
0.8646146146146139 	299.9999999999963 	9.138815916568211e-12 	101324.9999999946
0.8671171171171166 	299.999999999975 	1.118007883160193e-11 	101324.9999999948
0.8696196196196189 	299.9999999999435 	1.057650874169328e-11 	101324.9999999948
0.8721221221221216 	299.9999999999758 	1.181439908198308e-11 	101324.9999999947
0.874624624624624 	300.0000000000077 	1.156068520685086e-11 	101324.9999999947
0.8771271271271264 	300.0000000000025 	1.135995457791691e-11 	101324.9999999947
0.879629629629629 	300.0000000000039 	1.234389029864721e-11 	101324.9999999946
0.8821321321321317 	299.999999999982 	1.089186284791536e-11 	101324.9999999948
0.8846346346346339 	299.999999999923 	1.361536893036445e-11 	101324.9999999949
0.8871371371371364 	299.99999999996 	1.075821524087623e-11 	101324.999999995
0.8896396396396391 	299.9999999999646 	1.250439583072626e-11 	101324.9999999949
0.8921421421421414 	299.9999999999698 	1.118454804670043e-11 	101324.9999999949
0.8946446446446441 	299.9999999999845 	1.242392287643453e-11 	101324.9999999948
0.8971471471471464 	300.0000000000043 	1.205960709279649e-11 	101324.9999999947
0.8996496496496489 	299.9999999999804 	1.208871105606939e-11 	101324.9999999948
0.9021521521521517 	299.9999999999646 	1.315202098759893e-11 	101324.9999999947
0.9046546546546541 	299.9999999999944 	1.164779318930825e-11 	101324.9999999946
0.9071571571571564 	299.9999999999448 	1.1730750289779e-11 	101324.9999999944
0.9096596596596589 	299.9999999999476 	1.1493593354367e-11 	101324.9999999943
0.9121621621621616 	300.0000000000097 	1.138109736590945e-11 	101324.9999999944
0.9146646646646639 	299.9999999999782 	1.111897795170938e-11 	101324.9999999943
0.9171671671671666 	299.9999999999446 	1.058605105181995e-11 	101324.9999999943
0.9196696696696689 	300 	1.147753455386089e-11 	101324.9999999942
0.9221721721721714 	300.0000000000012 	9.485108252287361e-12 	101324.9999999942
0.9246746746746741 	299.9999999999373 	1.155632360689522e-11 	101324.9999999943
0.9271771771771765 	299.9999999999449 	8.957828204716127e-12 	101324.9999999943
0.9296796796796791 	299.9999999999912 	1.11949835227621e-11 	101324.9999999943
0.9321821821821816 	299.9999999999655 	1.032334212464997e-11 	101324.9999999945
0.9346846846846838 	299.9999999999444 	1.180594881720589e-11 	101324.9999999946
0.9371871871871866 	300.0000000000103 	1.113119581811926e-11 	101324.9999999946
0.9396896896896891 	300.0000000000122 	1.119552141476291e-11 	101324.9999999947
0.9421921921921914 	300.0000000000113 	1.154156736797989e-11 	101324.9999999947
0.9446946946946939 	299.9999999999682 	1.03531741613909e-11 	101324.9999999949
0.9471971971971965 	299.9999999999197 	1.255158789516042e-11 	101324.999999995
0.9496996996996991 	299.9999999999608 	1.056535412061434e-11 	101324.9999999951
0.9522022022022016 	299.9999999999725 	1.252140183306243e-11 	101324.9999999951
0.9547047047047038 	299.9999999999689 	1.149813954976992e-11 	101324.9999999952
0.9572072072072064 	299.9999999999565 	1.224809734052608e-11 	101324.9999999952
0.9597097097097093 	299.9999999999615 	1.186285418843735e-11 	101324.9999999953
0.9622122122122114 	299.9999999999555 	1.150817771463616e-11 	101324.9999999955
0.964714714714714 	299.9999999999541 	1.262960396467269e-11 	101324.9999999956
0.9672172172172167 	299.9999999999575 	1.179397175637171e-11 	101324.9999999958
0.969719719719719 	299.9999999999816 	1.311567542657684e-11 	101324.9999999958
0.9722222222222214 	299.9999999999795 	1.27743930672689e-11 	101324.9999999961
0.9747247247247239 	299.9999999999748 	1.301682662242471e-11 	101324.9999999963
0.9772272272272267 	300.0000000000054 	1.278364916022762e-11 	101324.9999999964
0.9797297297297292 	299.9999999999895 	1.254845107885889e-11 	101324.9999999963
0.9822322322322313 	299.9999999999914 	1.322184577063195e-11 	101324.999999996
0.9847347347347344 	299.999999999986 	1.138019602292171e-11 	101324.9999999958
0.9872372372372363 	299.9999999999408 	1.377103645028284e-11 	101324.9999999958
0.9897397397397389 	299.999999999962 	1.138099439164573e-11 	101324.9999999958
0.9922422422422417 	299.999999999945 	1.356911042786831e-11 	101324.9999999958
0.9947447447447441 	299.999999999954 	1.266767094477326e-11 	101324.9999999955
0.9972472472472468 	299.9999999999715 	1.386595492426031e-11 	101324.9999999954
0.999749749749749 	299.9999999999663 	1.320978777680513e-11 	101324.9999999955
1.002252252252252 	299.9999999999746 	1.379889278908112e-11 	101324.9999999954
1.004754754754754 	299.9999999999949 	1.40473070730207e-11 	101324.9999999954
1.007257257257256 	299.9999999999732 	1.308825540628369e-11 	101324.9999999955
1.009759759759759 	299.9999999999584 	1.498250250164446e-11 	101324.9999999953
1.012262262262261 	299.9999999999618 	1.24596476623065e-11 	101324.9999999952
1.014764764764764 	299.9999999999352 	1.427994265098599e-11 	101324.9999999953
1.017267267267267 	299.999999999926 	1.377786694094221e-11 	101324.9999999956
1.019769769769769 	299.9999999999724 	1.542811783330533e-11 	101324.9999999959
1.022272272272272 	299.9999999999839 	1.497085451498161e-11 	101324.9999999959
1.024774774774774 	299.9999999999845 	1.462650129071675e-11 	101324.999999996
1.027277277277277 	299.9999999999816 	1.513296743639711e-11 	101324.999999996
1.029779779779779 	300.0000000000147 	1.400350282171866e-11 	101324.999999996
1.032282282282282 	300.0000000000172 	1.50558437730816e-11 	101324.999999996
1.034784784784784 	300.0000000000066 	1.465029777771288e-11 	101324.9999999961
1.037287287287286 	299.9999999999717 	1.519233864204402e-11 	101324.9999999962
1.039789789789789 	299.9999999999765 	1.494136295584833e-11 	101324.9999999964
1.042292292292291 	300.0000000000132 	1.502120000797993e-11 	101324.9999999963
1.044794794794794 	300.0000000000316 	1.510382970271942e-11 	101324.9999999961
1.047297297297296 	300.0000000000441 	1.388135487734813e-11 	101324.999999996
1.049799799799799 	299.999999999995 	1.603867183890256e-11 	101324.9999999959
1.052302302302302 	299.9999999999518 	1.439219782229992e-11 	101324.9999999957
1.054804804804804 	299.9999999999297 	1.618519033524548e-11 	101324.9999999958
1.057307307307306 	299.9999999999207 	1.485937172220883e-11 	101324.999999996
1.059809809809809 	299.9999999999601 	1.577871366997454e-11 	101324.999999996
1.062312312312312 	299.9999999999548 	1.505997106766515e-11 	101324.9999999962
1.064814814814814 	299.9999999999525 	1.590302303779719e-11 	101324.9999999964
1.067317317317317 	299.9999999999298 	1.600248309980572e-11 	101324.9999999964
1.069819819819819 	299.999999999925 	1.584180066320413e-11 	101324.9999999963
1.072322322322321 	299.9999999999957 	1.755849019234531e-11 	101324.9999999962
1.074824824824824 	300.0000000000293 	1.526289370665667e-11 	101324.9999999964
1.077327327327327 	300.0000000000402 	1.620007697360176e-11 	101324.9999999965
1.079829829829829 	300.0000000000404 	1.451479716984851e-11 	101324.9999999965
1.082332332332332 	300.0000000000074 	1.526879946180432e-11 	101324.9999999966
1.084834834834834 	299.9999999999835 	1.469833854694317e-11 	101324.9999999967
1.087337337337337 	299.9999999999444 	1.455292103010618e-11 	101324.9999999969
1.089839839839839 	299.9999999999317 	1.613876294673007e-11 	101324.999999997
1.092342342342342 	299.9999999999707 	1.473911918536417e-11 	101324.9999999969
1.094844844844844 	299.9999999999706 	1.585329812913763e-11 	101324.9999999968
1.097347347347347 	299.999999999941 	1.415703635147439e-11 	101324.999999997
1.099849849849849 	299.999999999928 	1.689332677882085e-11 	101324.9999999969
1.102352352352352 	299.999999999958 	1.462092193218486e-11 	101324.999999997
1.104854854854854 	299.9999999999794 	1.693018535882966e-11 	101324.9999999972
1.107357357357357 	299.999999999959 	1.549982176865046e-11 	101324.9999999972
1.109859859859859 	299.9999999999467 	1.732521389496692e-11 	101324.9999999972
1.112362362362362 	300.0000000000165 	1.620534746281481e-11 	101324.9999999972
1.114864864864865 	300.0000000000155 	1.638276122757646e-11 	101324.9999999972
1.117367367367367 	299.9999999999648 	1.764557136159189e-11 	101324.9999999971
1.119869869869869 	299.9999999999269 	1.632892596106755e-11 	101324.9999999971
1.122372372372372 	299.9999999999553 	1.7433568312193e-11 	101324.9999999969
1.124874874874874 	299.9999999999503 	1.592655905925489e-11 	101324.9999999969
1.127377377377377 	299.9999999999582 	1.705680988099072e-11 	101324.999999997
1.129879879879879 	300.0000000000164 	1.667800395886005e-11 	101324.9999999969
1.132382382382382 	300.0000000000381 	1.80603166921057e-11 	101324.9999999968
1.134884884884884 	300.0000000000088 	1.81429086841506e-11 	101324.9999999966
1.137387387387387 	300.000000000014 	1.80347156659078e-11 	101324.9999999964
1.139889889889889 	299.9999999999615 	1.893798096586462e-11 	101324.9999999964
1.142392392392392 	299.9999999999529 	1.739932436801223e-11 	101324.9999999964
1.144894894894894 	300.0000000000166 	1.929268125233074e-11 	101324.9999999964
1.147397397397397 	299.9999999999967 	1.82338713796555e-11 	101324.9999999965
1.149899899899899 	299.9999999999369 	1.907448536339978e-11 	101324.9999999967
1.152402402402402 	299.9999999999238 	1.794202480309163e-11 	101324.9999999968
1.154904904904904 	299.9999999999583 	1.852922722344244e-11 	101324.9999999971
1.157407407407407 	299.9999999999576 	1.768087825476648e-11 	101324.9999999969
1.159909909909909 	299.9999999999303 	1.779556995210474e-11 	101324.9999999969
1.162412412412412 	299.9999999999261 	1.970904590721134e-11 	101324.999999997
1.164914914914914 	299.9999999999555 	1.826502193918813e-11 	101324.9999999971
1.167417417417417 	299.9999999999633 	1.940810538360939e-11 	101324.9999999972
1.169919919919919 	300.0000000000148 	1.788665167514455e-11 	101324.9999999973
1.172422422422422 	300.000000000045 	1.872335677820647e-11 	101324.9999999974
1.174924924924925 	299.9999999999894 	1.761959280616261e-11 	101324.9999999974
1.177427427427427 	299.9999999999565 	1.846013089016432e-11 	101324.9999999974
1.179929929929929 	300.0000000000126 	1.941261775909268e-11 	101324.9999999974
1.182432432432432 	300.0000000000457 	1.760442081704483e-11 	101324.9999999972
1.184934934934934 	300.0000000000059 	1.87484286980394e-11 	101324.9999999972
1.187437437437437 	299.9999999999759 	1.762138539802656e-11 	101324.9999999972
1.189939939939939 	299.9999999999708 	1.883444390751344e-11 	101324.9999999971
1.192442442442442 	299.9999999999334 	1.799906953363803e-11 	101324.999999997
1.194944944944944 	299.9999999999283 	1.930231577834864e-11 	101324.9999999969
1.197447447447447 	299.999999999988 	1.85132437725341e-11 	101324.9999999973
1.199949949949949 	300.0000000000121 	1.884516009442857e-11 	101324.9999999975
1.202452452452452 	299.9999999999563 	2.052270030357377e-11 	101324.9999999975
1.204954954954955 	299.9999999999489 	1.96039179163865e-11 	101324.9999999975
1.207457457457457 	299.9999999999797 	2.099123191252756e-11 	101324.9999999976
1.20995995995996 	299.9999999999783 	1.973520019791837e-11 	101324.9999999976
1.212462462462462 	299.9999999999886 	2.084222145917314e-11 	101324.9999999976
1.214964964964964 	299.9999999999892 	1.986878554072818e-11 	101324.9999999974
1.217467467467467 	299.9999999999835 	2.103738794908946e-11 	101324.9999999975
1.219969969969969 	299.9999999999679 	2.006764907754678e-11 	101324.9999999975
1.222472472472472 	300.0000000000197 	2.066966301834521e-11 	101324.9999999974
1.224974974974975 	300.0000000000459 	2.177474348935754e-11 	101324.9999999972
1.227477477477477 	299.999999999994 	2.005085034364639e-11 	101324.9999999971
1.229979979979979 	299.9999999999782 	2.1139128937799e-11 	101324.9999999972
1.232482482482482 	299.9999999999507 	1.975789169826461e-11 	101324.9999999972
1.234984984984984 	299.9999999999511 	2.120651952210624e-11 	101324.9999999976
1.237487487487487 	299.9999999999771 	1.958311406255731e-11 	101324.9999999978
1.239989989989989 	299.9999999999794 	2.043729084603342e-11 	101324.9999999978
1.242492492492492 	300.0000000000103 	2.140147393904023e-11 	101324.9999999976
1.244994994994994 	299.999999999978 	2.014583934321169e-11 	101324.9999999976
1.247497497497497 	299.9999999999736 	2.162610558723042e-11 	101324.9999999976
1.249999999999999 	300 	2.093131924484428e-11 	101324.9999999976
