-1.25 	299.9585998267092 	0.8816081000508882 	101277.4471741852
-1.247497497497497 	299.9579984456769 	0.8793752864754166 	101275.3290497196
-1.244994994994995 	299.9573116293501 	0.8768112593763018 	101274.5829211537
-1.242492492492492 	299.9574955944684 	0.8772099058359868 	101274.7606376947
-1.23998998998999 	299.9584250806517 	0.8798542081867355 	101275.8588289317
-1.237487487487487 	299.9601169617987 	0.88475009097659 	101277.8580011159
-1.234984984984985 	299.9625392555666 	0.8917540223835795 	101280.7206224538
-1.232482482482482 	299.9656474880106 	0.9007405861827282 	101284.3941232249
-1.22997997997998 	299.9693844466649 	0.9115441681859736 	101288.8108531793
-1.227477477477477 	299.97368163265 	0.9239664839991246 	101293.8897906799
-1.224974974974975 	299.9784602772514 	0.9377796013479325 	101299.5378764133
-1.222472472472472 	299.9836323362869 	0.952729789727056 	101305.6512260838
-1.21996996996997 	299.9891033579421 	0.9685435389851627 	101312.1181912142
-1.217467467467467 	299.9947732058263 	0.9849314545442958 	101318.8205267334
-1.214964964964965 	300.0005377323201 	1.00159302404813 	101325.6351194029
-1.212462462462462 	300.0062916821009 	1.018223844227638 	101332.4375467521
-1.20995995995996 	300.0119301348914 	1.034520438344702 	101339.1038026952
-1.207457457457457 	300.0173497943007 	1.0501842665733 	101345.5116318442
-1.204954954954955 	300.0224511478468 	1.064928380413717 	101351.5434605038
-1.202452452452452 	300.0271414353501 	1.078484236039365 	101357.0894847697
-1.19994994994995 	300.0313354496535 	1.090605190975548 	101362.04888501
-1.197447447447447 	300.0349561828085 	1.101069075538729 	101366.3305632002
-1.194944944944945 	300.037937033956 	1.109683414417334 	101369.8555897781
-1.192442442442442 	300.0402233811233 	1.116290621939241 	101372.5594487723
-1.18993993993994 	300.0417737334199 	1.12077068156444 	101374.3929876756
-1.187437437437437 	300.0425602509213 	1.123042613493397 	101375.3231186662
-1.184934934934935 	300.0425688343214 	1.123064219179502 	101375.3328178026
-1.182432432432432 	300.0417969471672 	1.120831853025202 	101374.4200179144
-1.17992992992993 	300.0402577757602 	1.116383983679407 	101372.6003619542
-1.177427427427427 	300.0379807895756 	1.109802425981803 	101369.9078567435
-1.174924924924925 	300.0350074651603 	1.101207618216754 	101366.3917974692
-1.172422422422422 	300.0313913456683 	1.090754998206986 	101362.115713426
-1.16991991991992 	300.0271978804489 	1.078633978316344 	101357.1570669666
-1.167417417417417 	300.0225036089873 	1.065065781215807 	101351.606511151
-1.164914914914915 	300.0173946744303 	1.050298805803104 	101345.5658037292
-1.162412412412412 	300.0119645201826 	1.034603358460778 	101339.1455101676
-1.15990990990991 	300.0063126359563 	1.01826745649322 	101332.4634616428
-1.157407407407407 	300.0005433826831 	1.001592285603568 	101325.6429423942
-1.154904904904904 	299.9947634665651 	0.9848861390419388 	101318.8100925415
-1.152402402402403 	299.9890797290796 	0.9684578868304154 	101312.0912419506
-1.1498998998999 	299.9835970473137 	0.9526108485744158 	101305.6104041486
-1.147397397397397 	299.9784165067372 	0.9376372197350875 	101299.4869558686
-1.144894894894895 	299.9736337042203 	0.9238133405875308 	101293.8338053898
-1.142392392392392 	299.9693370464933 	0.9113949670741989 	101288.7555348772
-1.13988988988989 	299.9656060760788 	0.9006115134758735 	101284.3459411821
-1.137387387387387 	299.962509141711 	0.8916606723485525 	101280.6857630125
-1.134884884884885 	299.9601023912786 	0.884705103875315 	101277.8413984421
-1.132382382382382 	299.9584292958496 	0.8798701512058202 	101275.8640663688
-1.12987987987988 	299.9575194208022 	0.8772414986785603 	101274.7887734525
-1.127377377377377 	299.9573879976532 	0.8768644581208831 	101274.6337862557
-1.124874874874875 	299.9580377983722 	0.8787444878916051 	101275.4016987933
-1.122372372372372 	299.9594564956277 	0.882845276324205 	101277.0778622178
-1.11986986986987 	299.961615974785 	0.8890879377330628 	101279.6297244578
-1.117367367367367 	299.9644756295867 	0.8973546256328371 	101283.0091668296
-1.114864864864865 	299.9679824514755 	0.9074918955429739 	101287.1536030698
-1.112362362362362 	299.9720718685114 	0.9193133050231527 	101291.986861949
-1.10985985985986 	299.9766692379167 	0.9326029180505391 	101297.4207418375
-1.107357357357357 	299.9816910371201 	0.9471188178870089 	101303.3564657147
-1.104854854854855 	299.9870458424525 	0.9625965914189423 	101309.6859905742
-1.102352352352353 	299.9926358077922 	0.9787538784183307 	101316.2938194381
-1.09984984984985 	299.9983590899421 	0.9952963149090681 	101323.0595532065
-1.097347347347347 	300.0041117381194 	1.011923474818571 	101329.8603590855
-1.094844844844845 	300.0097894415929 	1.028333738595664 	101336.5728980834
-1.092342342342342 	300.0152890568924 	1.044228987091729 	101343.0752085867
-1.08983983983984 	300.0205104864701 	1.059319967087329 	101349.2489163604
-1.087337337337337 	300.0253586276397 	1.073331760881894 	101354.9814849908
-1.084834834834835 	300.0297450300983 	1.086008878382942 	101360.1683280269
-1.082332332332332 	300.0335897127781 	1.097119960839331 	101364.7147097845
-1.07982982982983 	300.0368223376 	1.106462035075412 	101368.5375009174
-1.077327327327327 	300.0393838219626 	1.113864218720345 	101371.566729655
-1.074824824824825 	300.0412272468968 	1.119190651112409 	101373.7467575729
-1.072322322322323 	300.0423182663816 	1.122342496263354 	101375.03711197
-1.06981981981982 	300.0426364456147 	1.123258839180139 	101375.4130350668
-1.067317317317317 	300.0421732333245 	1.12191714230304 	101374.8649846194
-1.064814814814815 	300.0409344147051 	1.118336821985116 	101373.4004939302
-1.062312312312312 	300.0389433322619 	1.112581623620867 	101371.0461659188
-1.05980980980981 	300.0362360100531 	1.104755430169844 	101367.8446916733
-1.057307307307307 	300.0328606601145 	1.094998443216252 	101363.8532747668
-1.054804804804805 	300.0288779737012 	1.083486250901299 	101359.1437797361
-1.052302302302302 	300.0243602475998 	1.070428015239924 	101353.8018244196
-1.0497997997998 	300.0193903382733 	1.056062989453218 	101347.9253885679
-1.047297297297297 	300.0140598870136 	1.040655994045635 	101341.6228888924
-1.044794794794795 	300.0084675842888 	1.024492393648107 	101335.0111226744
-1.042292292292292 	300.0027174283987 	1.007872519353906 	101328.2130281733
-1.03978978978979 	299.9969164667804 	0.9911056458670829 	101321.3551437088
-1.037287287287287 	299.9911726277924 	0.9745040174280528 	101314.5651643909
-1.034784784784785 	299.985592918175 	0.9583768520149762 	101307.9695350981
-1.032282282282283 	299.9802813362883 	0.9430244743744015 	101301.6910235137
-1.02977977977978 	299.9753365446809 	0.9287325953507694 	101295.846443333
-1.027277277277277 	299.9708504545148 	0.915766136007915 	101290.5441188064
-1.024774774774775 	299.9669053573494 	0.9043635009322959 	101285.8814329541
-1.022272272272272 	299.9635731237653 	0.8947324410989798 	101281.9432129642
-1.01976976976977 	299.9609139896444 	0.8870467940974166 	101278.8004665887
-1.017267267267267 	299.9589752047845 	0.8814437357546132 	101276.5092149331
-1.014764764764765 	299.9577909849362 	0.8780215400236772 	101275.1096194344
-1.012262262262262 	299.9573808348711 	0.8768378441235938 	101274.6251102901
-1.00975975975976 	299.9577509571794 	0.8779099358135249 	101275.0627564746
-1.007257257257257 	299.9588941147737 	0.8812142213778646 	101276.4133342204
-1.004754754754755 	299.9607866965789 	0.8866848457768349 	101278.6496682326
-1.002252252252252 	299.9633920668897 	0.8942166388135696 	101281.7286185827
-0.9997497497497498 	299.9666618848182 	0.9036691495721857 	101285.5930063353
-0.9972472472472473 	299.9705360822398 	0.9148683610822959 	101290.1718137893
-0.9947447447447449 	299.974943709367 	0.927609198128223 	101295.3811980372
-0.9922422422422421 	299.979804494192 	0.9416598963372005 	101301.1264855544
-0.9897397397397399 	299.9850305072169 	0.9567658497140359 	101307.3037132661
-0.9872372372372376 	299.9905270604905 	0.9726534991158312 	101313.8009836983
-0.9847347347347346 	299.9961948184971 	0.9890359445713699 	101320.5009924963
-0.9822322322322323 	300.0019317413714 	1.005617777754956 	101327.2830891322
-0.9797297297297296 	300.0076339364979 	1.022098928168951 	101334.0244613411
-0.9772272272272275 	300.0131979855826 	1.038180817572442 	101340.6028394683
-0.9747247247247248 	300.0185234585287 	1.053572742502358 	101346.8994240415
-0.9722222222222224 	300.023513894552 	1.067995944950223 	101352.8001513625
-0.9697197197197196 	300.0280785966028 	1.081188759718272 	101358.1977479628
-0.9672172172172175 	300.032135122596 	1.092912362315428 	101362.9945958221
-0.9647147147147147 	300.0356096646995 	1.102953187919323 	101367.1033725257
-0.9622122122122124 	300.0384377402925 	1.111125811343075 	101370.4478731055
-0.9597097097097099 	300.0405671578627 	1.117278883266063 	101372.9661040752
-0.9572072072072073 	300.0419583317952 	1.121297697327462 	101374.6113712714
-0.9547047047047047 	300.0425839921076 	1.123103472555735 	101375.3512698186
-0.9522022022022023 	300.0424304462787 	1.122655641396291 	101375.1690845547
-0.9496996996996998 	300.041496589875 	1.119955779843502 	101374.0650994476
-0.9471971971971973 	300.0397986725881 	1.115047675977356 	101372.0576740257
-0.9446946946946947 	300.0373660634416 	1.108015224058428 	101369.1809841802
-0.9421921921921923 	300.0342414101482 	1.098983481483979 	101365.4861013613
-0.93968968968969 	300.0304820277235 	1.088116258807201 	101361.0405979562
-0.9371871871871872 	300.0261551465472 	1.0756089510318 	101355.9242020223
-0.9346846846846848 	300.0213388126112 	1.061688633630305 	101350.2293618696
-0.9321821821821823 	300.0161235918309 	1.046615142650245 	101344.0629835301
-0.9296796796796799 	300.0106072207097 	1.030670274048518 	101337.540852156
-0.9271771771771771 	300.0048908523966 	1.014148307439982 	101330.782623067
-0.9246746746746748 	299.9990815793254 	0.9973590183263199 	101323.9147757128
-0.9221721721721724 	299.9932913985546 	0.9806239437426887 	101317.0699124764
-0.9196696696696698 	299.9876294897983 	0.9642579416820187 	101310.3769775696
-0.9171671671671672 	299.9821988124776 	0.94856151194732 	101303.9575806644
-0.9146646646646649 	299.9771009508502 	0.9338289014373329 	101297.9320025516
-0.9121621621621623 	299.9724347659679 	0.9203414997298225 	101292.4167305669
-0.9096596596596597 	299.9682851680636 	0.9083455735114003 	101287.5122437309
-0.9071571571571573 	299.9647230691461 	0.8980505165127961 	101283.3023528387
-0.9046546546546547 	299.9618142140088 	0.8896450668798083 	101279.8644198688
-0.9021521521521524 	299.9596154574922 	0.8832894068479382 	101277.2659038481
-0.8996496496496498 	299.9581630694906 	0.8790887714008063 	101275.549422159
-0.8971471471471473 	299.9574738992516 	0.8770981446414213 	101274.7349230832
-0.894644644644645 	299.9575594727444 	0.8773519130914688 	101274.8365490011
-0.892142142142142 	299.9584266562259 	0.8798580959268703 	101275.8610658358
-0.8896396396396397 	299.9600552490049 	0.8845605861738283 	101277.7852852336
-0.8871371371371374 	299.9624016746833 	0.8913436279491906 	101280.5582368875
-0.8846346346346349 	299.9654218148315 	0.9000793898724058 	101284.1273871067
-0.8821321321321324 	299.9690724731023 	0.9106338947347271 	101288.4419817237
-0.8796296296296297 	299.9732898027717 	0.9228188229870533 	101293.4264249613
-0.8771271271271271 	299.9779824226933 	0.9363803292280471 	101298.9727707509
-0.8746246246246248 	299.9830583344603 	0.9510593575100169 	101304.9725259373
-0.8721221221221224 	299.9884423408057 	0.9666276544815046 	101311.3366307527
-0.8696196196196196 	299.9940513049476 	0.9828344358168306 	101317.9669914123
-0.8671171171171175 	299.999769941327 	0.9993548923756201 	101324.7274029817
-0.8646146146146148 	300.0054736183267 	1.015843771446068 	101331.4703162689
-0.8621121121121121 	300.0110678117659 	1.032025183315614 	101338.0842535018
-0.8596096096096097 	300.0164819062776 	1.047675376880633 	101344.4855168364
-0.857107107107107 	300.0216224995706 	1.062519529571506 	101350.5636679647
-0.8546046046046049 	300.0263635763073 	1.076213160906067 	101356.1697373787
-0.8521021021021022 	300.0305976440945 	1.088460853701252 	101361.176455647
-0.8495995995995997 	300.0342752729687 	1.099105671776895 	101365.525327809
-0.8470970970970974 	300.0373703008792 	1.108046799502516 	101369.1854584884
-0.8445945945945946 	300.0398173863637 	1.11509627237835 	101372.0793719589
-0.8420920920920922 	300.0415165543184 	1.119994770510665 	101374.0888506262
-0.8395895895895897 	300.0424091679528 	1.122590319996842 	101375.1445598452
-0.8370870870870872 	300.0425224114664 	1.122937755694153 	101375.2779657245
-0.8345845845845846 	300.0419106291205 	1.121164290476951 	101374.5545823032
-0.8320820820820823 	300.0405735416351 	1.117268539027329 	101372.9738397162
-0.8295795795795798 	300.03845663359 	1.111128235516153 	101370.4705889139
-0.8270770770770772 	300.0355456691475 	1.102732081378256 	101367.0283773031
-0.8245745745745746 	300.031940933575 	1.092350457607775 	101362.7656615013
-0.8220720720720721 	300.0278052573583 	1.080407697627856 	101357.8753454822
-0.8195695695695699 	300.0232422875282 	1.067185326425223 	101352.4799626886
-0.817067067067067 	300.0182497655396 	1.052712220449135 	101346.5767874917
-0.8145645645645651 	300.0128111460486 	1.036991538031258 	101340.1465830775
-0.8120620620620621 	300.0070254052877 	1.020315403122683 	101333.3061287921
-0.8095595595595597 	300.0011210402753 	1.003297115231099 	101326.3257721769
-0.8070570570570572 	299.995329788089 	0.9865547693122394 	101319.4795614446
-0.8045545545545546 	299.9897490630711 	0.9703691876335417 	101312.8823972173
-0.8020520520520523 	299.9843395418713 	0.954681306574423 	101306.4880040562
-0.7995495495495494 	299.9790665505478 	0.93944526496059 	101300.2552610286
-0.7970470470470474 	299.9740415790513 	0.9249836136276802 	101294.3158500876
-0.7945445445445446 	299.9695202822083 	0.9119798896065987 	101288.9720767825
-0.7920420420420423 	299.9657522188911 	0.9010939846261192 	101284.5186012023
-0.7895395395395397 	299.9628172684471 	0.8925474522912592 	101281.0498616419
-0.7870370370370371 	299.9606006330937 	0.8860605050384986 	101278.4301971921
-0.7845345345345348 	299.9589314749387 	0.8812078054704795 	101276.4575079375
-0.7820320320320323 	299.9577654777232 	0.8778886429439705 	101275.0795180061
-0.7795295295295296 	299.9572558619714 	0.8765097141338203 	101274.4774527421
-0.7770270270270272 	299.9576533224631 	0.8777246766589354 	101274.9476333964
-0.7745245245245247 	299.9591146876962 	0.8819310094749436 	101276.6741913974
-0.7720220220220222 	299.961561667607 	0.8889145357166659 	101279.5655065757
-0.7695195195195199 	299.9647109629055 	0.8979194703093123 	101283.2873198097
-0.767017017017017 	299.9682433994268 	0.9080912801653255 	101287.4622044501
-0.7645145145145147 	299.9719907057289 	0.9189715479353784 	101291.891047034
-0.7620120120120122 	299.9760136489913 	0.9307076172495506 	101296.6459052871
-0.7595095095095097 	299.9805247591592 	0.9438479877025099 	101301.9778725096
-0.7570070070070072 	299.9857096119989 	0.9588680698522969 	101308.106375503
-0.7545045045045048 	299.9915613753832 	0.9757279505977805 	101315.0236756469
-0.7520020020020022 	299.9978270049504 	0.993725255160087 	101322.4304510773
-0.7494994994994997 	300.0040904385954 	1.011718347508744 	101329.8351192855
-0.7469969969969972 	300.0099422716528 	1.028580533811492 	101336.7536231278
-0.7444944944944945 	300.0151393782158 	1.04363426483364 	101342.8982522773
-0.7419919919919924 	300.0196774201582 	1.056852297102211 	101348.2639860657
-0.7394894894894897 	300.0237502231758 	1.068748477459666 	101353.079698387
-0.7369869869869872 	300.0276219876305 	1.080033273457111 	101357.657817125
-0.7344844844844846 	300.0314788772719 	1.09120768540339 	101362.2186105427
-0.7319819819819822 	300.0353248011425 	1.102273772904238 	101366.7664511121
-0.7294794794794797 	300.0389568675554 	1.112664814831741 	101371.0616493781
-0.7269769769769773 	300.0420216939017 	1.12139529654694 	101374.6861935679
-0.7244744744744747 	300.0441202667014 	1.127350729196575 	101377.1680490966
-0.721971971971972 	300.0449221020205 	1.129604274089346 	101378.1159848665
-0.7194694694694695 	300.0442507381221 	1.127659147813531 	101377.3210946325
-0.7169669669669674 	300.0421214770044 	1.121565894119893 	101374.8040631144
-0.7144644644644647 	300.0387421619606 	1.111899090644204 	101370.8084167278
-0.711961961961962 	300.0344507780034 	1.099610777874524 	101365.7337200892
-0.7094594594594597 	300.029644422833 	1.085827664415379 	101360.0501895924
-0.7069569569569573 	300.0247118252369 	1.071656635726925 	101354.2175824265
-0.7044544544544545 	300.0199803863724 	1.05803584537198 	101348.6230388247
-0.7019519519519523 	300.0156875557743 	1.045650992508453 	101343.5472859927
-0.6994494494494495 	300.0119744914464 	1.034914556312809 	101339.1571684495
-0.6969469469469471 	300.0088958178567 	1.025991618282015 	101335.5172104206
-0.6944444444444446 	300.0064386538005 	1.018852822946806 	101332.6121302702
-0.6919419419419421 	300.0045447913018 	1.013337005358031 	101330.3730703548
-0.6894394394394396 	300.0031314622101 	1.009210390870447 	101328.7021503093
-0.6869369369369374 	300.0021080195676 	1.006214563913238 	101327.4921861104
-0.6844344344344344 	300.001387559191 	1.004100222524926 	101326.6404267066
-0.6819319319319321 	300.0008937353232 	1.002647258975473 	101326.0566085337
-0.6794294294294296 	300.0005637090279 	1.001673722299108 	101325.6664388769
-0.6769269269269272 	300.0003483984461 	1.001036938552869 	101325.4118906151
-0.6744244244244245 	300.0002111247896 	1.000629898253284 	101325.2496004333
-0.6719219219219222 	300.0001255140033 	1.000375390020994 	101325.1483880515
-0.6694194194194195 	300.0000732431897 	1.000219594181644 	101325.0865913426
-0.6669169169169172 	300.0000419740823 	1.000126153934498 	101325.0496236653
-0.6644144144144146 	300.0000236339969 	1.000071207439065 	101325.0279412259
-0.661911911911912 	300.0000130805679 	1.000039508012737 	101325.0154644905
-0.6594094094094097 	300.0000071191629 	1.000021555593853 	101325.0084166563
-0.656906906906907 	300.0000038116586 	1.000011569632925 	101325.0045063787
-0.6544044044044046 	300.0000020083414 	1.000006111174752 	101325.0023744386
-0.6519019019019021 	300.0000010417421 	1.000003177809784 	101325.0012316639
-0.6493993993993996 	300.000000532174 	1.000001627324157 	101325.0006291673
-0.6468968968968971 	300.0000002678146 	1.000000820929101 	101325.0003166065
-0.6443943943943946 	300.0000001328139 	1.000000408073034 	101325.0001569941
-0.6418918918918921 	300.000000064933 	1.000000199946122 	101325.0000767324
-0.6393893893893897 	300.000000031308 	1.000000096598362 	101325.0000369759
-0.6368868868868871 	300.0000000148905 	1.000000046026559 	101325.0000175713
-0.6343843843843846 	300.0000000069917 	1.000000021634674 	101325.0000082359
-0.6318818818818821 	300.0000000032062 	1.00000001003512 	101325.0000038078
-0.6293793793793795 	300.0000000014645 	1.000000004594184 	101325.0000017362
-0.6268768768768773 	300.0000000006611 	1.000000002077221 	101325.00000078
-0.6243743743743745 	300.000000000259 	1.00000000093374 	101325.0000003446
-0.6218718718718721 	300.0000000001039 	1.000000000409729 	101325.0000001488
-0.6193693693693696 	300.0000000000143 	1.000000000176968 	101325.000000062
-0.6168668668668671 	300.0000000000124 	1.000000000076303 	101325.0000000241
-0.6143643643643645 	300.0000000000177 	1.000000000032823 	101325.0000000073
-0.6118618618618621 	300.0000000000224 	1.000000000015108 	101324.9999999997
-0.6093593593593596 	300.000000000028 	1.000000000009216 	101324.9999999959
-0.6068568568568571 	299.999999999987 	1.000000000007114 	101324.9999999941
-0.6043543543543546 	299.9999999999724 	1.000000000005435 	101324.9999999938
-0.6018518518518521 	299.9999999999578 	1.000000000004059 	101324.9999999935
-0.5993493493493496 	299.9999999999736 	1.000000000003202 	101324.9999999934
-0.5968468468468471 	299.9999999999843 	1.000000000002962 	101324.9999999938
-0.5943443443443446 	299.9999999999873 	1.00000000000223 	101324.9999999938
-0.591841841841842 	299.9999999999529 	1.000000000001777 	101324.9999999938
-0.5893393393393397 	299.9999999999516 	1.000000000002642 	101324.9999999936
-0.5868368368368371 	299.9999999999803 	1.00000000000323 	101324.9999999933
-0.5843343343343346 	300.0000000000193 	1.000000000013095 	101324.9999999935
-0.5818318318318321 	300.0000000000295 	1.000000000000621 	101324.9999999937
-0.5793293293293297 	299.9999999999818 	0.9999999999988559 	101324.999999993
-0.5768268268268271 	299.9999999999849 	1.000000000001766 	101324.9999999929
-0.5743243243243245 	299.9999999999985 	1.000000000002417 	101324.999999993
-0.5718218218218221 	299.9999999999945 	1.000000000002753 	101324.9999999931
-0.5693193193193196 	300.0000000000176 	1.0000000000031 	101324.9999999936
-0.5668168168168171 	300.0000000000107 	1.000000000003413 	101324.9999999939
-0.5643143143143147 	299.9999999999535 	1.000000000002887 	101324.9999999937
-0.5618118118118121 	299.9999999999843 	1.000000000006978 	101324.9999999935
-0.5593093093093094 	300.0000000000073 	1.000000000000426 	101324.9999999931
-0.5568068068068072 	300.0000000000035 	1.000000000000389 	101324.999999993
-0.5543043043043046 	300.0000000000028 	1.000000000002794 	101324.9999999929
-0.551801801801802 	299.9999999999567 	1.000000000002649 	101324.9999999934
-0.5492992992992995 	299.9999999999775 	1.000000000002626 	101324.9999999936
-0.5467967967967969 	300.0000000000027 	1.000000000003276 	101324.9999999934
-0.5442942942942947 	300.0000000000128 	1.000000000003652 	101324.9999999928
-0.5417917917917919 	299.9999999999588 	1.000000000003641 	101324.9999999927
-0.5392892892892895 	299.9999999999517 	1.000000000003511 	101324.9999999932
-0.536786786786787 	299.9999999999545 	1.000000000003283 	101324.9999999937
-0.5342842842842846 	299.9999999999532 	1.000000000002818 	101324.9999999936
-0.531781781781782 	299.9999999999248 	1.000000000002111 	101324.9999999929
-0.5292792792792794 	299.9999999999276 	1.000000000002162 	101324.9999999927
-0.526776776776777 	299.9999999999415 	1.000000000002359 	101324.9999999928
-0.5242742742742745 	299.9999999999567 	1.000000000001571 	101324.999999993
-0.521771771771772 	299.9999999999851 	1.000000000010448 	101324.9999999928
-0.5192692692692695 	299.999999999982 	0.9999999999964225 	101324.9999999927
-0.516766766766767 	299.9999999999936 	1.000000000001809 	101324.9999999929
-0.5142642642642645 	299.9999999999551 	0.9999999999993494 	101324.9999999927
-0.511761761761762 	299.99999999997 	1.000000000004508 	101324.9999999925
-0.5092592592592596 	299.9999999999997 	0.9999999999997233 	101324.9999999925
-0.506756756756757 	299.9999999999771 	0.9999999999994197 	101324.9999999929
-0.5042542542542544 	300.000000000003 	1.000000000001477 	101324.9999999928
-0.5017517517517521 	300.0000000000222 	1.000000000002534 	101324.999999993
-0.4992492492492494 	300.0000000000211 	1.000000000002773 	101324.9999999933
-0.496746746746747 	300.0000000000066 	1.000000000003836 	101324.9999999934
-0.4942442442442445 	299.9999999999566 	1.000000000003276 	101324.9999999938
-0.4917417417417421 	299.9999999999484 	1.000000000002357 	101324.9999999938
-0.4892392392392395 	299.9999999999455 	1.000000000002205 	101324.9999999934
-0.486736736736737 	299.9999999999609 	1.000000000001703 	101324.9999999928
-0.4842342342342345 	299.9999999999569 	1.000000000000905 	101324.9999999925
-0.481731731731732 	300.0000000000102 	1.00000000000144 	101324.9999999922
-0.4792292292292296 	300.0000000000244 	1.000000000001553 	101324.9999999924
-0.4767267267267268 	299.9999999999709 	1.000000000011354 	101324.9999999924
-0.4742242242242246 	299.9999999999758 	0.9999999999982208 	101324.9999999922
-0.471721721721722 	299.9999999999471 	0.9999999999990047 	101324.9999999918
-0.4692192192192195 	299.9999999999548 	1.000000000002311 	101324.9999999917
-0.4667167167167169 	299.9999999999377 	1.000000000001316 	101324.9999999914
-0.4642142142142145 	299.9999999999953 	1.000000000000259 	101324.9999999921
-0.461711711711712 	300.0000000000105 	1.000000000000502 	101324.9999999925
-0.4592092092092094 	299.9999999999987 	1.000000000000628 	101324.999999992
-0.456706706706707 	300.0000000000255 	1.000000000000901 	101324.9999999923
-0.4542042042042045 	299.9999999999762 	1.000000000001904 	101324.9999999928
-0.451701701701702 	299.9999999999705 	1.000000000003469 	101324.9999999925
-0.4491991991991995 	299.9999999999559 	1.000000000003336 	101324.9999999923
-0.4466966966966969 	299.9999999999504 	1.000000000002419 	101324.9999999925
-0.4441941941941945 	299.9999999999691 	1.000000000001672 	101324.9999999927
-0.441691691691692 	299.9999999999446 	1.000000000001174 	101324.9999999926
-0.4391891891891895 	299.9999999999692 	1.000000000000497 	101324.9999999929
-0.436686686686687 	299.9999999999648 	1.000000000010719 	101324.9999999928
-0.4341841841841846 	299.9999999999725 	0.9999999999963485 	101324.9999999927
-0.431681681681682 	299.9999999999644 	0.9999999999969384 	101324.9999999929
-0.4291791791791794 	299.9999999999566 	1.000000000001289 	101324.9999999927
-0.426676676676677 	299.9999999999347 	1.000000000001694 	101324.9999999926
-0.4241741741741744 	299.9999999999564 	1.000000000002171 	101324.9999999924
-0.421671671671672 	300.0000000000015 	1.000000000002871 	101324.9999999924
-0.4191691691691694 	300.0000000000167 	1.000000000003253 	101324.999999993
-0.4166666666666669 	300.0000000000253 	1.000000000002712 	101324.9999999936
-0.4141641641641645 	299.9999999999748 	1.000000000001615 	101324.9999999938
-0.411661661661662 	299.9999999999865 	1.000000000001576 	101324.9999999936
-0.4091591591591594 	299.9999999999893 	1.000000000001777 	101324.9999999935
-0.406656656656657 	299.9999999999496 	1.000000000000909 	101324.9999999928
-0.4041541541541545 	299.9999999999887 	1.000000000001131 	101324.9999999925
-0.401651651651652 	299.9999999999579 	1.000000000001742 	101324.9999999927
-0.3991491491491494 	299.9999999999836 	1.000000000001394 	101324.9999999934
-0.396646646646647 	299.9999999999714 	1.000000000011955 	101324.9999999932
-0.3941441441441444 	300.0000000000003 	0.9999999999976454 	101324.9999999922
-0.3916416416416419 	299.9999999999715 	0.9999999999990481 	101324.9999999922
-0.3891391391391395 	299.9999999999737 	1.000000000003415 	101324.9999999924
-0.3866366366366368 	299.9999999999876 	1.000000000003582 	101324.9999999924
-0.3841341341341344 	299.9999999999977 	1.000000000003075 	101324.9999999925
-0.381631631631632 	299.9999999999525 	1.000000000002925 	101324.9999999928
-0.3791291291291294 	299.9999999999797 	1.000000000002952 	101324.9999999923
-0.3766266266266269 	299.9999999999903 	1.000000000003086 	101324.9999999923
-0.3741241241241244 	300.0000000000133 	1.000000000002874 	101324.9999999925
-0.371621621621622 	300.0000000000056 	1.000000000001376 	101324.9999999925
-0.3691191191191194 	300.0000000000174 	1.000000000010721 	101324.9999999924
-0.366616616616617 	300.000000000013 	0.9999999999953502 	101324.9999999917
-0.3641141141141143 	299.9999999999648 	0.9999999999976513 	101324.9999999918
-0.3616116116116119 	299.9999999999674 	1.000000000002591 	101324.999999992
-0.3591091091091095 	299.9999999999947 	1.000000000003264 	101324.9999999919
-0.356606606606607 	299.9999999999811 	1.000000000003177 	101324.9999999915
-0.3541041041041044 	299.9999999999969 	1.000000000003595 	101324.9999999913
-0.3516016016016019 	300.0000000000123 	1.000000000002677 	101324.9999999922
-0.3490990990990994 	300.0000000000123 	1.000000000002156 	101324.9999999926
-0.346596596596597 	300.0000000000265 	1.000000000007897 	101324.9999999927
-0.3440940940940944 	300.0000000000289 	1.000000000001438 	101324.9999999924
-0.3415915915915919 	300.0000000000196 	1.000000000003396 	101324.9999999922
-0.3390890890890895 	299.9999999999815 	1.000000000006256 	101324.9999999921
-0.3365865865865869 	300.0000000000001 	1.000000000006418 	101324.9999999921
-0.3340840840840844 	299.9999999999945 	1.000000000005342 	101324.9999999925
-0.3315815815815819 	300.0000000000151 	1.000000000004578 	101324.9999999922
-0.3290790790790794 	300.0000000000184 	1.00000000000449 	101324.9999999918
-0.3265765765765769 	299.9999999999579 	1.000000000004159 	101324.999999992
-0.3240740740740744 	299.9999999999914 	1.000000000004192 	101324.9999999923
-0.3215715715715718 	299.9999999999996 	1.000000000003806 	101324.9999999926
-0.3190690690690695 	299.9999999999574 	1.000000000004762 	101324.9999999926
-0.3165665665665668 	299.9999999999894 	1.000000000004943 	101324.9999999923
-0.3140640640640644 	300.0000000000006 	1.000000000004585 	101324.9999999921
-0.311561561561562 	299.9999999999596 	1.000000000004262 	101324.9999999917
-0.3090590590590593 	299.9999999999912 	1.000000000002588 	101324.9999999919
-0.3065565565565568 	299.9999999999986 	1.000000000013177 	101324.9999999923
-0.3040540540540545 	299.9999999999942 	0.9999999999980791 	101324.9999999925
-0.3015515515515518 	300.0000000000086 	1.000000000000595 	101324.9999999928
-0.2990490490490494 	299.999999999966 	1.000000000005442 	101324.9999999923
-0.2965465465465469 	299.9999999999848 	1.000000000004925 	101324.9999999919
-0.2940440440440444 	300.0000000000076 	1.000000000003781 	101324.9999999922
-0.2915415415415418 	300.0000000000093 	1.000000000003788 	101324.9999999926
-0.2890390390390395 	300.0000000000114 	1.000000000003901 	101324.9999999925
-0.2865365365365368 	299.9999999999873 	1.000000000004059 	101324.999999993
-0.2840340340340343 	299.9999999999911 	1.000000000009478 	101324.9999999928
-0.2815315315315318 	299.9999999999746 	1.000000000001375 	101324.9999999929
-0.2790290290290295 	299.9999999999592 	1.000000000002673 	101324.9999999932
-0.2765265265265269 	299.999999999994 	1.000000000005083 	101324.9999999927
-0.2740240240240244 	300.0000000000246 	1.000000000005554 	101324.9999999925
-0.2715215215215219 	300.0000000000268 	1.000000000005956 	101324.9999999919
-0.2690190190190194 	299.9999999999682 	1.00000000000668 	101324.9999999914
-0.2665165165165169 	299.9999999999847 	1.000000000006624 	101324.9999999917
-0.2640140140140144 	299.9999999999727 	1.000000000004919 	101324.9999999916
-0.2615115115115119 	299.9999999999933 	1.000000000009057 	101324.9999999922
-0.2590090090090094 	299.9999999999488 	1.000000000000453 	101324.9999999924
-0.2565065065065068 	299.9999999999872 	1.000000000002052 	101324.9999999926
-0.2540040040040044 	300.000000000001 	1.000000000005128 	101324.9999999923
-0.2515015015015019 	300.0000000000267 	1.000000000005357 	101324.9999999923
-0.2489989989989994 	300.0000000000348 	1.000000000005176 	101324.9999999922
-0.2464964964964968 	299.9999999999967 	1.000000000004304 	101324.9999999925
-0.2439939939939944 	299.9999999999941 	1.000000000009429 	101324.9999999922
-0.2414914914914919 	299.9999999999734 	1.000000000001818 	101324.9999999923
-0.2389889889889893 	299.9999999999844 	1.000000000004025 	101324.9999999925
-0.2364864864864869 	300.0000000000147 	1.000000000005098 	101324.999999992
-0.2339839839839843 	299.9999999999627 	1.000000000009832 	101324.9999999915
-0.2314814814814819 	299.9999999999785 	1.000000000002116 	101324.9999999921
-0.2289789789789792 	299.9999999999417 	1.000000000005469 	101324.9999999923
-0.2264764764764769 	299.9999999999483 	1.000000000007908 	101324.9999999923
-0.2239739739739743 	299.9999999999652 	1.000000000006841 	101324.9999999922
-0.2214714714714718 	299.999999999945 	1.000000000004462 	101324.9999999926
-0.2189689689689693 	299.9999999999609 	1.000000000001723 	101324.9999999929
-0.2164664664664669 	299.9999999999817 	1.000000000006994 	101324.9999999932
-0.2139639639639643 	299.9999999999491 	0.9999999999989818 	101324.999999993
-0.2114614614614618 	299.9999999999659 	1.000000000001966 	101324.999999993
-0.2089589589589593 	299.9999999999933 	1.000000000004507 	101324.9999999931
-0.2064564564564568 	299.9999999999957 	1.000000000004545 	101324.9999999932
-0.2039539539539543 	299.9999999999379 	1.000000000004821 	101324.9999999932
-0.2014514514514518 	299.9999999999475 	1.000000000004421 	101324.999999993
-0.1989489489489494 	299.9999999999685 	1.000000000008993 	101324.999999993
-0.1964464464464468 	299.9999999999964 	1.000000000000249 	101324.9999999935
-0.1939439439439443 	299.9999999999948 	1.000000000001677 	101324.9999999939
-0.1914414414414418 	299.9999999999519 	1.000000000003 	101324.9999999935
-0.1889389389389393 	299.9999999999843 	1.000000000003352 	101324.9999999929
-0.1864364364364368 	300.0000000000231 	1.000000000003877 	101324.9999999926
-0.1839339339339343 	299.9999999999883 	1.00000000000472 	101324.9999999929
-0.1814314314314318 	299.9999999999914 	1.000000000004513 	101324.9999999936
-0.1789289289289293 	299.9999999999348 	1.000000000004196 	101324.9999999936
-0.1764264264264268 	299.9999999999622 	1.000000000003843 	101324.9999999939
-0.1739239239239243 	299.9999999999292 	1.000000000003608 	101324.9999999937
-0.1714214214214218 	299.999999999976 	1.000000000003474 	101324.999999993
-0.1689189189189193 	299.9999999999572 	1.000000000003601 	101324.9999999923
-0.1664164164164168 	299.9999999999922 	1.000000000003214 	101324.9999999918
-0.1639139139139143 	300.0000000000003 	1.000000000003202 	101324.9999999924
-0.1614114114114118 	300.0000000000175 	1.0000000000033 	101324.9999999931
-0.1589089089089093 	300.0000000000092 	1.000000000015571 	101324.9999999937
-0.1564064064064068 	299.9999999999891 	0.9999999999988614 	101324.9999999942
-0.1539039039039043 	299.9999999999903 	1.000000000008094 	101324.9999999936
-0.1514014014014018 	300.000000000011 	1.000000000001947 	101324.999999993
-0.1488988988988993 	299.9999999999936 	1.000000000008188 	101324.9999999929
-0.1463963963963968 	299.999999999995 	1.000000000001127 	101324.999999993
-0.1438938938938943 	299.9999999999634 	1.000000000004104 	101324.9999999927
-0.1413913913913918 	299.9999999999501 	1.000000000006577 	101324.9999999931
-0.1388888888888893 	299.9999999999732 	1.000000000005361 	101324.9999999938
-0.1363863863863868 	299.9999999999384 	1.000000000004218 	101324.9999999934
-0.1338838838838843 	299.9999999999201 	1.0000000000041 	101324.999999993
-0.1313813813813818 	299.9999999999778 	1.000000000003074 	101324.9999999929
-0.1288788788788793 	299.9999999999591 	1.000000000001295 	101324.9999999928
-0.1263763763763768 	299.9999999999771 	1.000000000001566 	101324.9999999929
-0.1238738738738743 	299.9999999999546 	1.000000000001545 	101324.9999999927
-0.1213713713713717 	299.9999999999754 	1.000000000001565 	101324.9999999929
-0.1188688688688693 	300.0000000000081 	1.000000000002107 	101324.9999999933
-0.1163663663663668 	299.9999999999396 	1.000000000002634 	101324.9999999932
-0.1138638638638643 	299.9999999999778 	1.000000000008605 	101324.9999999937
-0.1113613613613618 	299.9999999999888 	0.9999999999989869 	101324.9999999939
-0.1088588588588592 	299.9999999999872 	1.000000000007005 	101324.9999999938
-0.1063563563563568 	299.9999999999737 	0.9999999999994954 	101324.9999999936
-0.1038538538538543 	299.9999999999816 	1.000000000000358 	101324.9999999935
-0.1013513513513517 	300.0000000000037 	1.000000000001951 	101324.9999999931
-0.09884884884884926 	299.9999999999797 	1.000000000002073 	101324.9999999934
-0.09634634634634676 	299.9999999999383 	1.000000000003422 	101324.9999999933
-0.09384384384384425 	299.9999999999171 	1.000000000003784 	101324.9999999932
-0.09134134134134177 	299.9999999999966 	1.000000000003578 	101324.999999993
-0.08883883883883925 	300.0000000000057 	1.000000000002927 	101324.999999993
-0.08633633633633674 	299.9999999999608 	1.000000000002516 	101324.9999999933
-0.08383383383383426 	299.9999999999926 	1.000000000002341 	101324.9999999929
-0.08133133133133173 	299.9999999999819 	1.000000000001493 	101324.999999993
-0.07882882882882926 	299.9999999999313 	1.000000000001039 	101324.9999999933
-0.07632632632632676 	299.9999999999582 	1.000000000000914 	101324.9999999926
-0.07382382382382424 	299.9999999999223 	1.00000000000083 	101324.9999999926
-0.07132132132132173 	299.9999999999757 	1.000000000001797 	101324.9999999927
-0.06881881881881925 	299.9999999999616 	1.000000000001534 	101324.9999999929
-0.06631631631631671 	299.9999999999215 	1.000000000000663 	101324.9999999931
-0.06381381381381425 	299.9999999999524 	0.9999999999998332 	101324.999999993
-0.06131131131131173 	299.9999999999594 	1.000000000000627 	101324.9999999925
-0.05880880880880923 	299.999999999964 	1.000000000001283 	101324.9999999926
-0.05630630630630672 	299.9999999999602 	1.000000000000996 	101324.9999999931
-0.05380380380380424 	300.0000000000188 	1.000000000000198 	101324.9999999933
-0.05130130130130173 	300.0000000000055 	1.000000000000706 	101324.9999999933
-0.04879879879879922 	299.9999999999331 	1.000000000000749 	101324.9999999935
-0.04629629629629672 	299.9999999999377 	1.00000000000056 	101324.9999999934
-0.04379379379379422 	299.9999999999462 	1.000000000001018 	101324.9999999928
-0.04129129129129173 	299.9999999999533 	1.000000000001793 	101324.9999999926
-0.03878878878878922 	299.9999999999993 	1.000000000001997 	101324.9999999924
-0.03628628628628671 	299.9999999999836 	1.000000000001892 	101324.9999999926
-0.03378378378378422 	299.9999999999368 	1.000000000001744 	101324.9999999925
-0.03128128128128172 	299.9999999999582 	1.000000000000965 	101324.9999999933
-0.02877877877877922 	299.9999999999966 	1.000000000000494 	101324.9999999935
-0.0262762762762767 	299.9999999999319 	0.9999999999992645 	101324.9999999936
-0.02377377377377422 	299.9999999999744 	0.9999999999995358 	101324.9999999933
-0.0212712712712717 	299.9999999999213 	1.000000000000902 	101324.9999999932
-0.01876876876876921 	299.9999999999721 	1.000000000001272 	101324.9999999929
-0.01626626626626671 	299.9999999999885 	1.000000000001187 	101324.9999999931
-0.0137637637637642 	299.9999999999579 	1.000000000000827 	101324.9999999934
-0.0112612612612617 	299.9999999999808 	1.000000000000617 	101324.9999999931
-0.008758758758759198 	299.9999999999753 	1.000000000000467 	101324.999999993
-0.006256256256256697 	299.9999999999451 	0.9999999999997065 	101324.9999999933
-0.003753753753754195 	299.9999999999475 	0.9999999999991815 	101324.9999999933
-0.001251251251251693 	299.999999999948 	0.9999999999986904 	101324.9999999929
0.00125125125125081 	299.9999999999373 	0.9999999999985026 	101324.9999999924
0.003753753753753312 	299.9999999999399 	0.9999999999978908 	101324.9999999921
0.006256256256255817 	299.9999999999338 	0.9999999999979636 	101324.9999999923
0.008758758758758317 	299.9999999999469 	0.9999999999988818 	101324.9999999924
0.01126126126126082 	299.9999999999719 	0.9999999999989359 	101324.9999999924
0.01376376376376332 	299.9999999999537 	0.9999999999991531 	101324.9999999922
0.01626626626626582 	299.9999999999823 	0.9999999999987064 	101324.9999999923
0.01876876876876833 	299.9999999999849 	0.9999999999989457 	101324.9999999931
0.02127127127127083 	299.9999999999391 	0.9999999999988485 	101324.9999999933
0.02377377377377332 	299.9999999999857 	0.9999999999985382 	101324.9999999932
0.02627627627627583 	299.9999999999378 	0.9999999999979867 	101324.9999999927
0.02877877877877833 	299.9999999999734 	0.9999999999980822 	101324.9999999925
0.03128128128128083 	299.9999999999728 	0.9999999999987982 	101324.9999999925
0.03378378378378333 	299.9999999999387 	0.9999999999988701 	101324.9999999926
0.03628628628628584 	299.9999999999555 	0.9999999999980247 	101324.9999999928
0.03878878878878834 	299.999999999993 	0.9999999999978422 	101324.9999999929
0.04129129129129084 	299.9999999999528 	0.9999999999979321 	101324.9999999925
0.04379379379379333 	299.9999999999552 	0.9999999999980872 	101324.9999999926
0.04629629629629585 	299.9999999999434 	0.9999999999974264 	101324.9999999926
0.04879879879879834 	299.9999999999322 	0.9999999999970368 	101324.999999993
0.05130130130130085 	299.9999999999993 	0.9999999999971908 	101324.9999999933
0.05380380380380335 	300.0000000000121 	0.9999999999975436 	101324.9999999929
0.05630630630630584 	299.9999999999834 	0.9999999999979652 	101324.9999999925
0.05880880880880836 	299.9999999999551 	0.9999999999978818 	101324.9999999926
0.06131131131131085 	299.9999999999658 	0.9999999999963415 	101324.9999999927
0.06381381381381336 	299.9999999999718 	0.9999999999957521 	101324.9999999926
0.06631631631631586 	299.9999999999355 	0.9999999999950449 	101324.9999999923
0.06881881881881835 	299.9999999999566 	0.9999999999960326 	101324.9999999927
0.07132132132132088 	299.9999999999852 	0.9999999999961431 	101324.9999999927
0.07382382382382337 	299.9999999999369 	0.999999999996266 	101324.9999999921
0.07632632632632587 	299.9999999999619 	0.9999999999962154 	101324.9999999921
0.07882882882882837 	299.9999999999579 	0.9999999999953828 	101324.9999999916
0.08133133133133086 	299.9999999999716 	0.9999999999952915 	101324.9999999923
0.08383383383383337 	299.9999999999823 	0.9999999999967102 	101324.9999999926
0.08633633633633589 	299.9999999999343 	0.9999999999979743 	101324.9999999922
0.08883883883883838 	299.999999999988 	0.9999999999989387 	101324.9999999928
0.09134134134134086 	299.9999999999864 	0.9999999999975281 	101324.9999999927
0.09384384384384339 	299.9999999999297 	0.999999999996022 	101324.9999999928
0.09634634634634588 	299.9999999999607 	0.9999999999963207 	101324.9999999926
0.09884884884884838 	299.9999999999757 	0.9999999999960681 	101324.9999999926
0.1013513513513509 	300.0000000000185 	0.9999999999967051 	101324.9999999929
0.1038538538538534 	299.999999999988 	0.9999999999964944 	101324.9999999927
0.1063563563563559 	299.9999999999919 	0.9999999999960451 	101324.999999993
0.1088588588588584 	300.0000000000173 	0.9999999999976623 	101324.9999999931
0.1113613613613609 	299.9999999999747 	0.9999999999984627 	101324.999999993
0.1138638638638634 	299.9999999999454 	0.9999999999980804 	101324.9999999925
0.1163663663663659 	299.9999999999475 	0.9999999999966394 	101324.9999999922
0.1188688688688684 	299.9999999999662 	0.9999999999960154 	101324.9999999925
0.1213713713713709 	299.9999999999961 	0.9999999999958294 	101324.9999999928
0.1238738738738734 	299.9999999999505 	0.999999999995941 	101324.9999999926
0.1263763763763759 	299.9999999999852 	0.9999999999958482 	101324.9999999923
0.1288788788788784 	299.9999999999872 	0.9999999999955858 	101324.9999999927
0.1313813813813809 	299.9999999999808 	0.99999999999619 	101324.9999999927
0.1338838838838834 	299.9999999999832 	0.9999999999960555 	101324.9999999934
0.1363863863863859 	300.0000000000048 	0.9999999999956575 	101324.999999993
0.1388888888888884 	300.0000000000222 	0.9999999999954896 	101324.9999999932
0.1413913913913909 	300.000000000003 	0.9999999999961359 	101324.9999999934
0.1438938938938934 	299.9999999999913 	0.9999999999962965 	101324.9999999934
0.1463963963963959 	299.999999999965 	0.9999999999969766 	101324.9999999928
0.1488988988988985 	299.9999999999367 	0.9999999999970628 	101324.9999999926
0.1514014014014009 	299.9999999999681 	0.9999999999966074 	101324.9999999928
0.1539039039039035 	299.9999999999649 	0.999999999996279 	101324.9999999932
0.1564064064064059 	299.9999999999523 	1.000000000000651 	101324.9999999933
0.1589089089089084 	299.9999999999701 	0.9999999999917826 	101324.9999999931
0.1614114114114109 	299.9999999999683 	0.9999999999957919 	101324.9999999927
0.1639139139139134 	299.9999999999392 	0.9999999999988118 	101324.9999999928
0.166416416416416 	299.9999999999719 	0.9999999999975382 	101324.9999999929
0.1689189189189185 	300.0000000000226 	0.999999999996305 	101324.999999993
0.1714214214214209 	300.000000000009 	0.999999999996895 	101324.9999999928
0.1739239239239235 	299.9999999999812 	0.9999999999980433 	101324.9999999924
0.1764264264264259 	299.9999999999797 	0.9999999999973934 	101324.9999999927
0.1789289289289284 	300.000000000009 	1.000000000001235 	101324.9999999932
0.181431431431431 	299.9999999999891 	0.9999999999920037 	101324.9999999933
0.1839339339339334 	299.9999999999864 	0.9999999999948784 	101324.9999999931
0.186436436436436 	299.9999999999593 	0.9999999999964043 	101324.9999999926
0.1889389389389385 	299.9999999999789 	0.9999999999952399 	101324.9999999927
0.191441441441441 	299.9999999999774 	0.9999999999938265 	101324.9999999929
0.1939439439439434 	299.9999999999571 	0.9999999999943521 	101324.9999999932
0.196446446446446 	299.9999999999523 	0.9999999999993854 	101324.9999999934
0.1989489489489485 	299.9999999999714 	0.9999999999904928 	101324.9999999936
0.2014514514514509 	299.9999999999918 	0.9999999999934248 	101324.9999999935
0.2039539539539535 	299.9999999999874 	0.9999999999951572 	101324.9999999926
0.2064564564564559 	299.9999999999589 	0.9999999999946653 	101324.9999999923
0.2089589589589585 	299.9999999999832 	0.9999999999953251 	101324.9999999927
0.211461461461461 	299.9999999999561 	0.9999999999954197 	101324.9999999922
0.2139639639639635 	299.9999999999803 	0.9999999999960236 	101324.9999999923
0.2164664664664659 	300.0000000000115 	0.9999999999967635 	101324.999999992
0.2189689689689684 	300.000000000011 	1.000000000001231 	101324.9999999921
0.221471471471471 	300.0000000000057 	0.999999999992937 	101324.9999999926
0.2239739739739735 	299.9999999999744 	0.9999999999948819 	101324.9999999926
0.226476476476476 	299.9999999999884 	0.9999999999955841 	101324.9999999928
0.2289789789789785 	299.9999999999982 	0.9999999999942352 	101324.9999999932
0.231481481481481 	299.9999999999895 	0.9999999999936501 	101324.9999999932
0.2339839839839835 	299.9999999999773 	0.9999999999943345 	101324.9999999932
0.236486486486486 	300.0000000000095 	0.9999999999967696 	101324.9999999931
0.2389889889889885 	299.9999999999979 	0.9999999999989618 	101324.9999999926
0.241491491491491 	299.9999999999501 	1.000000000002574 	101324.9999999929
0.2439939939939935 	299.9999999999803 	0.9999999999921418 	101324.9999999928
0.246496496496496 	299.9999999999944 	0.9999999999946192 	101324.9999999925
0.2489989989989985 	300.0000000000303 	0.9999999999975147 	101324.999999993
0.251501501501501 	300.0000000000293 	0.9999999999983118 	101324.9999999925
0.2540040040040035 	300.0000000000024 	0.9999999999979458 	101324.9999999921
0.256506506506506 	300.0000000000175 	0.9999999999968291 	101324.9999999919
0.2590090090090086 	299.99999999995 	1.000000000000277 	101324.9999999919
0.261511511511511 	299.9999999999896 	0.9999999999914334 	101324.9999999924
0.2640140140140135 	299.9999999999845 	0.9999999999936775 	101324.9999999924
0.2665165165165161 	299.9999999999523 	0.9999999999940985 	101324.9999999923
0.2690190190190185 	299.9999999999959 	0.9999999999935438 	101324.9999999924
0.271521521521521 	300.0000000000224 	0.9999999999948599 	101324.9999999921
0.2740240240240235 	300.0000000000238 	0.9999999999976112 	101324.9999999926
0.276526526526526 	300.0000000000176 	0.9999999999991616 	101324.9999999925
0.2790290290290286 	299.9999999999643 	0.9999999999991638 	101324.9999999922
0.281531531531531 	299.9999999999504 	1.000000000002973 	101324.9999999917
0.2840340340340335 	299.9999999999739 	0.9999999999943567 	101324.9999999915
0.2865365365365361 	299.9999999999791 	0.9999999999957674 	101324.999999992
0.2890390390390385 	300.0000000000083 	0.9999999999967593 	101324.9999999924
0.291541541541541 	300.000000000014 	0.9999999999967678 	101324.9999999923
0.2940440440440436 	300.0000000000131 	0.9999999999968989 	101324.999999993
0.296546546546546 	300.0000000000092 	0.9999999999974515 	101324.9999999926
0.2990490490490486 	299.9999999999723 	0.9999999999970722 	101324.9999999928
0.3015515515515511 	300.0000000000032 	0.9999999999977625 	101324.9999999927
0.3040540540540535 	299.9999999999992 	1.000000000005889 	101324.9999999927
0.3065565565565562 	300.0000000000038 	0.9999999999886234 	101324.999999992
0.3090590590590585 	299.9999999999982 	0.9999999999932538 	101324.9999999917
0.3115615615615611 	299.9999999999579 	0.9999999999959199 	101324.9999999917
0.3140640640640635 	299.9999999999999 	0.9999999999948743 	101324.9999999913
0.316566566566566 	299.9999999999951 	0.9999999999949125 	101324.9999999911
0.3190690690690687 	299.9999999999536 	0.9999999999949383 	101324.9999999916
0.3215715715715711 	299.999999999993 	0.9999999999959495 	101324.9999999922
0.3240740740740735 	299.9999999999915 	0.9999999999977609 	101324.9999999918
0.326576576576576 	299.9999999999513 	0.9999999999984128 	101324.9999999919
0.3290790790790786 	300.0000000000087 	0.9999999999982954 	101324.9999999917
0.3315815815815811 	300.0000000000188 	0.9999999999975333 	101324.9999999914
0.3340840840840836 	300.0000000000065 	0.9999999999971069 	101324.9999999914
0.3365865865865861 	300.0000000000259 	0.9999999999969952 	101324.9999999915
0.3390890890890886 	300.0000000000347 	0.9999999999978854 	101324.9999999919
0.3415915915915911 	300.0000000000092 	0.9999999999990179 	101324.9999999918
0.3440940940940935 	299.9999999999529 	1.000000000002161 	101324.9999999919
0.3465965965965962 	300.0000000000016 	0.9999999999928271 	101324.9999999921
0.3490990990990985 	300.00000000001 	0.9999999999952268 	101324.9999999924
0.3516016016016011 	300.0000000000165 	0.9999999999986453 	101324.9999999926
0.3541041041041035 	300.000000000007 	0.9999999999995615 	101324.9999999928
0.3566066066066061 	299.99999999995 	1.000000000000173 	101324.999999993
0.3591091091091085 	299.9999999999629 	1.00000000000034 	101324.999999993
0.3616116116116112 	299.9999999999753 	0.9999999999990506 	101324.9999999925
0.3641141141141137 	299.999999999952 	0.9999999999988287 	101324.9999999927
0.3666166166166161 	299.9999999999225 	1.000000000005627 	101324.9999999925
0.3691191191191185 	299.9999999999914 	0.9999999999912115 	101324.9999999921
0.371621621621621 	300.0000000000009 	0.9999999999965214 	101324.9999999917
0.3741241241241237 	300.0000000000182 	0.9999999999991045 	101324.9999999919
0.3766266266266261 	300.0000000000076 	0.9999999999981934 	101324.9999999919
0.3791291291291286 	299.999999999992 	0.9999999999977358 	101324.9999999922
0.3816316316316311 	299.9999999999648 	0.9999999999991629 	101324.9999999928
0.3841341341341336 	299.999999999991 	1.000000000000137 	101324.9999999925
0.3866366366366362 	299.9999999999858 	1.000000000001054 	101324.9999999922
0.3891391391391387 	299.999999999965 	1.000000000002372 	101324.9999999919
0.391641641641641 	299.9999999999948 	1.000000000003301 	101324.9999999921
0.3941441441441436 	299.9999999999953 	1.000000000003658 	101324.9999999923
0.3966466466466462 	299.9999999999939 	1.000000000003013 	101324.9999999924
0.3991491491491486 	299.9999999999778 	1.000000000001772 	101324.9999999921
0.4016516516516512 	299.9999999999528 	1.000000000000616 	101324.999999992
0.4041541541541536 	299.9999999999695 	1.000000000000567 	101324.999999992
0.4066566566566561 	299.9999999999717 	1.000000000003805 	101324.9999999922
0.4091591591591587 	300.0000000000082 	0.999999999996128 	101324.9999999926
0.4116616616616612 	300.0000000000185 	0.9999999999992268 	101324.9999999928
0.4141641641641635 	300.0000000000324 	1.000000000001857 	101324.9999999931
0.4166666666666662 	300.0000000000144 	1.000000000001251 	101324.9999999928
0.4191691691691687 	299.9999999999529 	1.000000000000133 	101324.9999999926
0.421671671671671 	299.9999999999889 	0.9999999999999183 	101324.9999999925
0.4241741741741737 	299.9999999999745 	0.9999999999995824 	101324.9999999923
0.4266766766766761 	299.9999999999552 	1.000000000000555 	101324.9999999926
0.4291791791791785 	299.9999999999876 	1.000000000007728 	101324.9999999924
0.4316816816816812 	299.9999999999858 	0.9999999999926519 	101324.9999999922
0.4341841841841836 	300.0000000000006 	0.9999999999973492 	101324.9999999922
0.4366866866866862 	299.9999999999737 	1.000000000000204 	101324.9999999924
0.4391891891891885 	299.9999999999983 	0.9999999999994964 	101324.9999999923
0.4416916916916913 	300.0000000000028 	0.9999999999996594 	101324.9999999924
0.4441941941941936 	299.9999999999884 	1.000000000000306 	101324.9999999922
0.4466966966966961 	299.9999999999382 	1.000000000000607 	101324.999999992
0.4491991991991987 	299.9999999999812 	1.000000000000579 	101324.9999999922
0.4517017017017012 	299.999999999968 	1.000000000000399 	101324.9999999925
0.4542042042042035 	299.9999999999922 	1.000000000000487 	101324.9999999924
0.4567067067067062 	299.9999999999959 	0.9999999999996911 	101324.9999999919
0.4592092092092087 	299.9999999999352 	0.9999999999990355 	101324.9999999919
0.4617117117117112 	299.9999999999778 	0.9999999999993207 	101324.9999999925
0.4642142142142137 	299.9999999999624 	0.9999999999996577 	101324.9999999926
0.4667167167167162 	299.9999999999838 	1.00000000000004 	101324.9999999925
0.4692192192192187 	299.99999999996 	1.000000000000063 	101324.999999992
0.4717217217217212 	300.000000000001 	1.000000000000517 	101324.9999999921
0.4742242242242236 	299.999999999972 	1.000000000000683 	101324.9999999919
0.4767267267267262 	299.9999999999624 	1.000000000000332 	101324.9999999919
0.4792292292292287 	299.9999999999945 	1.000000000000387 	101324.9999999923
0.4817317317317312 	300.0000000000127 	1.000000000001146 	101324.9999999925
0.4842342342342336 	300.000000000009 	1.000000000001704 	101324.9999999927
0.4867367367367362 	299.9999999999935 	1.00000000000234 	101324.9999999929
0.4892392392392387 	300.000000000006 	1.000000000001788 	101324.9999999928
0.4917417417417412 	300.0000000000259 	1.000000000001237 	101324.9999999927
0.4942442442442437 	299.9999999999779 	1.000000000001982 	101324.9999999929
0.4967467467467462 	299.9999999999438 	1.000000000004505 	101324.999999993
0.4992492492492487 	299.9999999999214 	0.9999999999968529 	101324.9999999929
0.5017517517517511 	299.9999999999413 	0.9999999999992353 	101324.999999993
0.5042542542542537 	299.9999999999835 	1.000000000001225 	101324.9999999924
0.5067567567567562 	299.9999999999739 	1.000000000001603 	101324.9999999919
0.5092592592592589 	299.9999999999661 	1.000000000002313 	101324.9999999919
0.5117617617617611 	299.9999999999824 	1.000000000002199 	101324.999999992
0.5142642642642637 	300.0000000000101 	1.000000000001559 	101324.9999999922
0.5167667667667663 	300.0000000000003 	1.000000000003881 	101324.9999999924
0.5192692692692688 	299.9999999999474 	1.000000000009602 	101324.9999999925
0.5217717717717714 	299.9999999999616 	0.9999999999946123 	101324.9999999927
0.5242742742742736 	299.9999999999615 	0.9999999999985909 	101324.9999999926
0.5267767767767763 	299.9999999999573 	1.000000000000911 	101324.9999999929
0.5292792792792789 	299.9999999999606 	1.00000000000159 	101324.9999999932
0.5317817817817813 	299.9999999999409 	1.000000000002224 	101324.9999999929
0.5342842842842837 	299.999999999984 	1.000000000002001 	101324.9999999931
0.5367867867867864 	299.9999999999844 	1.000000000001108 	101324.9999999931
0.5392892892892888 	299.9999999999537 	1.000000000000067 	101324.9999999927
0.5417917917917912 	299.9999999999673 	0.9999999999992191 	101324.9999999925
0.5442942942942938 	299.9999999999624 	0.9999999999995887 	101324.999999993
0.5467967967967964 	299.999999999975 	1.000000000000524 	101324.9999999934
0.5492992992992988 	299.999999999971 	1.00000000000116 	101324.9999999936
0.5518018018018012 	299.9999999999636 	1.000000000000593 	101324.9999999935
0.5543043043043039 	299.9999999999928 	0.9999999999995837 	101324.9999999926
0.5568068068068063 	299.999999999984 	1.000000000000032 	101324.9999999923
0.5593093093093087 	299.9999999999514 	1.000000000003358 	101324.9999999927
0.5618118118118114 	299.999999999947 	0.9999999999972362 	101324.9999999927
0.5643143143143137 	299.9999999999359 	0.9999999999999579 	101324.9999999926
0.5668168168168163 	299.9999999999649 	1.000000000001106 	101324.9999999929
0.5693193193193188 	300.000000000002 	1.000000000000004 	101324.999999993
0.5718218218218213 	300.0000000000234 	1.000000000000546 	101324.999999993
0.5743243243243239 	300.0000000000231 	1.000000000001746 	101324.999999993
0.5768268268268262 	300.0000000000112 	1.000000000001088 	101324.9999999925
0.5793293293293288 	299.9999999999755 	1.000000000002539 	101324.9999999925
0.5818318318318314 	299.999999999959 	1.00000000000707 	101324.9999999925
0.5843343343343338 	299.9999999999977 	0.9999999999939838 	101324.9999999927
0.5868368368368363 	299.9999999999866 	0.9999999999994658 	101324.9999999932
0.5893393393393387 	299.9999999999482 	1.000000000002639 	101324.9999999935
0.5918418418418413 	299.9999999999641 	1.00000000000173 	101324.9999999935
0.5943443443443439 	300.0000000000005 	1.000000000000854 	101324.9999999931
0.5968468468468463 	300.0000000000122 	1.000000000000803 	101324.9999999928
0.5993493493493487 	300.0000000000333 	1.000000000001112 	101324.9999999927
0.6018518518518514 	300.0000000000135 	1.000000000002137 	101324.999999993
0.6043543543543537 	300.0000000000074 	1.000000000002695 	101324.9999999933
0.6068568568568564 	299.9999999999947 	1.000000000002907 	101324.9999999936
0.6093593593593587 	299.9999999999453 	1.00000000000201 	101324.9999999932
0.6118618618618614 	299.9999999999471 	1.000000000001011 	101324.9999999927
0.6143643643643638 	300.0000000000014 	0.9999999999996361 	101324.9999999923
0.6168668668668662 	299.9999999999959 	0.9999999999994695 	101324.9999999925
0.6193693693693688 	299.9999999999801 	1.000000000001218 	101324.9999999932
0.6218718718718714 	299.9999999999921 	1.000000000003601 	101324.9999999939
0.6243743743743737 	299.9999999999781 	0.9999999999969981 	101324.9999999936
0.6268768768768762 	299.9999999999641 	0.999999999999159 	101324.9999999933
0.629379379379379 	299.9999999999836 	1.000000000000908 	101324.9999999936
0.6318818818818812 	299.999999999994 	1.000000000001786 	101324.9999999938
0.6343843843843838 	300.0000000000176 	1.000000000003044 	101324.9999999936
0.6368868868868864 	300.0000000000043 	1.000000000003701 	101324.9999999934
0.6393893893893888 	299.9999999999631 	1.000000000003333 	101324.9999999935
0.6418918918918912 	299.9999999999822 	1.00000000000595 	101324.9999999933
0.6443943943943939 	299.9999999999721 	1.000000000009337 	101324.9999999929
0.6468968968968963 	299.9999999999761 	0.9999999999959367 	101324.9999999927
0.6493993993993988 	299.9999999999756 	1.000000000001268 	101324.9999999928
0.6519019019019012 	299.9999999999919 	1.000000000003778 	101324.9999999931
0.6544044044044038 	299.9999999999566 	1.000000000002734 	101324.9999999934
0.6569069069069065 	299.9999999999515 	1.000000000002834 	101324.9999999931
0.6594094094094087 	299.999999999971 	1.000000000002481 	101324.999999993
0.6619119119119113 	299.9999999999828 	1.000000000001976 	101324.9999999932
0.664414414414414 	299.9999999999949 	1.000000000001461 	101324.9999999931
0.6669169169169162 	299.9999999999969 	1.000000000001596 	101324.9999999932
0.6694194194194188 	299.9999999999849 	1.000000000001634 	101324.9999999934
0.6719219219219214 	299.9999999999592 	1.000000000001203 	101324.9999999936
0.674424424424424 	299.9999999999774 	1.000000000000727 	101324.9999999933
0.6769269269269262 	299.9999999999566 	1.000000000000879 	101324.9999999931
0.679429429429429 	300.0000000000041 	1.000000000001552 	101324.9999999936
0.6819319319319311 	300.0000000000179 	1.000000000002988 	101324.9999999934
0.6844344344344341 	300.0000000000229 	1.000000000004708 	101324.9999999937
0.686936936936936 	300.0000000000223 	0.9999999999989765 	101324.9999999941
0.6894394394394392 	300.0000000000197 	1.00000000000162 	101324.9999999941
0.6919419419419413 	300.0000000000058 	1.000000000002331 	101324.9999999939
0.694444444444444 	299.9999999999631 	1.000000000001279 	101324.9999999931
0.6969469469469463 	299.9999999999372 	1.000000000001106 	101324.9999999927
0.6994494494494489 	299.9999999999475 	1.000000000001153 	101324.9999999934
0.7019519519519515 	299.9999999999682 	1.000000000001454 	101324.9999999935
0.7044544544544538 	299.999999999957 	1.000000000003275 	101324.9999999933
0.7069569569569564 	299.9999999999956 	1.000000000005907 	101324.999999993
0.7094594594594589 	299.9999999999807 	0.9999999999949472 	101324.9999999935
0.7119619619619615 	299.9999999999535 	1.000000000001943 	101324.9999999939
0.7144644644644638 	299.9999999999735 	1.000000000004603 	101324.9999999938
0.7169669669669665 	299.9999999999651 	1.000000000002585 	101324.9999999936
0.7194694694694688 	300.0000000000138 	1.000000000001147 	101324.9999999931
0.7219719719719715 	300.0000000000115 	1.000000000000447 	101324.9999999935
0.7244744744744737 	299.9999999999998 	0.9999999999996469 	101324.9999999935
0.7269769769769764 	300.000000000008 	1.000000000002018 	101324.9999999931
0.7294794794794791 	299.9999999999981 	1.000000000004569 	101324.9999999925
0.7319819819819813 	299.9999999999815 	0.9999999999939584 	101324.9999999927
0.7344844844844839 	299.9999999999364 	1.000000000000785 	101324.9999999933
0.7369869869869864 	299.9999999999499 	1.000000000004528 	101324.9999999936
0.739489489489489 	299.9999999999714 	1.000000000003971 	101324.9999999935
0.7419919919919914 	299.9999999999653 	1.000000000002582 	101324.9999999933
0.7444944944944939 	299.999999999966 	1.000000000002873 	101324.9999999936
0.7469969969969963 	299.9999999999828 	1.000000000003133 	101324.9999999935
0.7494994994994989 	299.9999999999475 	0.9999999999995796 	101324.9999999933
0.7520020020020015 	299.9999999999555 	1.000000000005469 	101324.999999993
0.7545045045045039 	299.9999999999623 	0.9999999999963018 	101324.9999999933
0.7570070070070062 	299.9999999999631 	1.000000000001985 	101324.9999999933
0.7595095095095092 	299.9999999999681 	1.000000000004787 	101324.9999999934
0.7620120120120112 	299.9999999999859 	1.0000000000043 	101324.9999999932
0.7645145145145138 	299.9999999999853 	1.000000000003815 	101324.999999993
0.7670170170170165 	299.99999999996 	1.0000000000058 	101324.9999999926
0.7695195195195191 	299.9999999999364 	1.000000000006339 	101324.9999999924
0.7720220220220213 	299.9999999999574 	0.9999999999942557 	101324.9999999925
0.7745245245245239 	299.9999999999453 	1.000000000000089 	101324.9999999925
0.7770270270270263 	299.9999999999425 	1.000000000002764 	101324.9999999924
0.779529529529529 	299.9999999999651 	1.000000000002192 	101324.9999999923
0.7820320320320313 	299.9999999999638 	1.000000000001774 	101324.9999999928
0.784534534534534 	299.9999999999927 	1.000000000001655 	101324.9999999928
0.7870370370370364 	299.9999999999853 	1.000000000002093 	101324.9999999925
0.7895395395395389 	299.9999999999769 	1.000000000002599 	101324.9999999928
0.7920420420420413 	299.9999999999921 	1.000000000001769 	101324.9999999931
0.794544544544544 	299.9999999999894 	1.000000000003928 	101324.9999999931
0.7970470470470463 	300.000000000007 	1.000000000006399 	101324.9999999927
0.799549549549549 	300.0000000000104 	0.9999999999961361 	101324.9999999922
0.8020520520520515 	299.9999999999893 	1.000000000001259 	101324.9999999925
0.8045545545545539 	299.9999999999503 	1.000000000003284 	101324.9999999929
0.8070570570570563 	299.9999999999656 	1.000000000002493 	101324.9999999929
0.8095595595595589 	299.9999999999598 	1.000000000001851 	101324.9999999931
0.8120620620620614 	299.9999999999731 	1.000000000002897 	101324.9999999931
0.8145645645645638 	300.0000000000045 	1.000000000003364 	101324.9999999926
0.8170670670670666 	300.0000000000239 	1.000000000005267 	101324.9999999926
0.8195695695695689 	300.0000000000047 	1.00000000000565 	101324.9999999926
0.8220720720720714 	299.9999999999579 	0.9999999999944986 	101324.9999999926
0.8245745745745739 	299.9999999999699 	1.000000000000158 	101324.9999999927
0.8270770770770765 	299.9999999999749 	1.000000000003883 	101324.9999999925
0.8295795795795788 	299.9999999999748 	1.000000000003777 	101324.9999999925
0.8320820820820815 	300.000000000004 	1.000000000003539 	101324.9999999924
0.834584584584584 	300.0000000000035 	1.000000000006058 	101324.9999999923
0.8370870870870865 	299.9999999999704 	1.000000000006145 	101324.9999999924
0.8395895895895891 	299.9999999999445 	0.9999999999988383 	101324.9999999922
0.8420920920920915 	299.9999999999752 	1.000000000000859 	101324.9999999921
0.844594594594594 	299.9999999999709 	1.000000000002322 	101324.9999999917
0.8470970970970964 	299.9999999999644 	1.000000000001776 	101324.9999999915
0.8495995995995991 	300.0000000000016 	1.000000000001212 	101324.9999999915
0.8521021021021015 	299.9999999999922 	1.00000000000156 	101324.9999999916
0.8546046046046039 	299.9999999999711 	1.000000000001784 	101324.9999999921
0.8571071071071066 	299.9999999999914 	1.000000000005278 	101324.9999999922
0.8596096096096089 	299.9999999999879 	1.000000000005816 	101324.9999999924
0.8621121121121116 	299.9999999999756 	0.9999999999949161 	101324.9999999925
0.8646146146146139 	300.0000000000081 	1.00000000000132 	101324.9999999923
0.8671171171171166 	299.9999999999874 	1.00000000000474 	101324.9999999922
0.8696196196196189 	299.9999999999509 	1.000000000003937 	101324.9999999921
0.8721221221221216 	299.9999999999761 	1.0000000000031 	101324.9999999921
0.874624624624624 	300.0000000000049 	1.000000000003153 	101324.9999999922
0.8771271271271264 	300.0000000000009 	1.000000000003413 	101324.9999999922
0.879629629629629 	299.9999999999936 	1.000000000006775 	101324.9999999918
0.8821321321321317 	299.9999999999858 	1.000000000007512 	101324.9999999918
0.8846346346346339 	299.9999999999602 	0.9999999999969874 	101324.999999992
0.8871371371371364 	299.9999999999628 	1.000000000001442 	101324.9999999919
0.8896396396396391 	299.9999999999641 	1.000000000003014 	101324.9999999919
0.8921421421421414 	299.999999999969 	1.000000000001683 	101324.9999999918
0.8946446446446441 	299.9999999999824 	1.000000000001073 	101324.9999999915
0.8971471471471464 	299.999999999993 	1.000000000004038 	101324.9999999911
0.8996496496496489 	299.9999999999957 	1.000000000006067 	101324.9999999916
0.9021521521521517 	299.9999999999911 	1.000000000001582 	101324.9999999921
0.9046546546546541 	299.9999999999962 	1.000000000003598 	101324.9999999921
0.9071571571571564 	299.9999999999729 	1.000000000003759 	101324.9999999917
0.9096596596596589 	299.9999999999587 	1.000000000002148 	101324.9999999911
0.9121621621621616 	299.9999999999887 	1.000000000001292 	101324.9999999907
0.9146646646646639 	299.9999999999748 	1.000000000002176 	101324.9999999906
0.9171671671671666 	299.9999999999562 	1.000000000002907 	101324.9999999908
0.9196696696696689 	299.99999999998 	1.000000000007301 	101324.9999999914
0.9221721721721714 	299.9999999999775 	1.000000000007604 	101324.9999999915
0.9246746746746741 	299.9999999999494 	0.9999999999969009 	101324.9999999912
0.9271771771771765 	299.9999999999654 	1.0000000000016 	101324.9999999909
0.9296796796796791 	299.9999999999808 	1.000000000003111 	101324.9999999908
0.9321821821821816 	299.9999999999729 	1.0000000000016 	101324.9999999908
0.9346846846846838 	299.9999999999681 	1.000000000001211 	101324.9999999908
0.9371871871871866 	300.0000000000015 	1.00000000000147 	101324.9999999908
0.9396896896896891 	300.0000000000048 	1.000000000001605 	101324.999999991
0.9421921921921914 	299.999999999995 	1.000000000005957 	101324.999999991
0.9446946946946939 	299.9999999999864 	1.000000000005766 	101324.9999999908
0.9471971971971965 	299.9999999999683 	0.9999999999953249 	101324.9999999908
0.9496996996996991 	299.9999999999614 	1.000000000000589 	101324.9999999912
0.9522022022022016 	299.999999999982 	1.000000000003297 	101324.9999999913
0.9547047047047038 	299.9999999999972 	1.000000000003657 	101324.9999999911
0.9572072072072064 	299.9999999999889 	1.000000000004065 	101324.9999999913
0.9597097097097093 	299.9999999999721 	1.000000000006489 	101324.9999999911
0.9622122122122114 	299.9999999999648 	1.000000000006238 	101324.9999999909
0.964714714714714 	299.9999999999554 	1.000000000001154 	101324.9999999907
0.9672172172172167 	299.9999999999482 	1.00000000000314 	101324.9999999906
0.969719719719719 	299.9999999999708 	1.00000000000336 	101324.9999999908
0.9722222222222214 	299.9999999999774 	1.000000000002526 	101324.9999999908
0.9747247247247239 	299.9999999999773 	1.000000000002066 	101324.999999991
0.9772272272272267 	299.9999999999972 	1.000000000002209 	101324.9999999912
0.9797297297297292 	299.9999999999859 	1.000000000002762 	101324.9999999911
0.9822322322322313 	299.9999999999801 	1.000000000007381 	101324.999999991
0.9847347347347344 	299.9999999999764 	1.000000000006297 	101324.9999999908
0.9872372372372363 	299.9999999999471 	0.9999999999963058 	101324.9999999905
0.9897397397397389 	299.9999999999495 	1.000000000001256 	101324.9999999905
0.9922422422422417 	299.9999999999501 	1.000000000003512 	101324.999999991
0.9947447447447441 	299.9999999999733 	1.000000000003731 	101324.9999999912
0.9972472472472468 	299.9999999999811 	1.000000000004369 	101324.9999999916
0.999749749749749 	299.9999999999759 	1.00000000000436 	101324.9999999921
1.002252252252252 	299.999999999979 	1.000000000003899 	101324.999999992
1.004754754754754 	299.9999999999962 	1.000000000007739 	101324.9999999915
1.007257257257256 	299.9999999999858 	1.000000000006729 	101324.9999999909
1.009759759759759 	299.9999999999744 	0.9999999999969797 	101324.9999999909
1.012262262262261 	299.9999999999754 	1.000000000001257 	101324.9999999908
1.014764764764764 	299.9999999999594 	1.000000000002927 	101324.9999999907
1.017267267267267 	299.999999999948 	1.000000000002573 	101324.9999999906
1.019769769769769 	299.9999999999708 	1.000000000002351 	101324.9999999901
1.022272272272272 	299.9999999999888 	1.000000000004827 	101324.9999999902
1.024774774774774 	299.9999999999933 	1.000000000004828 	101324.9999999907
1.027277277277277 	299.9999999999893 	1.000000000000252 	101324.999999991
1.029779779779779 	300.0000000000051 	1.000000000002538 	101324.9999999911
1.032282282282282 	300.0000000000068 	1.000000000003682 	101324.999999991
1.034784784784784 	300.0000000000036 	1.000000000003454 	101324.999999991
1.037287287287286 	299.999999999989 	1.000000000003438 	101324.9999999911
1.039789789789789 	299.9999999999878 	1.000000000003498 	101324.999999991
1.042292292292291 	300.0000000000128 	1.000000000003411 	101324.9999999907
1.044794794794794 	300.0000000000281 	1.000000000008161 	101324.999999991
1.047297297297296 	300.0000000000298 	1.000000000006955 	101324.9999999912
1.049799799799799 	300.0000000000081 	0.9999999999979285 	101324.9999999912
1.052302302302302 	299.9999999999887 	1.000000000002243 	101324.9999999907
1.054804804804804 	299.9999999999656 	1.000000000003655 	101324.9999999902
1.057307307307306 	299.9999999999457 	1.000000000003023 	101324.9999999903
1.059809809809809 	299.9999999999644 	1.000000000002718 	101324.9999999903
1.062312312312312 	299.999999999971 	1.00000000000287 	101324.9999999907
1.064814814814814 	299.999999999971 	1.000000000002768 	101324.9999999909
1.067317317317317 	299.999999999955 	1.00000000000745 	101324.9999999905
1.069819819819819 	299.9999999999452 	1.000000000005771 	101324.9999999903
1.072322322322321 	299.999999999982 	0.9999999999971325 	101324.9999999908
1.074824824824824 	300.000000000014 	1.00000000000269 	101324.9999999914
1.077327327327327 	300.0000000000245 	1.000000000005363 	101324.9999999913
1.079829829829829 	300.0000000000296 	1.000000000005269 	101324.9999999908
1.082332332332332 	300.0000000000092 	1.00000000000535 	101324.9999999905
1.084834834834834 	299.9999999999825 	1.000000000010136 	101324.9999999903
1.087337337337337 	299.9999999999524 	1.000000000007651 	101324.9999999904
1.089839839839839 	299.9999999999378 	0.9999999999986715 	101324.9999999907
1.092342342342342 	299.99999999996 	1.000000000003246 	101324.9999999905
1.094844844844844 	299.999999999967 	1.000000000010094 	101324.9999999904
1.097347347347347 	299.99999999995 	1.000000000008329 	101324.999999991
1.099849849849849 	299.9999999999418 	1.000000000000605 	101324.9999999913
1.102352352352352 	299.9999999999636 	1.000000000006014 	101324.9999999911
1.104854854854854 	299.9999999999851 	1.000000000007361 	101324.9999999908
1.107357357357357 	299.9999999999733 	1.000000000006197 	101324.9999999905
1.109859859859859 	299.9999999999598 	1.000000000005432 	101324.9999999902
1.112362362362362 	299.999999999994 	1.000000000010354 	101324.9999999902
1.114864864864865 	300.0000000000003 	1.000000000008328 	101324.9999999904
1.117367367367367 	299.999999999974 	0.9999999999995202 	101324.9999999909
1.119869869869869 	299.9999999999484 	1.00000000000427 	101324.9999999907
1.122372372372372 	299.9999999999617 	1.000000000006183 	101324.9999999903
1.124874874874874 	299.9999999999665 	1.000000000004908 	101324.9999999903
1.127377377377377 	299.9999999999633 	1.000000000004555 	101324.9999999903
1.129879879879879 	299.9999999999894 	1.00000000000596 	101324.9999999905
1.132382382382382 	300.0000000000234 	1.000000000006638 	101324.999999991
1.134884884884884 	300.0000000000168 	1.0000000000119 	101324.999999991
1.137387387387387 	300.0000000000092 	1.000000000009495 	101324.9999999906
1.139889889889889 	299.999999999973 	1.000000000000379 	101324.9999999904
1.142392392392392 	299.9999999999616 	1.000000000004206 	101324.9999999904
1.144894894894894 	299.9999999999955 	1.000000000005904 	101324.9999999902
1.147397397397397 	299.9999999999947 	1.000000000005816 	101324.9999999904
1.149899899899899 	299.999999999966 	1.000000000005881 	101324.9999999905
1.152402402402402 	299.9999999999479 	1.000000000005885 	101324.9999999905
1.154904904904904 	299.9999999999645 	1.000000000005384 	101324.9999999901
1.157407407407407 	299.9999999999686 	1.000000000010058 	101324.99999999
1.159909909909909 	299.999999999952 	1.000000000007175 	101324.9999999903
1.162412412412412 	299.9999999999476 	0.999999999998903 	101324.9999999902
1.164914914914914 	299.9999999999644 	1.000000000002938 	101324.9999999899
1.167417417417417 	299.9999999999619 	1.000000000004779 	101324.9999999898
1.169919919919919 	299.999999999987 	1.000000000005166 	101324.9999999902
1.172422422422422 	300.0000000000188 	1.000000000005722 	101324.9999999905
1.174924924924925 	300.0000000000063 	1.000000000011115 	101324.9999999902
1.177427427427427 	299.9999999999794 	1.000000000007433 	101324.9999999901
1.179929929929929 	299.9999999999928 	0.9999999999994273 	101324.9999999904
1.182432432432432 	300.0000000000233 	1.000000000004651 	101324.9999999907
1.184934934934934 	300.0000000000075 	1.000000000006741 	101324.9999999906
1.187437437437437 	299.9999999999852 	1.000000000006232 	101324.9999999903
1.189939939939939 	299.9999999999801 	1.000000000005734 	101324.9999999903
1.192442442442442 	299.9999999999574 	1.000000000005853 	101324.9999999902
1.194944944944944 	299.9999999999461 	1.000000000005766 	101324.99999999
1.197447447447447 	299.9999999999839 	1.000000000011229 	101324.9999999899
1.199949949949949 	300.0000000000107 	1.000000000008389 	101324.9999999903
1.202452452452452 	299.9999999999789 	1.000000000000799 	101324.9999999906
1.204954954954955 	299.9999999999606 	1.000000000005175 	101324.9999999904
1.207457457457457 	299.9999999999731 	1.00000000000616 	101324.9999999902
1.20995995995996 	299.9999999999794 	1.000000000005242 	101324.99999999
1.212462462462462 	299.9999999999885 	1.000000000005387 	101324.9999999898
1.214964964964964 	299.9999999999887 	1.000000000005606 	101324.9999999897
1.217467467467467 	299.9999999999878 	1.000000000005912 	101324.9999999899
1.219969969969969 	299.9999999999673 	1.000000000012119 	101324.9999999902
1.222472472472472 	299.9999999999867 	1.000000000008704 	101324.9999999903
1.224974974974975 	300.0000000000201 	1.000000000001064 	101324.99999999
1.227477477477477 	299.9999999999965 	1.000000000005012 	101324.9999999898
1.229979979979979 	299.9999999999828 	1.000000000006298 	101324.9999999898
1.232482482482482 	299.9999999999657 	1.000000000006307 	101324.99999999
1.234984984984984 	299.9999999999621 	1.000000000006664 	101324.9999999903
1.237487487487487 	299.9999999999815 	1.000000000012754 	101324.9999999905
1.239989989989989 	299.9999999999906 	1.000000000009319 	101324.9999999905
1.242492492492492 	300.0000000000068 	1.000000000002333 	101324.9999999904
1.244994994994994 	299.9999999999873 	1.000000000006897 	101324.9999999901
1.247497497497497 	299.9999999999899 	1.000000000007966 	101324.9999999899
1.249999999999999 	299.9999999999465 	1.000000000007246 	101324.9999999898
