-1.25 	300 	0.07204084276959029 	101295.6107373854
-1.247497497497497 	299.9745578849661 	0.07079192795283984 	101296.1600248036
-1.244994994994995 	299.9760580185427 	0.06919095600452463 	101296.7180678602
-1.242492492492492 	299.9765504969072 	0.06800627687364874 	101297.280400176
-1.23998998998999 	299.977028989292 	0.06651738385544728 	101297.8467179681
-1.237487487487487 	299.9775131862466 	0.0651516244652084 	101298.4190560274
-1.234984984984985 	299.9780017276061 	0.06373730776113515 	101298.9965077964
-1.232482482482482 	299.9784944301277 	0.06230893253309079 	101299.5788794258
-1.22997997997998 	299.978990591588 	0.06087085804855653 	101300.1653423883
-1.227477477477477 	299.9794902122914 	0.05942325712424256 	101300.7558968916
-1.224974974974975 	299.9799944362044 	0.05796483980699921 	101301.3518936824
-1.222472472472472 	299.9805027514686 	0.05649454915145405 	101301.9527296997
-1.21996996996997 	299.9810144741423 	0.05500781700518189 	101302.5575960935
-1.217467467467467 	299.9815289774818 	0.05351102271697317 	101303.1657500146
-1.214964964964965 	299.9820470365885 	0.05201411670902592 	101303.7781107336
-1.212462462462462 	299.9825689012433 	0.0505058831166248 	101304.3949721525
-1.20995995995996 	299.9830932040803 	0.04898704730881927 	101305.0147174348
-1.207457457457457 	299.9836206262394 	0.04745592735700754 	101305.6381539236
-1.204954954954955 	299.9841514527855 	0.0459136512390245 	101306.2656165237
-1.202452452452452 	299.9846849186606 	0.04437252029083909 	101306.8962008503
-1.19994994994995 	299.9852210749445 	0.04282298022540017 	101307.5299694424
-1.197447447447447 	299.9857613407027 	0.04125828456439821 	101308.1685984562
-1.194944944944945 	299.9863041880729 	0.03968233742842477 	101308.8102795877
-1.192442442442442 	299.9868470332014 	0.0381047287931827 	101309.4519611403
-1.18993993993994 	299.9873925216349 	0.03652671224961078 	101310.0967732393
-1.187437437437437 	299.9879438941813 	0.03493431773049504 	101310.7485431472
-1.184934934934935 	299.9884972232908 	0.03333320099174534 	101311.4026259817
-1.182432432432432 	299.9890487269728 	0.03173160584399044 	101312.0545537338
-1.17992992992993 	299.9896014410622 	0.0301275605066078 	101312.7079167733
-1.177427427427427 	299.9901582422222 	0.02851753134364213 	101313.3661157998
-1.174924924924925 	299.9907182557305 	0.02689653424779383 	101314.0281149391
-1.172422422422422 	299.9912807934582 	0.0252667674718552 	101314.6930995124
-1.16991991991992 	299.9918460112978 	0.02362914756362994 	101315.3612536385
-1.167417417417417 	299.9924119794188 	0.02198948600250037 	101316.0302965624
-1.164914914914915 	299.9929758356344 	0.02035764792910674 	101316.6968476737
-1.162412412412412 	299.9935366711438 	0.01873235554261439 	101317.3598343742
-1.15990990990991 	299.9940976322205 	0.01710423500124177 	101318.0229733114
-1.157407407407407 	299.9946643623173 	0.0154603938858626 	101318.6929324252
-1.154904904904904 	299.9952395020244 	0.01379574675354437 	101319.3728336981
-1.152402402402403 	299.9958198755846 	0.01211675952663715 	101320.0589255133
-1.1498998998999 	299.9963998179923 	0.01043856603441138 	101320.7445127802
-1.147397397397397 	299.9969740436582 	0.008776215350432949 	101321.4233478275
-1.144894894894895 	299.9975413827437 	0.007130982333388323 	101322.0940452442
-1.142392392392392 	299.9981051853936 	0.00549697564636002 	101322.7605619736
-1.13988988988989 	299.9986694959186 	0.003861918885574921 	101323.4276780281
-1.137387387387387 	299.9992367666772 	0.002215057618774591 	101324.0982924724
-1.134884884884885 	299.9998100973215 	0.0007732970039234728 	101324.7760706475
-1.132382382382382 	300.0003876171319 	0.001113666119341236 	101325.458802042
-1.12987987987988 	300.0009647774443 	0.002785064351906022 	101326.141112071
-1.127377377377377 	300.0015405665798 	0.004453036667661708 	101326.8218070907
-1.124874874874875 	300.0021151655598 	0.006117636753701729 	101327.5011011899
-1.122372372372372 	300.0026887969714 	0.00777943560748368 	101328.1792570637
-1.11986986986987 	300.0032615972532 	0.009438812935070815 	101328.8564352533
-1.117367367367367 	300.0038336110509 	0.01109590163308333 	101329.5326880264
-1.114864864864865 	300.0044048169727 	0.01275064414138448 	101330.2079896084
-1.112362362362362 	300.0049751538187 	0.01440286592328484 	101330.8822673115
-1.10985985985986 	300.0055445388545 	0.01605233011806209 	101331.5554232107
-1.107357357357357 	300.0061128788624 	0.01769876700506232 	101332.2273467598
-1.104854854854855 	300.0066800751674 	0.01934189042291945 	101332.8979213666
-1.102352352352353 	300.00724602682 	0.02098140810075713 	101333.5670276115
-1.09984984984985 	300.0078106318865 	0.02261702464240974 	101334.2345447676
-1.097347347347347 	300.0083737876709 	0.02424844196728341 	101334.9003515799
-1.094844844844845 	300.0089353915253 	0.02587536257601893 	101335.5643266474
-1.092342342342342 	300.0094953408844 	0.02749748985811155 	101336.2263486221
-1.08983983983984 	300.0100535333158 	0.02911452592039646 	101336.8862963332
-1.087337337337337 	300.0106098664974 	0.03072617424261351 	101337.5440488502
-1.084834834834835 	300.0111642384429 	0.0323321404031552 	101338.1994855593
-1.082332332332332 	300.0117165475726 	0.03393212919151561 	101338.8524861824
-1.07982982982983 	300.012266692392 	0.03552584633086663 	101339.5029308515
-1.077327327327327 	300.0128145719474 	0.03711300008708896 	101340.1507001852
-1.074824824824825 	300.0133600857683 	0.03869329910032578 	101340.795675292
-1.072322322322323 	300.0139031337384 	0.04026645291205852 	101341.4377377778
-1.06981981981982 	300.0144436161877 	0.04183217306439096 	101342.0767696979
-1.067317317317317 	300.0149814336897 	0.04339017196429888 	101342.7126536388
-1.064814814814815 	300.0155164876719 	0.04494016315287486 	101343.3452728118
-1.062312312312312 	300.0160486799174 	0.04648186268620827 	101343.9745110678
-1.05980980980981 	300.0165779126739 	0.04801498782897261 	101344.6002529374
-1.057307307307307 	300.0171040889484 	0.04953925637318062 	101345.2223835266
-1.054804804804805 	300.0176271121219 	0.05105438886491533 	101345.8407885444
-1.052302302302302 	300.0181468861103 	0.05256010781765137 	101346.4553543993
-1.0497997997998 	300.0186633153454 	0.05405613605533725 	101347.0659681988
-1.047297297297297 	300.0191763052767 	0.05554219892603005 	101347.6725178502
-1.044794794794795 	300.0196857619021 	0.05701802439932631 	101348.2748920222
-1.042292292292292 	300.0201915913736 	0.05848334139328321 	101348.8729801362
-1.03978978978979 	300.0206937008023 	0.05993788109420098 	101349.4666724153
-1.037287287287287 	300.0211919985085 	0.06138137691478422 	101350.0558598231
-1.034784784784785 	300.0216863933036 	0.06281356351593581 	101350.6404342201
-1.032282282282283 	300.0221767938419 	0.06423417841119476 	101351.2202883503
-1.02977977977978 	300.0226631096918 	0.06564296154048026 	101351.7953157476
-1.027277277277277 	300.0231452526572 	0.06703965383254815 	101352.365410877
-1.024774774774775 	300.0236231348464 	0.06842399898875531 	101352.9304690449
-1.022272272272272 	300.0240966673679 	0.06979574352662317 	101353.4903864395
-1.01976976976977 	300.0245657621765 	0.07115463503127779 	101354.0450602078
-1.017267267267267 	300.0250303343053 	0.07250042375866581 	101354.5943883405
-1.014764764764765 	300.0254903004789 	0.07383286324657524 	101355.1382699135
-1.012262262262262 	300.0259455751342 	0.07515170852821146 	101355.6766050626
-1.00975975975976 	300.0263960716593 	0.07645671744672071 	101356.2092948594
-1.007257257257257 	300.0268417074931 	0.07774765108341167 	101356.7362415575
-1.004754754754755 	300.0272824047792 	0.07902427217535715 	101357.2573483903
-1.002252252252252 	300.0277180849221 	0.08028634652944958 	101357.7725196381
-0.9997497497497498 	300.0281486644116 	0.08153364350223911 	101358.2816609463
-0.9972472472472473 	300.0285740589772 	0.08276593411094434 	101358.7846789105
-0.9947447447447449 	300.0289941914335 	0.08398299225081853 	101359.2814811422
-0.9922422422422421 	300.0294089921487 	0.08518459514367423 	101359.7719765327
-0.9897397397397399 	300.0298183896759 	0.08637052209654361 	101360.2560750138
-0.9872372372372376 	300.0302223039256 	0.0875405561972698 	101360.733687908
-0.9847347347347346 	300.030620651396 	0.08869448358409721 	101361.2047277753
-0.9822322322322323 	300.0310133559349 	0.08983209175648665 	101361.6691079162
-0.9797297297297296 	300.0314003539729 	0.09095317210452675 	101362.1267430739
-0.9772272272272275 	300.0317815861517 	0.09205751987541209 	101362.5775494371
-0.9747247247247248 	300.0321569841261 	0.09314493209255383 	101363.0214441696
-0.9722222222222224 	300.0325264685326 	0.09421520955532861 	101363.458345973
-0.9697197197197196 	300.0328899585988 	0.09526815660315816 	101363.8881747483
-0.9672172172172175 	300.0332473846989 	0.09630357938227725 	101364.3108512736
-0.9647147147147147 	300.0335986922825 	0.09732128794227453 	101364.7262980716
-0.9622122122122124 	300.0339438320762 	0.09832109595065715 	101365.1344389332
-0.9597097097097099 	300.0342827469494 	0.09930281969625526 	101365.5351986535
-0.9572072072072073 	300.0346153668861 	0.1002662799053281 	101365.9285040719
-0.9547047047047047 	300.0349416152267 	0.1012113003178301 	101366.3142832554
-0.9522022022022023 	300.0352614197964 	0.102137706583585 	101366.6924648724
-0.9496996996996998 	300.035574722755 	0.1030453287801621 	101367.0629794488
-0.9471971971971973 	300.0358814792958 	0.1039340001768803 	101367.425758885
-0.9446946946946947 	300.0361816484777 	0.104803556699217 	101367.7807360863
-0.9421921921921923 	300.0364751848883 	0.1056538401437112 	101368.1278463815
-0.93968968968969 	300.0367620321587 	0.1064846955976696 	101368.4670265474
-0.9371871871871872 	300.0370421247018 	0.1072959694178963 	101368.7982137215
-0.9346846846846848 	300.0373153968193 	0.1080875129597785 	101369.1213471492
-0.9321821821821823 	300.0375817890493 	0.108859181488167 	101369.4363678128
-0.9296796796796799 	300.0378412506779 	0.1096108319068287 	101369.7432170509
-0.9271771771771771 	300.0380937405806 	0.1103423258193257 	101370.0418382687
-0.9246746746746748 	300.0383392242322 	0.111053529184502 	101370.3321769977
-0.9221721721721724 	300.0385776680537 	0.1117443100704469 	101370.6141790948
-0.9196696696696698 	300.0388090361482 	0.1124145417868821 	101370.8877925038
-0.9171671671671672 	300.0390332895085 	0.1130641032043377 	101371.1529681669
-0.9146646646646649 	300.0392503841605 	0.113692875384283 	101371.4096574142
-0.9121621621621623 	300.0394602738195 	0.1143007423920353 	101371.6578124397
-0.9096596596596597 	300.039662914326 	0.1148875930632304 	101371.8973882293
-0.9071571571571573 	300.0398582630323 	0.1154533193864174 	101372.1283406912
-0.9046546546546547 	300.0400462791381 	0.1159978159204037 	101372.3506261763
-0.9021521521521524 	300.0402269258701 	0.1165209826788476 	101372.5642041011
-0.8996496496496498 	300.0404001699918 	0.1170227250925257 	101372.7690361889
-0.8971471471471473 	300.0405659791525 	0.1175029501729324 	101372.965084065
-0.894644644644645 	300.0407243225479 	0.1179615676039852 	101373.1523107218
-0.892142142142142 	300.040875172464 	0.1183984933549292 	101373.3306820549
-0.8896396396396397 	300.0410185020583 	0.1188136468283164 	101373.5001651061
-0.8871371371371374 	300.041154284866 	0.1192069491363258 	101373.6607274708
-0.8846346346346349 	300.0412824968315 	0.1195783278989218 	101373.8123394541
-0.8821321321321324 	300.0414031160961 	0.1199277173970034 	101373.9549744965
-0.8796296296296297 	300.0415161211332 	0.1202550530269139 	101374.0886064141
-0.8771271271271271 	300.0416214898765 	0.1205602714436948 	101374.2132087177
-0.8746246246246248 	300.041719203185 	0.1208433166522005 	101374.328758345
-0.8721221221221224 	300.0418092450192 	0.1211041393338457 	101374.4352361158
-0.8696196196196196 	300.0418915977717 	0.1213426887318064 	101374.5326211452
-0.8671171171171175 	300.0419662433592 	0.1215589148343273 	101374.6208917373
-0.8646146146146148 	300.042033169472 	0.1217527811582613 	101374.7000334775
-0.8621121121121121 	300.0420923672403 	0.1219242576728521 	101374.7700356431
-0.8596096096096097 	300.0421438218638 	0.122073304132728 	101374.8308806757
-0.857107107107107 	300.0421875196346 	0.1221998862468089 	101374.8825526228
-0.8546046046046049 	300.0422234592495 	0.1223039942549127 	101374.9250496024
-0.8521021021021022 	300.0422516380336 	0.1223856153198095 	101374.9583685907
-0.8495995995995997 	300.042272041139 	0.1224447152141299 	101374.9824920484
-0.8470970970970974 	300.0422846616733 	0.1224812787986183 	101374.9974117541
-0.8445945945945946 	300.0422895108822 	0.122495324747649 	101375.0031407652
-0.8420920920920922 	300.0422865879547 	0.1224868466103493 	101374.9996779249
-0.8395895895895897 	300.0422758712823 	0.1224558052368128 	101374.9869992703
-0.8370870870870872 	300.0422573657108 	0.1224022118598222 	101374.9651094007
-0.8345845845845846 	300.0422311002847 	0.1223261265885154 	101374.9340422681
-0.8320820820820823 	300.0421970744405 	0.1222275501635093 	101374.8937976251
-0.8295795795795798 	300.0421552629688 	0.1221064379429552 	101374.8443456004
-0.8270770770770772 	300.0421056828332 	0.1219628355853723 	101374.785706307
-0.8245745745745746 	300.0420483827358 	0.1217968481880335 	101374.7179374169
-0.8220720720720721 	300.0419833583354 	0.1216084693777055 	101374.6410337021
-0.8195695695695699 	300.0419105698746 	0.1213976295196969 	101374.5549481836
-0.817067067067067 	300.041830049011 	0.1211644116744989 	101374.4597184636
-0.8145645645645651 	300.041741875344 	0.1209089894633752 	101374.3554385811
-0.8120620620620621 	300.0416460422675 	0.120631353310599 	101374.2421006289
-0.8095595595595597 	300.0415424829773 	0.1203313805653797 	101374.1196257478
-0.8070570570570572 	300.0414312386913 	0.1200091838594836 	101373.9880628661
-0.8045545545545546 	300.0413124377665 	0.1196650466003586 	101373.8475636188
-0.8020520520520523 	300.0411860853029 	0.1192989823887393 	101373.6981339659
-0.7995495495495494 	300.0410520664383 	0.1189107669718177 	101373.5396381907
-0.7970470470470474 	300.0409104055528 	0.1185004881944232 	101373.3721052962
-0.7945445445445446 	300.0407613009462 	0.1180685909515526 	101373.1957698038
-0.7920420420420423 	300.0406048129835 	0.1176152048018461 	101373.0107029585
-0.7895395395395397 	300.0404407619219 	0.1171399567135545 	101372.8166922165
-0.7870370370370371 	300.0402690869919 	0.1166427598568418 	101372.6136659621
-0.7845345345345348 	300.0400900548003 	0.1161242304954799 	101372.401939558
-0.7820320320320323 	300.0399038756019 	0.1155848266705633 	101372.1817614977
-0.7795295295295296 	300.0397103445865 	0.1150240989474597 	101371.9528895259
-0.7770270270270272 	300.0395092002478 	0.1144415171934986 	101371.7150145174
-0.7745245245245247 	300.0393006721627 	0.1138376505057355 	101371.468408256
-0.7720220220220222 	300.0390852351287 	0.1132135666215306 	101371.2136321728
-0.7695195195195199 	300.0388628596888 	0.1125691775349722 	101370.9506511936
-0.767017017017017 	300.0386330203063 	0.1119033271893156 	101370.67884377
-0.7645145145145147 	300.038395598143 	0.1112158316957277 	101370.3980699421
-0.7620120120120122 	300.0381512581937 	0.1105082521412531 	101370.1091163758
-0.7595095095095097 	300.037900538664 	0.1097817851236732 	101369.812619132
-0.7570070070070072 	300.0376429714763 	0.1090353296856536 	101369.5080242087
-0.7545045045045048 	300.0373777320405 	0.1082670574548541 	101369.1943568647
-0.7520020020020022 	300.0371050197278 	0.1074775454738073 	101368.8718537582
-0.7494994994994997 	300.0368260308189 	0.1066695981110822 	101368.5419293677
-0.7469969969969972 	300.0365413100161 	0.1058444106777632 	101368.2052271349
-0.7444944944944945 	300.0362498239028 	0.1049995335118117 	101367.8605246951
-0.7419919919919924 	300.0359503391974 	0.1041321804556418 	101367.5063643863
-0.7394894894894897 	300.0356433716736 	0.1032437199212976 	101367.1433572687
-0.7369869869869872 	300.0353308371187 	0.1023387041029493 	101366.7737684986
-0.7344844844844846 	300.0350135460523 	0.1014189403412614 	101366.398555287
-0.7319819819819822 	300.0346898816003 	0.1004805105822222 	101366.0158048489
-0.7294794794794797 	300.0343577569582 	0.09951855176196582 	101365.6230509534
-0.7269769769769773 	300.0340175742845 	0.09853423835580631 	101365.2207709506
-0.7244744744744747 	300.0336722014781 	0.09753453779446894 	101364.8123562978
-0.721971971971972 	300.0333235689442 	0.09652397125268322 	101364.4000875645
-0.7194694694694695 	300.0329699972864 	0.09549832040598286 	101363.9819768801
-0.7169669669669674 	300.032607886481 	0.09444890127754271 	101363.5537683834
-0.7144644644644647 	300.0322361444863 	0.09337330832134473 	101363.114173777
-0.711961961961962 	300.031858059689 	0.09227977621288469 	101362.6670834974
-0.7094594594594597 	300.0314779677408 	0.09117887463897713 	101362.2176225905
-0.7069569569569573 	300.0310961956542 	0.09007117567878462 	101361.7661738145
-0.7044544544544545 	300.0307081696853 	0.08894527456820128 	101361.3073272064
-0.7019519519519523 	300.0303091767599 	0.08778967385289886 	101360.8355126075
-0.6994494494494495 	300.029899853395 	0.08660627502275635 	101360.3514874465
-0.6969469469469471 	300.029486255421 	0.08541033042607474 	101359.8624142097
-0.6944444444444446 	300.0290739326906 	0.08421557599764534 	101359.3748521597
-0.6919419419419421 	300.0286619417771 	0.08301937059822039 	101358.8876802716
-0.6894394394394396 	300.0282431643429 	0.08180369668723542 	101358.3924795612
-0.6869369369369374 	300.0278110737022 	0.08055228258495287 	101357.8815358519
-0.6844344344344344 	300.0273665092432 	0.07926759859412646 	101357.3558479794
-0.6819319319319321 	300.0269176900438 	0.07797069934314305 	101356.8251377894
-0.6794294294294296 	300.0264730267575 	0.07668289037568678 	101356.2993473423
-0.6769269269269272 	300.0260332142522 	0.07540566792733182 	101355.7792918374
-0.6744244244244245 	300.0255899686179 	0.07411763332217809 	101355.2551717041
-0.6719219219219222 	300.0251328538034 	0.07279207672097918 	101354.7146490086
-0.6694194194194195 	300.0246584489443 	0.07142049755806182 	101354.1536852194
-0.6669169169169172 	300.0241739486949 	0.07002175756967383 	101353.5807933564
-0.6644144144144146 	300.0236919177725 	0.06862844976278666 	101353.0108304701
-0.661911911911912 	300.0232203247448 	0.0672610988152943 	101352.4532129158
-0.6594094094094097 	300.0227558822 	0.06591090671661885 	101351.9040467337
-0.656906906906907 	300.0222860179874 	0.06454492568513559 	101351.3484640115
-0.6544044044044046 	300.0217980437597 	0.06313004193813521 	101350.7714659125
-0.6519019019019021 	300.0212887106753 	0.06165799297663827 	101350.1692189095
-0.6493993993993996 	300.0207671490027 	0.06015303716232146 	101349.5525246194
-0.6468968968968971 	300.0202490316216 	0.05865659021707587 	101348.9399141961
-0.6443943943943946 	300.0197460615821 	0.05719952381348643 	101348.3452183505
-0.6418918918918921 	300.019258014406 	0.05578108535197812 	101347.7681626068
-0.6393893893893897 	300.0187725351141 	0.05436827841209284 	101347.1941334842
-0.6368868868868871 	300.0182726128748 	0.05291572262862988 	101346.6030196371
-0.6343843843843846 	300.0177469387514 	0.05139332126400082 	101345.9814576524
-0.6318818818818821 	300.017196898443 	0.04980498873548419 	101345.3310958145
-0.6293793793793795 	300.0166361841243 	0.04818763801184826 	101344.6681290432
-0.6268768768768773 	300.0160834161876 	0.0465914424165586 	101344.0145712919
-0.6243743743743745 	300.0155520452448 	0.04505292138550072 	101343.3864169668
-0.6218718718718721 	300.0150435440942 	0.04357563712950886 	101342.7852336716
-0.6193693693693696 	300.0145463625649 	0.0421280547679516 	101342.1973034025
-0.6168668668668671 	300.0140413832122 	0.04065851582134992 	101341.6002076409
-0.6143643643643645 	300.0135111240293 	0.03911924714932592 	101340.9732467158
-0.6118618618618621 	300.0129474708992 	0.03748808648316616 	101340.306805909
-0.6093593593593596 	300.0123553326906 	0.03577859655536987 	101339.6066984737
-0.6068568568568571 	300.0117507616078 	0.03403491657687385 	101338.8919087695
-0.6043543543543546 	300.0111545577744 	0.03231432563718944 	101338.187028795
-0.6018518518518521 	300.0105842979008 	0.03066539447073071 	101337.5128339801
-0.5993493493493496 	300.0100480456452 	0.02911051861496738 	101336.87884958
-0.5968468468468471 	300.0095417901429 	0.02763864231438369 	101336.2803250418
-0.5943443443443446 	300.0090510175843 	0.02620939479521156 	101335.7000951052
-0.591841841841842 	300.0085553300324 	0.02476577766188592 	101335.1140420994
-0.5893393393393397 	300.0080342551699 	0.02325040895356044 	101334.4979644752
-0.5868368368368371 	300.0074725556444 	0.02162050513923547 	101333.8338533381
-0.5843343343343346 	300.0068638570505 	0.01985817179792168 	101333.1141802139
-0.5818318318318321 	300.0062119962847 	0.01797426162385779 	101332.3434889678
-0.5793293293293297 	300.0055300571135 	0.01600570142480046 	101331.537254046
-0.5768268268268271 	300.0048375502362 	0.01400759341182388 	101330.71854507
-0.5743243243243245 	300.0041565544065 	0.01204245277712239 	101329.9134646365
-0.5718218218218221 	300.0035078896426 	0.01016962659521604 	101329.1466243851
-0.5693193193193196 	300.0029084442085 	0.008437644132673066 	101328.4379859123
-0.5668168168168171 	300.0023699405103 	0.006880439174034944 	101327.8014031735
-0.5643143143143147 	300.0018987646098 	0.0055167049801529 	101327.2444211927
-0.5618118118118121 	300.0014964942052 	0.004351323325477744 	101326.7689011071
-0.5593093093093094 	300.0011608311375 	0.003377987185993326 	101326.3721231767
-0.5568068068068072 	300.0008866913322 	0.002582301197829357 	101326.0480748481
-0.5543043043043046 	300.0006672668423 	0.001944825929002227 	101325.7887064189
-0.551801801801802 	300.0004949447432 	0.001443726259236389 	101325.5850174281
-0.5492992992992995 	300.0003620273089 	0.001056855473151282 	101325.4279073594
-0.5467967967967969 	300.0002612404378 	0.0007632371368405182 	101325.3087772708
-0.5442942942942947 	300.0001860504771 	0.0005439926272511782 	101325.219903623
-0.5417917917917919 	300.0001308215678 	0.0003828096450099609 	101325.1546243584
-0.5392892892892895 	300.0000908539627 	0.0002660642466222768 	101325.1073839953
-0.536786786786787 	300.0000623409848 	0.0001827059976875589 	101325.0736828335
-0.5342842842842846 	300.000042277488 	0.0001240002202920076 	101325.049968817
-0.531781781781782 	300.0000283454481 	8.320102199752466e-05 	101325.0335020223
-0.5292792792792794 	300.0000187941399 	5.520739334060125e-05 	101325.0222130471
-0.526776776776777 	300.0000123266505 	3.623659369558716e-05 	101325.01456899
-0.5242742742742745 	300.0000079995903 	2.353376192091618e-05 	101325.0094546932
-0.521771771771772 	300.0000051380168 	1.512641914925981e-05 	101325.0060725147
-0.5192692692692695 	300.0000032667477 	9.624581717946843e-06 	101325.0038609453
-0.516766766766767 	300.0000020566023 	6.063528670350184e-06 	101325.0024306264
-0.5142642642642645 	300.0000012822071 	3.783171721402871e-06 	101325.0015154198
-0.511761761761762 	300.0000007918376 	2.338099880000878e-06 	101325.0009358888
-0.5092592592592596 	300.0000004844958 	1.431610978095477e-06 	101325.0005726303
-0.506756756756757 	300.000000293702 	8.686148914318691e-07 	101325.0003471849
-0.5042542542542544 	300.0000001765196 	5.223194159559391e-07 	101325.0002086212
-0.5017517517517521 	300.0000001051804 	3.11342083889413e-07 	101325.0001242617
-0.4992492492492494 	300.0000000621291 	1.839849288391763e-07 	101325.0000733773
-0.496746746746747 	300.0000000363465 	1.078123906391904e-07 	101325.0000429629
-0.4942442442442445 	300.0000000210554 	6.264960790031913e-08 	101325.000024945
-0.4917417417417421 	300.0000000120999 	3.611411668192525e-08 	101325.0000143641
-0.4892392392392395 	300.0000000069027 	2.064828137745039e-08 	101325.0000082036
-0.486736736736737 	300.0000000038978 	1.171755995188292e-08 	101325.0000046467
-0.4842342342342345 	300.0000000021359 	6.594482372136151e-09 	101325.0000026098
-0.481731731731732 	300.0000000012696 	3.688013173082604e-09 	101325.0000014526
-0.4792292292292296 	300.0000000007051 	2.042807381993399e-09 	101325.0000008004
-0.4767267267267268 	300.0000000003135 	1.128554811486729e-09 	101325.0000004357
-0.4742242242242246 	300.0000000001892 	6.135856313916717e-10 	101325.0000002334
-0.471721721721722 	300.0000000000538 	3.363777090326818e-10 	101325.0000001217
-0.4692192192192195 	300.0000000000185 	1.784661539092816e-10 	101325.0000000608
-0.4667167167167169 	299.9999999999332 	9.854220048692197e-11 	101325.000000028
-0.4642142142142145 	300.0000000000126 	5.008676924401826e-11 	101325.0000000104
-0.461711711711712 	300.0000000000225 	2.88639427268148e-11 	101325.0000000011
-0.4592092092092094 	300.0000000000186 	1.440002738672174e-11 	101324.9999999963
-0.456706706706707 	300.0000000000542 	1.100905355845145e-11 	101324.9999999936
-0.4542042042042045 	299.9999999999346 	6.108871906860101e-12 	101324.9999999922
-0.451701701701702 	299.9999999999499 	5.383471502226184e-12 	101324.9999999914
-0.4491991991991995 	299.9999999999516 	1.871024357010978e-12 	101324.9999999909
-0.4466966966966969 	299.9999999999352 	3.243956280187954e-12 	101324.9999999906
-0.4441941941941945 	299.9999999999904 	1.430123703844403e-12 	101324.9999999903
-0.441691691691692 	299.9999999999498 	3.172066892853016e-12 	101324.9999999905
-0.4391891891891895 	299.9999999999852 	2.373126608906124e-12 	101324.9999999904
-0.436686686686687 	299.999999999964 	4.508326026751494e-12 	101324.9999999906
-0.4341841841841846 	299.9999999999951 	3.144358636240294e-12 	101324.9999999904
-0.431681681681682 	299.9999999999433 	4.322727764969288e-12 	101324.9999999903
-0.4291791791791794 	299.9999999999027 	2.152750852839219e-12 	101324.9999999905
-0.426676676676677 	299.9999999999091 	3.304152287850506e-12 	101324.9999999908
-0.4241741741741744 	299.9999999999654 	9.903787448595177e-13 	101324.999999991
-0.421671671671672 	300.0000000000053 	3.611419063641033e-12 	101324.9999999908
-0.4191691691691694 	300.0000000000522 	1.565359964088324e-12 	101324.9999999905
-0.4166666666666669 	300.0000000000599 	3.414803289806833e-12 	101324.9999999905
-0.4141641641641645 	299.9999999999277 	1.903105794487869e-12 	101324.9999999907
-0.411661661661662 	300.0000000000059 	3.609503632143653e-12 	101324.9999999907
-0.4091591591591594 	300.0000000000027 	2.809116215281149e-12 	101324.9999999906
-0.406656656656657 	299.9999999999292 	3.616239987675935e-12 	101324.9999999909
-0.4041541541541545 	300.0000000000151 	1.343487543370514e-12 	101324.9999999911
-0.401651651651652 	299.9999999999143 	4.485980093228987e-12 	101324.9999999911
-0.3991491491491494 	299.9999999999972 	1.122409083294423e-12 	101324.9999999912
-0.396646646646647 	299.9999999999536 	5.015136266792532e-12 	101324.9999999915
-0.3941441441441444 	299.9999999999733 	2.068906731430855e-12 	101324.9999999914
-0.3916416416416419 	299.9999999999264 	5.115464034140016e-12 	101324.9999999912
-0.3891391391391395 	299.9999999999542 	1.311538073475706e-12 	101324.999999991
-0.3866366366366368 	299.9999999999532 	3.661432331031097e-12 	101324.999999991
-0.3841341341341344 	299.9999999999977 	1.808630292756544e-12 	101324.9999999912
-0.381631631631632 	299.9999999999504 	2.865071059678463e-12 	101324.9999999912
-0.3791291291291294 	300.0000000000059 	1.965519791756138e-12 	101324.9999999912
-0.3766266266266269 	300.0000000000222 	2.177116337141434e-12 	101324.9999999911
-0.3741241241241244 	300.0000000000266 	3.24321065237935e-12 	101324.9999999913
-0.371621621621622 	300.0000000000155 	1.570291236107342e-12 	101324.9999999912
-0.3691191191191194 	300.0000000000045 	4.104064223055803e-12 	101324.9999999914
-0.366616616616617 	300.000000000011 	1.112339910318997e-12 	101324.9999999914
-0.3641141141141143 	299.9999999999636 	3.808009226559309e-12 	101324.9999999914
-0.3616116116116119 	299.9999999999461 	2.376448937860643e-12 	101324.9999999915
-0.3591091091091095 	299.9999999999869 	3.522598606293996e-12 	101324.9999999915
-0.356606606606607 	299.9999999999824 	2.719188778989986e-12 	101324.9999999914
-0.3541041041041044 	299.999999999981 	2.51792165987127e-12 	101324.9999999911
-0.3516016016016019 	300.0000000000009 	3.021716702722413e-12 	101324.9999999909
-0.3490990990990994 	299.9999999999829 	1.328777270267322e-12 	101324.9999999909
-0.346596596596597 	300.0000000000472 	3.076121580190039e-12 	101324.9999999909
-0.3440940940940944 	300.0000000000576 	1.256288932952911e-12 	101324.9999999911
-0.3415915915915919 	300.0000000000178 	3.986983028080832e-12 	101324.9999999915
-0.3390890890890895 	299.9999999999778 	1.895325412454024e-12 	101324.9999999915
-0.3365865865865869 	300.0000000000206 	3.288502491953138e-12 	101324.9999999913
-0.3340840840840844 	300.0000000000072 	1.978914605730176e-12 	101324.9999999911
-0.3315815815815819 	300.0000000000281 	2.738953706071077e-12 	101324.999999991
-0.3290790790790794 	300.0000000000149 	8.144844622406285e-13 	101324.9999999907
-0.3265765765765769 	299.9999999999249 	1.808531267579194e-12 	101324.9999999909
-0.3240740740740744 	299.9999999999951 	8.35347176561996e-13 	101324.9999999909
-0.3215715715715718 	300.0000000000073 	2.63357713021527e-12 	101324.9999999911
-0.3190690690690695 	299.9999999999212 	7.253870800014223e-13 	101324.9999999911
-0.3165665665665668 	299.9999999999893 	3.772403590565643e-12 	101324.9999999912
-0.3140640640640644 	300.0000000000018 	1.210360713586747e-12 	101324.9999999911
-0.311561561561562 	299.9999999999201 	5.219732689870105e-12 	101324.9999999908
-0.3090590590590593 	299.9999999999901 	8.237612790283488e-13 	101324.9999999906
-0.3065565565565568 	300.0000000000044 	6.539047149926572e-12 	101324.999999991
-0.3040540540540545 	300.000000000019 	1.491405533315545e-12 	101324.9999999915
-0.3015515515515518 	300.0000000000358 	6.23709641021859e-12 	101324.9999999919
-0.2990490490490494 	299.9999999999418 	2.077901965340376e-12 	101324.9999999919
-0.2965465465465469 	299.9999999999839 	5.274039916526872e-12 	101324.9999999918
-0.2940440440440444 	300.0000000000022 	3.691941400025584e-12 	101324.9999999918
-0.2915415415415418 	300.0000000000034 	4.370322847399435e-12 	101324.999999992
-0.2890390390390395 	300.0000000000022 	4.253725306583934e-12 	101324.9999999921
-0.2865365365365368 	299.9999999999766 	3.134384749513228e-12 	101324.9999999919
-0.2840340340340343 	300.0000000000056 	4.459293465633812e-12 	101324.9999999917
-0.2815315315315318 	299.9999999999263 	2.643127351652727e-12 	101324.9999999917
-0.2790290290290295 	299.9999999999568 	3.659040464728449e-12 	101324.9999999919
-0.2765265265265269 	300.0000000000155 	2.441710273123134e-12 	101324.9999999916
-0.2740240240240244 	300.0000000000337 	3.663418196317886e-12 	101324.9999999918
-0.2715215215215219 	300.0000000000139 	4.313267194071663e-12 	101324.999999992
-0.2690190190190194 	299.9999999999442 	4.240958017501182e-12 	101324.9999999919
-0.2665165165165169 	299.9999999999978 	5.04793800149767e-12 	101324.9999999919
-0.2640140140140144 	299.9999999999642 	3.388808969083703e-12 	101324.999999992
-0.2615115115115119 	299.9999999999969 	5.027658242396922e-12 	101324.999999992
-0.2590090090090094 	299.9999999999278 	3.096001798086086e-12 	101324.999999992
-0.2565065065065068 	299.9999999999944 	3.799788902429984e-12 	101324.999999992
-0.2540040040040044 	299.999999999998 	4.10430797127621e-12 	101324.9999999916
-0.2515015015015019 	300.000000000041 	3.163231629850476e-12 	101324.9999999914
-0.2489989989989994 	300.0000000000526 	5.587846516153937e-12 	101324.9999999916
-0.2464964964964968 	299.9999999999935 	3.310962968010768e-12 	101324.9999999916
-0.2439939939939944 	300.0000000000005 	6.967923342485338e-12 	101324.9999999914
-0.2414914914914919 	299.9999999999722 	2.657776150514956e-12 	101324.9999999913
-0.2389889889889893 	300.0000000000059 	6.587638808694468e-12 	101324.9999999917
-0.2364864864864869 	300.0000000000215 	2.113106972401548e-12 	101324.9999999915
-0.2339839839839843 	299.9999999999244 	5.544362141034687e-12 	101324.9999999913
-0.2314814814814819 	299.999999999977 	1.088716635316943e-12 	101324.9999999913
-0.2289789789789792 	299.9999999999182 	3.962828831438373e-12 	101324.9999999913
-0.2264764764764769 	299.9999999999436 	7.366155181725375e-13 	101324.9999999913
-0.2239739739739743 	299.9999999999599 	2.134402659183182e-12 	101324.9999999913
-0.2214714714714718 	299.9999999999388 	1.017805529429641e-12 	101324.9999999913
-0.2189689689689693 	299.9999999999725 	1.081238799790248e-12 	101324.9999999913
-0.2164664664664669 	299.9999999999783 	1.851446979784002e-12 	101324.9999999915
-0.2139639639639643 	299.9999999999253 	1.041356004019022e-12 	101324.9999999913
-0.2114614614614618 	299.9999999999729 	1.326944797741888e-12 	101324.9999999912
-0.2089589589589593 	299.9999999999969 	4.597456432528704e-13 	101324.9999999915
-0.2064564564564568 	299.9999999999936 	1.978448172149808e-13 	101324.9999999915
-0.2039539539539543 	299.9999999999007 	6.589096488203685e-13 	101324.9999999915
-0.2014514514514518 	299.9999999999476 	1.173547643348023e-12 	101324.9999999915
-0.1989489489489494 	299.9999999999761 	2.124725443488262e-12 	101324.9999999914
-0.1964464464464468 	299.9999999999952 	1.386852024703904e-12 	101324.9999999915
-0.1939439439439443 	299.9999999999851 	2.342895824205317e-12 	101324.9999999916
-0.1914414414414418 	299.999999999915 	7.288328921267259e-13 	101324.9999999917
-0.1889389389389393 	300.0000000000082 	2.027512361759805e-12 	101324.9999999915
-0.1864364364364368 	300.0000000000417 	9.831571290345589e-13 	101324.9999999912
-0.1839339339339343 	299.9999999999716 	2.986855568888756e-12 	101324.9999999911
-0.1814314314314318 	299.9999999999946 	1.477553229527408e-12 	101324.9999999911
-0.1789289289289293 	299.9999999999017 	3.878663855290359e-12 	101324.9999999912
-0.1764264264264268 	299.9999999999744 	8.889357889013391e-13 	101324.9999999912
-0.1739239239239243 	299.9999999998964 	4.098093366352645e-12 	101324.9999999908
-0.1714214214214218 	299.9999999999872 	7.326921013708828e-13 	101324.9999999908
-0.1689189189189193 	299.9999999999556 	4.287092408570575e-12 	101324.9999999908
-0.1664164164164168 	300.0000000000084 	3.066037629565375e-12 	101324.999999991
-0.1639139139139143 	299.9999999999884 	5.364426156528537e-12 	101324.9999999913
-0.1614114114114118 	300.0000000000338 	3.628837428043404e-12 	101324.9999999912
-0.1589089089089093 	299.9999999999997 	7.998045821242918e-12 	101324.9999999911
-0.1564064064064068 	299.9999999999866 	3.453464592124488e-12 	101324.9999999913
-0.1539039039039043 	299.9999999999956 	9.402096633923218e-12 	101324.9999999911
-0.1514014014014018 	300.0000000000265 	2.434228403716603e-12 	101324.999999991
-0.1488988988988993 	299.999999999991 	8.433677088242592e-12 	101324.9999999906
-0.1463963963963968 	300.0000000000022 	2.43575148843065e-12 	101324.9999999906
-0.1438938938938943 	299.999999999954 	7.025390578366224e-12 	101324.9999999904
-0.1413913913913918 	299.9999999999234 	1.219560417277564e-12 	101324.9999999904
-0.1388888888888893 	299.9999999999797 	4.861590856692093e-12 	101324.9999999907
-0.1363863863863868 	299.9999999998861 	5.762177278772977e-13 	101324.9999999909
-0.1338838838838843 	299.9999999999117 	4.42575159972815e-12 	101324.9999999908
-0.1313813813813818 	299.9999999999922 	1.071905963432579e-12 	101324.9999999908
-0.1288788788788793 	299.9999999999695 	3.314330584121371e-12 	101324.9999999912
-0.1263763763763768 	299.9999999999692 	4.756051268143757e-13 	101324.9999999911
-0.1238738738738743 	299.9999999999223 	2.913028284014878e-12 	101324.9999999909
-0.1213713713713717 	299.9999999999765 	1.221821080103686e-12 	101324.9999999912
-0.1188688688688693 	300.0000000000044 	3.335027403767161e-12 	101324.9999999911
-0.1163663663663668 	299.9999999999051 	1.780677068588404e-12 	101324.999999991
-0.1138638638638643 	299.9999999999922 	4.090306872392121e-12 	101324.9999999912
-0.1113613613613618 	299.9999999999824 	2.339722933886355e-12 	101324.9999999913
-0.1088588588588592 	299.9999999999729 	4.543725984551739e-12 	101324.9999999912
-0.1063563563563568 	299.9999999999456 	1.343321060950642e-12 	101324.9999999912
-0.1038538538538543 	299.9999999999724 	5.111512109764602e-12 	101324.9999999911
-0.1013513513513517 	300.0000000000157 	1.171420012195954e-12 	101324.9999999911
-0.09884884884884926 	299.9999999999313 	5.345570992858304e-12 	101324.9999999911
-0.09634634634634676 	299.9999999998917 	2.31029209339879e-12 	101324.9999999911
-0.09384384384384425 	299.9999999999254 	4.416586719218707e-12 	101324.9999999909
-0.09134134134134177 	300.0000000000283 	2.731451839261887e-12 	101324.9999999908
-0.08883883883883925 	300.0000000000052 	4.544386425694252e-12 	101324.9999999907
-0.08633633633633674 	299.9999999999525 	2.73876177964087e-12 	101324.9999999906
-0.08383383383383426 	300.0000000000093 	3.146452936609664e-12 	101324.9999999903
-0.08133133133133173 	299.9999999999612 	2.497655565776403e-12 	101324.9999999908
-0.07882882882882926 	299.9999999998811 	1.995341869289812e-12 	101324.999999991
-0.07632632632632676 	299.9999999999564 	1.323368649613605e-12 	101324.9999999911
-0.07382382382382424 	299.999999999895 	9.731628993361513e-13 	101324.9999999912
-0.07132132132132173 	300.0000000000154 	3.961771835888723e-13 	101324.9999999913
-0.06881881881881925 	299.9999999999619 	1.090895589442861e-12 	101324.9999999916
-0.06631631631631671 	299.9999999998948 	5.296913987547054e-13 	101324.9999999917
-0.06381381381381425 	299.9999999999546 	7.355707454965269e-13 	101324.9999999918
-0.06131131131131173 	299.999999999957 	9.837114882068855e-13 	101324.999999992
-0.05880880880880923 	299.9999999999124 	5.054219068230234e-13 	101324.999999992
-0.05630630630630672 	299.9999999999675 	2.885834468331169e-13 	101324.9999999921
-0.05380380380380424 	300.0000000000153 	3.164535885052088e-14 	101324.9999999922
-0.05130130130130173 	300.0000000000123 	6.142478585233926e-13 	101324.999999992
-0.04879879879879922 	299.9999999999405 	8.21347644973798e-13 	101324.9999999921
-0.04629629629629672 	299.9999999999276 	6.66084410697206e-13 	101324.9999999921
-0.04379379379379422 	299.9999999999086 	1.394567775760026e-12 	101324.9999999922
-0.04129129129129173 	299.9999999999791 	1.427809532041146e-12 	101324.9999999918
-0.03878878878878922 	299.9999999999872 	1.43914620939115e-12 	101324.9999999916
-0.03628628628628671 	299.9999999999836 	9.89887297938803e-13 	101324.9999999913
-0.03378378378378422 	299.9999999999167 	1.334277506879767e-12 	101324.9999999911
-0.03128128128128172 	299.9999999999617 	9.940304414157369e-14 	101324.9999999912
-0.02877877877877922 	299.9999999999657 	3.645754989007624e-13 	101324.9999999915
-0.0262762762762767 	299.9999999998948 	4.027957380946028e-13 	101324.9999999914
-0.02377377377377422 	300.000000000023 	3.81265413435604e-13 	101324.9999999914
-0.0212712712712717 	299.9999999999016 	2.86100807223387e-14 	101324.9999999914
-0.01876876876876921 	299.9999999999654 	8.542373617716783e-14 	101324.9999999913
-0.01626626626626671 	300.0000000000162 	1.463136959226436e-12 	101324.9999999912
-0.0137637637637642 	299.9999999999646 	1.486406104122555e-12 	101324.999999991
-0.0112612612612617 	300.0000000000185 	1.301627823751683e-12 	101324.9999999908
-0.008758758758759198 	299.9999999999977 	7.636272653464302e-13 	101324.9999999909
-0.006256256256256697 	299.999999999877 	7.936032947762987e-13 	101324.9999999911
-0.003753753753754195 	299.9999999999547 	4.201987551596574e-13 	101324.9999999913
-0.001251251251251693 	299.9999999999227 	4.329118702566173e-13 	101324.9999999913
0.00125125125125081 	299.9999999999521 	4.949084344478478e-13 	101324.9999999914
0.003753753753753312 	299.9999999999615 	3.381379837642989e-13 	101324.9999999916
0.006256256256255817 	299.999999999885 	2.735567193677118e-13 	101324.9999999915
0.008758758758758317 	299.9999999999908 	8.98928179915275e-14 	101324.9999999916
0.01126126126126082 	300.0000000000038 	1.685383500915873e-13 	101324.9999999919
0.01376376376376332 	299.9999999999694 	3.802581507955829e-13 	101324.9999999921
0.01626626626626582 	300.0000000000115 	4.360449389536465e-14 	101324.999999992
0.01876876876876833 	299.9999999999519 	1.545158816495904e-13 	101324.9999999916
0.02127127127127083 	299.9999999999653 	3.712992585523385e-14 	101324.9999999915
0.02377377377377332 	299.9999999999921 	8.296533092581657e-14 	101324.9999999916
0.02627627627627583 	299.9999999998984 	4.854258047006819e-13 	101324.9999999916
0.02877877877877833 	300.0000000000098 	2.626366809965588e-13 	101324.9999999917
0.03128128128128083 	299.9999999999492 	2.14690517512718e-14 	101324.9999999919
0.03378378378378333 	299.9999999998976 	8.281485303424267e-13 	101324.9999999918
0.03628628628628584 	299.9999999999655 	4.883208504673186e-13 	101324.9999999919
0.03878878878878834 	299.9999999999816 	8.146323090004547e-13 	101324.9999999917
0.04129129129129084 	299.9999999999788 	8.625917004791796e-13 	101324.9999999917
0.04379379379379333 	299.9999999999469 	1.423945884256677e-12 	101324.9999999916
0.04629629629629585 	299.9999999998849 	9.227739089668737e-13 	101324.9999999913
0.04879879879879834 	299.9999999999561 	1.477774824174076e-12 	101324.999999991
0.05130130130130085 	300.0000000000136 	8.690056932218146e-13 	101324.9999999906
0.05380380380380335 	300.0000000000204 	4.328020718675629e-13 	101324.9999999906
0.05630630630630584 	299.9999999999941 	1.276375247188355e-14 	101324.9999999911
0.05880880880880836 	299.9999999999191 	7.934360273238147e-14 	101324.9999999909
0.06131131131131085 	299.9999999999641 	2.102496476949823e-13 	101324.9999999909
0.06381381381381336 	299.9999999999608 	2.286841135280716e-13 	101324.9999999908
0.06631631631631586 	299.9999999998869 	3.657909235686417e-13 	101324.9999999909
0.06881881881881835 	299.9999999999517 	1.078105823181269e-12 	101324.9999999906
0.07132132132132088 	299.9999999999764 	1.081905594569977e-12 	101324.9999999907
0.07382382382382337 	299.9999999998957 	2.179066440538097e-12 	101324.9999999907
0.07632632632632587 	299.9999999999647 	3.037483511011004e-12 	101324.9999999907
0.07882882882882837 	299.9999999999333 	3.844734122816173e-12 	101324.9999999908
0.08133133133133086 	299.9999999999725 	4.253548940622723e-12 	101324.9999999909
0.08383383383383337 	299.9999999999848 	3.668147555009481e-12 	101324.9999999912
0.08633633633633589 	299.9999999999027 	3.191790026651099e-12 	101324.9999999916
0.08883883883883838 	300.0000000000061 	2.36446712721654e-12 	101324.9999999918
0.09134134134134086 	299.9999999999785 	1.603428135676191e-12 	101324.9999999914
0.09384384384384339 	299.9999999998922 	2.417062691641909e-12 	101324.9999999913
0.09634634634634588 	299.9999999999691 	2.315429012366711e-12 	101324.9999999914
0.09884884884884838 	299.999999999978 	2.658712049028325e-12 	101324.9999999915
0.1013513513513509 	300.0000000000173 	3.924614294095151e-12 	101324.9999999913
0.1038538538538534 	299.99999999996 	4.216845487639916e-12 	101324.9999999911
0.1063563563563559 	300.0000000000093 	3.901268523877091e-12 	101324.9999999911
0.1088588588588584 	300.0000000000278 	2.607423956407547e-12 	101324.9999999911
0.1113613613613609 	299.9999999999145 	1.999964461199049e-12 	101324.9999999912
0.1138638638638634 	299.9999999999411 	1.119790753730869e-12 	101324.9999999912
0.1163663663663659 	299.9999999999503 	1.268890805196378e-12 	101324.9999999911
0.1188688688688684 	299.9999999999744 	1.849355143734564e-12 	101324.999999991
0.1213713713713709 	300.0000000000004 	1.887693369701652e-12 	101324.9999999912
0.1238738738738734 	299.9999999999257 	2.05676122247408e-12 	101324.9999999912
0.1263763763763759 	299.999999999983 	2.469959383827386e-12 	101324.999999991
0.1288788788788784 	299.9999999999842 	3.336143747562469e-12 	101324.9999999913
0.1313813813813809 	299.9999999999822 	3.967663383940543e-12 	101324.9999999914
0.1338838838838834 	299.9999999999818 	4.557480934841136e-12 	101324.9999999914
0.1363863863863859 	300.0000000000147 	3.803960055198996e-12 	101324.9999999914
0.1388888888888884 	300.0000000000463 	3.853785136251205e-12 	101324.9999999912
0.1413913913913909 	300.0000000000092 	2.916875073288678e-12 	101324.9999999913
0.1438938938938934 	299.999999999993 	3.340723058909971e-12 	101324.9999999908
0.1463963963963959 	299.999999999952 	1.782977601312848e-12 	101324.9999999906
0.1488988988988985 	299.9999999999082 	3.038272084217892e-12 	101324.9999999904
0.1514014014014009 	299.9999999999691 	6.219923209357631e-13 	101324.9999999905
0.1539039039039035 	299.9999999999644 	2.593637915799863e-12 	101324.9999999905
0.1564064064064059 	299.9999999999235 	4.93887069527642e-13 	101324.9999999903
0.1589089089089084 	299.9999999999741 	3.254044238228431e-12 	101324.9999999903
0.1614114114114109 	299.9999999999698 	8.068936924514118e-13 	101324.9999999901
0.1639139139139134 	299.9999999999036 	3.273530249456846e-12 	101324.9999999901
0.166416416416416 	300.0000000000052 	3.057068320315437e-12 	101324.9999999903
0.1689189189189185 	300.0000000000318 	3.47059470398056e-12 	101324.9999999907
0.1714214214214209 	300.0000000000027 	4.507901783193675e-12 	101324.9999999905
0.1739239239239235 	299.9999999999827 	2.394673685403065e-12 	101324.9999999908
0.1764264264264259 	299.9999999999716 	3.78191318599053e-12 	101324.9999999908
0.1789289289289284 	300.0000000000003 	1.193593890297412e-12 	101324.9999999908
0.181431431431431 	299.9999999999593 	3.532423823835095e-12 	101324.9999999909
0.1839339339339334 	299.9999999999693 	1.448509889170253e-12 	101324.9999999908
0.186436436436436 	299.9999999999303 	3.105729547204643e-12 	101324.9999999908
0.1889389389389385 	299.9999999999764 	2.706978060865509e-12 	101324.9999999911
0.191441441441441 	299.9999999999717 	2.408240114473344e-12 	101324.9999999908
0.1939439439439434 	299.9999999999223 	2.698751909724437e-12 	101324.9999999908
0.196446446446446 	299.9999999999465 	9.403792556044851e-13 	101324.9999999911
0.1989489489489485 	299.99999999996 	2.940623273844121e-12 	101324.9999999912
0.2014514514514509 	299.999999999982 	8.298757573417902e-13 	101324.9999999913
0.2039539539539535 	299.999999999996 	2.171702171465386e-12 	101324.9999999912
0.2064564564564559 	299.9999999999529 	1.601362181666173e-12 	101324.9999999909
0.2089589589589585 	299.9999999999862 	2.685919952038928e-12 	101324.9999999909
0.211461461461461 	299.999999999929 	3.339880682223678e-12 	101324.9999999908
0.2139639639639635 	299.9999999999744 	3.419407933376322e-12 	101324.9999999911
0.2164664664664659 	300.0000000000007 	4.914051484931027e-12 	101324.9999999908
0.2189689689689684 	300.000000000001 	2.603229389157502e-12 	101324.9999999912
0.221471471471471 	299.9999999999956 	4.320878041198027e-12 	101324.999999991
0.2239739739739735 	299.9999999999549 	1.721894802203963e-12 	101324.9999999908
0.226476476476476 	299.9999999999762 	3.418101967700706e-12 	101324.9999999907
0.2289789789789785 	299.9999999999902 	3.449763339863845e-12 	101324.9999999905
0.231481481481481 	299.9999999999885 	4.0221011806247e-12 	101324.9999999905
0.2339839839839835 	299.9999999999854 	4.416358831560369e-12 	101324.9999999901
0.236486486486486 	300.0000000000307 	3.507183819795815e-12 	101324.99999999
0.2389889889889885 	300.0000000000088 	4.498348013919698e-12 	101324.9999999897
0.241491491491491 	299.9999999999167 	1.661227625467211e-12 	101324.9999999899
0.2439939939939935 	299.9999999999781 	3.593346710672888e-12 	101324.9999999898
0.246496496496496 	299.9999999999934 	1.084765813732943e-12 	101324.9999999895
0.2489989989989985 	300.0000000000392 	2.272887044947613e-12 	101324.9999999897
0.251501501501501 	300.0000000000339 	6.460451062978553e-13 	101324.9999999901
0.2540040040040035 	299.9999999999935 	2.183758258864031e-13 	101324.9999999902
0.256506506506506 	300.0000000000328 	1.279587633690098e-12 	101324.9999999903
0.2590090090090086 	299.9999999999117 	6.26180467582318e-13 	101324.9999999907
0.261511511511511 	299.9999999999974 	2.83965080705461e-12 	101324.9999999908
0.2640140140140135 	299.9999999999875 	8.612689389958281e-13 	101324.9999999907
0.2665165165165161 	299.99999999993 	2.479091172060781e-12 	101324.9999999909
0.2690190190190185 	300.0000000000153 	1.347699229685987e-12 	101324.9999999911
0.271521521521521 	300.0000000000172 	2.077938817076636e-12 	101324.9999999911
0.2740240240240235 	300.00000000002 	2.370365850859354e-12 	101324.999999991
0.276526526526526 	300.0000000000103 	1.373744624003405e-12 	101324.9999999907
0.2790290290290286 	299.9999999999422 	2.456518515508482e-12 	101324.9999999902
0.281531531531531 	299.9999999999263 	5.03166562297053e-13 	101324.99999999
0.2840340340340335 	299.9999999999812 	1.816260854210346e-12 	101324.9999999898
0.2865365365365361 	299.9999999999596 	2.222465930619065e-13 	101324.9999999895
0.2890390390390385 	299.9999999999954 	1.109208109843337e-12 	101324.9999999898
0.291541541541541 	299.9999999999948 	1.139770759666881e-12 	101324.9999999899
0.2940440440440436 	299.9999999999864 	3.13442856734489e-13 	101324.9999999902
0.296546546546546 	299.9999999999887 	1.96727712376484e-12 	101324.9999999902
0.2990490490490486 	299.9999999999383 	1.171612681485159e-12 	101324.9999999904
0.3015515515515511 	300.000000000037 	3.583759380958136e-12 	101324.9999999904
0.3040540540540535 	299.9999999999964 	2.351319716949293e-12 	101324.9999999906
0.3065565565565562 	299.9999999999976 	4.37016274842807e-12 	101324.9999999907
0.3090590590590585 	299.9999999999907 	2.406180460264974e-12 	101324.9999999907
0.3115615615615611 	299.9999999999401 	3.144062644474666e-12 	101324.9999999905
0.3140640640640635 	300.0000000000118 	1.3018412401124e-12 	101324.9999999905
0.316566566566566 	299.9999999999942 	2.328325588246937e-12 	101324.9999999907
0.3190690690690687 	299.9999999999534 	1.693266281271531e-12 	101324.9999999906
0.3215715715715711 	300.0000000000167 	1.793323679898228e-12 	101324.9999999905
0.3240740740740735 	299.9999999999969 	1.534678789415339e-12 	101324.9999999904
0.326576576576576 	299.9999999998934 	1.293480803565341e-12 	101324.9999999902
0.3290790790790786 	300.0000000000084 	6.454462293829e-13 	101324.99999999
0.3315815815815811 	300.0000000000363 	5.546939693712639e-13 	101324.9999999899
0.3340840840840836 	299.9999999999851 	7.66131541542804e-13 	101324.9999999898
0.3365865865865861 	300.0000000000574 	1.08525181036946e-12 	101324.9999999897
0.3390890890890886 	300.0000000000502 	4.788271208269139e-13 	101324.9999999898
0.3415915915915911 	299.9999999999995 	9.971304197228291e-13 	101324.99999999
0.3440940940940935 	299.9999999999515 	1.048906705274043e-12 	101324.9999999903
0.3465965965965962 	300.0000000000404 	9.364318220569997e-13 	101324.9999999905
0.3490990990990985 	300.0000000000306 	2.286991588689465e-13 	101324.9999999904
0.3516016016016011 	299.9999999999856 	2.001146184920359e-13 	101324.9999999905
0.3541041041041035 	300.0000000000056 	2.271519866438436e-13 	101324.9999999906
0.3566066066066061 	299.9999999999571 	1.382922381244028e-12 	101324.9999999904
0.3591091091091085 	299.9999999999162 	1.082189762012372e-12 	101324.9999999902
0.3616116116116112 	299.9999999999382 	1.53893982626338e-12 	101324.9999999903
0.3641141141141137 	299.9999999999301 	2.32310976868276e-12 	101324.9999999903
0.3666166166166161 	299.9999999999226 	2.293417243532693e-12 	101324.9999999902
0.3691191191191185 	300.0000000000419 	3.350797684933542e-12 	101324.9999999903
0.371621621621621 	300.0000000000223 	2.049377356770902e-12 	101324.9999999901
0.3741241241241237 	300.0000000000507 	2.512720273487547e-12 	101324.9999999902
0.3766266266266261 	300.000000000031 	1.598712718365303e-12 	101324.9999999903
0.3791291291291286 	299.9999999999834 	1.188856961315459e-12 	101324.9999999902
0.3816316316316311 	299.9999999999141 	2.397952599228287e-12 	101324.9999999901
0.3841341341341336 	300.00000000001 	8.130413096737061e-13 	101324.99999999
0.3866366366366362 	299.9999999999956 	2.135977361815864e-12 	101324.9999999901
0.3891391391391387 	299.9999999999536 	4.825767120421438e-13 	101324.99999999
0.391641641641641 	299.9999999999886 	1.461001753785616e-12 	101324.99999999
0.3941441441441436 	300.000000000003 	8.025385597642168e-13 	101324.9999999897
0.3966466466466462 	299.9999999999948 	1.328242631073975e-12 	101324.9999999896
0.3991491491491486 	299.9999999999451 	5.839137072497342e-13 	101324.9999999898
0.4016516516516512 	299.9999999999111 	2.103528492704699e-12 	101324.9999999895
0.4041541541541536 	299.99999999995 	5.434151458239594e-13 	101324.9999999895
0.4066566566566561 	299.9999999999468 	1.740342300795723e-12 	101324.9999999898
0.4091591591591587 	299.9999999999837 	4.090283301150538e-13 	101324.9999999897
0.4116616616616612 	299.9999999999914 	2.11539558086307e-12 	101324.9999999897
0.4141641641641635 	300.0000000000426 	1.681805417650807e-12 	101324.99999999
0.4166666666666662 	299.999999999993 	1.610004438350752e-12 	101324.9999999899
0.4191691691691687 	299.9999999999399 	2.208837396035601e-12 	101324.9999999899
0.421671671671671 	300.0000000000118 	1.756055580166077e-12 	101324.9999999898
0.4241741741741737 	299.9999999999732 	2.59023240507737e-12 	101324.9999999898
0.4266766766766761 	299.9999999999509 	2.442497246947562e-12 	101324.9999999896
0.4291791791791785 	300.0000000000201 	3.400691672118135e-12 	101324.9999999894
0.4316816816816812 	300.0000000000091 	3.055820201827769e-12 	101324.9999999892
0.4341841841841836 	299.9999999999841 	2.77000558170772e-12 	101324.9999999894
0.4366866866866862 	299.9999999999147 	1.8305123198786e-12 	101324.9999999899
0.4391891891891885 	299.9999999999853 	2.325436001322686e-12 	101324.9999999901
0.4416916916916913 	299.9999999999792 	1.015823740825409e-12 	101324.9999999902
0.4441941941941936 	299.9999999999862 	2.01156233190876e-12 	101324.99999999
0.4466966966966961 	299.9999999999139 	5.374066477502859e-13 	101324.9999999901
0.4491991991991987 	299.9999999999757 	1.192423116613282e-12 	101324.9999999899
0.4517017017017012 	299.9999999999757 	4.580466396401982e-13 	101324.9999999899
0.4542042042042035 	299.999999999996 	2.833327902942298e-13 	101324.9999999897
0.4567067067067062 	299.9999999999952 	7.707629191990962e-13 	101324.9999999896
0.4592092092092087 	299.9999999999259 	5.246787779913113e-13 	101324.9999999896
0.4617117117117112 	300.0000000000251 	5.477228228422433e-13 	101324.9999999897
0.4642142142142137 	299.9999999999619 	2.42746738614864e-13 	101324.9999999899
0.4667167167167162 	299.9999999999889 	1.194022227324134e-13 	101324.99999999
0.4692192192192187 	299.9999999999592 	1.222651927121388e-13 	101324.9999999899
0.4717217217217212 	300.0000000000178 	1.985056211782684e-13 	101324.9999999901
0.4742242242242236 	299.9999999999632 	5.529424554725026e-13 	101324.9999999902
0.4767267267267262 	299.999999999963 	4.923490498412853e-13 	101324.9999999901
0.4792292292292287 	300.0000000000136 	5.087159961666107e-13 	101324.9999999899
0.4817317317317312 	300.0000000000334 	1.14410312466081e-12 	101324.9999999901
0.4842342342342336 	299.9999999999831 	1.335556055744074e-12 	101324.9999999901
0.4867367367367362 	299.9999999999529 	2.694795199835363e-12 	101324.9999999903
0.4892392392392387 	300.0000000000315 	1.896835977546709e-12 	101324.9999999904
0.4917417417417412 	300.0000000000068 	2.808076714134038e-12 	101324.9999999905
0.4942442442442437 	299.9999999999107 	1.749033489726932e-12 	101324.9999999905
0.4967467467467462 	299.9999999999299 	3.005592974983887e-12 	101324.9999999907
0.4992492492492487 	299.9999999999221 	6.933215517650687e-13 	101324.9999999907
0.5017517517517511 	299.9999999999561 	1.693979073882412e-12 	101324.9999999905
0.5042542542542537 	299.9999999999677 	1.281945544604088e-12 	101324.9999999904
0.5067567567567562 	299.9999999999478 	1.367555536368901e-12 	101324.9999999903
0.5092592592592589 	299.9999999999709 	1.630030945492704e-12 	101324.9999999904
0.5117617617617611 	299.9999999999571 	1.128037884236757e-12 	101324.9999999905
0.5142642642642637 	299.9999999999879 	1.67755773293319e-12 	101324.9999999906
0.5167667667667663 	299.9999999999721 	2.964503380520387e-12 	101324.9999999907
0.5192692692692688 	299.9999999999191 	2.261347274901993e-12 	101324.9999999907
0.5217717717717714 	299.9999999999399 	4.474189068962497e-12 	101324.9999999906
0.5242742742742736 	299.9999999999396 	1.66529685036643e-12 	101324.9999999904
0.5267767767767763 	299.999999999958 	3.728569686922752e-12 	101324.9999999904
0.5292792792792789 	299.9999999999391 	1.815701791615647e-12 	101324.9999999904
0.5317817817817813 	299.9999999999071 	1.989295193346103e-12 	101324.9999999903
0.5342842842842837 	300.0000000000181 	1.20271866761976e-12 	101324.9999999904
0.5367867867867864 	300.0000000000029 	1.534502239854756e-12 	101324.9999999905
0.5392892892892888 	299.9999999999608 	1.003591656869318e-12 	101324.9999999902
0.5417917917917912 	300.0000000000061 	1.980878718498185e-12 	101324.99999999
0.5442942942942938 	299.9999999999846 	1.143401856572628e-12 	101324.9999999901
0.5467967967967964 	299.9999999999459 	2.716243750163518e-12 	101324.9999999903
0.5492992992992988 	299.9999999999436 	1.776993812757503e-12 	101324.9999999904
0.5518018018018012 	299.9999999999443 	2.519746543051651e-12 	101324.9999999906
0.5543043043043039 	300.0000000000227 	9.060993657962107e-13 	101324.9999999905
0.5568068068068063 	299.9999999999904 	1.345649098732472e-12 	101324.9999999906
0.5593093093093087 	299.9999999999082 	6.531027899766227e-13 	101324.9999999907
0.5618118118118114 	299.9999999999595 	1.29858055654106e-12 	101324.9999999906
0.5643143143143137 	299.9999999999447 	4.075984360866001e-13 	101324.9999999905
0.5668168168168163 	299.9999999999907 	8.258882005406479e-13 	101324.9999999904
0.5693193193193188 	300.0000000000322 	6.568714783219497e-13 	101324.9999999903
0.5718218218218213 	300.0000000000279 	1.084738314580262e-12 	101324.9999999905
0.5743243243243239 	300.0000000000106 	1.89379980379031e-12 	101324.9999999904
0.5768268268268262 	300.0000000000059 	1.889227002813364e-12 	101324.9999999904
0.5793293293293288 	299.9999999999452 	3.134909916913302e-12 	101324.9999999905
0.5818318318318314 	299.999999999921 	2.297069183685974e-12 	101324.9999999907
0.5843343343343338 	299.9999999999785 	3.784013548974247e-12 	101324.9999999907
0.5868368368368363 	299.9999999999735 	1.807554484635835e-12 	101324.9999999908
0.5893393393393387 	299.999999999945 	3.075116980282576e-12 	101324.999999991
0.5918418418418413 	299.9999999999435 	1.21636333507027e-12 	101324.999999991
0.5943443443443439 	300.0000000000178 	2.870454447687738e-12 	101324.9999999909
0.5968468468468463 	300.0000000000182 	1.411721070561114e-12 	101324.9999999909
0.5993493493493487 	300.000000000034 	2.749442033462067e-12 	101324.9999999911
0.6018518518518514 	299.9999999999799 	1.427862618974147e-12 	101324.9999999912
0.6043543543543537 	299.9999999999977 	2.815874288188462e-12 	101324.9999999912
0.6068568568568564 	299.9999999999856 	1.233963104606e-12 	101324.9999999914
0.6093593593593587 	299.9999999999375 	2.128844665695115e-12 	101324.9999999914
0.6118618618618614 	299.9999999999299 	1.220022685377145e-12 	101324.9999999915
0.6143643643643638 	300.0000000000202 	2.441097090664831e-12 	101324.9999999916
0.6168668668668662 	299.9999999999929 	1.518310528595863e-12 	101324.9999999917
0.6193693693693688 	299.9999999999582 	3.229721006763149e-12 	101324.9999999917
0.6218718718718714 	299.9999999999683 	2.048951544924618e-12 	101324.9999999917
0.6243743743743737 	299.9999999999417 	4.302020032515879e-12 	101324.9999999916
0.6268768768768762 	299.9999999999293 	2.98996636424934e-12 	101324.9999999917
0.629379379379379 	299.9999999999549 	3.844362484636273e-12 	101324.9999999916
0.6318818818818812 	299.9999999999825 	2.91582627774263e-12 	101324.9999999914
0.6343843843843838 	300.00000000002 	2.63211652232413e-12 	101324.9999999916
0.6368868868868864 	299.9999999999861 	2.726244991028158e-12 	101324.9999999916
0.6393893893893888 	299.9999999999256 	1.35173684849501e-12 	101324.9999999916
0.6418918918918912 	300.0000000000035 	4.163190640833148e-12 	101324.9999999916
0.6443943943943939 	299.9999999999766 	2.309577254685374e-12 	101324.9999999919
0.6468968968968963 	299.9999999999857 	4.225338388940317e-12 	101324.9999999921
0.6493993993993988 	299.9999999999739 	2.410833474097722e-12 	101324.9999999924
0.6519019019019012 	299.9999999999736 	3.632872973301764e-12 	101324.9999999922
0.6544044044044038 	299.9999999999042 	1.718506349736741e-12 	101324.999999992
0.6569069069069065 	299.9999999999525 	4.463351944875421e-12 	101324.999999992
0.6594094094094087 	299.999999999967 	2.502191371940543e-12 	101324.9999999923
0.6619119119119113 	299.9999999999571 	4.585858295008147e-12 	101324.9999999925
0.664414414414414 	300.0000000000064 	2.569370338288913e-12 	101324.9999999923
0.6669169169169162 	300.0000000000203 	3.684947924110557e-12 	101324.9999999923
0.6694194194194188 	299.999999999987 	2.168520138520263e-12 	101324.9999999924
0.6719219219219214 	299.9999999999245 	3.502981927999307e-12 	101324.9999999924
0.674424424424424 	299.9999999999744 	2.584881804674545e-12 	101324.9999999924
0.6769269269269262 	299.9999999999267 	3.598807891593991e-12 	101324.9999999924
0.679429429429429 	300.0000000000062 	2.449994401492863e-12 	101324.9999999921
0.6819319319319311 	299.9999999999826 	2.458359396343084e-12 	101324.9999999921
0.6844344344344341 	299.9999999999949 	1.781330999722744e-12 	101324.9999999924
0.686936936936936 	299.9999999999908 	2.760886005544839e-12 	101324.9999999926
0.6894394394394392 	299.9999999999872 	2.122501336281201e-12 	101324.9999999926
0.6919419419419413 	299.9999999999871 	2.204006839357731e-12 	101324.9999999928
0.694444444444444 	299.9999999999338 	2.461807864951406e-12 	101324.999999993
0.6969469469469463 	299.9999999999262 	2.837563084002516e-12 	101324.999999993
0.6994494494494489 	299.9999999999269 	3.862700248095499e-12 	101324.9999999929
0.7019519519519515 	299.9999999999894 	2.744226390369612e-12 	101324.9999999928
0.7044544544544538 	299.9999999999538 	3.892714747787587e-12 	101324.9999999927
0.7069569569569564 	299.9999999999952 	2.038803146927871e-12 	101324.9999999926
0.7094594594594589 	299.9999999999662 	4.343019392774038e-12 	101324.9999999925
0.7119619619619615 	299.9999999999172 	2.68174985747292e-12 	101324.9999999922
0.7144644644644638 	299.9999999999549 	4.47117347204917e-12 	101324.999999992
0.7169669669669665 	299.9999999999243 	3.730618502731894e-12 	101324.9999999919
0.7194694694694688 	299.9999999999927 	5.278011797380349e-12 	101324.999999992
0.7219719719719715 	299.9999999999852 	4.624650886331363e-12 	101324.9999999922
0.7244744744744737 	300.0000000000037 	4.766235563082613e-12 	101324.9999999925
0.7269769769769764 	299.999999999996 	4.854518037861155e-12 	101324.999999993
0.7294794794794791 	299.9999999999867 	3.916158876908139e-12 	101324.9999999935
0.7319819819819813 	299.9999999999784 	5.634024105827556e-12 	101324.9999999935
0.7344844844844839 	299.9999999999239 	4.561171776664772e-12 	101324.9999999936
0.7369869869869864 	299.9999999999486 	5.953439725949425e-12 	101324.9999999936
0.739489489489489 	299.9999999999393 	5.404802448336548e-12 	101324.9999999937
0.7419919919919914 	299.9999999999259 	5.516759156507849e-12 	101324.9999999936
0.7444944944944939 	299.9999999999812 	6.080734992957355e-12 	101324.9999999935
0.7469969969969963 	299.9999999999708 	4.836975954060565e-12 	101324.9999999935
0.7494994994994989 	299.9999999999415 	6.430973404775507e-12 	101324.9999999933
0.7520020020020015 	299.9999999999697 	3.702372105960575e-12 	101324.9999999931
0.7545045045045039 	299.9999999999662 	6.041970314400136e-12 	101324.9999999933
0.7570070070070062 	299.9999999999407 	4.016425821797683e-12 	101324.9999999936
0.7595095095095092 	299.9999999999312 	6.128000487643536e-12 	101324.9999999939
0.7620120120120112 	300.0000000000098 	5.459743087709907e-12 	101324.9999999939
0.7645145145145138 	299.9999999999908 	5.913534989386612e-12 	101324.9999999937
0.7670170170170165 	299.9999999999353 	6.762942645394978e-12 	101324.9999999934
0.7695195195195191 	299.9999999999263 	6.023681548964848e-12 	101324.9999999933
0.7720220220220213 	299.9999999999428 	7.677373980780076e-12 	101324.9999999934
0.7745245245245239 	299.9999999999377 	6.089948078845731e-12 	101324.9999999932
0.7770270270270263 	299.9999999999705 	7.674693520555919e-12 	101324.9999999934
0.779529529529529 	299.9999999999842 	6.236999806047327e-12 	101324.9999999935
0.7820320320320313 	299.9999999999698 	7.19369112868921e-12 	101324.9999999935
0.784534534534534 	300.0000000000056 	7.320804715322997e-12 	101324.9999999936
0.7870370370370364 	299.9999999999934 	7.006165966124267e-12 	101324.9999999937
0.7895395395395389 	299.9999999999766 	7.898627062599763e-12 	101324.9999999937
0.7920420420420413 	299.9999999999798 	7.291920355067189e-12 	101324.9999999938
0.794544544544544 	299.9999999999882 	8.72746337480597e-12 	101324.999999994
0.7970470470470463 	300.0000000000077 	5.990623249448944e-12 	101324.9999999943
0.799549549549549 	299.9999999999904 	8.387543553835058e-12 	101324.9999999944
0.8020520520520515 	299.9999999999898 	5.648090495559338e-12 	101324.9999999944
0.8045545545545539 	299.9999999999478 	7.22309251522384e-12 	101324.9999999945
0.8070570570570563 	299.9999999999804 	6.133654291602715e-12 	101324.9999999944
0.8095595595595589 	299.9999999999577 	6.953061354332346e-12 	101324.9999999945
0.8120620620620614 	299.9999999999418 	7.249624342983942e-12 	101324.9999999945
0.8145645645645638 	300.0000000000005 	7.512420042146324e-12 	101324.9999999945
0.8170670670670666 	299.9999999999983 	7.903626484110369e-12 	101324.9999999941
0.8195695695695689 	299.999999999979 	6.100795510433406e-12 	101324.9999999939
0.8220720720720714 	299.9999999999423 	8.164655772717782e-12 	101324.999999994
0.8245745745745739 	299.9999999999943 	6.115933840803623e-12 	101324.999999994
0.8270770770770765 	299.999999999974 	7.840256267632563e-12 	101324.9999999943
0.8295795795795788 	299.99999999995 	7.033610799020203e-12 	101324.9999999947
0.8320820820820815 	300.0000000000216 	8.067872783882309e-12 	101324.999999995
0.834584584584584 	300.0000000000135 	7.675681345315509e-12 	101324.9999999952
0.8370870870870865 	299.9999999999726 	7.67413968741756e-12 	101324.9999999954
0.8395895895895891 	299.9999999999352 	8.68748035452231e-12 	101324.9999999954
0.8420920920920915 	299.9999999999503 	8.398235670787772e-12 	101324.9999999955
0.844594594594594 	299.9999999999438 	8.977165570399078e-12 	101324.9999999957
0.8470970970970964 	299.99999999995 	9.136583040506993e-12 	101324.9999999955
0.8495995995995991 	299.9999999999898 	8.715567667224907e-12 	101324.9999999954
0.8521021021021015 	299.9999999999798 	8.92886242207575e-12 	101324.9999999954
0.8546046046046039 	299.9999999999732 	8.322084613156406e-12 	101324.9999999953
0.8571071071071066 	299.9999999999966 	9.159093593682976e-12 	101324.9999999951
0.8596096096096089 	299.9999999999635 	7.320598191517731e-12 	101324.9999999952
0.8621121121121116 	299.9999999999379 	1.01664228605433e-11 	101324.9999999951
0.8646146146146139 	299.9999999999997 	7.763210683728363e-12 	101324.9999999952
0.8671171171171166 	299.9999999999782 	9.248994197022972e-12 	101324.9999999953
0.8696196196196189 	299.9999999999451 	8.538632734233645e-12 	101324.9999999952
0.8721221221221216 	299.9999999999745 	9.379155938377791e-12 	101324.9999999951
0.874624624624624 	300.0000000000036 	9.235466688186688e-12 	101324.9999999951
0.8771271271271264 	299.9999999999977 	9.305512269404708e-12 	101324.9999999951
0.879629629629629 	299.9999999999997 	1.025522605107883e-11 	101324.9999999949
0.8821321321321317 	299.9999999999852 	8.913674456771767e-12 	101324.9999999949
0.8846346346346339 	299.9999999999297 	1.084265254659861e-11 	101324.9999999947
0.8871371371371364 	299.9999999999572 	8.358473268467563e-12 	101324.9999999948
0.8896396396396391 	299.9999999999544 	1.029004612431936e-11 	101324.9999999949
0.8921421421421414 	299.9999999999583 	9.81039775057052e-12 	101324.999999995
0.8946446446446441 	299.999999999986 	1.095127043367508e-11 	101324.9999999951
0.8971471471471464 	300.0000000000045 	1.120783044547642e-11 	101324.9999999951
0.8996496496496489 	299.9999999999818 	1.140509135847875e-11 	101324.9999999953
0.9021521521521517 	299.9999999999642 	1.23388744044215e-11 	101324.9999999954
0.9046546546546541 	299.9999999999883 	1.087653927523672e-11 	101324.9999999953
0.9071571571571564 	299.9999999999462 	1.118148274653741e-11 	101324.9999999952
0.9096596596596589 	299.999999999947 	1.117146888578667e-11 	101324.9999999953
0.9121621621621616 	300.0000000000077 	1.153381246034531e-11 	101324.9999999953
0.9146646646646639 	299.9999999999828 	1.112816360538514e-11 	101324.9999999953
0.9171671671671666 	299.9999999999501 	1.067278142085073e-11 	101324.9999999954
0.9196696696696689 	300.0000000000004 	1.110722601848063e-11 	101324.9999999956
0.9221721721721714 	300.0000000000049 	8.76263828292022e-12 	101324.9999999957
0.9246746746746741 	299.9999999999459 	1.084427271914512e-11 	101324.9999999958
0.9271771771771765 	299.9999999999515 	8.419717496655438e-12 	101324.999999996
0.9296796796796791 	299.9999999999907 	1.000170599978186e-11 	101324.9999999962
0.9321821821821816 	299.9999999999702 	8.700733643083014e-12 	101324.9999999962
0.9346846846846838 	299.9999999999504 	1.00032722163053e-11 	101324.9999999963
0.9371871871871866 	300.0000000000126 	9.42874804848223e-12 	101324.9999999965
0.9396896896896891 	300.0000000000109 	9.262677483398314e-12 	101324.9999999966
0.9421921921921914 	300.000000000007 	9.620715980281453e-12 	101324.9999999964
0.9446946946946939 	299.9999999999717 	8.837114059243343e-12 	101324.9999999963
0.9471971971971965 	299.9999999999305 	1.127684834157522e-11 	101324.9999999961
0.9496996996996991 	299.9999999999624 	9.640809678162951e-12 	101324.9999999959
0.9522022022022016 	299.9999999999727 	1.192524360036225e-11 	101324.9999999958
0.9547047047047038 	299.9999999999727 	1.101015952840316e-11 	101324.9999999958
0.9572072072072064 	299.9999999999603 	1.170969798563528e-11 	101324.9999999956
0.9597097097097093 	299.9999999999645 	1.163005686367679e-11 	101324.9999999956
0.9622122122122114 	299.9999999999629 	1.174011074865394e-11 	101324.9999999956
0.964714714714714 	299.9999999999545 	1.32465499125253e-11 	101324.9999999954
0.9672172172172167 	299.9999999999563 	1.261113570846345e-11 	101324.9999999957
0.969719719719719 	299.9999999999881 	1.367291663856826e-11 	101324.999999996
0.9722222222222214 	299.9999999999899 	1.342059918205291e-11 	101324.999999996
0.9747247247247239 	299.9999999999799 	1.376476070198625e-11 	101324.9999999959
0.9772272272272267 	300.0000000000028 	1.360466944145382e-11 	101324.999999996
0.9797297297297292 	299.9999999999862 	1.321462027514648e-11 	101324.9999999963
0.9822322322322313 	299.9999999999868 	1.362208315728568e-11 	101324.9999999963
0.9847347347347344 	299.9999999999857 	1.161474501001574e-11 	101324.9999999962
0.9872372372372363 	299.9999999999404 	1.349190793353468e-11 	101324.9999999962
0.9897397397397389 	299.9999999999632 	1.07447121479207e-11 	101324.9999999961
0.9922422422422417 	299.9999999999561 	1.242783958374987e-11 	101324.9999999963
0.9947447447447441 	299.9999999999616 	1.124927204938354e-11 	101324.9999999963
0.9972472472472468 	299.9999999999645 	1.274369150362014e-11 	101324.9999999962
0.999749749749749 	299.9999999999676 	1.249235047963372e-11 	101324.9999999962
1.002252252252252 	299.9999999999842 	1.317854063207815e-11 	101324.9999999963
1.004754754754754 	299.9999999999952 	1.362790918385413e-11 	101324.9999999965
1.007257257257256 	299.9999999999791 	1.280558652546515e-11 	101324.9999999967
1.009759759759759 	299.9999999999644 	1.437184652648805e-11 	101324.9999999966
1.012262262262261 	299.9999999999513 	1.180548122997795e-11 	101324.9999999967
1.014764764764764 	299.9999999999357 	1.341316292033137e-11 	101324.9999999966
1.017267267267267 	299.9999999999341 	1.306144330391967e-11 	101324.9999999964
1.019769769769769 	299.9999999999802 	1.471630608192992e-11 	101324.9999999962
1.022272272272272 	299.9999999999899 	1.455761415617999e-11 	101324.9999999959
1.024774774774774 	299.9999999999862 	1.502407628525908e-11 	101324.9999999959
1.027277277277277 	299.9999999999779 	1.582394362751253e-11 	101324.9999999959
1.029779779779779 	299.9999999999982 	1.472809011745617e-11 	101324.9999999962
1.032282282282282 	299.9999999999999 	1.555019313275415e-11 	101324.9999999963
1.034784784784784 	299.9999999999928 	1.489255181892259e-11 	101324.9999999964
1.037287287287286 	299.9999999999659 	1.525511253528556e-11 	101324.9999999965
1.039789789789789 	299.9999999999751 	1.508824216218739e-11 	101324.9999999964
1.042292292292291 	300.0000000000139 	1.524230960140086e-11 	101324.9999999965
1.044794794794794 	300.0000000000281 	1.479479726356977e-11 	101324.9999999965
1.047297297297296 	300.0000000000344 	1.320327184865323e-11 	101324.9999999963
1.049799799799799 	299.9999999999951 	1.493122122696089e-11 	101324.9999999959
1.052302302302302 	299.999999999964 	1.289108795560044e-11 	101324.9999999958
1.054804804804804 	299.9999999999412 	1.50733919527021e-11 	101324.9999999961
1.057307307307306 	299.9999999999301 	1.444716326205347e-11 	101324.9999999964
1.059809809809809 	299.9999999999652 	1.575103923608007e-11 	101324.9999999967
1.062312312312312 	299.9999999999613 	1.511789900624765e-11 	101324.9999999969
1.064814814814814 	299.9999999999549 	1.593366408582907e-11 	101324.9999999967
1.067317317317317 	299.9999999999284 	1.592990415301369e-11 	101324.9999999966
1.069819819819819 	299.9999999999307 	1.584800183691922e-11 	101324.9999999967
1.072322322322321 	299.999999999993 	1.730427073145367e-11 	101324.9999999966
1.074824824824824 	300.0000000000142 	1.458979561043811e-11 	101324.9999999965
1.077327327327327 	300.000000000031 	1.551442085099422e-11 	101324.9999999966
1.079829829829829 	300.0000000000383 	1.406910911592741e-11 	101324.9999999964
1.082332332332332 	300.000000000005 	1.540451300358543e-11 	101324.9999999963
1.084834834834834 	299.9999999999794 	1.516016740227482e-11 	101324.9999999963
1.087337337337337 	299.9999999999447 	1.518448698548899e-11 	101324.9999999966
1.089839839839839 	299.9999999999353 	1.635752653305328e-11 	101324.9999999968
1.092342342342342 	299.9999999999749 	1.495379950101661e-11 	101324.9999999969
1.094844844844844 	299.9999999999755 	1.607771202096329e-11 	101324.999999997
1.097347347347347 	299.9999999999452 	1.471567949926184e-11 	101324.9999999969
1.099849849849849 	299.99999999993 	1.757912862408144e-11 	101324.9999999969
1.102352352352352 	299.9999999999591 	1.539121245432513e-11 	101324.9999999972
1.104854854854854 	299.9999999999795 	1.759324812793117e-11 	101324.9999999973
1.107357357357357 	299.9999999999585 	1.626052204937256e-11 	101324.999999997
1.109859859859859 	299.9999999999508 	1.844483703107244e-11 	101324.9999999967
1.112362362362362 	300.0000000000124 	1.761409257618154e-11 	101324.9999999966
1.114864864864865 	300.0000000000113 	1.778090432714248e-11 	101324.9999999969
1.117367367367367 	299.9999999999629 	1.863220210849672e-11 	101324.9999999969
1.119869869869869 	299.99999999993 	1.739508396074846e-11 	101324.9999999969
1.122372372372372 	299.9999999999653 	1.946127062837959e-11 	101324.999999997
1.124874874874874 	299.9999999999628 	1.849509575713574e-11 	101324.9999999971
1.127377377377377 	299.9999999999711 	1.92607960929317e-11 	101324.9999999972
1.129879879879879 	300.0000000000192 	1.822818436510991e-11 	101324.9999999972
1.132382382382382 	300.0000000000353 	1.839984840472045e-11 	101324.999999997
1.134884884884884 	300.0000000000102 	1.753918772817285e-11 	101324.999999997
1.137387387387387 	300.0000000000166 	1.7070119023856e-11 	101324.9999999971
1.139889889889889 	299.9999999999667 	1.820873394053116e-11 	101324.999999997
1.142392392392392 	299.9999999999586 	1.719434483461122e-11 	101324.9999999969
1.144894894894894 	300.0000000000189 	1.902850865747054e-11 	101324.9999999968
1.147397397397397 	300.0000000000005 	1.828788744346155e-11 	101324.9999999967
1.149899899899899 	299.9999999999438 	1.960019341480911e-11 	101324.9999999967
1.152402402402402 	299.999999999931 	1.897189869790365e-11 	101324.9999999966
1.154904904904904 	299.9999999999642 	1.982497266311919e-11 	101324.9999999964
1.157407407407407 	299.999999999964 	1.894382392466866e-11 	101324.9999999964
1.159909909909909 	299.9999999999359 	1.887305149345768e-11 	101324.9999999965
1.162412412412412 	299.9999999999295 	2.055888348027585e-11 	101324.9999999964
1.164914914914914 	299.9999999999626 	1.894566530175645e-11 	101324.9999999965
1.167417417417417 	299.9999999999714 	2.006212382318849e-11 	101324.9999999968
1.169919919919919 	300.000000000014 	1.843184313731667e-11 	101324.9999999973
1.172422422422422 	300.0000000000388 	1.836501821566527e-11 	101324.9999999975
1.174924924924925 	299.9999999999931 	1.631557569217154e-11 	101324.9999999978
1.177427427427427 	299.9999999999658 	1.695304008485285e-11 	101324.9999999981
1.179929929929929 	300.0000000000093 	1.830111426112036e-11 	101324.999999998
1.182432432432432 	300.0000000000344 	1.667957370109394e-11 	101324.9999999977
1.184934934934934 	300.0000000000067 	1.757056862694537e-11 	101324.9999999977
1.187437437437437 	299.9999999999873 	1.651857836468666e-11 	101324.9999999977
1.189939939939939 	299.999999999979 	1.786673513608094e-11 	101324.9999999976
1.192442442442442 	299.9999999999367 	1.720912481622564e-11 	101324.9999999974
1.194944944944944 	299.9999999999319 	1.877795721184694e-11 	101324.9999999974
1.197447447447447 	299.9999999999912 	1.802858025409222e-11 	101324.9999999976
1.199949949949949 	300.0000000000124 	1.816981212816274e-11 	101324.9999999977
1.202452452452452 	299.9999999999591 	1.956230137465096e-11 	101324.9999999976
1.204954954954955 	299.9999999999531 	1.793790445527431e-11 	101324.9999999977
1.207457457457457 	299.9999999999814 	1.838076976526783e-11 	101324.9999999979
1.20995995995996 	299.9999999999782 	1.701142387301609e-11 	101324.999999998
1.212462462462462 	299.9999999999853 	1.818686075340655e-11 	101324.999999998
1.214964964964964 	299.9999999999827 	1.746792908624328e-11 	101324.9999999981
1.217467467467467 	299.9999999999815 	1.848751180780493e-11 	101324.9999999982
1.219969969969969 	299.999999999969 	1.713343130549184e-11 	101324.999999998
1.222472472472472 	300.0000000000186 	1.698327842436348e-11 	101324.9999999978
1.224974974974975 	300.0000000000457 	1.750374298849168e-11 	101324.9999999978
1.227477477477477 	299.9999999999959 	1.598874930946833e-11 	101324.9999999979
1.229979979979979 	299.9999999999769 	1.720937853839395e-11 	101324.9999999979
1.232482482482482 	299.9999999999548 	1.604543752291656e-11 	101324.999999998
1.234984984984984 	299.9999999999603 	1.793337553249641e-11 	101324.9999999981
1.237487487487487 	299.9999999999771 	1.700055419583225e-11 	101324.9999999981
1.239989989989989 	299.9999999999759 	1.807512946069229e-11 	101324.9999999981
1.242492492492492 	300.0000000000081 	1.897492706169946e-11 	101324.9999999978
1.244994994994994 	299.9999999999803 	1.755710741563946e-11 	101324.9999999977
1.247497497497497 	299.9999999999769 	1.843105161737942e-11 	101324.999999998
1.249999999999999 	300 	1.743458616157575e-11 	101324.9999999981
