-1.25 	300 	0.0002497083265691762 	101325
-1.247497497497497 	299.9931103214803 	0.01322984808146694 	101318.0918113452
-1.244994994994995 	299.9887911889029 	0.03426508349773101 	101311.7426718093
-1.242492492492492 	299.9832507636088 	0.04912785832405162 	101305.1984365829
-1.23998998998999 	299.9780695379006 	0.06329032412507131 	101299.0766180465
-1.237487487487487 	299.9732953381605 	0.07718432677915654 	101293.4335753844
-1.234984984984985 	299.9690371439701 	0.0894792186947166 	101288.4007672025
-1.232482482482482 	299.9653347814559 	0.1002255045684106 	101284.0250073053
-1.22997997997998 	299.9622602934911 	0.1091323306652122 	101280.3913666868
-1.227477477477477 	299.9599494353286 	0.1158491711050663 	101277.6602994428
-1.224974974974975 	299.9583650965876 	0.1203705172500378 	101275.787817382
-1.222472472472472 	299.9575005049786 	0.1228166701811451 	101274.7659732018
-1.21996996996997 	299.9574209126007 	0.1230480965637049 	101274.6719195409
-1.217467467467467 	299.9581386380295 	0.1209704709362416 	101275.5200555061
-1.214964964964965 	299.9596540908262 	0.1166007192402397 	101277.3109258621
-1.212462462462462 	299.9619580930021 	0.1098974413684439 	101280.0337308014
-1.20995995995996 	299.9649973555486 	0.1011163799243446 	101283.6255563339
-1.207457457457457 	299.9686677510495 	0.09060536229531116 	101287.9634244753
-1.204954954954955 	299.9728464240812 	0.07854631747860624 	101292.9021585203
-1.202452452452452 	299.9775010872865 	0.06506968582716491 	101298.4036750402
-1.19994994994995 	299.9825874129127 	0.05032678568276065 	101304.4156687607
-1.197447447447447 	299.987987221919 	0.03466538154181307 	101310.7984556899
-1.194944944944945 	299.9935848784369 	0.01847456890119021 	101317.4154430932
-1.192442442442442 	299.9992727307201 	0.00816499830650958 	101324.1393978441
-1.18993993993994 	300.0049776923892 	0.01447118065453676 	101330.8838666531
-1.187437437437437 	300.0106074809647 	0.03068941782326627 	101337.539816413
-1.184934934934935 	300.0160685472898 	0.04647864252355334 	101343.9965802153
-1.182432432432432 	300.0212727644158 	0.06152204381153516 	101350.1499601023
-1.17992992992993 	300.0260968870765 	0.0754685710783117 	101355.8541982798
-1.177427427427427 	300.0304236705102 	0.08797318572040268 	101360.9705313681
-1.174924924924925 	300.0341721089457 	0.09879066732398217 	101365.4031750633
-1.172422422422422 	300.0372738714489 	0.1077887956364149 	101369.071202401
-1.16991991991992 	300.0396877773849 	0.114805132290783 	101371.9258942196
-1.167417417417417 	300.0414033173425 	0.1197486126516551 	101373.95477845
-1.164914914914915 	300.0423844265079 	0.1225119474489991 	101375.115088409
-1.162412412412412 	300.042575234106 	0.1230072021038079 	101375.3407724001
-1.15990990990991 	300.041952016664 	0.1212166820734192 	101374.6038048809
-1.157407407407407 	300.0405206933713 	0.1170999575070074 	101372.9112502987
-1.154904904904904 	300.0383129246691 	0.1107447830166861 	101370.3005094516
-1.152402402402403 	300.0353955651256 	0.10230018576576 	101366.8506033694
-1.1498998998999 	300.0318394657787 	0.09200996136501069 	101362.6454941464
-1.147397397397397 	300.0277146520078 	0.08014091905122429 	101357.7680093113
-1.144894894894895 	300.0230979140273 	0.06679869455844378 	101352.3090198292
-1.142392392392392 	300.0180649242852 	0.05221251767015157 	101346.3581020028
-1.13988988988989 	300.012704995248 	0.03667467640738162 	101340.0208249729
-1.137387387387387 	300.0071291947577 	0.02051170721096067 	101333.4286413548
-1.134884884884885 	300.0014356434879 	0.007779815637847933 	101326.6975325998
-1.132382382382382 	299.9957116890509 	0.01243538132115694 	101319.9307943635
-1.12987987987988 	299.9900342655741 	0.02886780451586045 	101313.2194051313
-1.127377377377377 	299.9844949925988 	0.04487584611352752 	101306.6715695823
-1.124874874874875 	299.9792236819305 	0.06008628323538933 	101300.4407870955
-1.122372372372372 	299.9743606840071 	0.07410390383764814 	101294.6928475038
-1.11986986986987 	299.969996430551 	0.08670926994101866 	101289.5346067706
-1.117367367367367 	299.9662062809164 	0.09770745850413294 	101285.0550820364
-1.114864864864865 	299.9630349848688 	0.106936863927699 	101281.3070240513
-1.112362362362362 	299.9605132198063 	0.1142234989852069 	101278.3267056289
-1.10985985985986 	299.9587010848508 	0.1193824799416503 	101276.1849988116
-1.107357357357357 	299.9576703205184 	0.1223532906782001 	101274.9667567894
-1.104854854854855 	299.957440384838 	0.1230029676108462 	101274.6950093894
-1.102352352352353 	299.9580288880009 	0.1213089242475862 	101275.3904319418
-1.09984984984985 	299.9594100048674 	0.1173324205232349 	101277.0225485699
-1.097347347347347 	299.9615342734489 	0.1111339346253259 	101279.5329321834
-1.094844844844845 	299.9643569781097 	0.1029672467574581 	101282.8688130669
-1.092342342342342 	299.9678330285179 	0.09298236656996024 	101286.9769572935
-1.08983983983984 	299.9718789614894 	0.08129135712260213 	101291.7587639243
-1.087337337337337 	299.976452574908 	0.06808668000957624 	101297.164450681
-1.084834834834835 	299.9814631072104 	0.05357382020237995 	101303.0867820461
-1.082332332332332 	299.9867955221548 	0.03813355596604109 	101309.3898570658
-1.07982982982983 	299.9923318015113 	0.0221327134144629 	101315.9342301474
-1.077327327327327 	299.9979571473526 	0.007227683482765423 	101322.5841942469
-1.074824824824825 	300.0036291384413 	0.01056368367328798 	101329.289622963
-1.072322322322323 	300.0092778505391 	0.02685634644275883 	101335.9678640832
-1.06981981981982 	300.0147756050895 	0.04275847002974404 	101342.467935198
-1.067317317317317 	300.0200042345937 	0.05788278508909789 	101348.6501230851
-1.064814814814815 	300.0248622476756 	0.07192905513133045 	101354.3943529174
-1.062312312312312 	300.029269368339 	0.08465379405530658 	101359.6056348555
-1.05980980980981 	300.0331584140066 	0.09587582055444052 	101364.2045005725
-1.057307307307307 	300.0364546636495 	0.1054179243605574 	101368.1024888341
-1.054804804804805 	300.0390896922316 	0.1130482646008038 	101371.2186575787
-1.052302302302302 	300.041009820555 	0.1185658931373385 	101373.4894638778
-1.0497997997998 	300.0421572991218 	0.1218370961290341 	101374.8465347398
-1.047297297297297 	300.0425035575695 	0.1228319295826991 	101375.2560672379
-1.044794794794795 	300.0420546364751 	0.121552791084499 	101374.7252040927
-1.042292292292292 	300.0408231674247 	0.118001751912272 	101373.2689875121
-1.03978978978979 	300.0388330234003 	0.1122459149012789 	101370.9155918036
-1.037287287287287 	300.0361236003129 	0.1043667452027798 	101367.7115827373
-1.034784784784785 	300.0327310846732 	0.09456227880756317 	101363.6998888088
-1.032282282282283 	300.0287303602219 	0.08304536624743018 	101358.9690960925
-1.02977977977978 	300.0242164509398 	0.06998075945152712 	101353.6316584584
-1.027277277277277 	300.0192706360217 	0.05565056285785408 	101347.7837344912
-1.024774774774775 	300.0139750944402 	0.04031512451661415 	101341.5225369333
-1.022272272272272 	300.0084323776554 	0.02427872313531319 	101334.9693911807
-1.01976976976977 	300.0027328419094 	0.007863852714909175 	101328.2311248922
-1.017267267267267 	299.9969883460946 	0.009661139074493922 	101321.4400421764
-1.014764764764765 	299.9912838376135 	0.02525959018740714 	101314.6965459924
-1.012262262262262 	299.9857225029347 	0.04133619988087501 	101308.1225814145
-1.00975975975976 	299.9804287241294 	0.05663074565200527 	101301.8651834003
-1.007257257257257 	299.9755100132925 	0.07083888681582381 	101296.0513364913
-1.004754754754755 	299.9710363907169 	0.08377053897709774 	101290.7637916435
-1.002252252252252 	299.9670920597355 	0.09520610748166247 	101286.1019915028
-0.9997497497497498 	299.9637403862459 	0.1049118944248299 	101282.140745652
-0.9972472472472473 	299.9610551758651 	0.1126357931576704 	101278.9672525234
-0.9947447447447449 	299.9591090682126 	0.1182038414270859 	101276.6672244476
-0.9922422422422421 	299.9579453462169 	0.1215744277821186 	101275.291831674
-0.9897397397397399 	299.9575594115776 	0.1226715751296615 	101274.8357106068
-0.9872372372372376 	299.9579688917175 	0.1215160577243499 	101275.3195968619
-0.9847347347347346 	299.9591569622274 	0.1180913026475705 	101276.7235654447
-0.9822322322322323 	299.9611044419605 	0.1124345888077961 	101279.0250242695
-0.9797297297297296 	299.963767947744 	0.1047469933131559 	101282.172734114
-0.9772272272272275 	299.9670879436133 	0.09516259510666851 	101286.0964081055
-0.9747247247247248 	299.9709881174851 	0.08386652071934723 	101290.705932019
-0.9722222222222224 	299.975424557784 	0.07103684399816482 	101295.9494329424
-0.9697197197197196 	299.9803133560147 	0.05686957003584017 	101301.7278348906
-0.9672172172172175 	299.9855634493922 	0.04167801087302678 	101307.9335337106
-0.9647147147147147 	299.9910571502159 	0.0258057567404806 	101314.4274861988
-0.9622122122122124 	299.9966693536304 	0.009579979552708753 	101321.0618640475
-0.9597097097097099 	300.0023246105411 	0.009284053588967573 	101327.7474309525
-0.9572072072072073 	300.0079427216697 	0.02295416743082708 	101334.3894254031
-0.9547047047047047 	300.0134235846427 	0.03882372361011998 	101340.8694540638
-0.9522022022022023 	300.0186768259515 	0.05403600775634608 	101347.0806430286
-0.9496996996996998 	300.0236095676831 	0.06830895002009313 	101352.9131843291
-0.9471971971971973 	300.028140201346 	0.0814078981566002 	101358.2704625343
-0.9446946946946947 	300.0321784965067 	0.09305637758380916 	101363.0457666397
-0.9421921921921923 	300.0356275549986 	0.1030448074563583 	101367.1244363959
-0.93968968968969 	300.0384172932309 	0.1111230638205681 	101370.423518029
-0.9371871871871872 	300.0405032099256 	0.1170932155706775 	101372.8903807856
-0.9346846846846848 	300.0418338202202 	0.1209028653086621 	101374.4640256868
-0.9321821821821823 	300.0423873370071 	0.1224769133946339 	101375.1186694786
-0.9296796796796799 	300.0421503218015 	0.1217989668463445 	101374.8383986231
-0.9271771771771771 	300.0411191384533 	0.1188508563740068 	101373.6190086371
-0.9246746746746748 	300.0393175342551 	0.1136413225802524 	101371.488586167
-0.9221721721721724 	300.036789973229 	0.1063075779503305 	101368.4996412362
-0.9196696696696698 	300.0335660830816 	0.09700949619329859 	101364.6873193117
-0.9171671671671672 	300.0297211430845 	0.0859274581605788 	101360.1407256815
-0.9146646646646649 	300.0253276665893 	0.07321043140853607 	101354.9456245422
-0.9121621621621623 	300.0204606633286 	0.05909379573255877 	101349.1908482761
-0.9096596596596597 	300.0152114248833 	0.04389022782482296 	101342.9843475276
-0.9071571571571573 	300.0096972771092 	0.02792198167895365 	101336.4648956267
-0.9046546546546547 	300.0040109473233 	0.01156820055223984 	101329.7421878553
-0.9021521521521524 	299.9982935559987 	0.009020701506703359 	101322.9830547388
-0.8996496496496498 	299.9926064761265 	0.02144279932730891 	101316.2600981492
-0.8971471471471473 	299.9870262214126 	0.03756316420993604 	101309.663708249
-0.894644644644645 	299.9816680418896 	0.05305571254135037 	101303.3301075072
-0.892142142142142 	299.9766406023786 	0.06756730619706482 	101297.3877072088
-0.8896396396396397 	299.9720379135973 	0.08084740940997408 	101291.9475548506
-0.8871371371371374 	299.9679655822611 	0.09265956629123336 	101287.134438376
-0.8846346346346349 	299.9644865426125 	0.1027312291797049 	101283.0226459245
-0.8821321321321324 	299.9616690853487 	0.1108623779197835 	101279.6928254223
-0.8796296296296297 	299.9595738827193 	0.1168855261850479 	101277.216614527
-0.8771271271271271 	299.9582398293372 	0.1207271331614 	101275.6399033886
-0.8746246246246248 	299.9576825394902 	0.1223213861011705 	101274.98127
-0.8721221221221224 	299.9579250861998 	0.1216396564477804 	101275.267888879
-0.8696196196196196 	299.9589438024479 	0.11869199505177 	101276.4717028308
-0.8671171171171175 	299.9607171034987 	0.113543988781322 	101278.5673205994
-0.8646146146146148 	299.9632072098382 	0.1063527520760609 	101281.5100991109
-0.8621121121121121 	299.9663593676752 	0.09724750880391976 	101285.2353910072
-0.8596096096096097 	299.9701198223925 	0.08635922284193037 	101289.6797476141
-0.857107107107107 	299.9744491042693 	0.07385648320613913 	101294.7965398913
-0.8546046046046049 	299.9792509654247 	0.0599576581024765 	101300.4721423453
-0.8521021021021022 	299.984425243139 	0.04497999731102983 	101306.5881755536
-0.8495995995995997 	299.9898520184929 	0.02931462271713118 	101313.0029542613
-0.8470970970970974 	299.995405308958 	0.01325597652186846 	101319.5676176723
-0.8445945945945946 	300.0010051607803 	0.008196949695058804 	101326.187596253
-0.8420920920920922 	300.0065899704933 	0.01906873582395577 	101332.7901564674
-0.8395895895895897 	300.0120775564533 	0.03497108193359517 	101339.2780558017
-0.8370870870870872 	300.0173751913241 	0.05028684525034751 	101345.5416736399
-0.8345845845845846 	300.0223838919605 	0.06476313720491676 	101351.46395373
-0.8320820820820823 	300.0270108472603 	0.07812995288459254 	101356.9350593108
-0.8295795795795798 	300.0311622001475 	0.09011186608667994 	101361.8440219687
-0.8270770770770772 	300.0347503246041 	0.1005077315842439 	101366.0870974881
-0.8245745745745746 	300.0377064770063 	0.1090368542120312 	101369.5829602884
-0.8220720720720721 	300.0399716840097 	0.115541335567608 	101372.2618286628
-0.8195695695695699 	300.0414876396574 	0.1198949161316643 	101374.0546431916
-0.817067067067067 	300.0422261488403 	0.1220271887998267 	101374.9280882504
-0.8145645645645651 	300.0421768463272 	0.1219144851880602 	101374.8697869118
-0.8120620620620621 	300.0413456201404 	0.1195206631590144 	101373.886860487
-0.8095595595595597 	300.0397522510333 	0.1149038281281549 	101372.0026951521
-0.8070570570570572 	300.0374188615051 	0.1081327718506593 	101369.2433501674
-0.8045545545545546 	300.0343709309653 	0.09934890468125003 	101365.6391053521
-0.8020520520520523 	300.0306767158376 	0.08869184116963306 	101361.2707021813
-0.7995495495495494 	300.0264069118035 	0.07631265668937798 	101356.2218118758
-0.7970470470470474 	300.0216425480423 	0.06250575975597794 	101350.5883426592
-0.7945445445445446 	300.016478224128 	0.04754584156980585 	101344.4821652095
-0.7920420420420423 	300.0110188478116 	0.03177805996275723 	101338.0274204106
-0.7895395395395397 	300.0053694515243 	0.01551824723119796 	101331.3482992191
-0.7870370370370371 	299.999660272946 	0.007544201113198888 	101324.5988084963
-0.7845345345345348 	299.9939477548155 	0.01756505922902054 	101317.84570343
-0.7820320320320323 	299.9883169686381 	0.03381742992719621 	101311.1894986748
-0.7795295295295296 	299.9828910636384 	0.04949441370531191 	101304.7757976809
-0.7770270270270272 	299.9777798568767 	0.06424517920922922 	101298.7343086961
-0.7745245245245247 	299.9730838704155 	0.07783407737100721 	101293.1838491361
-0.7720220220220222 	299.9688983830334 	0.08997892142263132 	101288.2369570771
-0.7695195195195199 	299.9652833777795 	0.1004325603454127 	101283.9644254364
-0.767017017017017 	299.962320406756 	0.1089688584795013 	101280.4626398767
-0.7645145145145147 	299.9600788274554 	0.115418463155077 	101277.8134158372
-0.7620120120120122 	299.9585869329877 	0.1197362613845469 	101276.0501734454
-0.7595095095095097 	299.9578585261273 	0.1218167029950217 	101275.1893017834
-0.7570070070070072 	299.9579134930451 	0.1216718190689419 	101275.2542319855
-0.7545045045045048 	299.9587393043851 	0.1192617998448195 	101276.2301062436
-0.7520020020020022 	299.96033699772 	0.1146091663573628 	101278.1181625405
-0.7494994994994997 	299.9626788051594 	0.1078967327681381 	101280.8856692985
-0.7469969969969972 	299.965695581677 	0.09917403937771287 	101284.4509492092
-0.7444944944944945 	299.9693284237484 	0.08866964378980766 	101288.7444435403
-0.7419919919919924 	299.9735215343196 	0.07657309907939855 	101293.7002863263
-0.7394894894894897 	299.9781811988504 	0.06304714952347126 	101299.2077437297
-0.7369869869869872 	299.9832302013508 	0.04844617211297203 	101305.1756383311
-0.7344844844844846 	299.988568920933 	0.03302267367768569 	101311.4862753497
-0.7319819819819822 	299.99406538756 	0.01711084048901922 	101317.9836716225
-0.7294794794794797 	299.9996378782395 	0.006230428046420029 	101324.5712595502
-0.7269769769769773 	300.0052063875805 	0.01509234045956995 	101331.1544475748
-0.7244744744744747 	300.0107043539198 	0.03099825411664745 	101337.6545431644
-0.721971971971972 	300.0160456853112 	0.04643396120149605 	101343.9697619876
-0.7194694694694695 	300.0211261745588 	0.06113176445074322 	101349.9768426335
-0.7169669669669674 	300.0258503877758 	0.07477392084911014 	101355.5629082937
-0.7144644644644647 	300.030118849131 	0.08710297983642437 	101360.6102899727
-0.711961961961962 	300.033837507986 	0.09785535989476465 	101365.0076916133
-0.7094594594594597 	300.0369368939611 	0.1068100212089493 	101368.6729129852
-0.7069569569569573 	300.0393641500382 	0.1138048276575361 	101371.5433856673
-0.7044544544544545 	300.0410621033599 	0.1186927966835199 	101373.5514335765
-0.7019519519519523 	300.0420020222923 	0.1214071347171119 	101374.6630651174
-0.6994494494494495 	300.04216560921 	0.1218757681771671 	101374.8565412127
-0.6969469469469471 	300.0415483566599 	0.1200973418173164 	101374.1266306774
-0.6944444444444446 	300.0401625040905 	0.1160937304321249 	101372.487861562
-0.6919419419419421 	300.0380233767536 	0.1098746200117615 	101369.9582582433
-0.6894394394394396 	300.035136623864 	0.1015540523063524 	101366.5445951658
-0.6869369369369374 	300.0315592751616 	0.09121772119112453 	101362.3143614264
-0.6844344344344344 	300.0273664963742 	0.07908333071496007 	101357.3565148092
-0.6819319319319321 	300.0226652828802 	0.06550067765837284 	101351.7976650416
-0.6794294294294296 	300.0175768849144 	0.05076973806076063 	101345.7812135829
-0.6769269269269272 	300.012209893299 	0.03524569372156845 	101339.4356312008
-0.6744244244244245 	300.0066332136904 	0.01916102397684743 	101332.8424208237
-0.6719219219219222 	300.0009586590492 	0.005235530464442751 	101326.1337918742
-0.6694194194194195 	299.995233695483 	0.01384370374440213 	101319.3658999872
-0.6669169169169172 	299.9895482590671 	0.03024961694220656 	101312.64503573
-0.6644144144144146 	299.9840501432225 	0.04612733911546486 	101306.1458932251
-0.661911911911912 	299.9788743198898 	0.06109965977981462 	101300.0279955799
-0.6594094094094097 	299.9741163510583 	0.07484954512214408 	101294.4042170257
-0.656906906906907 	299.9698449971376 	0.08719411584244298 	101289.3557875721
-0.6544044044044046 	299.9661178963688 	0.09798657771959263 	101284.9507686588
-0.6519019019019021 	299.9629897249041 	0.1070231775930308 	101281.2536901656
-0.6493993993993996 	299.9605408238014 	0.1140951697096482 	101278.3594771726
-0.6468968968968971 	299.9588479987812 	0.1189542641132573 	101276.3587491989
-0.6443943943943946 	299.957968063213 	0.1214645569126894 	101275.3187855998
-0.6418918918918921 	299.957918516483 	0.1216186063536004 	101275.2602178246
-0.6393893893893897 	299.9586672030188 	0.1194899869777532 	101276.1449385723
-0.6368868868868871 	299.9601303797616 	0.1152670347122575 	101277.8740471038
-0.6343843843843846 	299.962248503668 	0.1091224728417841 	101280.377198007
-0.6318818818818821 	299.9649777497725 	0.1012058320400775 	101283.6026441439
-0.6293793793793795 	299.968316876533 	0.0915454222768446 	101287.5489828197
-0.6268768768768773 	299.9722737491472 	0.0800934790585901 	101292.2255382756
-0.6243743743743745 	299.9768339347462 	0.06691980226923229 	101297.6155849448
-0.6218718718718721 	299.9819030852126 	0.05223116954031408 	101303.6072728022
-0.6193693693693696 	299.9873535427041 	0.03649707098768448 	101310.0496930223
-0.6168668668668671 	299.9929863474283 	0.02026965086181204 	101316.708144606
-0.6143643643643645 	299.998612460707 	0.004037120736055991 	101323.3590705007
-0.6118618618618621 	300.0040712938109 	0.01177575526288934 	101329.8125581522
-0.6093593593593596 	300.0092858108188 	0.02685819868246534 	101335.9774978055
-0.6068568568568571 	300.0142710287657 	0.04132161948665895 	101341.8715796196
-0.6043543543543546 	300.0190847120738 	0.05528160371076746 	101347.5630925517
-0.6018518518518521 	300.0237668755156 	0.06883639151059036 	101353.0993170202
-0.5993493493493496 	300.0282926177723 	0.08190620826062112 	101358.4507977343
-0.5968468468468471 	300.0325519545155 	0.09417518141434697 	101363.4874822181
-0.5943443443443446 	300.0363589832019 	0.1051152617600122 	101367.9894719093
-0.591841841841842 	300.0394836700688 	0.1140752371339345 	101371.6847068652
-0.5893393393393397 	300.0416962070175 	0.1204056773906048 	101374.3013434476
-0.5868368368368371 	300.0428127821078 	0.1235884333958821 	101375.6219095666
-0.5843343343343346 	300.0427331757567 	0.123342733839621 	101375.5277626727
-0.5818318318318321 	300.0414624983705 	0.1196878785599965 	101374.025201479
-0.5793293293293297 	300.0391155913981 	0.1129523272645834 	101371.2499301482
-0.5768268268268271 	300.035900372277 	0.1037276960854159 	101367.4478109012
-0.5743243243243245 	300.0320858065898 	0.09277839677367068 	101362.9370207359
-0.5718218218218221 	300.0279615850348 	0.08092760983478588 	101358.0601914595
-0.5693193193193196 	300.0237975095743 	0.06894381701817925 	101353.1363848827
-0.5668168168168171 	300.0198119371018 	0.05745393858480167 	101348.4237932938
-0.5643143143143147 	300.0161578537288 	0.04690265249582153 	101344.1032839542
-0.5618118118118121 	300.0129255985657 	0.03755577829396683 	101340.2816352521
-0.5593093093093094 	300.010153216082 	0.02952800780555218 	101337.0037905989
-0.5568068068068072 	300.0078389636169 	0.02281844976446966 	101334.267654898
-0.5543043043043046 	300.0059536400398 	0.01734602906955292 	101332.0386756504
-0.551801801801802 	300.0044514464834 	0.01298082136118494 	101330.2626851294
-0.5492992992992995 	300.0032787295099 	0.009569385623581205 	101328.8762361964
-0.5467967967967969 	300.0023804425924 	0.006953572241792094 	101327.8142407309
-0.5442942942942947 	300.001704489598 	0.004983232077822199 	101327.0151025856
-0.5417917917917919 	300.0012042893727 	0.003523783061402453 	101326.4237484047
-0.5392892892892895 	300.0008399704859 	0.002459796707762636 	101325.9930388713
-0.536786786786787 	300.0005785949003 	0.001695751557088285 	101325.6840325853
-0.5342842842842846 	300.0003937577804 	0.00115495492599324 	101325.4655126094
-0.531781781781782 	300.0002648389695 	0.0007774314624654435 	101325.3131009924
-0.5292792792792794 	300.0001761068318 	0.0005173648959684835 	101325.2081992101
-0.526776776776777 	300.0001158098865 	0.0003404892190868879 	101325.1369143428
-0.5242742742742745 	300.0000753382557 	0.0002216697290815187 	101325.0890674394
-0.521771771771772 	300.0000484956611 	0.0001427983991470771 	101325.0573332094
-0.5192692692692695 	300.0000308970072 	9.104672579647969e-05 	101325.036527577
-0.516766766766767 	300.0000194877874 	5.746895343128294e-05 	101325.0230391508
-0.5142642642642645 	300.0000121712538 	3.591931057844892e-05 	101325.014389341
-0.511761761761762 	300.0000075288581 	2.223521792910243e-05 	101325.0089009573
-0.5092592592592596 	300.0000046135378 	1.363517979297669e-05 	101325.0054543318
-0.506756756756757 	300.0000028010662 	8.284578989804567e-06 	101325.0033116055
-0.5042542542542544 	300.0000016853919 	4.988252550031512e-06 	101325.0019925396
-0.5017517517517521 	300.0000010051551 	2.976952461401279e-06 	101325.0011882884
-0.4992492492492494 	300.0000005942641 	1.761208783259589e-06 	101325.0007025138
-0.496746746746747 	300.0000003483017 	1.033088948056067e-06 	101325.0004117884
-0.4942442442442445 	300.0000002024004 	6.009158208952612e-07 	101325.0002393559
-0.4917417417417421 	300.000000116654 	3.466654858829821e-07 	101325.0001379832
-0.4892392392392395 	300.0000000666975 	1.983700492423842e-07 	101325.0000789
-0.486736736736737 	300.0000000378217 	1.126146245136509e-07 	101325.0000447556
-0.4842342342342345 	300.0000000212277 	6.342802827678155e-08 	101325.0000251872
-0.481731731731732 	300.0000000119422 	3.545525665126701e-08 	101325.0000140638
-0.4792292292292296 	300.0000000066224 	1.966527587314629e-08 	101325.0000077918
-0.4767267267267268 	300.0000000035776 	1.083242124968213e-08 	101325.0000042831
-0.4742242242242246 	300.0000000019732 	5.918129523856893e-09 	101325.0000023352
-0.471721721721722 	300.000000001023 	3.216371460614315e-09 	101325.0000012621
-0.4692192192192195 	300.000000000549 	1.731266657920836e-09 	101325.0000006755
-0.4667167167167169 	300.0000000002093 	9.300166649695617e-10 	101325.0000003568
-0.4642142142142145 	300.0000000001586 	4.927056712099664e-10 	101325.0000001851
-0.461711711711712 	300.0000000001037 	2.6330947830031e-10 	101325.0000000931
-0.4592092092092094 	300.0000000000538 	1.375613382250708e-10 	101325.0000000444
-0.456706706706707 	300.0000000000771 	7.491021490173875e-11 	101325.0000000186
-0.4542042042042045 	299.9999999999454 	3.935049170675124e-11 	101325.000000005
-0.451701701701702 	299.9999999999538 	2.357595389666262e-11 	101324.9999999983
-0.4491991991991995 	299.9999999999546 	1.247517105527348e-11 	101324.9999999948
-0.4466966966966969 	299.9999999999475 	9.989702755389664e-12 	101324.999999993
-0.4441941941941945 	299.999999999995 	5.128464568717945e-12 	101324.9999999922
-0.441691691691692 	299.9999999999528 	7.205820803772818e-12 	101324.9999999918
-0.4391891891891895 	299.9999999999892 	1.722847928862496e-12 	101324.9999999915
-0.436686686686687 	299.9999999999691 	5.313312845807027e-12 	101324.9999999915
-0.4341841841841846 	299.9999999999968 	3.044487442642156e-12 	101324.9999999913
-0.431681681681682 	299.9999999999398 	3.939399720322236e-12 	101324.999999991
-0.4291791791791794 	299.9999999999225 	2.166107748811671e-12 	101324.9999999909
-0.426676676676677 	299.9999999998962 	2.993102027374669e-12 	101324.9999999909
-0.4241741741741744 	299.9999999999637 	1.707618718043441e-12 	101324.999999991
-0.421671671671672 	300.000000000007 	3.212678999817853e-12 	101324.9999999908
-0.4191691691691694 	300.0000000000607 	1.123387572715706e-12 	101324.9999999907
-0.4166666666666669 	300.0000000000703 	3.708527010366338e-12 	101324.9999999905
-0.4141641641641645 	299.9999999999322 	2.857648680338806e-12 	101324.9999999905
-0.411661661661662 	300.0000000000047 	3.940273905899749e-12 	101324.9999999906
-0.4091591591591594 	300.0000000000001 	2.724874068621121e-12 	101324.9999999907
-0.406656656656657 	299.9999999999324 	3.955016157017962e-12 	101324.9999999906
-0.4041541541541545 	300.0000000000153 	1.589781346712248e-12 	101324.9999999906
-0.401651651651652 	299.999999999915 	3.739050633101423e-12 	101324.9999999905
-0.3991491491491494 	299.999999999996 	1.640094441106574e-12 	101324.9999999906
-0.396646646646647 	299.9999999999516 	4.210707536996978e-12 	101324.9999999908
-0.3941441441441444 	299.9999999999821 	2.515807580205016e-12 	101324.999999991
-0.3916416416416419 	299.9999999999275 	4.213082874775675e-12 	101324.9999999911
-0.3891391391391395 	299.9999999999528 	8.771703998580712e-13 	101324.9999999915
-0.3866366366366368 	299.9999999999537 	3.502097785138082e-12 	101324.9999999913
-0.3841341341341344 	299.9999999999958 	1.567462234101534e-12 	101324.9999999914
-0.381631631631632 	299.9999999999443 	2.490232273957332e-12 	101324.9999999914
-0.3791291291291294 	300.0000000000032 	1.923076637569974e-12 	101324.9999999915
-0.3766266266266269 	300.0000000000255 	1.522451687488157e-12 	101324.9999999914
-0.3741241241241244 	300.0000000000303 	2.185067891667108e-12 	101324.9999999912
-0.371621621621622 	300.0000000000182 	6.031497015453569e-13 	101324.999999991
-0.3691191191191194 	300.0000000000153 	3.033096780074061e-12 	101324.9999999909
-0.366616616616617 	300.0000000000132 	1.086956109971195e-12 	101324.9999999907
-0.3641141141141143 	299.9999999999569 	3.367815945987897e-12 	101324.9999999906
-0.3616116116116119 	299.9999999999421 	1.339450287926694e-12 	101324.9999999907
-0.3591091091091095 	299.9999999999839 	3.008917677391359e-12 	101324.9999999907
-0.356606606606607 	299.9999999999671 	2.364739141717492e-12 	101324.9999999906
-0.3541041041041044 	299.9999999999886 	2.149054298167809e-12 	101324.9999999907
-0.3516016016016019 	300.0000000000105 	2.619702027728197e-12 	101324.9999999909
-0.3490990990990994 	299.9999999999918 	6.046840062430438e-13 	101324.9999999913
-0.346596596596597 	300.0000000000458 	2.82240707030253e-12 	101324.9999999914
-0.3440940940940944 	300.0000000000542 	8.416689103050818e-13 	101324.9999999914
-0.3415915915915919 	300.0000000000208 	2.739869410317667e-12 	101324.9999999914
-0.3390890890890895 	299.9999999999747 	6.523905552784704e-13 	101324.9999999911
-0.3365865865865869 	300.0000000000192 	1.597272191500771e-12 	101324.9999999911
-0.3340840840840844 	300.0000000000006 	6.317096085073193e-13 	101324.9999999912
-0.3315815815815819 	300.0000000000226 	2.107417247147905e-12 	101324.9999999912
-0.3290790790790794 	300.0000000000232 	1.519633861105491e-12 	101324.9999999911
-0.3265765765765769 	299.9999999999216 	2.515740930122528e-12 	101324.9999999911
-0.3240740740740744 	299.9999999999948 	8.751648759666833e-13 	101324.9999999909
-0.3215715715715718 	300.0000000000074 	2.86675844863298e-12 	101324.9999999909
-0.3190690690690695 	299.9999999999271 	6.678456121461334e-13 	101324.9999999905
-0.3165665665665668 	299.9999999999887 	2.970995714071783e-12 	101324.9999999905
-0.3140640640640644 	300.0000000000027 	7.349601126548647e-13 	101324.9999999904
-0.311561561561562 	299.999999999921 	4.01677404416685e-12 	101324.9999999907
-0.3090590590590593 	299.9999999999916 	1.997048244351183e-12 	101324.9999999908
-0.3065565565565568 	300.0000000000022 	5.164948089687933e-12 	101324.9999999909
-0.3040540540540545 	300.0000000000041 	2.205807363372344e-12 	101324.9999999908
-0.3015515515515518 	300.0000000000383 	5.358271546121405e-12 	101324.9999999906
-0.2990490490490494 	299.9999999999444 	1.779360618166304e-12 	101324.9999999905
-0.2965465465465469 	299.9999999999825 	4.71495577952661e-12 	101324.9999999904
-0.2940440440440444 	299.9999999999944 	3.386147214803811e-12 	101324.9999999906
-0.2915415415415418 	300.0000000000053 	3.994020999582135e-12 	101324.9999999908
-0.2890390390390395 	300.0000000000067 	4.30235066359478e-12 	101324.9999999908
-0.2865365365365368 	299.9999999999809 	2.85837657184692e-12 	101324.9999999909
-0.2840340340340343 	300.0000000000015 	4.241457569730866e-12 	101324.9999999912
-0.2815315315315318 	299.9999999999216 	1.36516396461644e-12 	101324.9999999911
-0.2790290290290295 	299.9999999999593 	2.996442877665036e-12 	101324.9999999911
-0.2765265265265269 	300.0000000000062 	1.207555464690876e-12 	101324.9999999909
-0.2740240240240244 	300.000000000027 	2.052142051624638e-12 	101324.999999991
-0.2715215215215219 	300.0000000000132 	2.043796120227569e-12 	101324.9999999909
-0.2690190190190194 	299.9999999999422 	2.063322270390361e-12 	101324.9999999907
-0.2665165165165169 	299.9999999999995 	2.720730385046781e-12 	101324.9999999908
-0.2640140140140144 	299.9999999999649 	1.624919485013668e-12 	101324.9999999905
-0.2615115115115119 	300.0000000000019 	3.502353867402599e-12 	101324.9999999905
-0.2590090090090094 	299.9999999999283 	1.843957225147053e-12 	101324.9999999905
-0.2565065065065068 	299.999999999993 	2.875427991262505e-12 	101324.9999999906
-0.2540040040040044 	299.9999999999966 	3.356617714102931e-12 	101324.9999999907
-0.2515015015015019 	300.0000000000408 	2.958498215432655e-12 	101324.9999999905
-0.2489989989989994 	300.0000000000464 	5.601971426064842e-12 	101324.9999999907
-0.2464964964964968 	299.9999999999896 	3.598651076849224e-12 	101324.9999999909
-0.2439939939939944 	299.9999999999936 	7.789378925003452e-12 	101324.9999999908
-0.2414914914914919 	299.9999999999633 	2.852717195748607e-12 	101324.9999999909
-0.2389889889889893 	300.0000000000036 	7.044748015880043e-12 	101324.9999999911
-0.2364864864864869 	300.0000000000251 	2.940546005693475e-12 	101324.9999999908
-0.2339839839839843 	299.9999999999238 	7.62672944116705e-12 	101324.9999999908
-0.2314814814814819 	299.9999999999816 	3.026090159379253e-12 	101324.9999999908
-0.2289789789789792 	299.999999999913 	6.63892144531119e-12 	101324.9999999908
-0.2264764764764769 	299.9999999999436 	3.608592375213937e-12 	101324.9999999908
-0.2239739739739743 	299.9999999999554 	5.289654683413401e-12 	101324.9999999909
-0.2214714714714718 	299.9999999999332 	4.203115638612791e-12 	101324.9999999912
-0.2189689689689693 	299.9999999999683 	3.793452101045721e-12 	101324.9999999909
-0.2164664664664669 	299.9999999999831 	5.214218236335395e-12 	101324.9999999909
-0.2139639639639643 	299.9999999999283 	3.836218211067127e-12 	101324.9999999912
-0.2114614614614618 	299.9999999999686 	4.799185927916614e-12 	101324.9999999914
-0.2089589589589593 	299.9999999999907 	4.700012983286892e-12 	101324.9999999915
-0.2064564564564568 	299.9999999999889 	3.993612834871766e-12 	101324.9999999914
-0.2039539539539543 	299.9999999999074 	5.296796254706234e-12 	101324.9999999914
-0.2014514514514518 	299.9999999999458 	2.432298265082703e-12 	101324.9999999913
-0.1989489489489494 	299.9999999999662 	5.398047888359534e-12 	101324.9999999913
-0.1964464464464468 	299.9999999999915 	1.702976657869529e-12 	101324.9999999911
-0.1939439439439443 	299.9999999999908 	5.318106583123038e-12 	101324.9999999911
-0.1914414414414418 	299.9999999999117 	2.568305061250536e-12 	101324.9999999912
-0.1889389389389393 	300.0000000000047 	4.330994048052311e-12 	101324.999999991
-0.1864364364364368 	300.0000000000437 	2.956478768675247e-12 	101324.9999999909
-0.1839339339339343 	299.9999999999704 	3.814284009727331e-12 	101324.9999999908
-0.1814314314314318 	299.9999999999956 	2.008778111051285e-12 	101324.999999991
-0.1789289289289293 	299.9999999998921 	3.292620647257006e-12 	101324.9999999912
-0.1764264264264268 	299.9999999999777 	1.134983913074403e-12 	101324.9999999909
-0.1739239239239243 	299.999999999895 	4.080513632018084e-12 	101324.9999999908
-0.1714214214214218 	299.9999999999895 	3.37606330523569e-13 	101324.9999999909
-0.1689189189189193 	299.9999999999482 	5.454846642140827e-12 	101324.9999999909
-0.1664164164164168 	300.0000000000049 	1.18942793263205e-12 	101324.9999999907
-0.1639139139139143 	299.9999999999818 	7.158131395355108e-12 	101324.9999999906
-0.1614114114114118 	300.0000000000264 	2.433502565950812e-12 	101324.9999999902
-0.1589089089089093 	299.9999999999955 	8.941461363020972e-12 	101324.99999999
-0.1564064064064068 	299.9999999999791 	3.726370353676612e-12 	101324.99999999
-0.1539039039039043 	299.9999999999885 	9.778652294125269e-12 	101324.9999999899
-0.1514014014014018 	300.0000000000259 	2.877056121270079e-12 	101324.9999999898
-0.1488988988988993 	299.9999999999813 	9.003953362909127e-12 	101324.9999999898
-0.1463963963963968 	299.9999999999985 	1.373695915426118e-12 	101324.9999999903
-0.1438938938938943 	299.9999999999488 	8.035984512292418e-12 	101324.9999999903
-0.1413913913913918 	299.9999999999221 	1.104346105422081e-12 	101324.9999999903
-0.1388888888888893 	299.9999999999786 	6.346220185815198e-12 	101324.9999999902
-0.1363863863863868 	299.9999999998819 	1.629462907601976e-12 	101324.99999999
-0.1338838838838843 	299.9999999999113 	4.196422595603456e-12 	101324.99999999
-0.1313813813813818 	299.9999999999918 	8.687529253283796e-13 	101324.9999999899
-0.1288788788788793 	299.999999999957 	3.117948221108077e-12 	101324.9999999897
-0.1263763763763768 	299.9999999999696 	5.211537133738737e-13 	101324.9999999898
-0.1238738738738743 	299.9999999999274 	3.571723047492043e-12 	101324.99999999
-0.1213713713713717 	299.9999999999803 	1.980319131332672e-13 	101324.9999999902
-0.1188688688688693 	300.0000000000045 	4.79677372154629e-12 	101324.9999999907
-0.1163663663663668 	299.9999999999031 	6.068342203611739e-13 	101324.9999999908
-0.1138638638638643 	299.9999999999892 	6.207911100154449e-12 	101324.9999999909
-0.1113613613613618 	299.9999999999857 	7.713021081666859e-13 	101324.9999999911
-0.1088588588588592 	299.9999999999773 	7.0568446702363e-12 	101324.9999999911
-0.1063563563563568 	299.9999999999524 	1.029355272094875e-12 	101324.9999999912
-0.1038538538538543 	299.9999999999714 	6.192801932809213e-12 	101324.9999999912
-0.1013513513513517 	300.0000000000173 	1.503019530936273e-12 	101324.9999999912
-0.09884884884884926 	299.999999999938 	5.261103339108051e-12 	101324.9999999914
-0.09634634634634676 	299.9999999998872 	2.264090607296587e-12 	101324.9999999914
-0.09384384384384425 	299.9999999999268 	4.290733993174086e-12 	101324.9999999914
-0.09134134134134177 	300.0000000000232 	2.546473148434805e-12 	101324.9999999915
-0.08883883883883925 	300.0000000000097 	4.039084906734431e-12 	101324.9999999912
-0.08633633633633674 	299.9999999999492 	2.534646163368497e-12 	101324.9999999909
-0.08383383383383426 	300.0000000000103 	1.95338250848823e-12 	101324.9999999908
-0.08133133133133173 	299.9999999999669 	2.097555625122897e-12 	101324.9999999907
-0.07882882882882926 	299.9999999998772 	2.056633200017161e-12 	101324.9999999907
-0.07632632632632676 	299.9999999999566 	1.996776113016012e-12 	101324.9999999906
-0.07382382382382424 	299.9999999998934 	1.51846747590299e-12 	101324.9999999907
-0.07132132132132173 	300.0000000000097 	1.040722723228569e-12 	101324.9999999907
-0.06881881881881925 	299.9999999999543 	7.09593985054898e-13 	101324.9999999907
-0.06631631631631671 	299.999999999889 	5.540930323124213e-13 	101324.9999999909
-0.06381381381381425 	299.9999999999507 	7.282025393098794e-13 	101324.9999999911
-0.06131131131131173 	299.9999999999517 	6.54312957503992e-13 	101324.9999999911
-0.05880880880880923 	299.9999999999167 	2.833724636256918e-13 	101324.9999999912
-0.05630630630630672 	299.9999999999662 	1.468962945163509e-13 	101324.9999999911
-0.05380380380380424 	300.0000000000197 	4.99105220031348e-13 	101324.9999999911
-0.05130130130130173 	300.0000000000096 	1.17520734785322e-12 	101324.9999999911
-0.04879879879879922 	299.9999999999402 	1.568444201381427e-12 	101324.999999991
-0.04629629629629672 	299.9999999999302 	7.601784440335023e-13 	101324.9999999911
-0.04379379379379422 	299.9999999999126 	7.181998551279646e-13 	101324.999999991
-0.04129129129129173 	299.9999999999748 	1.714375785336282e-13 	101324.9999999908
-0.03878878878878922 	299.9999999999776 	3.752574155212561e-13 	101324.999999991
-0.03628628628628671 	299.9999999999773 	3.068578791676434e-13 	101324.9999999908
-0.03378378378378422 	299.9999999999246 	5.999744329058025e-13 	101324.9999999908
-0.03128128128128172 	299.9999999999656 	1.644488654675302e-12 	101324.9999999906
-0.02877877877877922 	299.9999999999663 	9.877839600664428e-13 	101324.9999999906
-0.0262762762762767 	299.9999999998934 	8.4122130037891e-13 	101324.9999999907
-0.02377377377377422 	300.0000000000207 	5.150583961309618e-13 	101324.9999999907
-0.0212712712712717 	299.9999999998965 	2.889408630991969e-13 	101324.9999999909
-0.01876876876876921 	299.9999999999744 	5.550369010427739e-13 	101324.9999999908
-0.01626626626626671 	300.0000000000124 	1.03888962543283e-12 	101324.9999999909
-0.0137637637637642 	299.9999999999602 	8.141636530870734e-13 	101324.9999999912
-0.0112612612612617 	300.0000000000142 	1.468934381952871e-12 	101324.9999999914
-0.008758758758759198 	299.9999999999972 	1.317042904276126e-12 	101324.9999999914
-0.006256256256256697 	299.9999999998806 	1.776906624364958e-12 	101324.9999999913
-0.003753753753754195 	299.999999999951 	8.781165538374447e-13 	101324.9999999911
-0.001251251251251693 	299.9999999999201 	1.130358083753201e-12 	101324.9999999911
0.00125125125125081 	299.9999999999467 	1.09439512363497e-13 	101324.9999999912
0.003753753753753312 	299.9999999999633 	6.450745314112418e-13 	101324.9999999909
0.006256256256255817 	299.9999999998814 	2.067832384169528e-13 	101324.9999999908
0.008758758758758317 	299.9999999999882 	2.209043057513861e-13 	101324.9999999908
0.01126126126126082 	300.0000000000097 	6.84141062989896e-13 	101324.9999999907
0.01376376376376332 	299.9999999999653 	1.193477365818611e-12 	101324.9999999903
0.01626626626626582 	300.0000000000093 	7.560704062824642e-13 	101324.9999999904
0.01876876876876833 	299.9999999999562 	1.172871487295367e-12 	101324.9999999905
0.02127127127127083 	299.9999999999687 	1.029240827364872e-12 	101324.9999999906
0.02377377377377332 	299.9999999999937 	6.925087602490189e-13 	101324.9999999906
0.02627627627627583 	299.9999999998994 	3.527271922946972e-13 	101324.9999999906
0.02877877877877833 	300.000000000006 	1.822216208939117e-13 	101324.9999999908
0.03128128128128083 	299.9999999999432 	2.36330962726934e-13 	101324.9999999911
0.03378378378378333 	299.9999999998971 	6.982299890389666e-13 	101324.9999999912
0.03628628628628584 	299.9999999999699 	5.830726413572968e-13 	101324.9999999913
0.03878878878878834 	299.9999999999771 	7.316786034061948e-13 	101324.9999999912
0.04129129129129084 	299.9999999999765 	1.216422195634971e-12 	101324.9999999911
0.04379379379379333 	299.9999999999378 	1.339268596894434e-12 	101324.999999991
0.04629629629629585 	299.9999999998844 	7.425972792663047e-13 	101324.9999999909
0.04879879879879834 	299.9999999999492 	7.950813834374342e-13 	101324.9999999906
0.05130130130130085 	300.0000000000142 	5.249283169439004e-13 	101324.9999999905
0.05380380380380335 	300.0000000000176 	5.05173631077073e-13 	101324.9999999903
0.05630630630630584 	299.9999999999897 	9.018753322502665e-13 	101324.9999999901
0.05880880880880836 	299.999999999913 	1.485447385111847e-12 	101324.99999999
0.06131131131131085 	299.9999999999714 	1.365204753561853e-12 	101324.9999999902
0.06381381381381336 	299.99999999996 	1.497659073691559e-12 	101324.9999999899
0.06631631631631586 	299.999999999886 	1.283720071093919e-12 	101324.9999999898
0.06881881881881835 	299.9999999999457 	3.887459556455714e-13 	101324.9999999898
0.07132132132132088 	299.9999999999883 	3.16239180533085e-13 	101324.9999999899
0.07382382382382337 	299.9999999999002 	1.776888730682544e-13 	101324.9999999896
0.07632632632632587 	299.9999999999691 	7.962203482601288e-13 	101324.9999999893
0.07882882882882837 	299.9999999999324 	9.793009070389368e-13 	101324.9999999894
0.08133133133133086 	299.9999999999816 	1.429120628336223e-12 	101324.9999999894
0.08383383383383337 	299.9999999999823 	7.107975267781919e-13 	101324.9999999896
0.08633633633633589 	299.9999999999018 	8.972609027689361e-13 	101324.9999999898
0.08883883883883838 	300.0000000000088 	1.351670568537818e-12 	101324.9999999901
0.09134134134134086 	299.9999999999853 	9.183551863139088e-13 	101324.9999999904
0.09384384384384339 	299.9999999998928 	1.12357686169667e-12 	101324.9999999907
0.09634634634634588 	299.999999999959 	1.363632249477238e-12 	101324.9999999907
0.09884884884884838 	299.9999999999637 	1.098455522697719e-12 	101324.9999999906
0.1013513513513509 	300.0000000000209 	1.338578750175522e-12 	101324.9999999905
0.1038538538538534 	299.999999999948 	1.369515364464801e-12 	101324.9999999904
0.1063563563563559 	300.0000000000177 	2.172790896681682e-12 	101324.9999999905
0.1088588588588584 	300.0000000000255 	1.811698190786477e-12 	101324.9999999905
0.1113613613613609 	299.9999999999159 	2.062607197131107e-12 	101324.9999999907
0.1138638638638634 	299.9999999999455 	2.365180133851097e-12 	101324.9999999906
0.1163663663663659 	299.9999999999399 	2.776285998019718e-12 	101324.9999999904
0.1188688688688684 	299.9999999999673 	2.755799986315049e-12 	101324.9999999903
0.1213713713713709 	299.9999999999925 	2.69060497829104e-12 	101324.9999999905
0.1238738738738734 	299.9999999999215 	3.049902117537707e-12 	101324.9999999907
0.1263763763763759 	299.9999999999863 	3.004367810033619e-12 	101324.9999999905
0.1288788788788784 	299.9999999999903 	2.423885763903444e-12 	101324.9999999904
0.1313813813813809 	299.999999999989 	2.913870232884144e-12 	101324.9999999905
0.1338838838838834 	299.9999999999711 	3.004864573072929e-12 	101324.9999999908
0.1363863863863859 	300.0000000000254 	2.832413177630612e-12 	101324.9999999907
0.1388888888888884 	300.0000000000537 	2.72938350908117e-12 	101324.9999999907
0.1413913913913909 	300.000000000002 	1.764853469105061e-12 	101324.9999999908
0.1438938938938934 	299.9999999999875 	2.620046790391731e-12 	101324.9999999909
0.1463963963963959 	299.9999999999582 	1.892277645252298e-12 	101324.9999999907
0.1488988988988985 	299.9999999999058 	3.629744218366496e-12 	101324.9999999907
0.1514014014014009 	299.9999999999687 	1.761675105833067e-12 	101324.9999999907
0.1539039039039035 	299.9999999999603 	3.575756026310571e-12 	101324.9999999906
0.1564064064064059 	299.9999999999321 	6.475733162390821e-13 	101324.9999999902
0.1589089089089084 	299.9999999999786 	3.960640212644906e-12 	101324.99999999
0.1614114114114109 	299.9999999999736 	1.335301708045049e-12 	101324.99999999
0.1639139139139134 	299.9999999999063 	3.226327747786521e-12 	101324.9999999899
0.166416416416416 	300.0000000000039 	2.064366239744968e-12 	101324.9999999897
0.1689189189189185 	300.0000000000302 	2.015821866931604e-12 	101324.9999999899
0.1714214214214209 	299.9999999999948 	2.524542567039157e-12 	101324.9999999899
0.1739239239239235 	299.9999999999861 	1.230500930698246e-12 	101324.99999999
0.1764264264264259 	299.9999999999647 	3.265636339697866e-12 	101324.9999999901
0.1789289289289284 	300.0000000000027 	8.365275286403912e-13 	101324.99999999
0.181431431431431 	299.9999999999601 	3.004590576941821e-12 	101324.99999999
0.1839339339339334 	299.9999999999644 	6.725223555036187e-13 	101324.99999999
0.186436436436436 	299.9999999999216 	2.18960542011612e-12 	101324.9999999902
0.1889389389389385 	299.9999999999888 	1.951373290550883e-12 	101324.9999999904
0.191441441441441 	299.9999999999808 	1.594323036839349e-12 	101324.9999999903
0.1939439439439434 	299.9999999999132 	2.706253464385392e-12 	101324.9999999903
0.196446446446446 	299.9999999999377 	1.146664479291511e-12 	101324.9999999903
0.1989489489489485 	299.999999999971 	3.829899123957147e-12 	101324.9999999899
0.2014514514514509 	299.9999999999812 	1.994665373633037e-12 	101324.99999999
0.2039539539539535 	299.9999999999903 	3.556801761429061e-12 	101324.9999999901
0.2064564564564559 	299.9999999999548 	2.565767407885832e-12 	101324.99999999
0.2089589589589585 	299.9999999999788 	3.331432031765567e-12 	101324.9999999901
0.211461461461461 	299.9999999999318 	3.643517352780166e-12 	101324.9999999904
0.2139639639639635 	299.9999999999851 	3.00793035018404e-12 	101324.9999999906
0.2164664664664659 	299.9999999999953 	3.871693716782221e-12 	101324.9999999907
0.2189689689689684 	299.9999999999955 	1.603209285023931e-12 	101324.9999999906
0.221471471471471 	299.9999999999945 	3.776246383110529e-12 	101324.9999999902
0.2239739739739735 	299.9999999999523 	1.347320231488028e-12 	101324.9999999901
0.226476476476476 	299.9999999999812 	2.846286510300128e-12 	101324.9999999902
0.2289789789789785 	299.9999999999948 	1.832967328808475e-12 	101324.9999999899
0.231481481481481 	299.9999999999819 	2.197490810116118e-12 	101324.99999999
0.2339839839839835 	299.9999999999818 	2.493155087503359e-12 	101324.9999999901
0.236486486486486 	300.0000000000205 	1.628644435304108e-12 	101324.9999999901
0.2389889889889885 	299.9999999999991 	2.237062504716143e-12 	101324.9999999903
0.241491491491491 	299.9999999999168 	4.302767716295369e-13 	101324.9999999904
0.2439939939939935 	299.9999999999814 	3.348331409988194e-12 	101324.9999999905
0.246496496496496 	299.999999999986 	1.413363333895913e-12 	101324.9999999904
0.2489989989989985 	300.0000000000348 	2.734877601304909e-12 	101324.9999999905
0.251501501501501 	300.0000000000284 	1.448945004424602e-12 	101324.9999999905
0.2540040040040035 	299.9999999999844 	1.399466490174526e-12 	101324.9999999905
0.256506506506506 	300.0000000000274 	1.630464438773367e-12 	101324.9999999906
0.2590090090090086 	299.9999999999021 	5.864362241308802e-13 	101324.9999999904
0.261511511511511 	300.0000000000011 	2.461678574541597e-12 	101324.9999999904
0.2640140140140135 	299.9999999999899 	7.840512481261476e-13 	101324.9999999904
0.2665165165165161 	299.9999999999245 	1.606896781252268e-12 	101324.9999999906
0.2690190190190185 	300.000000000004 	3.300355520988643e-13 	101324.9999999904
0.271521521521521 	300.0000000000057 	5.787349256841923e-13 	101324.9999999904
0.2740240240240235 	300.0000000000162 	5.969197985151858e-13 	101324.99999999
0.276526526526526 	300.0000000000073 	3.767486035558859e-13 	101324.9999999901
0.2790290290290286 	299.9999999999333 	1.530186093617466e-12 	101324.9999999903
0.281531531531531 	299.9999999999233 	4.379109583562228e-13 	101324.9999999903
0.2840340340340335 	299.9999999999778 	2.272963808590712e-12 	101324.9999999904
0.2865365365365361 	299.999999999953 	1.137784065768504e-12 	101324.9999999903
0.2890390390390385 	299.9999999999957 	1.683331684265571e-12 	101324.9999999904
0.291541541541541 	299.9999999999962 	1.478901362841959e-12 	101324.9999999903
0.2940440440440436 	299.9999999999874 	5.223320548755682e-13 	101324.9999999902
0.296546546546546 	299.99999999999 	1.949085748563452e-12 	101324.99999999
0.2990490490490486 	299.9999999999292 	1.286185147394588e-12 	101324.99999999
0.3015515515515511 	300.0000000000367 	3.359005699535132e-12 	101324.9999999898
0.3040540540540535 	299.9999999999914 	2.87881997339522e-12 	101324.9999999898
0.3065565565565562 	299.9999999999927 	4.149930373780607e-12 	101324.9999999899
0.3090590590590585 	299.9999999999853 	2.349509651240636e-12 	101324.9999999899
0.3115615615615611 	299.9999999999325 	3.583071730396138e-12 	101324.9999999899
0.3140640640640635 	300.0000000000033 	1.076099210153237e-12 	101324.9999999901
0.316566566566566 	299.9999999999883 	2.92243354160026e-12 	101324.99999999
0.3190690690690687 	299.9999999999482 	6.715626932161827e-13 	101324.9999999901
0.3215715715715711 	300.0000000000148 	3.1406623153629e-12 	101324.9999999904
0.3240740740740735 	299.9999999999972 	9.632749581100802e-13 	101324.9999999905
0.326576576576576 	299.9999999999002 	2.889731534520603e-12 	101324.9999999907
0.3290790790790786 	300.0000000000086 	5.299257252806927e-13 	101324.9999999908
0.3315815815815811 	300.0000000000352 	1.203486737787951e-12 	101324.9999999906
0.3340840840840836 	299.9999999999872 	1.024029901159352e-12 	101324.9999999905
0.3365865865865861 	300.0000000000579 	8.620188861539833e-13 	101324.9999999904
0.3390890890890886 	300.0000000000486 	2.058359050842146e-12 	101324.9999999903
0.3415915915915911 	300.0000000000001 	1.097478083260363e-12 	101324.9999999902
0.3440940940940935 	299.9999999999506 	2.34265998847003e-12 	101324.9999999902
0.3465965965965962 	300.0000000000323 	2.167925739337336e-13 	101324.9999999901
0.3490990990990985 	300.0000000000245 	8.496522309523744e-13 	101324.99999999
0.3516016016016011 	299.9999999999865 	7.810560176064791e-14 	101324.9999999901
0.3541041041041035 	300.0000000000089 	2.564551915372253e-13 	101324.9999999899
0.3566066066066061 	299.9999999999543 	3.608473839959312e-13 	101324.9999999898
0.3591091091091085 	299.9999999999208 	2.153957910933062e-12 	101324.9999999896
0.3616116116116112 	299.9999999999353 	1.011114666092566e-12 	101324.9999999897
0.3641141141141137 	299.9999999999281 	2.845297738474778e-12 	101324.99999999
0.3666166166166161 	299.9999999999205 	1.453286947577968e-12 	101324.9999999902
0.3691191191191185 	300.0000000000387 	3.209222804495222e-12 	101324.9999999901
0.371621621621621 	300.000000000014 	2.360941074938378e-12 	101324.9999999899
0.3741241241241237 	300.000000000051 	1.385099772927249e-12 	101324.9999999901
0.3766266266266261 	300.0000000000229 	2.240103570344414e-12 	101324.9999999903
0.3791291291291286 	299.999999999978 	7.991200667434815e-13 	101324.9999999905
0.3816316316316311 	299.9999999999181 	2.197187797387094e-12 	101324.9999999907
0.3841341341341336 	300.0000000000117 	8.318970796921053e-13 	101324.9999999906
0.3866366366366362 	299.9999999999986 	1.93607957586851e-12 	101324.9999999904
0.3891391391391387 	299.9999999999526 	4.634316100935284e-13 	101324.9999999905
0.391641641641641 	299.9999999999951 	2.235556595235623e-12 	101324.9999999903
0.3941441441441436 	300.0000000000064 	1.504005638435508e-12 	101324.9999999901
0.3966466466466462 	299.9999999999978 	2.307904409561946e-12 	101324.9999999898
0.3991491491491486 	299.9999999999462 	3.849690092029259e-13 	101324.9999999896
0.4016516516516512 	299.9999999999116 	1.260634107308427e-12 	101324.9999999896
0.4041541541541536 	299.9999999999441 	7.607963744647792e-13 	101324.9999999896
0.4066566566566561 	299.9999999999469 	1.063043129336916e-12 	101324.9999999896
0.4091591591591587 	299.9999999999943 	1.459623094495415e-12 	101324.9999999898
0.4116616616616612 	300.0000000000089 	5.246420670932726e-13 	101324.9999999898
0.4141641641641635 	300.0000000000425 	7.499294082879901e-13 	101324.9999999898
0.4166666666666662 	299.9999999999908 	9.871935171884774e-13 	101324.9999999897
0.4191691691691687 	299.9999999999387 	1.296331956577048e-12 	101324.9999999896
0.421671671671671 	300.0000000000092 	1.762790163599635e-12 	101324.9999999894
0.4241741741741737 	299.9999999999734 	2.922983324703516e-12 	101324.9999999893
0.4266766766766761 	299.9999999999501 	1.830478548230525e-12 	101324.9999999895
0.4291791791791785 	300.0000000000203 	4.404909386049867e-12 	101324.9999999896
0.4316816816816812 	300.0000000000116 	1.849064837164944e-12 	101324.9999999899
0.4341841841841836 	299.9999999999808 	4.760009463389404e-12 	101324.9999999896
0.4366866866866862 	299.9999999999145 	1.077436495954916e-12 	101324.9999999894
0.4391891891891885 	299.9999999999893 	3.918338235062293e-12 	101324.9999999894
0.4416916916916913 	299.9999999999806 	1.528139292873467e-12 	101324.9999999894
0.4441941941941936 	299.9999999999822 	2.839437271344857e-12 	101324.9999999896
0.4466966966966961 	299.9999999999146 	6.727049411911947e-13 	101324.9999999897
0.4491991991991987 	299.9999999999805 	7.343717954887078e-13 	101324.9999999898
0.4517017017017012 	299.9999999999791 	4.009424393689383e-14 	101324.9999999899
0.4542042042042035 	299.9999999999799 	2.165356670268194e-13 	101324.9999999901
0.4567067067067062 	299.999999999993 	4.412377611017765e-13 	101324.9999999898
0.4592092092092087 	299.9999999999253 	8.002645376404737e-13 	101324.9999999896
0.4617117117117112 	300.000000000018 	8.650901971665833e-13 	101324.9999999894
0.4642142142142137 	299.9999999999649 	6.514018789550644e-13 	101324.9999999892
0.4667167167167162 	299.9999999999897 	5.575341357038814e-13 	101324.999999989
0.4692192192192187 	299.9999999999546 	9.03899910310234e-14 	101324.9999999891
0.4717217217217212 	300.000000000012 	5.173570726637913e-13 	101324.9999999893
0.4742242242242236 	299.9999999999507 	1.152287571046901e-12 	101324.9999999895
0.4767267267267262 	299.9999999999754 	6.632800116884225e-13 	101324.9999999895
0.4792292292292287 	300.0000000000113 	7.280477242908767e-13 	101324.9999999897
0.4817317317317312 	300.0000000000271 	9.505797007050053e-13 	101324.9999999897
0.4842342342342336 	299.9999999999812 	7.595709003444254e-13 	101324.9999999898
0.4867367367367362 	299.9999999999529 	1.125766764186237e-12 	101324.9999999898
0.4892392392392387 	300.0000000000267 	7.600346591795514e-13 	101324.9999999897
0.4917417417417412 	300.0000000000052 	1.497283459979067e-12 	101324.9999999899
0.4942442442442437 	299.999999999903 	1.005860395418299e-12 	101324.9999999899
0.4967467467467462 	299.9999999999234 	1.881821703183161e-12 	101324.99999999
0.4992492492492487 	299.9999999999147 	6.467325531400404e-13 	101324.99999999
0.5017517517517511 	299.9999999999522 	7.773284434614726e-13 	101324.99999999
0.5042542542542537 	299.9999999999648 	1.055077441332207e-13 	101324.99999999
0.5067567567567562 	299.9999999999472 	2.902998012322229e-13 	101324.99999999
0.5092592592592589 	299.9999999999715 	5.485392627740355e-13 	101324.9999999904
0.5117617617617611 	299.9999999999567 	1.369721438842593e-12 	101324.9999999905
0.5142642642642637 	299.9999999999832 	1.944289613938231e-12 	101324.9999999907
0.5167667667667663 	299.9999999999715 	2.185101606852853e-12 	101324.9999999906
0.5192692692692688 	299.9999999999238 	3.536663662591293e-12 	101324.9999999905
0.5217717717717714 	299.9999999999335 	3.143228993532448e-12 	101324.9999999904
0.5242742742742736 	299.999999999938 	3.229325625864477e-12 	101324.9999999904
0.5267767767767763 	299.9999999999539 	2.585978581818894e-12 	101324.9999999904
0.5292792792792789 	299.999999999936 	2.48468729561121e-12 	101324.9999999905
0.5317817817817813 	299.9999999999053 	1.936647905886802e-12 	101324.9999999906
0.5342842842842837 	300.0000000000189 	1.365541337991681e-12 	101324.9999999908
0.5367867867867864 	300.0000000000054 	1.430059888855024e-12 	101324.9999999905
0.5392892892892888 	299.9999999999574 	9.898537779059881e-13 	101324.9999999902
0.5417917917917912 	300.0000000000028 	1.700498462972294e-12 	101324.9999999904
0.5442942942942938 	299.9999999999783 	8.003137548344859e-13 	101324.9999999903
0.5467967967967964 	299.999999999949 	2.135283270081633e-12 	101324.9999999901
0.5492992992992988 	299.9999999999409 	9.51268647095506e-13 	101324.9999999899
0.5518018018018012 	299.9999999999343 	1.942310769402466e-12 	101324.99999999
0.5543043043043039 	300.0000000000191 	9.586705340120062e-13 	101324.9999999901
0.5568068068068063 	299.9999999999889 	1.597837029365785e-12 	101324.9999999901
0.5593093093093087 	299.9999999999059 	6.906183233623088e-13 	101324.99999999
0.5618118118118114 	299.9999999999637 	1.902697448843897e-12 	101324.9999999899
0.5643143143143137 	299.9999999999427 	1.068953877495456e-12 	101324.9999999899
0.5668168168168163 	299.9999999999857 	1.754871132147653e-12 	101324.9999999898
0.5693193193193188 	300.000000000029 	1.130454362642935e-12 	101324.9999999898
0.5718218218218213 	300.0000000000262 	8.721275342761133e-13 	101324.99999999
0.5743243243243239 	300.0000000000092 	1.776566829329089e-12 	101324.99999999
0.5768268268268262 	300.0000000000072 	1.7121532701067e-12 	101324.9999999902
0.5793293293293288 	299.9999999999507 	3.435064182766494e-12 	101324.9999999901
0.5818318318318314 	299.9999999999155 	1.81541593339975e-12 	101324.99999999
0.5843343343343338 	299.9999999999766 	5.362219473026117e-12 	101324.9999999899
0.5868368368368363 	299.9999999999707 	2.269531383063782e-12 	101324.99999999
0.5893393393393387 	299.9999999999432 	4.934318857861474e-12 	101324.9999999902
0.5918418418418413 	299.9999999999404 	2.230539567550542e-12 	101324.9999999904
0.5943443443443439 	300.0000000000166 	3.875436617680253e-12 	101324.9999999907
0.5968468468468463 	300.000000000017 	1.447819685262325e-12 	101324.9999999909
0.5993493493493487 	300.0000000000381 	2.404215948499164e-12 	101324.999999991
0.6018518518518514 	299.9999999999773 	1.020787538657338e-12 	101324.9999999911
0.6043543543543537 	299.9999999999887 	2.177854386455804e-12 	101324.999999991
0.6068568568568564 	299.9999999999769 	8.004011817001516e-13 	101324.9999999909
0.6093593593593587 	299.9999999999312 	1.843333674605919e-12 	101324.999999991
0.6118618618618614 	299.9999999999269 	1.342539444050213e-12 	101324.9999999912
0.6143643643643638 	300.0000000000162 	2.419800986553182e-12 	101324.9999999908
0.6168668668668662 	299.999999999984 	1.276494211342578e-12 	101324.9999999908
0.6193693693693688 	299.9999999999582 	2.895838657860055e-12 	101324.999999991
0.6218718718718714 	299.9999999999653 	1.478765196154237e-12 	101324.9999999911
0.6243743743743737 	299.999999999936 	3.026514631175285e-12 	101324.999999991
0.6268768768768762 	299.9999999999254 	2.215082673717609e-12 	101324.9999999912
0.629379379379379 	299.9999999999493 	3.568259004251497e-12 	101324.9999999913
0.6318818818818812 	299.9999999999791 	3.332739593954214e-12 	101324.9999999915
0.6343843843843838 	300.0000000000232 	3.039568504426522e-12 	101324.9999999917
0.6368868868868864 	299.9999999999856 	3.316323256139557e-12 	101324.9999999915
0.6393893893893888 	299.9999999999217 	2.505598530050706e-12 	101324.9999999916
0.6418918918918912 	300.0000000000098 	5.079726962460995e-12 	101324.9999999916
0.6443943943943939 	299.9999999999864 	2.179818476462028e-12 	101324.9999999918
0.6468968968968963 	299.999999999984 	5.794838010039382e-12 	101324.999999992
0.6493993993993988 	299.9999999999771 	2.113524548086948e-12 	101324.999999992
0.6519019019019012 	299.9999999999765 	5.473319352050142e-12 	101324.9999999919
0.6544044044044038 	299.9999999999048 	2.688752250971419e-12 	101324.9999999918
0.6569069069069065 	299.9999999999527 	5.963862637361627e-12 	101324.9999999917
0.6594094094094087 	299.99999999996 	3.667457505192941e-12 	101324.9999999916
0.6619119119119113 	299.9999999999539 	5.939256686871501e-12 	101324.9999999913
0.664414414414414 	300.0000000000057 	4.090474884213536e-12 	101324.9999999912
0.6669169169169162 	300.0000000000177 	4.884670640334394e-12 	101324.9999999912
0.6694194194194188 	299.9999999999856 	3.706275036945401e-12 	101324.9999999913
0.6719219219219214 	299.9999999999277 	5.839526281762038e-12 	101324.9999999913
0.674424424424424 	299.9999999999748 	5.298318492426232e-12 	101324.9999999915
0.6769269269269262 	299.9999999999224 	5.954816892673991e-12 	101324.9999999916
0.679429429429429 	300.0000000000007 	5.161080128694394e-12 	101324.9999999919
0.6819319319319311 	299.9999999999782 	5.679846686603574e-12 	101324.9999999921
0.6844344344344341 	299.9999999999935 	4.87709829852958e-12 	101324.9999999923
0.686936936936936 	299.999999999989 	5.376269508539496e-12 	101324.9999999922
0.6894394394394392 	299.999999999986 	4.335788271901198e-12 	101324.9999999924
0.6919419419419413 	299.9999999999874 	3.913832447708661e-12 	101324.9999999925
0.694444444444444 	299.9999999999324 	4.289753839808558e-12 	101324.9999999924
0.6969469469469463 	299.9999999999279 	4.089462651490006e-12 	101324.9999999923
0.6994494494494489 	299.9999999999244 	5.025533771106061e-12 	101324.9999999925
0.7019519519519515 	299.9999999999822 	4.115608831686141e-12 	101324.9999999925
0.7044544544544538 	299.9999999999518 	5.536730139242733e-12 	101324.9999999925
0.7069569569569564 	299.9999999999934 	4.018108997924391e-12 	101324.9999999924
0.7094594594594589 	299.999999999961 	6.548755113393946e-12 	101324.9999999923
0.7119619619619615 	299.9999999999104 	4.280266891253911e-12 	101324.9999999922
0.7144644644644638 	299.9999999999508 	5.658089872476836e-12 	101324.9999999922
0.7169669669669665 	299.9999999999239 	4.498165676632468e-12 	101324.999999992
0.7194694694694688 	299.9999999999931 	5.375468880130812e-12 	101324.9999999921
0.7219719719719715 	299.9999999999865 	4.571697221879575e-12 	101324.9999999922
0.7244744744744737 	300.0000000000049 	5.03060307932882e-12 	101324.9999999921
0.7269769769769764 	299.999999999996 	5.664950152883753e-12 	101324.9999999921
0.7294794794794791 	299.9999999999895 	5.023002397885366e-12 	101324.9999999923
0.7319819819819813 	299.9999999999803 	6.881854278497614e-12 	101324.9999999925
0.7344844844844839 	299.9999999999208 	5.26516245651657e-12 	101324.9999999926
0.7369869869869864 	299.9999999999503 	6.496854048098599e-12 	101324.9999999927
0.739489489489489 	299.999999999942 	5.983364345051303e-12 	101324.9999999927
0.7419919919919914 	299.9999999999287 	6.147394356458412e-12 	101324.999999993
0.7444944944944939 	299.9999999999808 	6.964854435673424e-12 	101324.9999999932
0.7469969969969963 	299.9999999999736 	5.595522358344555e-12 	101324.9999999933
0.7494994994994989 	299.9999999999406 	7.547867584907866e-12 	101324.9999999933
0.7520020020020015 	299.9999999999671 	4.657678173370531e-12 	101324.9999999932
0.7545045045045039 	299.9999999999647 	6.887142295379067e-12 	101324.9999999931
0.7570070070070062 	299.9999999999449 	4.162690721509706e-12 	101324.999999993
0.7595095095095092 	299.9999999999386 	6.370669266822296e-12 	101324.9999999931
0.7620120120120112 	300.000000000008 	5.808557113775392e-12 	101324.999999993
0.7645145145145138 	299.9999999999878 	6.236487052516253e-12 	101324.9999999931
0.7670170170170165 	299.9999999999321 	6.44786769410511e-12 	101324.9999999932
0.7695195195195191 	299.9999999999251 	5.281092073179133e-12 	101324.9999999931
0.7720220220220213 	299.9999999999403 	6.919242662613581e-12 	101324.9999999932
0.7745245245245239 	299.9999999999299 	5.214095090187217e-12 	101324.9999999934
0.7770270270270263 	299.9999999999672 	7.099453677165693e-12 	101324.9999999935
0.779529529529529 	299.9999999999777 	6.091946977144675e-12 	101324.9999999937
0.7820320320320313 	299.9999999999704 	7.025239029784476e-12 	101324.9999999938
0.784534534534534 	300.0000000000056 	7.196455068163588e-12 	101324.9999999939
0.7870370370370364 	299.9999999999929 	6.828289793620394e-12 	101324.9999999937
0.7895395395395389 	299.9999999999761 	7.619840072947069e-12 	101324.9999999937
0.7920420420420413 	299.9999999999754 	6.598405446486948e-12 	101324.9999999938
0.794544544544544 	299.9999999999734 	8.090080161577557e-12 	101324.9999999939
0.7970470470470463 	300.0000000000049 	5.854378051349935e-12 	101324.9999999938
0.799549549549549 	299.9999999999914 	8.669659974286155e-12 	101324.9999999937
0.8020520520520515 	299.9999999999885 	6.400581634849711e-12 	101324.9999999936
0.8045545545545539 	299.9999999999467 	9.059043642186426e-12 	101324.9999999938
0.8070570570570563 	299.9999999999832 	8.446067825618293e-12 	101324.999999994
0.8095595595595589 	299.9999999999578 	8.871128317765369e-12 	101324.999999994
0.8120620620620614 	299.9999999999368 	8.340249284849675e-12 	101324.9999999938
0.8145645645645638 	299.9999999999964 	7.453121603235197e-12 	101324.9999999938
0.8170670670670666 	299.9999999999931 	7.800820966914585e-12 	101324.9999999938
0.8195695695695689 	299.999999999979 	6.342179738016139e-12 	101324.9999999936
0.8220720720720714 	299.9999999999409 	8.736334280050897e-12 	101324.9999999936
0.8245745745745739 	299.9999999999921 	6.625233699254496e-12 	101324.9999999939
0.8270770770770765 	299.9999999999769 	8.633454091677904e-12 	101324.9999999939
0.8295795795795788 	299.9999999999574 	7.946446315943486e-12 	101324.9999999938
0.8320820820820815 	300.0000000000153 	9.563412341278288e-12 	101324.9999999938
0.834584584584584 	300.000000000006 	9.601332783451709e-12 	101324.999999994
0.8370870870870865 	299.9999999999679 	9.578033508536534e-12 	101324.9999999944
0.8395895895895891 	299.9999999999342 	1.003536748390272e-11 	101324.9999999946
0.8420920920920915 	299.9999999999543 	9.134329938866293e-12 	101324.9999999947
0.844594594594594 	299.9999999999449 	9.845629936058361e-12 	101324.9999999949
0.8470970970970964 	299.9999999999495 	1.016337420984315e-11 	101324.9999999951
0.8495995995995991 	299.9999999999924 	1.019268197737541e-11 	101324.9999999951
0.8521021021021015 	299.999999999982 	1.070604724545796e-11 	101324.999999995
0.8546046046046039 	299.9999999999753 	1.023360807232045e-11 	101324.9999999949
0.8571071071071066 	300.0000000000005 	1.113521796993099e-11 	101324.9999999949
0.8596096096096089 	299.9999999999685 	9.132609055036044e-12 	101324.9999999948
0.8621121121121116 	299.9999999999432 	1.163324933040787e-11 	101324.9999999946
0.8646146146146139 	300.0000000000057 	9.305968610555111e-12 	101324.9999999946
0.8671171171171166 	299.9999999999852 	1.102423155580395e-11 	101324.9999999947
0.8696196196196189 	299.9999999999507 	1.034799905661164e-11 	101324.9999999948
0.8721221221221216 	299.9999999999712 	1.134183616669024e-11 	101324.9999999949
0.874624624624624 	300.0000000000009 	1.126475282988014e-11 	101324.9999999949
0.8771271271271264 	299.9999999999984 	1.065432212196985e-11 	101324.9999999949
0.879629629629629 	300.0000000000021 	1.119994044048029e-11 	101324.999999995
0.8821321321321317 	299.999999999984 	9.650094383548854e-12 	101324.9999999952
0.8846346346346339 	299.9999999999302 	1.239927880983116e-11 	101324.9999999956
0.8871371371371364 	299.9999999999582 	9.967281651378728e-12 	101324.9999999957
0.8896396396396391 	299.9999999999556 	1.127864851800287e-11 	101324.9999999957
0.8921421421421414 	299.9999999999577 	9.871838626446254e-12 	101324.9999999957
0.8946446446446441 	299.9999999999841 	1.088982246366734e-11 	101324.9999999958
0.8971471471471464 	300.0000000000011 	1.076863988546773e-11 	101324.9999999958
0.8996496496496489 	299.9999999999791 	1.093818446489767e-11 	101324.9999999958
0.9021521521521517 	299.999999999964 	1.215560209788546e-11 	101324.9999999957
0.9046546546546541 	299.9999999999876 	1.119798828856933e-11 	101324.9999999957
0.9071571571571564 	299.9999999999476 	1.227452788624901e-11 	101324.9999999959
0.9096596596596589 	299.9999999999494 	1.222643260210602e-11 	101324.9999999961
0.9121621621621616 	300.0000000000094 	1.229213948570966e-11 	101324.9999999959
0.9146646646646639 	299.9999999999788 	1.184971434859409e-11 	101324.9999999957
0.9171671671671666 	299.9999999999484 	1.152250005658316e-11 	101324.9999999957
0.9196696696696689 	300.0000000000021 	1.196289017818771e-11 	101324.9999999957
0.9221721721721714 	300.0000000000007 	1.052058122591048e-11 	101324.9999999958
0.9246746746746741 	299.9999999999459 	1.306966548023045e-11 	101324.9999999957
0.9271771771771765 	299.9999999999491 	1.07557809899351e-11 	101324.9999999956
0.9296796796796791 	299.9999999999873 	1.25115728233338e-11 	101324.9999999956
0.9321821821821816 	299.9999999999702 	1.120945135127616e-11 	101324.9999999956
0.9346846846846838 	299.9999999999552 	1.238637446490196e-11 	101324.9999999959
0.9371871871871866 	300.0000000000131 	1.215934806648156e-11 	101324.9999999963
0.9396896896896891 	300.0000000000146 	1.244376003661345e-11 	101324.9999999963
0.9421921921921914 	300.0000000000107 	1.244497981827455e-11 	101324.9999999961
0.9446946946946939 	299.9999999999713 	1.111101266718852e-11 	101324.9999999961
0.9471971971971965 	299.9999999999307 	1.380979672097534e-11 	101324.999999996
0.9496996996996991 	299.9999999999634 	1.234198138241202e-11 	101324.9999999961
0.9522022022022016 	299.9999999999752 	1.420848722076409e-11 	101324.9999999959
0.9547047047047038 	299.9999999999753 	1.30421657433567e-11 	101324.9999999958
0.9572072072072064 	299.9999999999611 	1.36332936763722e-11 	101324.9999999959
0.9597097097097093 	299.9999999999602 	1.319689720045065e-11 	101324.9999999961
0.9622122122122114 	299.9999999999566 	1.302805486456771e-11 	101324.9999999961
0.964714714714714 	299.9999999999528 	1.45484953726387e-11 	101324.999999996
0.9672172172172167 	299.9999999999606 	1.374731562242033e-11 	101324.9999999959
0.969719719719719 	299.9999999999882 	1.465428612370128e-11 	101324.9999999956
0.9722222222222214 	299.9999999999736 	1.39224449699695e-11 	101324.9999999957
0.9747247247247239 	299.9999999999705 	1.419277647789789e-11 	101324.9999999959
0.9772272272272267 	300.0000000000052 	1.401682740018543e-11 	101324.9999999962
0.9797297297297292 	299.9999999999885 	1.360368290361438e-11 	101324.9999999964
0.9822322322322313 	299.9999999999904 	1.42093029529884e-11 	101324.9999999963
0.9847347347347344 	299.9999999999905 	1.313009500368893e-11 	101324.9999999963
0.9872372372372363 	299.999999999949 	1.630319019828194e-11 	101324.9999999964
0.9897397397397389 	299.9999999999669 	1.436777717535013e-11 	101324.9999999967
0.9922422422422417 	299.999999999952 	1.629949865195728e-11 	101324.999999997
0.9947447447447441 	299.9999999999623 	1.470322333004099e-11 	101324.9999999969
0.9972472472472468 	299.9999999999741 	1.582178916421207e-11 	101324.999999997
0.999749749749749 	299.9999999999675 	1.55062383903094e-11 	101324.9999999972
1.002252252252252 	299.999999999975 	1.594081610850685e-11 	101324.9999999973
1.004754754754754 	299.9999999999949 	1.590346746819352e-11 	101324.9999999973
1.007257257257256 	299.9999999999778 	1.522684190254269e-11 	101324.9999999974
1.009759759759759 	299.9999999999658 	1.769710961548979e-11 	101324.9999999974
1.012262262262261 	299.9999999999542 	1.598535284682772e-11 	101324.9999999971
1.014764764764764 	299.9999999999345 	1.768765046195404e-11 	101324.9999999971
1.017267267267267 	299.9999999999281 	1.640411415662953e-11 	101324.9999999971
1.019769769769769 	299.9999999999683 	1.705651424160567e-11 	101324.9999999971
1.022272272272272 	299.9999999999823 	1.649515212605214e-11 	101324.999999997
1.024774774774774 	299.999999999984 	1.650327016667315e-11 	101324.9999999969
1.027277277277277 	299.9999999999778 	1.711574096259982e-11 	101324.9999999968
1.029779779779779 	300.0000000000049 	1.53721973909327e-11 	101324.9999999969
1.032282282282282 	300.0000000000077 	1.577672720511451e-11 	101324.9999999969
1.034784784784784 	300 	1.525071056077939e-11 	101324.9999999968
1.037287287287286 	299.9999999999681 	1.602356907997705e-11 	101324.999999997
1.039789789789789 	299.9999999999778 	1.645526478156542e-11 	101324.999999997
1.042292292292291 	300.0000000000149 	1.751753559768099e-11 	101324.9999999969
1.044794794794794 	300.0000000000234 	1.832637337418847e-11 	101324.9999999968
1.047297297297296 	300.0000000000359 	1.736258314516006e-11 	101324.9999999969
1.049799799799799 	299.9999999999966 	1.958270209818512e-11 	101324.9999999971
1.052302302302302 	299.9999999999619 	1.76307363704448e-11 	101324.9999999971
1.054804804804804 	299.9999999999408 	1.919991137463954e-11 	101324.9999999973
1.057307307307306 	299.9999999999302 	1.781865152044227e-11 	101324.9999999974
1.059809809809809 	299.9999999999612 	1.882388699635801e-11 	101324.9999999974
1.062312312312312 	299.9999999999552 	1.808521004565699e-11 	101324.9999999974
1.064814814814814 	299.9999999999504 	1.85268872873692e-11 	101324.9999999976
1.067317317317317 	299.9999999999297 	1.847418892288555e-11 	101324.9999999978
1.069819819819819 	299.9999999999288 	1.851596629417746e-11 	101324.9999999978
1.072322322322321 	299.9999999999923 	2.06479472408223e-11 	101324.9999999978
1.074824824824824 	300.000000000018 	1.883862571331917e-11 	101324.9999999978
1.077327327327327 	300.0000000000347 	2.058290193683962e-11 	101324.9999999979
1.079829829829829 	300.0000000000425 	1.8978890182181e-11 	101324.9999999981
1.082332332332332 	300.0000000000044 	1.959242387453148e-11 	101324.9999999981
1.084834834834834 	299.9999999999785 	1.881495929963192e-11 	101324.9999999981
1.087337337337337 	299.9999999999493 	1.903847624129147e-11 	101324.9999999981
1.089839839839839 	299.9999999999351 	2.136075978864407e-11 	101324.999999998
1.092342342342342 	299.9999999999633 	2.05295311334011e-11 	101324.9999999978
1.094844844844844 	299.9999999999601 	2.178572971005009e-11 	101324.9999999976
1.097347347347347 	299.9999999999368 	2.021400753773152e-11 	101324.9999999974
1.099849849849849 	299.9999999999302 	2.304725965101378e-11 	101324.9999999974
1.102352352352352 	299.9999999999621 	2.05755287647632e-11 	101324.9999999974
1.104854854854854 	299.999999999983 	2.253493142534348e-11 	101324.9999999974
1.107357357357357 	299.9999999999642 	2.056791760988329e-11 	101324.9999999974
1.109859859859859 	299.9999999999578 	2.174387261642045e-11 	101324.9999999976
1.112362362362362 	300.0000000000153 	2.015812297401867e-11 	101324.9999999977
1.114864864864865 	300.0000000000148 	1.999303840947752e-11 	101324.9999999979
1.117367367367367 	299.9999999999673 	2.113660234159316e-11 	101324.999999998
1.119869869869869 	299.9999999999332 	1.975940563361036e-11 	101324.999999998
1.122372372372372 	299.999999999966 	2.164206616113127e-11 	101324.9999999984
1.124874874874874 	299.9999999999739 	2.083590299853595e-11 	101324.9999999986
1.127377377377377 	299.9999999999882 	2.184451473708456e-11 	101324.9999999985
1.129879879879879 	300.0000000000198 	2.096765640644823e-11 	101324.9999999983
1.132382382382382 	300.0000000000305 	2.136724835675317e-11 	101324.9999999983
1.134884884884884 	300.0000000000093 	2.047658162873486e-11 	101324.9999999985
1.137387387387387 	300.0000000000165 	2.009875960923913e-11 	101324.9999999985
1.139889889889889 	299.9999999999652 	2.135136992625071e-11 	101324.9999999984
1.142392392392392 	299.9999999999565 	2.014836200226858e-11 	101324.9999999985
1.144894894894894 	300.0000000000197 	2.20652804624869e-11 	101324.9999999985
1.147397397397397 	300.0000000000028 	2.116171848806683e-11 	101324.9999999986
1.149899899899899 	299.9999999999452 	2.252619712568437e-11 	101324.9999999987
1.152402402402402 	299.999999999932 	2.204441839912573e-11 	101324.9999999987
1.154904904904904 	299.9999999999653 	2.314264980748761e-11 	101324.9999999987
1.157407407407407 	299.9999999999666 	2.241854020727016e-11 	101324.9999999987
1.159909909909909 	299.9999999999404 	2.244631443405365e-11 	101324.9999999987
1.162412412412412 	299.9999999999364 	2.412609716811213e-11 	101324.9999999986
1.164914914914914 	299.9999999999709 	2.239852433567659e-11 	101324.9999999986
1.167417417417417 	299.9999999999641 	2.435773470730437e-11 	101324.9999999987
1.169919919919919 	300.0000000000018 	2.369643476104516e-11 	101324.9999999988
1.172422422422422 	300.0000000000389 	2.472461969271201e-11 	101324.9999999987
1.174924924924925 	299.9999999999895 	2.33074541640276e-11 	101324.9999999987
1.177427427427427 	299.9999999999645 	2.428833931485352e-11 	101324.9999999988
1.179929929929929 	300.0000000000138 	2.531423012662338e-11 	101324.9999999988
1.182432432432432 	300.0000000000432 	2.321954935549015e-11 	101324.9999999987
1.184934934934934 	300.0000000000096 	2.438920504628298e-11 	101324.9999999989
1.187437437437437 	299.9999999999803 	2.312254560667149e-11 	101324.999999999
1.189939939939939 	299.9999999999756 	2.432847024256046e-11 	101324.999999999
1.192442442442442 	299.9999999999408 	2.380237985325587e-11 	101324.9999999989
1.194944944944944 	299.9999999999437 	2.54417295599295e-11 	101324.9999999989
1.197447447447447 	300.0000000000006 	2.466133423901058e-11 	101324.9999999988
1.199949949949949 	300.0000000000141 	2.448133177593232e-11 	101324.9999999989
1.202452452452452 	299.9999999999648 	2.526519306559831e-11 	101324.999999999
1.204954954954955 	299.9999999999553 	2.37842085951243e-11 	101324.9999999989
1.207457457457457 	299.9999999999833 	2.530848104884317e-11 	101324.9999999988
1.20995995995996 	299.9999999999847 	2.436790418753539e-11 	101324.9999999989
1.212462462462462 	299.9999999999925 	2.56482140118707e-11 	101324.9999999992
1.214964964964964 	299.9999999999869 	2.457786562941075e-11 	101324.9999999993
1.217467467467467 	299.9999999999776 	2.52401925479467e-11 	101324.9999999994
1.219969969969969 	299.9999999999678 	2.353302283537351e-11 	101324.9999999995
1.222472472472472 	300.0000000000181 	2.37934221287175e-11 	101324.9999999997
1.224974974974975 	300.0000000000431 	2.467967170880769e-11 	101324.9999999998
1.227477477477477 	299.9999999999935 	2.30495182400408e-11 	101324.9999999997
1.229979979979979 	299.9999999999827 	2.4682023711028e-11 	101324.9999999997
1.232482482482482 	299.9999999999573 	2.284146844926397e-11 	101324.9999999997
1.234984984984984 	299.9999999999587 	2.372445018815168e-11 	101324.9999999997
1.237487487487487 	299.9999999999895 	2.198322129060804e-11 	101324.9999999999
1.239989989989989 	299.9999999999922 	2.292524049629391e-11 	101325.0000000001
1.242492492492492 	300.0000000000211 	2.340984608307245e-11 	101325
1.244994994994994 	299.9999999999934 	2.163194756951149e-11 	101325.0000000002
1.247497497497497 	299.9999999999832 	2.301020212619183e-11 	101325.0000000003
1.249999999999999 	300 	2.227461015973367e-11 	101325.0000000003
