-1.25 	300 	0.1183454856665823 	101372.5528258148
-1.247497497497497 	300.0372056560668 	0.1111245440800828 	101370.4707938542
-1.244994994994995 	300.0354719380079 	0.1017184288191094 	101366.9349583885
-1.242492492492492 	300.0319223947266 	0.09300557652764949 	101362.7395971894
-1.23998998998999 	300.0277579355941 	0.08019273097552088 	101357.8192153885
-1.237487487487487 	300.0230997538226 	0.06683395536428566 	101352.3110608841
-1.234984984984985 	300.0181132166236 	0.05233009247807573 	101346.4150855751
-1.232482482482482 	300.0127709067525 	0.03688555682756845 	101340.0986544558
-1.22997997997998 	300.0071840478556 	0.02073313937039539 	101333.4933427347
-1.227477477477477 	300.0014850484552 	0.008173450643683713 	101326.7557882628
-1.224974974974975 	299.9957741811977 	0.01223288412839728 	101320.0045095238
-1.222472472472472 	299.9901053007823 	0.02866255695372925 	101313.3032041187
-1.21996996996997 	299.9845704261515 	0.04466809261761458 	101306.7606223813
-1.217467467467467 	299.9793322404097 	0.05983376707789941 	101300.568978969
-1.214964964964965 	299.9744648680817 	0.07389878144159738 	101294.8158833808
-1.212462462462462 	299.9700284899442 	0.08666908923944625 	101289.5723868974
-1.20995995995996 	299.9661635037615 	0.0978404055478696 	101285.0043924698
-1.207457457457457 	299.9629743148438 	0.1070704292158674 	101281.2352266035
-1.204954954954955 	299.9604816487865 	0.114267138479818 	101278.289279783
-1.202452452452452 	299.9587000842461 	0.1193931523881861 	101276.1837093654
-1.19994994994995 	299.9576659284556 	0.1223663168184881 	101274.9614711167
-1.197447447447447 	299.9574056284847 	0.1231500062919672 	101274.6538190889
-1.194944944944945 	299.9579283831955 	0.1216489274451966 	101275.2715556053
-1.192442442442442 	299.9592487177619 	0.1178078150144753 	101276.8318478633
-1.18993993993994 	299.961363694996 	0.1116770222114331 	101279.3312333804
-1.187437437437437 	299.9642148674836 	0.1034433424833137 	101282.7007580146
-1.184934934934935 	299.9677111860618 	0.09334756913426354 	101286.832839647
-1.182432432432432 	299.9717775749 	0.08157345343083638 	101291.6388291104
-1.17992992992993 	299.9763383941015 	0.06836859902175443 	101297.0294055882
-1.177427427427427 	299.9813117892098 	0.05396155685426902 	101302.9078210268
-1.174924924924925 	299.9866289414932 	0.03859489226246673 	101309.192857992
-1.172422422422422 	299.9921923240649 	0.02258022931954112 	101315.7692380935
-1.16991991991992 	299.9978570258579 	0.007813630311872358 	101322.4657316548
-1.167417417417417 	300.0035419494737 	0.01027127618819567 	101329.186471259
-1.164914914914915 	300.0091978075361 	0.02661177836782404 	101335.8731261642
-1.162412412412412 	300.0147230942928 	0.04259752518762898 	101342.4057628104
-1.15990990990991 	300.0200067419972 	0.05785100540905684 	101348.6529771732
-1.157407407407407 	300.0249307320711 	0.07207817565015646 	101354.4752265648
-1.154904904904904 	300.0293795764094 	0.08496031192549876 	101359.7358856828
-1.152402402402403 	300.0332699087826 	0.09620738877878802 	101364.336248281
-1.1498998998999 	300.0365374340539 	0.1056564597790778 	101368.2002932169
-1.147397397397397 	300.0391369037768 	0.1131662967606737 	101371.2743915197
-1.144894894894895 	300.0410450790171 	0.1186507593567281 	101373.531058349
-1.142392392392392 	300.0422159896627 	0.1219961383766208 	101374.9158777531
-1.13988988988989 	300.0426011860702 	0.1230992965164215 	101375.3714354046
-1.137387387387387 	300.0421758148581 	0.1218654930193588 	101374.8684439701
-1.134884884884885 	300.0409288797782 	0.1182534570617662 	101373.3939185936
-1.132382382382382 	300.0388953233775 	0.1124144686077906 	101370.9891790263
-1.12987987987988 	300.0361634257055 	0.1045131564858617 	101367.7586204603
-1.127377377377377 	300.0327857657122 	0.09474982894224024 	101363.764468793
-1.124874874874875 	300.0288084137037 	0.08329342327520704 	101359.0613241738
-1.122372372372372 	300.0243033208409 	0.07023492881799126 	101353.7342783429
-1.11986986986987 	300.0193450601649 	0.05585649726539754 	101347.8716420562
-1.117367367367367 	300.014026717228 	0.04048290697432572 	101341.5835038107
-1.114864864864865 	300.0084844634322 	0.02444027150427744 	101335.0308757533
-1.112362362362362 	300.0028091261417 	0.008077702992464133 	101328.3212344284
-1.10985985985986 	299.9970942503352 	0.00912444703854859 	101321.5651314709
-1.107357357357357 	299.9914035883221 	0.02493798225131196 	101314.838007344
-1.104854854854855 	299.9858224715217 	0.0410555630574853 	101308.2406784709
-1.102352352352353 	299.9804957457536 	0.05644317285205583 	101301.9443018927
-1.09984984984985 	299.9755461188055 	0.07073890232036044 	101296.0939381219
-1.097347347347347 	299.9710663452342 	0.08368700475569014 	101290.799092929
-1.094844844844845 	299.9671239653252 	0.09512317508597105 	101286.1396034999
-1.092342342342342 	299.9637670105088 	0.1048187731553171 	101282.1721380649
-1.08983983983984 	299.9610576122254 	0.1126140998856117 	101278.9700296468
-1.087337337337337 	299.9590722152815 	0.1183243619153431 	101276.6235921209
-1.084834834834835 	299.9578667926356 	0.1217938642295424 	101275.1989087436
-1.082332332332332 	299.9574662637201 	0.1229733860910953 	101274.7255373211
-1.07982982982983 	299.9578685098119 	0.121808201316079 	101275.2008897081
-1.077327327327327 	299.9590474159751 	0.1183813883563647 	101276.5940117349
-1.074824824824825 	299.9609792040808 	0.1127881390904653 	101278.8769252346
-1.072322322322323 	299.9636312026339 	0.1051354433080113 	101282.011043572
-1.06981981981982 	299.9669464726608 	0.09557319416793325 	101285.9291208307
-1.067317317317317 	299.9708661822124 	0.08421459393018711 	101290.5617359473
-1.064814814814815 	299.9753218748434 	0.07132724884048072 	101295.8279864046
-1.062312312312312 	299.9802188130971 	0.05716205196743333 	101301.6159911701
-1.05980980980981 	299.98546191817 	0.04201240781071146 	101307.8134445804
-1.057307307307307 	299.9909439424928 	0.02620516497942046 	101314.2935806443
-1.054804804804805 	299.9965496084101 	0.009945623491050597 	101320.9202231081
-1.052302302302302 	300.0022183776013 	0.009012066685024253 	101327.6217672037
-1.0497997997998 	300.0078853695113 	0.02283190244711896 	101334.3215207943
-1.047297297297297 	300.0134304855792 	0.03887758121224252 	101340.8775316415
-1.044794794794795 	300.0187350595829 	0.05417678970509934 	101347.1494159675
-1.042292292292292 	300.0236862096941 	0.06849446181805653 	101353.0037248181
-1.03978978978979 	300.028204771512 	0.08156665574341618 	101358.3467427212
-1.037287287287287 	300.0322288772897 	0.09318382477928921 	101363.105257037
-1.034784784784785 	300.0356802250001 	0.1031713579799483 	101367.1866414178
-1.032282282282283 	300.0384806790942 	0.11126394484289 	101370.4983868968
-1.02977977977978 	300.0405829583655 	0.1173127755801504 	101372.9846029
-1.027277277277277 	300.0419262503116 	0.1211753338339759 	101374.5732496228
-1.024774774774775 	300.0424794729162 	0.1227747914329923 	101375.2275449975
-1.022272272272272 	300.0422341395973 	0.1220738917869842 	101374.9374428904
-1.01976976976977 	300.0411926798777 	0.1190457983053044 	101373.7058860649
-1.017267267267267 	300.0393774489993 	0.1138096067901018 	101371.5593470633
-1.014764764764765 	300.0368455999018 	0.1064588945270958 	101368.5653336924
-1.012262262262262 	300.0336258499904 	0.09717046702488968 	101364.7579089694
-1.00975975975976 	300.0297873925466 	0.08611822713485211 	101360.2189749574
-1.007257257257257 	300.0254059401207 	0.07342095026474488 	101355.0380811486
-1.004754754754755 	300.0205578672714 	0.05937171534441599 	101349.3056826001
-1.002252252252252 	300.0153232032659 	0.04424353146151713 	101343.1164091136
-0.9997497497497498 	300.0098182705267 	0.02831439351447494 	101336.607852096
-0.9972472472472473 	300.0041255039791 	0.01192604067090412 	101329.8775340045
-0.9947447447447449 	299.9983844959547 	0.008946422803141729 	101323.0904712616
-0.9922422422422421 	299.9926763578728 	0.02125979118536278 	101316.3426078842
-0.9897397397397399 	299.987086164909 	0.03740659036232655 	101309.7344709777
-0.9872372372372376 	299.9817327908909 	0.05288473125111887 	101303.4065511867
-0.9847347347347346 	299.9767113995812 	0.06737758305099997 	101297.4712968722
-0.9822322322322323 	299.9721113604249 	0.08065958221238376 	101292.0342772907
-0.9797297297297296 	299.9680135758581 	0.09252187167726811 	101287.1910678397
-0.9772272272272275 	299.9644964903009 	0.1026474052715921 	101283.0343100855
-0.9747247247247248 	299.9616468703594 	0.1108751051867061 	101279.6664912772
-0.9722222222222224 	299.9595307071216 	0.1169869659795936 	101277.1655022992
-0.9697197197197196 	299.9581819738897 	0.1208874323155425 	101275.5714548614
-0.9672172172172175 	299.9576164059529 	0.1225594528392171 	101274.9030324927
-0.9647147147147147 	299.9578325777277 	0.1219207454337083 	101275.1584696143
-0.9622122122122124 	299.9588213676246 	0.1190469033288649 	101276.326943439
-0.9597097097097099 	299.9605756814149 	0.1139566844619938 	101278.4001002306
-0.9572072072072073 	299.9630612444807 	0.1067667505422614 	101281.337514499
-0.9547047047047047 	299.9662227375644 	0.09763178917630513 	101285.0738384157
-0.9522022022022023 	299.9700029083653 	0.08667407097080497 	101289.5414747932
-0.9496996996996998 	299.9743303999051 	0.07417093248077891 	101294.6561816299
-0.9471971971971973 	299.9791199164666 	0.06030776417163459 	101300.3171659278
-0.9446946946946947 	299.9842860994533 	0.04539245083513437 	101306.423626556
-0.9421921921921923 	299.9897157107633 	0.0297347622963983 	101312.8417562195
-0.93968968968969 	299.9952926230142 	0.01357560734398379 	101319.4343140053
-0.9371871871871872 	300.000927085752 	0.008301783204264388 	101326.0952427717
-0.9346846846846848 	300.0065466707049 	0.01897813268984822 	101332.7388848876
-0.9321821821821823 	300.0120622542544 	0.0349530604598971 	101339.2598880539
-0.9296796796796799 	300.017385913847 	0.05031036757871663 	101345.5542809959
-0.9271771771771771 	300.0224133716829 	0.06484698731076902 	101351.4987217995
-0.9246746746746748 	300.0270571799749 	0.07824043650166698 	101356.989784346
-0.9221721721721724 	300.0312214008728 	0.09027335314350537 	101361.9139526486
-0.9196696696696698 	300.0348156990082 	0.1006835209617961 	101366.1643291666
-0.9171671671671672 	300.0377687428234 	0.1092095543731494 	101369.6565214613
-0.9146646646646649 	300.0400369844613 	0.11574392085909 	101372.3389539552
-0.9121621621621623 	300.041562300389 	0.1201357899514856 	101374.1428652174
-0.9096596596596597 	300.0423162471749 	0.1223231238199025 	101375.0345660195
-0.9071571571571573 	300.0422712993272 	0.122208020896513 	101374.9814052819
-0.9046546546546547 	300.041427804844 	0.1197519538231625 	101373.9839728383
-0.9021521521521524 	300.0398096244584 	0.1150598542465793 	101372.0704435876
-0.8996496496496498 	300.0374631914381 	0.1082361159446147 	101369.2956976671
-0.8971471471471473 	300.0344187408323 	0.09945711478760337 	101365.6955606102
-0.894644644644645 	300.0307402858066 	0.08884377792440165 	101361.3457813462
-0.892142142142142 	300.0264817436455 	0.07651883585422757 	101356.3102073905
-0.8896396396396397 	300.0217172322263 	0.06272965462212356 	101350.6765504357
-0.8871371371371374 	300.0165382048214 	0.04776151353464834 	101344.5530013831
-0.8846346346346349 	300.011066215077 	0.03195177141494097 	101338.0833387538
-0.8821321321321324 	300.0054098908525 	0.01565015806698485 	101331.3960139034
-0.8796296296296297 	299.9996995406174 	0.007834791785567745 	101324.6451391005
-0.8771271271271271 	299.9939982291967 	0.01743656561332877 	101317.9052719236
-0.8746246246246248 	299.98838372643 	0.0336675246607098 	101311.2683269713
-0.8721221221221224 	299.9829633074953 	0.04932720251924815 	101304.8610992586
-0.8696196196196196 	299.9778477717419 	0.06407855896755989 	101298.8144909175
-0.8671171171171175 	299.9731413806911 	0.07767542267219094 	101293.2517295637
-0.8646146146146148 	299.9689294964499 	0.08986202949191439 	101288.2736367341
-0.8621121121121121 	299.9652890920196 	0.1003519822905083 	101283.9711022414
-0.8596096096096097 	299.9623035478455 	0.1089781107592853 	101280.4426217488
-0.857107107107107 	299.9600343446492 	0.1155235791784387 	101277.760756188
-0.8546046046046049 	299.958523319911 	0.1199062693825073 	101275.9749108268
-0.8521021021021022 	299.9577904801966 	0.12205792429147 	101275.1088024126
-0.8495995995995997 	299.957836291317 	0.1219149488083255 	101275.162916912
-0.8470970970970974 	299.958652896619 	0.1195376951985588 	101276.1279105915
-0.8445945945945946 	299.9602332806219 	0.1149463944979033 	101277.9954951849
-0.8420920920920922 	299.9625403387317 	0.1082712641389092 	101280.7219542191
-0.8395895895895897 	299.9655315046017 	0.09961750903775035 	101284.2569551059
-0.8370870870870872 	299.9691592620096 	0.08911012402784245 	101288.5444420684
-0.8345845845845846 	299.9733599125981 	0.07697489654368546 	101293.5091837817
-0.8320820820820823 	299.9780486636366 	0.0634100018960445 	101299.0510010193
-0.8295795795795798 	299.9831313717989 	0.04875364563750843 	101305.0587532749
-0.8270770770770772 	299.988482114192 	0.03331151545579782 	101311.3835818917
-0.8245745745745746 	299.9939940889633 	0.01735113013908643 	101317.8993175221
-0.8220720720720721 	299.9995778135146 	0.006723084762040056 	101324.5001867459
-0.8195695695695699 	300.005169328133 	0.01500259978608548 	101331.1105474844
-0.817067067067067 	300.0106961658676 	0.03101127536110697 	101337.6447957666
-0.8145645645645651 	300.0160652741237 	0.04649193735257888 	101343.9928396854
-0.8120620620620621 	300.0211577029864 	0.0612285406603459 	101350.0140450835
-0.8095595595595597 	300.0258931591113 	0.07488894007991909 	101355.6134190774
-0.8070570570570572 	300.0301718574431 	0.08724057896954344 	101360.6728861669
-0.8045545545545546 	300.0339032656847 	0.09804369288500399 	101365.0853826285
-0.8020520520520523 	300.0370148919467 	0.107010568107879 	101368.7650636467
-0.7995495495495494 	300.0394547317965 	0.1140369794618633 	101371.6504235505
-0.7970470470470474 	300.041154047674 	0.1189652892179569 	101373.660093451
-0.7945445445445446 	300.042097932289 	0.121705343002951 	101374.7764004863
-0.7920420420420423 	300.0422534638289 	0.122177463237652 	101374.9603599096
-0.7895395395395397 	300.0416210666201 	0.1203232205411278 	101374.2125330136
-0.7870370370370371 	300.0402167920265 	0.1162424525796206 	101372.5519720833
-0.7845345345345348 	300.0380727981658 	0.1099937037202733 	101370.0166219001
-0.7820320320320323 	300.0351970354903 	0.1017137968026631 	101366.6159442539
-0.7795295295295296 	300.0316612401372 	0.09149419658917926 	101362.4348531716
-0.7770270270270272 	300.0275120908144 	0.07946974698654026 	101357.5285730235
-0.7745245245245247 	300.0228371506601 	0.0659619851326847 	101352.000792184
-0.7720220220220222 	300.0177347856945 	0.05123239264715505 	101345.9678295148
-0.7695195195195199 	300.0123249337733 	0.03561260654047944 	101339.5715584003
-0.767017017017017 	300.0067060291984 	0.01943142378218022 	101332.9284285706
-0.7645145145145147 	300.001021398644 	0.005900767697785707 	101326.207862391
-0.7620120120120122 	299.9953196461856 	0.01361710101984877 	101319.4674173299
-0.7595095095095097 	299.9896761198512 	0.02992081084986718 	101312.7960928219
-0.7570070070070072 	299.9842049582418 	0.04574827737748199 	101306.3288022879
-0.7545045045045048 	299.9790167241337 	0.06073813586269799 	101300.1962363951
-0.7520020020020022 	299.9742089096824 	0.07461366740196765 	101294.5135178661
-0.7494994994994997 	299.9698709374265 	0.08712478550245825 	101289.3863668144
-0.7469969969969972 	299.9660962646538 	0.09797709778283592 	101284.9251219674
-0.7444944944944945 	299.9629767187317 	0.1070127012207141 	101281.2382347932
-0.7419919919919924 	299.9605674101778 	0.1139941271473496 	101278.3908206476
-0.7394894894894897 	299.9589022434448 	0.1188125242655406 	101276.4227779018
-0.7369869869869872 	299.9579999166472 	0.1214458137704279 	101275.3563511931
-0.7344844844844846 	299.9578678944105 	0.1218144954521794 	101275.2003265672
-0.7319819819819822 	299.9585072194097 	0.1199862408026029 	101275.9557953741
-0.7294794794794797 	299.9599098981438 	0.1159263000858554 	101277.6134065404
-0.7269769769769773 	299.962042530334 	0.109703096483642 	101280.1336757684
-0.7244744744744747 	299.9648773685346 	0.1014756816978973 	101283.4839155066
-0.721971971971972 	299.9683728522787 	0.09134762095443538 	101287.6150619734
-0.7194694694694695 	299.9724582506437 	0.07958165353267489 	101292.4435261287
-0.7169669669669674 	299.9770390308353 	0.06634315224624153 	101297.8577124004
-0.7144644644644647 	299.9820189539569 	0.0519456698585584 	101303.7438885649
-0.711961961961962 	299.9872851587023 	0.03674374621294652 	101309.9687410228
-0.7094594594594597 	299.9927451067292 	0.02096465835059634 	101316.4229192213
-0.7069569569569573 	299.9982936356456 	0.004967345707507554 	101322.9820846142
-0.7044544544544545 	300.0038480302067 	0.01140099934228168 	101329.5485149439
-0.7019519519519523 	300.0093578514968 	0.02716760089863001 	101336.0625463583
-0.6994494494494495 	300.0147421120098 	0.04270865997773352 	101342.4284451672
-0.6969469469469471 	300.0198917708143 	0.05760476100495014 	101348.5172570004
-0.6944444444444446 	300.0247192205896 	0.07148627044550476 	101354.2253245512
-0.6919419419419421 	300.0291029730406 	0.08416237268065818 	101359.4089866252
-0.6894394394394396 	300.0329590027674 	0.09536463181569935 	101363.9687852063
-0.6869369369369374 	300.0362219992916 	0.1047256472762919 	101367.8274601099
-0.6844344344344344 	300.0388270552452 	0.1122114090246118 	101370.9081775159
-0.6819319319319321 	300.0407055866933 	0.1176286109836756 	101373.1297626327
-0.6794294294294296 	300.041839968998 	0.1209290813136109 	101374.4713681364
-0.6769269269269272 	300.0421921157722 	0.1220349224640569 	101374.8878407067
-0.6744244244244245 	300.0417672566657 	0.1207737893770844 	101374.3854336072
-0.6719219219219222 	300.0405683098555 	0.1172663641434482 	101372.9676925409
-0.6694194194194195 	300.0386021775298 	0.1115357473226872 	101370.6426667242
-0.6669169169169172 	300.0358898584714 	0.103754856587857 	101367.4352746884
-0.6644144144144146 	300.0325171638103 	0.09402538233852893 	101363.4469977412
-0.661911911911912 	300.0285224991324 	0.0824043737796939 	101358.7233961118
-0.6594094094094097 	300.0239884062354 	0.06926691097452502 	101353.3620945315
-0.656906906906907 	300.0189956347953 	0.05480874461613705 	101347.4586458507
-0.6544044044044046 	300.0136430875588 	0.0394064249887011 	101341.1300903555
-0.6519019019019021 	300.008047496704 	0.02336088829833322 	101334.5144099896
-0.6493993993993996 	300.002370996748 	0.006839223511783583 	101327.8034285805
-0.6468968968968971 	299.9966624480061 	0.01101576586212005 	101321.0548511337
-0.6443943943943946 	299.9909855245359 	0.02610985197593828 	101314.343967196
-0.6418918918918921 	299.9854533826469 	0.04210604983174194 	101307.804562094
-0.6393893893893897 	299.9801849705212 	0.05729108296121233 	101301.5771170796
-0.6368868868868871 	299.9752926870003 	0.0714637022095234 	101295.7945502067
-0.6343843843843846 	299.9708613774707 	0.08427629599895334 	101290.5570238985
-0.6318818818818821 	299.9669760423837 	0.09547338415084361 	101285.9649375752
-0.6293793793793795 	299.9637192873743 	0.1049010821521736 	101282.1159046481
-0.6268768768768773 	299.9611478947287 	0.1123044776098049 	101279.0768723104
-0.6243743743743745 	299.959301258288 	0.1176443653756888 	101276.8943681484
-0.6218718718718721 	299.9582177022711 	0.120786421625449 	101275.6136541451
-0.6193693693693696 	299.9579109160208 	0.1216550955230975 	101275.2511680705
-0.6168668668668671 	299.9583880276485 	0.1202851089759138 	101275.8150099166
-0.6143643643643645 	299.9596376259702 	0.1166567661125567 	101277.291675522
-0.6118618618618621 	299.9616200478295 	0.1109388039509147 	101279.6344507774
-0.6093593593593596 	299.9642910800724 	0.1031978658165115 	101282.7910831377
-0.6068568568568571 	299.9676226867509 	0.09355941927061888 	101286.7285056145
-0.6043543543543546 	299.9715538015176 	0.08221464574285026 	101291.3746131078
-0.6018518518518521 	299.9760070947636 	0.06930755310457488 	101296.6380489376
-0.5993493493493496 	299.980885749416 	0.05522093966893944 	101302.4044898737
-0.5968468468468471 	299.9860758134823 	0.04022780049347804 	101308.539279525
-0.5943443443443446 	299.991466873179 	0.02462374730995182 	101314.9119324512
-0.591841841841842 	299.9969731371917 	0.008739947524361106 	101321.4210813331
-0.5893393393393397 	300.0024989357586 	0.009631707659232833 	101327.9536179017
-0.5868368368368371 	300.00800842011 	0.02322923672967571 	101334.4671838237
-0.5843343343343346 	300.0134174936942 	0.03885202910698638 	101340.862341005
-0.5818318318318321 	300.0186207063533 	0.05389896796398654 	101347.0143886592
-0.5793293293293297 	300.0235182658947 	0.06803332458873461 	101352.805304105
-0.5768268268268271 	300.0280022432013 	0.08099115597683504 	101358.1074171698
-0.5743243243243245 	300.0319774050191 	0.09248070931732776 	101362.8080575676
-0.5718218218218221 	300.0353676560837 	0.1022664405262499 	101366.8171740112
-0.5693193193193196 	300.038116252955 	0.1102118072499174 	101370.0676096238
-0.5668168168168171 	300.0401824183077 	0.1161761385070038 	101372.5110818239
-0.5643143143143147 	300.0415326509079 	0.1200683244870944 	101374.1079346315
-0.5618118118118121 	300.0421232529458 	0.1217690650939104 	101374.8064442228
-0.5593093093093094 	300.0419198459159 	0.1211663734169865 	101374.5658873911
-0.5568068068068072 	300.0409067414178 	0.1182280450111918 	101373.3679188505
-0.5543043043043046 	300.0390965446083 	0.1129894605632044 	101371.2273143957
-0.551801801801802 	300.0365344255406 	0.1055897931963783 	101368.1975161695
-0.5492992992992995 	300.0332843478521 	0.09619188770644477 	101364.3542383952
-0.5467967967967969 	300.0294115149151 	0.08499136211640188 	101359.7746573659
-0.5442942942942947 	300.0249937859153 	0.07221775716428933 	101354.5509181601
-0.5417917917917919 	300.0201122142668 	0.05809369631045994 	101348.77890911
-0.5392892892892895 	300.0148525760284 	0.04289864797880877 	101342.5601250607
-0.536786786786787 	300.0093202217533 	0.02691909252348905 	101336.0191814058
-0.5342842842842846 	300.0036333963738 	0.01047109040350797 	101329.2959014571
-0.531781781781782 	299.9979003280745 	0.009061185146913519 	101322.5182748219
-0.5292792792792794 	299.9922195299881 	0.02253057991049882 	101315.8027449198
-0.526776776776777 	299.9866900434067 	0.03851884149665544 	101309.2663810594
-0.5242742742742745 	299.9813976163414 	0.05382293082850317 	101303.0105318455
-0.521771771771772 	299.9764212119193 	0.0682066110301127 	101297.1284612072
-0.5192692692692695 	299.9718500016364 	0.08140877862322332 	101291.7255394489
-0.516766766766767 	299.9677907835143 	0.09312373961816109 	101286.9279207135
-0.5142642642642645 	299.9643568639761 	0.1030323696934948 	101282.869447004
-0.511761761761762 	299.9616435061753 	0.1108676890261211 	101279.6626681336
-0.5092592592592596 	299.9597053155784 	0.1164747508007009 	101277.3719965554
-0.506756756756757 	299.9585487510809 	0.1198307960038093 	101276.005051211
-0.5042542542542544 	299.9581444130705 	0.1210113865628613 	101275.5272044394
-0.5017517517517521 	299.9584524858489 	0.120123201290298 	101275.8912340236
-0.4992492492492494 	299.9594465235324 	0.1172378889874652 	101277.065917899
-0.496746746746747 	299.9611258873801 	0.1123586536011592 	101279.0505165879
-0.4942442442442445 	299.9635100582006 	0.1054367796694425 	101281.8681056737
-0.4917417417417421 	299.9666164697601 	0.09643386983714212 	101285.5393459995
-0.4892392392392395 	299.9704298071277 	0.08540407296144337 	101290.0461863786
-0.486736736736737 	299.9748769763555 	0.07256335361907608 	101295.3023454249
-0.4842342342342345 	299.9798195643396 	0.05830704753670836 	101301.1442920502
-0.481731731731732 	299.9850728949529 	0.04315339287730323 	101307.3538075519
-0.4792292292292296 	299.9904479788148 	0.02763349640660054 	101313.707548829
-0.4767267267267268 	299.9958025036152 	0.01215361213035976 	101320.0372653148
-0.4742242242242246 	300.0010584149808 	0.006568514564716959 	101326.2506946524
-0.471721721721722 	300.0062147635277 	0.01802748379164626 	101332.3466863572
-0.4692192192192195 	300.0113084018022 	0.03279571834225547 	101338.3687852956
-0.4667167167167169 	300.0163707805085 	0.04745624899846633 	101344.3541935999
-0.4642142142142145 	300.0213875681431 	0.06195861158390169 	101350.2859409335
-0.461711711711712 	300.0262747688213 	0.07605937305077648 	101356.0647246672
-0.4592092092092094 	300.0308785635875 	0.08931892789022813 	101361.5086449794
-0.456706706706707 	300.034993734281 	0.1011528573474124 	101366.3749656273
-0.4542042042042045 	300.0383943324407 	0.1109191398810498 	101370.396450972
-0.451701701701702 	300.0408701598878 	0.1180214527233549 	101373.324425757
-0.4491991991991995 	300.0422616572991 	0.1220082975141523 	101374.9701192547
-0.4466966966966969 	300.0424871797192 	0.1226498849709698 	101375.2368552298
-0.4441941941941945 	300.0415574788839 	0.1199799338426813 	101374.1374609455
-0.441691691691692 	300.0395766523054 	0.1142969677114915 	101371.7951306562
-0.4391891891891895 	300.0367286680474 	0.1061249213134333 	101368.4272803036
-0.436686686686687 	300.0332510793652 	0.09614046977224676 	101364.3149450813
-0.4341841841841846 	300.0294032790401 	0.08508231320669785 	101359.7649376548
-0.431681681681682 	300.0254338309049 	0.0736592958164549 	101355.0712151443
-0.4291791791791794 	300.0215533037342 	0.06247485685823141 	101350.4827729697
-0.426676676676677 	300.0179187451143 	0.05198371160125327 	101346.1852934664
-0.4241741741741744 	300.0146324203095 	0.04248502463872431 	101342.2996661114
-0.421671671671672 	300.0117487172039 	0.03413992902298699 	101338.8901639479
-0.4191691691691694 	300.0092837387634 	0.02699856006556536 	101335.9757937217
-0.4166666666666669 	300.0072253393383 	0.0210288291841572 	101333.5421676866
-0.4141641641641645 	300.0055424471251 	0.01614327679289009 	101331.5525281205
-0.411661661661662 	300.0041929996798 	0.01222201484337673 	101329.957128975
-0.4091591591591594 	300.0031301992988 	0.009130883358281347 	101328.7006323516
-0.406656656656657 	300.002307082788 	0.006734760588573135 	101327.7275085427
-0.4041541541541545 	300.0016795703492 	0.004906490735891452 	101326.9856396216
-0.401651651651652 	300.0012082565369 	0.003532171170345099 	101326.4284367034
-0.3991491491491494 	300.0008592373836 	0.002513631861978363 	101326.0158153225
-0.396646646646647 	300.0006042460546 	0.001768905919876297 	101325.714357144
-0.3941441441441444 	300.000420342574 	0.001231383250821018 	101325.496941176
-0.3916416416416419 	300.000289343378 	0.0008482019361726362 	101325.342070318
-0.3891391391391395 	300.0001971366503 	0.0005782900923314607 	101325.2330608959
-0.3866366366366368 	300.0001329778963 	0.0003903440835108113 	101325.1572105783
-0.3841341341341344 	300.0000888295664 	0.0002609230339485363 	101325.1050170797
-0.381631631631632 	300.0000587762315 	0.0001727592507195376 	101325.0694872141
-0.3791291291291294 	300.0000385308745 	0.0001133259748088825 	101325.0455524494
-0.3766266266266269 	300.000025030385 	7.366593666372013e-05 	101325.0295917178
-0.3741241241241244 	300.0000161161975 	4.746112506016073e-05 	101325.0190530752
-0.371621621621622 	300.0000102866602 	3.031264690573104e-05 	101325.0121612113
-0.3691191191191194 	300.0000065099824 	1.919555619139887e-05 	101325.0076962954
-0.366616616616617 	300.0000040855551 	1.20542721195226e-05 	101325.0048300573
-0.3641141141141143 	300.0000025429995 	7.507826501089408e-06 	101325.0030064742
-0.3616116116116119 	300.0000015701564 	4.638588961633326e-06 	101325.0018563638
-0.3591091091091095 	300.0000009618885 	2.843280324919314e-06 	101325.0011371869
-0.356606606606607 	300.0000005846499 	1.729319612513339e-06 	101325.0006912317
-0.3541041041041044 	300.0000003526858 	1.043784586776067e-06 	101325.000416961
-0.3516016016016019 	300.0000002111703 	6.252915116020041e-07 	101325.000249633
-0.3490990990990994 	300.0000001254858 	3.718282006469974e-07 	101325.0001483522
-0.346596596596597 	300.0000000740978 	2.195075387640971e-07 	101325.0000875224
-0.3440940940940944 	300.0000000434356 	1.286587165269503e-07 	101325.0000512649
-0.3415915915915919 	300.0000000252507 	7.488437445227479e-08 	101325.0000298152
-0.3390890890890895 	300.0000000145448 	4.328206951452125e-08 	101325.0000172183
-0.3365865865865869 	300.0000000083859 	2.484969317033806e-08 	101325.0000098741
-0.3340840840840844 	300.0000000047717 	1.417015278208847e-08 	101325.0000056226
-0.3315815815815819 	300.0000000027251 	8.02962488394709e-09 	101325.0000031786
-0.3290790790790794 	300.0000000015448 	4.519193421699358e-09 	101325.0000017832
-0.3265765765765769 	300.0000000007549 	2.529636322638378e-09 	101325.0000009918
-0.3240740740740744 	300.0000000004612 	1.405025556221756e-09 	101325.0000005461
-0.3215715715715718 	300.0000000002657 	7.791203071435361e-10 	101325.0000002966
-0.3190690690690695 	300.0000000000549 	4.270975387759641e-10 	101325.0000001578
-0.3165665665665668 	300.0000000000667 	2.366119850487528e-10 	101325.0000000811
-0.3140640640640644 	300.0000000000487 	1.274132938053419e-10 	101325.0000000388
-0.311561561561562 	299.9999999999291 	7.367965952061912e-11 	101325.0000000161
-0.3090590590590593 	300.0000000000025 	3.738987642982182e-11 	101325.0000000037
-0.3065565565565568 	300.0000000000078 	2.668674753567832e-11 	101324.999999997
-0.3040540540540545 	300.000000000013 	1.110697219551285e-11 	101324.9999999937
-0.3015515515515518 	300.0000000000517 	1.161610184744274e-11 	101324.9999999918
-0.2990490490490494 	299.9999999999412 	4.963606177497063e-12 	101324.9999999908
-0.2965465465465469 	299.9999999999834 	6.273135372970877e-12 	101324.9999999902
-0.2940440440440444 	299.9999999999959 	3.847172873857518e-12 	101324.9999999898
-0.2915415415415418 	300.0000000000054 	4.518459056363505e-12 	101324.9999999894
-0.2890390390390395 	300.0000000000061 	4.484367637039111e-12 	101324.9999999891
-0.2865365365365368 	299.9999999999797 	3.576348618557296e-12 	101324.999999989
-0.2840340340340343 	300.0000000000022 	5.448846360506609e-12 	101324.999999989
-0.2815315315315318 	299.9999999999058 	4.407421968404444e-12 	101324.9999999887
-0.2790290290290295 	299.9999999999476 	6.86028042334991e-12 	101324.9999999888
-0.2765265265265269 	300.0000000000047 	5.349365236021634e-12 	101324.999999989
-0.2740240240240244 	300.0000000000351 	5.781950896124358e-12 	101324.9999999888
-0.2715215215215219 	300.0000000000132 	5.531041280517206e-12 	101324.9999999886
-0.2690190190190194 	299.9999999999319 	4.892021385131829e-12 	101324.9999999886
-0.2665165165165169 	300.0000000000002 	5.479132899804442e-12 	101324.9999999885
-0.2640140140140144 	299.9999999999561 	4.509800422775681e-12 	101324.9999999886
-0.2615115115115119 	300.0000000000011 	5.886675833228289e-12 	101324.9999999889
-0.2590090090090094 	299.9999999999147 	3.464636523467772e-12 	101324.999999989
-0.2565065065065068 	299.9999999999928 	4.158453482470795e-12 	101324.999999989
-0.2540040040040044 	299.9999999999962 	4.770896794140362e-12 	101324.9999999891
-0.2515015015015019 	300.0000000000511 	3.872308351595536e-12 	101324.9999999892
-0.2489989989989994 	300.0000000000563 	6.526347226053849e-12 	101324.9999999894
-0.2464964964964968 	299.9999999999911 	3.544949054826147e-12 	101324.9999999893
-0.2439939939939944 	299.9999999999953 	7.286249184873428e-12 	101324.9999999895
-0.2414914914914919 	299.9999999999593 	2.009939686994865e-12 	101324.9999999896
-0.2389889889889893 	300.0000000000053 	6.959877303428351e-12 	101324.9999999893
-0.2364864864864869 	300.000000000029 	2.562282102333154e-12 	101324.9999999893
-0.2339839839839843 	299.9999999999033 	7.271692673015811e-12 	101324.9999999894
-0.2314814814814819 	299.9999999999761 	2.544191002604371e-12 	101324.9999999894
-0.2289789789789792 	299.9999999998978 	6.437556411651682e-12 	101324.9999999893
-0.2264764764764769 	299.9999999999325 	3.857804963090189e-12 	101324.9999999892
-0.2239739739739743 	299.9999999999425 	5.954263907154671e-12 	101324.999999989
-0.2214714714714718 	299.9999999999224 	4.358142086933201e-12 	101324.9999999889
-0.2189689689689693 	299.9999999999611 	3.819238958137519e-12 	101324.9999999891
-0.2164664664664669 	299.9999999999797 	4.735990271967997e-12 	101324.9999999892
-0.2139639639639643 	299.9999999999112 	2.9103975731184e-12 	101324.9999999894
-0.2114614614614618 	299.9999999999653 	3.536534163814892e-12 	101324.9999999892
-0.2089589589589593 	299.999999999986 	3.776653172812126e-12 	101324.9999999893
-0.2064564564564568 	299.9999999999849 	3.359865585884617e-12 	101324.9999999894
-0.2039539539539543 	299.9999999998869 	4.794419784605565e-12 	101324.9999999891
-0.2014514514514518 	299.9999999999341 	1.821094057706991e-12 	101324.999999989
-0.1989489489489494 	299.9999999999591 	5.182299441633379e-12 	101324.9999999889
-0.1964464464464468 	299.999999999986 	1.119295402902849e-12 	101324.9999999888
-0.1939439439439443 	299.999999999986 	4.337999792161697e-12 	101324.9999999889
-0.1914414414414418 	299.9999999998929 	8.422552034977104e-13 	101324.999999989
-0.1889389389389393 	300.0000000000091 	3.129280424094515e-12 	101324.9999999888
-0.1864364364364368 	300.0000000000523 	1.123498398483299e-12 	101324.9999999889
-0.1839339339339343 	299.9999999999636 	3.015597761997473e-12 	101324.9999999885
-0.1814314314314318 	299.999999999994 	1.164330504973642e-12 	101324.9999999884
-0.1789289289289293 	299.9999999998712 	3.452878079854133e-12 	101324.9999999885
-0.1764264264264268 	299.999999999977 	6.892928607313691e-13 	101324.9999999886
-0.1739239239239243 	299.9999999998752 	4.968452472331314e-12 	101324.9999999887
-0.1714214214214218 	299.9999999999911 	5.959032097985925e-13 	101324.9999999886
-0.1689189189189193 	299.9999999999418 	6.818020953221775e-12 	101324.9999999888
-0.1664164164164168 	300.0000000000057 	1.064697248677172e-12 	101324.9999999888
-0.1639139139139143 	299.9999999999795 	8.759597380969289e-12 	101324.9999999889
-0.1614114114114118 	300.0000000000366 	2.494563610044249e-12 	101324.999999989
-0.1589089089089093 	299.9999999999951 	1.049207455552284e-11 	101324.999999989
-0.1564064064064068 	299.9999999999815 	4.26751722039665e-12 	101324.9999999891
-0.1539039039039043 	299.9999999999862 	9.70893320611521e-12 	101324.9999999888
-0.1514014014014018 	300.0000000000314 	4.834563692568998e-12 	101324.9999999888
-0.1488988988988993 	299.9999999999754 	8.824128462365919e-12 	101324.9999999889
-0.1463963963963968 	299.9999999999998 	3.310010041742509e-12 	101324.9999999889
-0.1438938938938943 	299.9999999999413 	8.266452588132236e-12 	101324.9999999885
-0.1413913913913918 	299.9999999999069 	9.475318410126481e-13 	101324.9999999884
-0.1388888888888893 	299.9999999999761 	6.782032929074465e-12 	101324.9999999884
-0.1363863863863868 	299.9999999998578 	1.105461645189536e-12 	101324.9999999885
-0.1338838838838843 	299.99999999989 	5.2525520538255e-12 	101324.9999999884
-0.1313813813813818 	299.9999999999959 	8.063532923880639e-13 	101324.9999999885
-0.1288788788788793 	299.9999999999523 	4.357874491823232e-12 	101324.9999999885
-0.1263763763763768 	299.9999999999578 	7.083337789426873e-13 	101324.9999999885
-0.1238738738738743 	299.999999999907 	3.732983641887269e-12 	101324.9999999884
-0.1213713713713717 	299.999999999971 	9.617679512269638e-13 	101324.9999999882
-0.1188688688688693 	300.000000000006 	5.569504638666474e-12 	101324.999999988
-0.1163663663663668 	299.9999999998832 	6.773424892799293e-13 	101324.9999999881
-0.1138638638638643 	299.9999999999881 	6.400631913469683e-12 	101324.9999999883
-0.1113613613613618 	299.9999999999761 	1.406430144473427e-12 	101324.9999999887
-0.1088588588588592 	299.9999999999633 	6.835034191800298e-12 	101324.9999999889
-0.1063563563563568 	299.9999999999398 	4.664343981310598e-13 	101324.999999989
-0.1038538538538543 	299.9999999999649 	6.862264793464808e-12 	101324.999999989
-0.1013513513513517 	300.0000000000173 	2.049134791427296e-12 	101324.999999989
-0.09884884884884926 	299.9999999999266 	6.346162158182096e-12 	101324.999999989
-0.09634634634634676 	299.9999999998644 	2.309040877499129e-12 	101324.999999989
-0.09384384384384425 	299.9999999999139 	5.145915967232662e-12 	101324.9999999889
-0.09134134134134177 	300.0000000000275 	3.087291283095163e-12 	101324.999999989
-0.08883883883883925 	300.0000000000156 	5.432475296774546e-12 	101324.9999999888
-0.08633633633633674 	299.9999999999419 	3.992220976976865e-12 	101324.999999989
-0.08383383383383426 	300.0000000000107 	4.184392005989698e-12 	101324.9999999888
-0.08133133133133173 	299.9999999999573 	4.054450925603869e-12 	101324.9999999887
-0.07882882882882926 	299.9999999998523 	4.325283312313483e-12 	101324.999999989
-0.07632632632632676 	299.9999999999438 	4.071914756481912e-12 	101324.9999999892
-0.07382382382382424 	299.9999999998709 	4.40455653596e-12 	101324.9999999889
-0.07132132132132173 	300.0000000000116 	3.842376974680855e-12 	101324.9999999885
-0.06881881881881925 	299.9999999999505 	4.708347536681622e-12 	101324.9999999887
-0.06631631631631671 	299.9999999998691 	4.459213682984623e-12 	101324.9999999885
-0.06381381381381425 	299.9999999999441 	4.287148784331062e-12 	101324.9999999885
-0.06131131131131173 	299.9999999999462 	3.489129647948885e-12 	101324.9999999889
-0.05880880880880923 	299.9999999998995 	3.353520471940551e-12 	101324.999999989
-0.05630630630630672 	299.9999999999606 	3.251461459288914e-12 	101324.999999989
-0.05380380380380424 	300.0000000000163 	3.733451690836371e-12 	101324.999999989
-0.05130130130130173 	300.0000000000159 	3.577997700180736e-12 	101324.9999999887
-0.04879879879879922 	299.9999999999271 	2.818192587401118e-12 	101324.9999999888
-0.04629629629629672 	299.9999999999071 	2.466635127602718e-12 	101324.9999999887
-0.04379379379379422 	299.9999999998999 	2.064700528218253e-12 	101324.9999999886
-0.04129129129129173 	299.9999999999732 	1.784018442954942e-12 	101324.9999999885
-0.03878878878878922 	299.9999999999747 	1.708036690043453e-12 	101324.9999999884
-0.03628628628628671 	299.9999999999752 	1.500735436536384e-12 	101324.9999999883
-0.03378378378378422 	299.9999999999036 	1.396516435871912e-12 	101324.9999999889
-0.03128128128128172 	299.99999999996 	6.080424825858666e-13 	101324.999999989
-0.02877877877877922 	299.9999999999608 	1.062876106056244e-12 	101324.9999999892
-0.0262762762762767 	299.9999999998718 	3.972265029861367e-13 	101324.9999999892
-0.02377377377377422 	300.000000000023 	7.045856605740973e-13 	101324.999999989
-0.0212712712712717 	299.9999999998757 	1.114162830067658e-12 	101324.9999999889
-0.01876876876876921 	299.9999999999633 	1.030726561939618e-12 	101324.9999999887
-0.01626626626626671 	300.0000000000168 	1.708308921487391e-12 	101324.9999999888
-0.0137637637637642 	299.999999999958 	1.048743737788123e-12 	101324.999999989
-0.0112612612612617 	300.0000000000188 	9.785708168667252e-13 	101324.9999999887
-0.008758758758759198 	299.9999999999973 	5.343757819938969e-13 	101324.9999999887
-0.006256256256256697 	299.9999999998631 	6.893126301653257e-13 	101324.9999999886
-0.003753753753754195 	299.9999999999441 	5.058314663590486e-13 	101324.9999999885
-0.001251251251251693 	299.9999999999109 	4.538265256980819e-14 	101324.9999999884
0.00125125125125081 	299.9999999999449 	2.469429697841984e-13 	101324.9999999879
0.003753753753753312 	299.9999999999564 	6.676189946485508e-13 	101324.9999999876
0.006256256256255817 	299.9999999998525 	8.681677772286323e-14 	101324.9999999876
0.008758758758758317 	299.9999999999828 	6.304368495567024e-13 	101324.9999999875
0.01126126126126082 	300.0000000000119 	9.088444824522233e-13 	101324.9999999876
0.01376376376376332 	299.9999999999562 	6.220259984288444e-13 	101324.9999999876
0.01626626626626582 	300.0000000000147 	3.807447817959389e-13 	101324.9999999877
0.01876876876876833 	299.9999999999452 	2.488075967644808e-13 	101324.9999999879
0.02127127127127083 	299.9999999999603 	3.301642826460141e-13 	101324.9999999883
0.02377377377377332 	299.999999999991 	1.036188256609561e-12 	101324.9999999885
0.02627627627627583 	299.9999999998806 	6.40834180014981e-13 	101324.9999999888
0.02877877877877833 	300.0000000000088 	4.517390971115758e-13 	101324.9999999891
0.03128128128128083 	299.9999999999294 	8.109173553967225e-13 	101324.9999999891
0.03378378378378333 	299.9999999998758 	1.270052766350712e-13 	101324.9999999891
0.03628628628628584 	299.9999999999653 	6.436265496958965e-14 	101324.9999999892
0.03878878878878834 	299.9999999999723 	6.884259452042604e-13 	101324.999999989
0.04129129129129084 	299.9999999999666 	9.720134248087179e-13 	101324.9999999891
0.04379379379379333 	299.9999999999267 	5.798219957701502e-13 	101324.9999999891
0.04629629629629585 	299.9999999998588 	8.126803349910489e-13 	101324.9999999891
0.04879879879879834 	299.9999999999415 	5.837918899322434e-13 	101324.999999989
0.05130130130130085 	300.000000000016 	7.278746226580148e-13 	101324.9999999891
0.05380380380380335 	300.0000000000267 	1.260982519790694e-12 	101324.999999989
0.05630630630630584 	299.9999999999874 	1.110673587203568e-12 	101324.9999999889
0.05880880880880836 	299.9999999998993 	4.255951179767305e-13 	101324.9999999888
0.06131131131131085 	299.9999999999685 	4.199379805085095e-13 	101324.9999999889
0.06381381381381336 	299.9999999999522 	6.478450717955197e-13 	101324.9999999887
0.06631631631631586 	299.999999999859 	8.5173521681363e-13 	101324.9999999885
0.06881881881881835 	299.999999999932 	1.022544051747134e-12 	101324.9999999885
0.07132132132132088 	299.9999999999885 	3.732341159708709e-13 	101324.9999999888
0.07382382382382337 	299.9999999998733 	6.383510105383911e-13 	101324.9999999889
0.07632632632632587 	299.9999999999641 	1.004070216627726e-12 	101324.999999989
0.07882882882882837 	299.9999999999116 	1.010972632350843e-12 	101324.9999999892
0.08133133133133086 	299.9999999999827 	1.240584314718266e-12 	101324.9999999892
0.08383383383383337 	299.9999999999817 	8.774434160556172e-13 	101324.999999989
0.08633633633633589 	299.9999999998774 	1.552045985895966e-12 	101324.9999999888
0.08883883883883838 	300.0000000000166 	2.774402588181911e-12 	101324.9999999888
0.09134134134134086 	299.9999999999798 	2.594849715615971e-12 	101324.9999999888
0.09384384384384339 	299.9999999998644 	3.349366634790565e-12 	101324.9999999888
0.09634634634634588 	299.9999999999548 	3.147355598627734e-12 	101324.9999999884
0.09884884884884838 	299.9999999999657 	3.337205483313156e-12 	101324.9999999886
0.1013513513513509 	300.0000000000299 	2.762742467717448e-12 	101324.9999999887
0.1038538538538534 	299.9999999999388 	2.014032366410951e-12 	101324.9999999886
0.1063563563563559 	300.0000000000254 	2.060422621182809e-12 	101324.9999999882
0.1088588588588584 	300.0000000000283 	7.5395564430434e-13 	101324.9999999885
0.1113613613613609 	299.9999999999026 	9.999789085436748e-13 	101324.9999999885
0.1138638638638634 	299.9999999999297 	1.294274852285736e-12 	101324.9999999885
0.1163663663663659 	299.9999999999256 	1.853661147195381e-12 	101324.9999999884
0.1188688688688684 	299.9999999999594 	1.841942250360151e-12 	101324.9999999884
0.1213713713713709 	299.9999999999856 	1.276206334015708e-12 	101324.9999999885
0.1238738738738734 	299.9999999999008 	1.497105180973967e-12 	101324.9999999885
0.1263763763763759 	299.9999999999824 	9.16103783030722e-13 	101324.9999999883
0.1288788788788784 	299.9999999999851 	3.460582112174485e-13 	101324.9999999882
0.1313813813813809 	299.9999999999839 	1.261638595907749e-13 	101324.999999988
0.1338838838838834 	299.9999999999699 	6.127171519335202e-13 	101324.9999999882
0.1363863863863859 	300.0000000000399 	3.304638440860357e-13 	101324.9999999882
0.1388888888888884 	300.0000000000547 	5.300621660463807e-13 	101324.9999999882
0.1413913913913909 	299.9999999999989 	1.805471526514334e-12 	101324.9999999882
0.1438938938938934 	299.9999999999888 	3.611503023807346e-13 	101324.9999999885
0.1463963963963959 	299.9999999999522 	1.354851799560882e-12 	101324.9999999887
0.1488988988988985 	299.9999999998884 	1.179290964936904e-12 	101324.9999999889
0.1514014014014009 	299.9999999999658 	9.275876964841282e-13 	101324.9999999889
0.1539039039039035 	299.9999999999496 	2.196078807053128e-12 	101324.999999989
0.1564064064064059 	299.9999999999112 	8.658689480299864e-13 	101324.9999999888
0.1589089089089084 	299.9999999999723 	2.855068975081421e-12 	101324.9999999885
0.1614114114114109 	299.9999999999664 	3.712567394609185e-13 	101324.9999999884
0.1639139139139134 	299.9999999998996 	2.384628055536502e-12 	101324.9999999884
0.166416416416416 	300.0000000000017 	1.609289812636454e-12 	101324.9999999882
0.1689189189189185 	300.0000000000404 	1.629970903143497e-12 	101324.9999999886
0.1714214214214209 	299.9999999999945 	1.829204317458481e-12 	101324.9999999888
0.1739239239239235 	299.9999999999899 	4.021787373205565e-13 	101324.999999989
0.1764264264264259 	299.9999999999562 	2.253341477789884e-12 	101324.9999999893
0.1789289289289284 	300.0000000000123 	2.925432865064958e-13 	101324.9999999893
0.181431431431431 	299.9999999999597 	2.651998121788684e-12 	101324.9999999894
0.1839339339339334 	299.9999999999657 	1.08542911329689e-12 	101324.9999999889
0.186436436436436 	299.9999999999083 	2.357378907955411e-12 	101324.9999999888
0.1889389389389385 	299.9999999999808 	1.771734382110718e-12 	101324.9999999887
0.191441441441441 	299.999999999974 	1.251298001639655e-12 	101324.9999999888
0.1939439439439434 	299.9999999998911 	2.058646741745436e-12 	101324.9999999887
0.196446446446446 	299.9999999999294 	4.592707159366418e-13 	101324.9999999887
0.1989489489489485 	299.9999999999618 	2.790320583611884e-12 	101324.9999999886
0.2014514514514509 	299.9999999999706 	1.231354379341325e-12 	101324.9999999887
0.2039539539539535 	299.999999999989 	2.712125655553382e-12 	101324.9999999887
0.2064564564564559 	299.9999999999498 	2.434824777539782e-12 	101324.9999999888
0.2089589589589585 	299.9999999999777 	3.004086842455163e-12 	101324.9999999887
0.211461461461461 	299.9999999999184 	3.091557408092858e-12 	101324.9999999886
0.2139639639639635 	299.9999999999788 	2.280468074364843e-12 	101324.9999999886
0.2164664664664659 	299.9999999999917 	3.229013412610139e-12 	101324.9999999883
0.2189689689689684 	299.9999999999909 	7.187935781004998e-13 	101324.9999999881
0.221471471471471 	299.9999999999891 	2.819482428896278e-12 	101324.9999999882
0.2239739739739735 	299.9999999999384 	7.79132907213187e-13 	101324.9999999881
0.226476476476476 	299.9999999999732 	2.939100940020297e-12 	101324.999999988
0.2289789789789785 	299.9999999999986 	2.05418363653816e-12 	101324.9999999877
0.231481481481481 	299.9999999999844 	2.075945808422787e-12 	101324.9999999877
0.2339839839839835 	299.9999999999812 	2.427884663909319e-12 	101324.999999988
0.236486486486486 	300.0000000000225 	1.44352965709591e-12 	101324.9999999883
0.2389889889889885 	299.9999999999953 	2.480913136549012e-12 	101324.9999999881
0.241491491491491 	299.9999999998942 	7.670959945790033e-13 	101324.9999999882
0.2439939939939935 	299.9999999999784 	3.939655164331508e-12 	101324.999999988
0.246496496496496 	299.9999999999858 	1.566768696981243e-12 	101324.999999988
0.2489989989989985 	300.0000000000418 	3.270538905714162e-12 	101324.999999988
0.251501501501501 	300.0000000000356 	2.551510504605228e-12 	101324.9999999881
0.2540040040040035 	299.9999999999852 	2.706004674995006e-12 	101324.999999988
0.256506506506506 	300.0000000000327 	3.273123402735895e-12 	101324.9999999883
0.2590090090090086 	299.9999999998791 	2.215822142830077e-12 	101324.9999999884
0.261511511511511 	299.9999999999953 	4.694413118222239e-12 	101324.9999999885
0.2640140140140135 	299.999999999983 	2.614627994791086e-12 	101324.9999999886
0.2665165165165161 	299.9999999999096 	4.554092273999885e-12 	101324.9999999888
0.2690190190190185 	300.0000000000028 	3.053616296142374e-12 	101324.9999999888
0.271521521521521 	300.0000000000053 	3.455884038683594e-12 	101324.9999999889
0.2740240240240235 	300.000000000016 	3.42335270598376e-12 	101324.9999999889
0.276526526526526 	300.0000000000063 	2.843742828879221e-12 	101324.9999999888
0.2790290290290286 	299.9999999999216 	3.752653759229302e-12 	101324.9999999886
0.281531531531531 	299.9999999999121 	2.569191892210959e-12 	101324.9999999886
0.2840340340340335 	299.9999999999769 	3.584434772589215e-12 	101324.9999999889
0.2865365365365361 	299.9999999999449 	2.209462237288658e-12 	101324.9999999891
0.2890390390390385 	299.9999999999959 	2.45985898374926e-12 	101324.9999999892
0.291541541541541 	299.9999999999961 	2.312986776152473e-12 	101324.9999999891
0.2940440440440436 	299.999999999988 	1.216648719746999e-12 	101324.9999999891
0.296546546546546 	299.9999999999882 	2.632808698276502e-12 	101324.9999999889
0.2990490490490486 	299.9999999999229 	1.266822856139956e-12 	101324.9999999888
0.3015515515515511 	300.0000000000491 	4.289722015010267e-12 	101324.9999999888
0.3040540540540535 	299.9999999999938 	1.896053003059012e-12 	101324.9999999888
0.3065565565565562 	299.9999999999975 	5.979400858083074e-12 	101324.9999999888
0.3090590590590585 	299.9999999999881 	1.152595242586973e-12 	101324.9999999888
0.3115615615615611 	299.9999999999255 	4.999717207547692e-12 	101324.9999999886
0.3140640640640635 	300.0000000000045 	5.756445108042664e-13 	101324.9999999884
0.316566566566566 	299.9999999999928 	3.867584010524831e-12 	101324.9999999884
0.3190690690690687 	299.9999999999419 	7.742183000052978e-13 	101324.9999999882
0.3215715715715711 	300.0000000000193 	3.568572035279223e-12 	101324.9999999883
0.3240740740740735 	299.9999999999994 	9.724511134700738e-13 	101324.9999999883
0.326576576576576 	299.9999999998805 	3.360298435029788e-12 	101324.9999999881
0.3290790790790786 	300.0000000000081 	1.653916167422524e-12 	101324.9999999879
0.3315815815815811 	300.0000000000401 	2.637274376546529e-12 	101324.999999988
0.3340840840840836 	299.9999999999823 	9.950533479430454e-13 	101324.9999999881
0.3365865865865861 	300.0000000000646 	1.842088183878657e-12 	101324.9999999884
0.3390890890890886 	300.0000000000587 	6.176499748456137e-13 	101324.9999999884
0.3415915915915911 	300.0000000000055 	1.642541844613501e-12 	101324.9999999886
0.3440940940940935 	299.9999999999417 	7.362674723142698e-13 	101324.9999999886
0.3465965965965962 	300.0000000000406 	2.23364964152605e-12 	101324.9999999887
0.3490990990990985 	300.0000000000303 	1.23071794314853e-12 	101324.9999999886
0.3516016016016011 	299.9999999999828 	1.569441601692231e-12 	101324.9999999886
0.3541041041041035 	300.0000000000068 	2.22955565455603e-12 	101324.9999999886
0.3566066066066061 	299.9999999999417 	1.210400950697006e-12 	101324.9999999888
0.3591091091091085 	299.9999999999009 	2.979696698652629e-12 	101324.9999999888
0.3616116116116112 	299.999999999928 	1.261814552159811e-12 	101324.9999999889
0.3641141141141137 	299.9999999999197 	3.249934827549894e-12 	101324.9999999888
0.3666166166166161 	299.9999999999087 	1.939665345124231e-12 	101324.9999999885
0.3691191191191185 	300.0000000000522 	3.85690180717704e-12 	101324.9999999884
0.371621621621621 	300.0000000000185 	2.454507820729471e-12 	101324.9999999884
0.3741241241241237 	300.0000000000639 	2.980068671625359e-12 	101324.9999999885
0.3766266266266261 	300.0000000000418 	1.626575730694857e-12 	101324.9999999884
0.3791291291291286 	299.9999999999786 	2.065980453356295e-12 	101324.9999999885
0.3816316316316311 	299.9999999998955 	1.673594463277395e-12 	101324.9999999886
0.3841341341341336 	300.0000000000127 	1.64209765457588e-12 	101324.9999999889
0.3866366366366362 	299.9999999999933 	1.584502580213293e-12 	101324.999999989
0.3891391391391387 	299.9999999999445 	9.683927882638446e-13 	101324.9999999892
0.391641641641641 	299.9999999999978 	1.052572115241221e-12 	101324.9999999893
0.3941441441441436 	300.0000000000075 	9.978413100041882e-13 	101324.9999999891
0.3966466466466462 	299.999999999998 	1.363820301180456e-12 	101324.9999999891
0.3991491491491486 	299.9999999999403 	5.176095945335764e-13 	101324.9999999891
0.4016516516516512 	299.9999999999021 	1.142864704670992e-12 	101324.9999999889
0.4041541541541536 	299.9999999999433 	1.210567174255609e-12 	101324.9999999889
0.4066566566566561 	299.9999999999417 	1.41103429631382e-12 	101324.9999999891
0.4091591591591587 	299.9999999999978 	8.826866247875114e-13 	101324.9999999892
0.4116616616616612 	300.000000000013 	4.210734937912645e-13 	101324.9999999891
0.4141641641641635 	300.0000000000568 	8.481106690736275e-14 	101324.9999999891
0.4166666666666662 	299.9999999999937 	4.431272834361362e-13 	101324.9999999888
0.4191691691691687 	299.9999999999265 	1.282097988398933e-12 	101324.9999999888
0.421671671671671 	300.0000000000164 	2.440192647610432e-12 	101324.9999999887
0.4241741741741737 	299.9999999999755 	2.234592506352569e-12 	101324.9999999888
0.4266766766766761 	299.9999999999475 	3.625530462381888e-12 	101324.9999999889
0.4291791791791785 	300.0000000000202 	2.521192196948068e-12 	101324.9999999892
0.4316816816816812 	300.0000000000091 	4.40347935052084e-12 	101324.9999999895
0.4341841841841836 	299.9999999999807 	1.99573793995232e-12 	101324.9999999897
0.4366866866866862 	299.9999999999052 	3.24252500279816e-12 	101324.9999999898
0.4391891891891885 	299.9999999999854 	1.078132792787622e-12 	101324.9999999899
0.4416916916916913 	299.9999999999754 	3.190487238725671e-12 	101324.9999999899
0.4441941941941936 	299.9999999999832 	9.097415887542005e-13 	101324.9999999899
0.4466966966966961 	299.9999999998975 	2.430064216766483e-12 	101324.9999999896
0.4491991991991987 	299.9999999999734 	1.357066461936559e-12 	101324.9999999893
0.4517017017017012 	299.9999999999708 	1.814755140922815e-12 	101324.9999999892
0.4542042042042035 	299.9999999999773 	9.868242711999546e-13 	101324.9999999894
0.4567067067067062 	299.9999999999943 	6.82082571099002e-13 	101324.9999999894
0.4592092092092087 	299.9999999999112 	3.110999369383098e-13 	101324.9999999893
0.4617117117117112 	300.0000000000214 	4.291343004167716e-13 	101324.9999999894
0.4642142142142137 	299.9999999999516 	5.640871852240618e-13 	101324.9999999893
0.4667167167167162 	299.9999999999885 	4.193001423682225e-13 	101324.9999999893
0.4692192192192187 	299.9999999999463 	1.532249804316943e-13 	101324.9999999895
0.4717217217217212 	300.0000000000181 	1.440405635330015e-13 	101324.9999999896
0.4742242242242236 	299.9999999999446 	3.18362399155363e-13 	101324.9999999897
0.4767267267267262 	299.9999999999741 	3.948947127786516e-13 	101324.9999999899
0.4792292292292287 	300.0000000000188 	1.741035163060109e-13 	101324.9999999901
0.4817317317317312 	300.0000000000386 	3.170544469703061e-13 	101324.9999999902
0.4842342342342336 	299.9999999999822 	1.002367211531346e-12 	101324.9999999901
0.4867367367367362 	299.9999999999423 	7.030314875807028e-13 	101324.9999999898
0.4892392392392387 	300.0000000000307 	1.884341558942926e-12 	101324.9999999896
0.4917417417417412 	300.0000000000081 	6.732011882858454e-13 	101324.9999999895
0.4942442442442437 	299.9999999998876 	1.877128681018889e-12 	101324.9999999896
0.4967467467467462 	299.9999999999109 	1.059900931533673e-12 	101324.9999999895
0.4992492492492487 	299.9999999999056 	2.984055308300242e-12 	101324.9999999894
0.5017517517517511 	299.9999999999445 	2.108904174984555e-12 	101324.9999999896
0.5042542542542537 	299.9999999999616 	2.790215889624839e-12 	101324.9999999897
0.5067567567567562 	299.9999999999383 	2.739045237138107e-12 	101324.9999999896
0.5092592592592589 	299.9999999999641 	1.966005624527758e-12 	101324.9999999896
0.5117617617617611 	299.9999999999496 	2.963945093413547e-12 	101324.9999999896
0.5142642642642637 	299.9999999999824 	1.611756801596552e-12 	101324.9999999896
0.5167667667667663 	299.9999999999665 	4.290362948087909e-12 	101324.9999999896
0.5192692692692688 	299.9999999999101 	2.218624621275198e-12 	101324.9999999895
0.5217717717717714 	299.9999999999333 	5.46037787235688e-12 	101324.9999999896
0.5242742742742736 	299.9999999999307 	1.515649307909122e-12 	101324.9999999897
0.5267767767767763 	299.9999999999508 	5.493779458771755e-12 	101324.9999999897
0.5292792792792789 	299.999999999928 	1.995940900058071e-12 	101324.9999999899
0.5317817817817813 	299.9999999998936 	5.270510473872787e-12 	101324.9999999901
0.5342842842842837 	300.0000000000184 	3.168514017308326e-12 	101324.9999999901
0.5367867867867864 	300.0000000000015 	5.190694884695566e-12 	101324.9999999898
0.5392892892892888 	299.9999999999486 	3.96731848077852e-12 	101324.9999999897
0.5417917917917912 	300.0000000000055 	5.539679899525734e-12 	101324.9999999898
0.5442942942942938 	299.9999999999797 	3.913187069297202e-12 	101324.9999999897
0.5467967967967964 	299.9999999999428 	5.557780365465522e-12 	101324.9999999896
0.5492992992992988 	299.9999999999363 	4.776570507582249e-12 	101324.9999999898
0.5518018018018012 	299.9999999999276 	6.146473583357832e-12 	101324.9999999898
0.5543043043043039 	300.000000000026 	4.881200183534193e-12 	101324.9999999898
0.5568068068068063 	299.9999999999906 	5.78665187068617e-12 	101324.9999999898
0.5593093093093087 	299.9999999998894 	5.122619475907894e-12 	101324.9999999898
0.5618118118118114 	299.9999999999512 	7.640739086256167e-12 	101324.9999999898
0.5643143143143137 	299.99999999993 	6.376821037023748e-12 	101324.9999999901
0.5668168168168163 	299.9999999999911 	7.317501333030861e-12 	101324.9999999906
0.5693193193193188 	300.0000000000315 	7.274474602754952e-12 	101324.9999999909
0.5718218218218213 	300.0000000000261 	6.987451585803479e-12 	101324.9999999911
0.5743243243243239 	300.0000000000091 	8.138434572305256e-12 	101324.9999999913
0.5768268268268262 	300.0000000000038 	5.837315756061084e-12 	101324.9999999915
0.5793293293293288 	299.9999999999403 	8.234304471419645e-12 	101324.9999999914
0.5818318318318314 	299.9999999999103 	4.479097844816546e-12 	101324.9999999912
0.5843343343343338 	299.9999999999822 	8.815831820606043e-12 	101324.9999999907
0.5868368368368363 	299.9999999999738 	4.712680409315243e-12 	101324.9999999903
0.5893393393393387 	299.9999999999379 	8.662730260908816e-12 	101324.9999999901
0.5918418418418413 	299.9999999999302 	6.380357551166746e-12 	101324.9999999901
0.5943443443443439 	300.0000000000111 	9.220746343481167e-12 	101324.9999999903
0.5968468468468463 	300.0000000000189 	6.999107076211896e-12 	101324.9999999904
0.5993493493493487 	300.0000000000447 	8.368253942755875e-12 	101324.9999999906
0.6018518518518514 	299.9999999999796 	6.087081394885455e-12 	101324.9999999908
0.6043543543543537 	299.9999999999941 	7.368352994131593e-12 	101324.9999999908
0.6068568568568564 	299.9999999999787 	5.426049043879508e-12 	101324.9999999908
0.6093593593593587 	299.9999999999175 	6.900415127032769e-12 	101324.9999999908
0.6118618618618614 	299.9999999999113 	6.163092553806789e-12 	101324.9999999907
0.6143643643643638 	300.0000000000153 	7.404865238336723e-12 	101324.9999999907
0.6168668668668662 	299.9999999999847 	5.415113769958058e-12 	101324.9999999908
0.6193693693693688 	299.9999999999542 	7.403724833390383e-12 	101324.9999999907
0.6218718718718714 	299.9999999999634 	5.430900569334542e-12 	101324.9999999909
0.6243743743743737 	299.9999999999211 	7.799391075853607e-12 	101324.9999999908
0.6268768768768762 	299.9999999999108 	6.832601849112636e-12 	101324.9999999911
0.629379379379379 	299.9999999999489 	8.536250429246542e-12 	101324.9999999911
0.6318818818818812 	299.9999999999782 	8.311463168525157e-12 	101324.999999991
0.6343843843843838 	300.0000000000282 	8.028378907339943e-12 	101324.9999999911
0.6368868868868864 	299.9999999999902 	8.564799522500048e-12 	101324.9999999911
0.6393893893893888 	299.9999999999147 	7.012642671274739e-12 	101324.9999999912
0.6418918918918912 	300.0000000000152 	9.814288968494264e-12 	101324.9999999914
0.6443943943943939 	299.9999999999984 	5.789440123820503e-12 	101324.9999999915
0.6468968968968963 	299.9999999999882 	1.052090493055983e-11 	101324.9999999915
0.6493993993993988 	299.9999999999714 	5.914499943800111e-12 	101324.9999999915
0.6519019019019012 	299.9999999999696 	9.836009644599012e-12 	101324.9999999916
0.6544044044044038 	299.9999999998906 	6.563273503759454e-12 	101324.9999999917
0.6569069069069065 	299.9999999999457 	1.033681135853365e-11 	101324.999999992
0.6594094094094087 	299.9999999999552 	8.087160447426617e-12 	101324.9999999921
0.6619119119119113 	299.9999999999461 	1.094947333911458e-11 	101324.9999999921
0.664414414414414 	300.000000000002 	8.858969216751117e-12 	101324.9999999918
0.6669169169169162 	300.0000000000262 	1.0780080201048e-11 	101324.9999999917
0.6694194194194188 	299.9999999999865 	9.122080731226129e-12 	101324.9999999916
0.6719219219219214 	299.9999999999126 	1.033049588605694e-11 	101324.9999999914
0.674424424424424 	299.9999999999689 	9.047702093822559e-12 	101324.9999999912
0.6769269269269262 	299.9999999999072 	1.021405256904233e-11 	101324.9999999914
0.679429429429429 	300.0000000000068 	9.538016882407398e-12 	101324.9999999912
0.6819319319319311 	299.9999999999776 	1.031775804335665e-11 	101324.9999999909
0.6844344344344341 	299.9999999999952 	9.46792744031207e-12 	101324.9999999913
0.686936936936936 	299.99999999999 	1.035478541475749e-11 	101324.9999999915
0.6894394394394392 	299.9999999999844 	9.152855335334922e-12 	101324.9999999916
0.6919419419419413 	299.999999999982 	8.972768666872935e-12 	101324.9999999918
0.694444444444444 	299.9999999999221 	8.86331257407752e-12 	101324.9999999921
0.6969469469469463 	299.9999999999122 	9.292402426823521e-12 	101324.9999999924
0.6994494494494489 	299.9999999999113 	1.078973731103375e-11 	101324.9999999926
0.7019519519519515 	299.9999999999851 	1.002883642105844e-11 	101324.9999999923
0.7044544544544538 	299.9999999999432 	1.135038536813043e-11 	101324.9999999919
0.7069569569569564 	300.0000000000014 	8.605642321272919e-12 	101324.999999992
0.7094594594594589 	299.9999999999654 	1.134567919926154e-11 	101324.9999999921
0.7119619619619615 	299.9999999999028 	8.976325793764625e-12 	101324.9999999921
0.7144644644644638 	299.9999999999445 	1.145847294375464e-11 	101324.9999999921
0.7169669669669665 	299.9999999999092 	1.021526155987321e-11 	101324.9999999919
0.7194694694694688 	299.9999999999956 	1.092616737609192e-11 	101324.9999999918
0.7219719719719715 	299.9999999999886 	9.821973971970165e-12 	101324.9999999916
0.7244744744744737 	300.0000000000048 	9.971118085642159e-12 	101324.9999999915
0.7269769769769764 	299.999999999996 	1.031377213550367e-11 	101324.9999999915
0.7294794794794791 	299.9999999999851 	8.619681582858201e-12 	101324.9999999917
0.7319819819819813 	299.9999999999731 	1.086072766996832e-11 	101324.9999999918
0.7344844844844839 	299.9999999999052 	8.51360635922174e-12 	101324.9999999919
0.7369869869869864 	299.9999999999416 	1.001376319187833e-11 	101324.9999999918
0.739489489489489 	299.9999999999356 	9.479173740291026e-12 	101324.9999999919
0.7419919919919914 	299.9999999999205 	9.823317052801553e-12 	101324.999999992
0.7444944944944939 	299.999999999975 	1.088513125313051e-11 	101324.9999999921
0.7469969969969963 	299.999999999967 	9.734778572109294e-12 	101324.9999999921
0.7494994994994989 	299.9999999999305 	1.221320837768282e-11 	101324.9999999922
0.7520020020020015 	299.9999999999685 	9.138709801597763e-12 	101324.9999999923
0.7545045045045039 	299.9999999999654 	1.278272886998538e-11 	101324.9999999923
0.7570070070070062 	299.9999999999366 	9.862167997285301e-12 	101324.9999999924
0.7595095095095092 	299.9999999999274 	1.181025697242158e-11 	101324.9999999925
0.7620120120120112 	300.000000000014 	1.070100654806005e-11 	101324.9999999925
0.7645145145145138 	299.9999999999864 	1.071906328410217e-11 	101324.9999999928
0.7670170170170165 	299.9999999999188 	1.102091186472004e-11 	101324.9999999928
0.7695195195195191 	299.9999999999163 	9.325878371798499e-12 	101324.9999999928
0.7720220220220213 	299.9999999999269 	1.242388997268686e-11 	101324.9999999926
0.7745245245245239 	299.9999999999211 	1.040817131527341e-11 	101324.9999999925
0.7770270270270263 	299.9999999999621 	1.289733798261961e-11 	101324.9999999925
0.779529529529529 	299.9999999999776 	1.181358345462524e-11 	101324.9999999927
0.7820320320320313 	299.9999999999666 	1.276312937291567e-11 	101324.9999999926
0.784534534534534 	300.0000000000073 	1.24661491659515e-11 	101324.9999999926
0.7870370370370364 	300.0000000000023 	1.174203033858784e-11 	101324.9999999928
0.7895395395395389 	299.9999999999939 	1.271965737205029e-11 	101324.9999999929
0.7920420420420413 	299.9999999999797 	1.139769233134478e-11 	101324.9999999928
0.794544544544544 	299.9999999999686 	1.327911147533641e-11 	101324.9999999927
0.7970470470470463 	300.0000000000003 	1.071984381518304e-11 	101324.9999999927
0.799549549549549 	299.9999999999845 	1.450863897691723e-11 	101324.9999999928
0.8020520520520515 	299.9999999999881 	1.106872861239206e-11 	101324.9999999928
0.8045545545545539 	299.99999999994 	1.305688776512656e-11 	101324.9999999928
0.8070570570570563 	299.9999999999747 	1.174452068864613e-11 	101324.9999999928
0.8095595595595589 	299.9999999999478 	1.299017350535858e-11 	101324.9999999928
0.8120620620620614 	299.9999999999285 	1.3265351263639e-11 	101324.9999999928
0.8145645645645638 	299.9999999999995 	1.329054466424543e-11 	101324.9999999928
0.8170670670670666 	300.0000000000007 	1.384589853810239e-11 	101324.9999999929
0.8195695695695689 	299.9999999999774 	1.210043679148323e-11 	101324.9999999931
0.8220720720720714 	299.9999999999362 	1.523864435576597e-11 	101324.9999999933
0.8245745745745739 	299.9999999999967 	1.256173900168819e-11 	101324.9999999933
0.8270770770770765 	299.9999999999745 	1.43439011579225e-11 	101324.9999999934
0.8295795795795788 	299.9999999999469 	1.255351899267752e-11 	101324.9999999936
0.8320820820820815 	300.0000000000186 	1.332399980785594e-11 	101324.9999999936
0.834584584584584 	300.0000000000092 	1.223937379812473e-11 	101324.9999999935
0.8370870870870865 	299.9999999999608 	1.139258759422233e-11 	101324.9999999935
0.8395895895895891 	299.9999999999175 	1.194154150043123e-11 	101324.9999999934
0.8420920920920915 	299.9999999999445 	1.062972376768131e-11 	101324.9999999933
0.844594594594594 	299.9999999999335 	1.112379871508398e-11 	101324.9999999931
0.8470970970970964 	299.9999999999388 	1.148484001707369e-11 	101324.9999999929
0.8495995995995991 	299.9999999999907 	1.142550772911649e-11 	101324.9999999928
0.8521021021021015 	299.9999999999793 	1.165451344479438e-11 	101324.9999999929
0.8546046046046039 	299.9999999999729 	1.049363761492089e-11 	101324.9999999928
0.8571071071071066 	300.000000000003 	1.129374741105295e-11 	101324.9999999928
0.8596096096096089 	299.9999999999629 	8.533205739413196e-12 	101324.9999999928
0.8621121121121116 	299.9999999999239 	1.155805900945406e-11 	101324.999999993
0.8646146146146139 	299.9999999999952 	8.889048020913797e-12 	101324.9999999933
0.8671171171171166 	299.9999999999702 	1.106281921479385e-11 	101324.9999999934
0.8696196196196189 	299.9999999999341 	1.019692434246544e-11 	101324.9999999937
0.8721221221221216 	299.999999999974 	1.136074854549426e-11 	101324.9999999939
0.874624624624624 	300.0000000000086 	1.127861028380908e-11 	101324.9999999939
0.8771271271271264 	300.0000000000028 	1.127566840114988e-11 	101324.9999999939
0.879629629629629 	300.0000000000045 	1.250521771183892e-11 	101324.999999994
0.8821321321321317 	299.9999999999795 	1.079106080119736e-11 	101324.999999994
0.8846346346346339 	299.9999999999163 	1.356021180851753e-11 	101324.9999999938
0.8871371371371364 	299.9999999999577 	1.107877590747249e-11 	101324.9999999938
0.8896396396396391 	299.9999999999633 	1.365159474367969e-11 	101324.9999999938
0.8921421421421414 	299.9999999999669 	1.260590199399907e-11 	101324.9999999937
0.8946446446446441 	299.9999999999815 	1.369326142786887e-11 	101324.9999999938
0.8971471471471464 	300.0000000000031 	1.322109546056123e-11 	101324.999999994
0.8996496496496489 	299.9999999999787 	1.343631950789252e-11 	101324.9999999943
0.9021521521521517 	299.9999999999632 	1.489710224044705e-11 	101324.9999999945
0.9046546546546541 	299.9999999999939 	1.404603076795676e-11 	101324.9999999948
0.9071571571571564 	299.9999999999412 	1.493146692052431e-11 	101324.9999999948
0.9096596596596589 	299.9999999999437 	1.514388346956718e-11 	101324.9999999945
0.9121621621621616 	300.0000000000108 	1.533601644297212e-11 	101324.9999999944
0.9146646646646639 	299.9999999999762 	1.511420244505846e-11 	101324.9999999942
0.9171671671671666 	299.9999999999396 	1.416080058502791e-11 	101324.999999994
0.9196696696696689 	299.9999999999995 	1.41512028001024e-11 	101324.999999994
0.9221721721721714 	299.999999999998 	1.161151050746612e-11 	101324.9999999941
0.9246746746746741 	299.9999999999314 	1.432997842618884e-11 	101324.9999999944
0.9271771771771765 	299.9999999999426 	1.149953376555473e-11 	101324.9999999947
0.9296796796796791 	299.9999999999905 	1.356469135568273e-11 	101324.9999999949
0.9321821821821816 	299.9999999999632 	1.214623705961325e-11 	101324.9999999948
0.9346846846846838 	299.9999999999417 	1.360648888105509e-11 	101324.9999999946
0.9371871871871866 	300.0000000000137 	1.28764938715111e-11 	101324.9999999945
0.9396896896896891 	300.0000000000141 	1.291333420647519e-11 	101324.9999999944
0.9421921921921914 	300.0000000000106 	1.340083002515664e-11 	101324.9999999943
0.9446946946946939 	299.9999999999658 	1.236167287581572e-11 	101324.9999999945
0.9471971971971965 	299.9999999999139 	1.480975387500792e-11 	101324.9999999946
0.9496996996996991 	299.9999999999555 	1.225040708034573e-11 	101324.9999999945
0.9522022022022016 	299.9999999999701 	1.430097749881736e-11 	101324.9999999947
0.9547047047047038 	299.9999999999696 	1.379124440281174e-11 	101324.999999995
0.9572072072072064 	299.9999999999541 	1.501662602592628e-11 	101324.9999999951
0.9597097097097093 	299.9999999999557 	1.472742940116373e-11 	101324.9999999952
0.9622122122122114 	299.9999999999487 	1.441482645886728e-11 	101324.9999999951
0.964714714714714 	299.9999999999474 	1.565403373911849e-11 	101324.9999999948
0.9672172172172167 	299.9999999999517 	1.485364423788242e-11 	101324.9999999949
0.969719719719719 	299.9999999999789 	1.603479040814831e-11 	101324.9999999951
0.9722222222222214 	299.999999999975 	1.553346855709832e-11 	101324.999999995
0.9747247247247239 	299.9999999999707 	1.580099162522024e-11 	101324.9999999949
0.9772272272272267 	300.0000000000051 	1.563791600250683e-11 	101324.9999999947
0.9797297297297292 	299.9999999999864 	1.521204096306713e-11 	101324.9999999948
0.9822322322322313 	299.9999999999889 	1.580436220552855e-11 	101324.9999999949
0.9847347347347344 	299.9999999999824 	1.423205925959213e-11 	101324.9999999949
0.9872372372372363 	299.9999999999335 	1.696831567070107e-11 	101324.999999995
0.9897397397397389 	299.9999999999585 	1.426542565116635e-11 	101324.9999999951
0.9922422422422417 	299.9999999999404 	1.621158375424946e-11 	101324.9999999952
0.9947447447447441 	299.9999999999492 	1.483808204331963e-11 	101324.9999999951
0.9972472472472468 	299.9999999999691 	1.630494202193797e-11 	101324.9999999951
0.999749749749749 	299.9999999999631 	1.610764703196711e-11 	101324.999999995
1.002252252252252 	299.999999999972 	1.672486314297778e-11 	101324.9999999953
1.004754754754754 	299.9999999999948 	1.662048522317435e-11 	101324.9999999955
1.007257257257256 	299.9999999999702 	1.54845618449441e-11 	101324.9999999957
1.009759759759759 	299.9999999999566 	1.77261448304039e-11 	101324.9999999957
1.012262262262261 	299.9999999999576 	1.535859315672888e-11 	101324.9999999954
1.014764764764764 	299.9999999999283 	1.721541059828865e-11 	101324.9999999953
1.017267267267267 	299.9999999999189 	1.622307143216467e-11 	101324.9999999954
1.019769769769769 	299.9999999999661 	1.706770125201625e-11 	101324.9999999955
1.022272272272272 	299.9999999999794 	1.615861244047355e-11 	101324.9999999955
1.024774774774774 	299.9999999999814 	1.611300989105133e-11 	101324.9999999958
1.027277277277277 	299.9999999999781 	1.671490598357871e-11 	101324.9999999959
1.029779779779779 	300.0000000000149 	1.533183813327944e-11 	101324.9999999961
1.032282282282282 	300.0000000000175 	1.626207099750968e-11 	101324.9999999961
1.034784784784784 	300.0000000000047 	1.598863524975069e-11 	101324.9999999962
1.037287287287286 	299.9999999999681 	1.656846741193003e-11 	101324.9999999962
1.039789789789789 	299.999999999975 	1.599520080153299e-11 	101324.9999999965
1.042292292292291 	300.0000000000164 	1.588873213910952e-11 	101324.9999999967
1.044794794794794 	300.0000000000356 	1.566062099280032e-11 	101324.9999999968
1.047297297297296 	300.0000000000491 	1.407611724923747e-11 	101324.9999999969
1.049799799799799 	299.9999999999945 	1.575423204099309e-11 	101324.9999999967
1.052302302302302 	299.9999999999479 	1.345667644700293e-11 	101324.9999999964
1.054804804804804 	299.9999999999246 	1.579885643839595e-11 	101324.9999999961
1.057307307307306 	299.9999999999137 	1.512119420113753e-11 	101324.9999999961
1.059809809809809 	299.9999999999571 	1.671941266640781e-11 	101324.9999999962
1.062312312312312 	299.9999999999506 	1.636016122843145e-11 	101324.9999999961
1.064814814814814 	299.999999999946 	1.742065077230578e-11 	101324.9999999962
1.067317317317317 	299.9999999999202 	1.750208128886582e-11 	101324.9999999964
1.069819819819819 	299.999999999917 	1.704623403363952e-11 	101324.9999999964
1.072322322322321 	299.9999999999943 	1.900121089521456e-11 	101324.9999999962
1.074824824824824 	300.000000000029 	1.714484894633076e-11 	101324.999999996
1.077327327327327 	300.0000000000425 	1.862614632689554e-11 	101324.999999996
1.079829829829829 	300.0000000000449 	1.707242767145592e-11 	101324.9999999963
1.082332332332332 	300.0000000000093 	1.816772148272594e-11 	101324.9999999964
1.084834834834834 	299.9999999999832 	1.768568332297146e-11 	101324.9999999965
1.087337337337337 	299.9999999999391 	1.72844187326071e-11 	101324.9999999967
1.089839839839839 	299.9999999999251 	1.855716917895084e-11 	101324.9999999968
1.092342342342342 	299.9999999999674 	1.657880102679603e-11 	101324.9999999967
1.094844844844844 	299.9999999999677 	1.770492844012764e-11 	101324.9999999966
1.097347347347347 	299.9999999999345 	1.589984253286164e-11 	101324.9999999965
1.099849849849849 	299.9999999999225 	1.879031691523005e-11 	101324.9999999965
1.102352352352352 	299.999999999954 	1.641263046694408e-11 	101324.9999999966
1.104854854854854 	299.9999999999748 	1.890697398559665e-11 	101324.9999999967
1.107357357357357 	299.9999999999534 	1.739515018995922e-11 	101324.9999999967
1.109859859859859 	299.9999999999404 	1.920250238637807e-11 	101324.9999999965
1.112362362362362 	300.0000000000158 	1.795276578937106e-11 	101324.9999999964
1.114864864864865 	300.000000000015 	1.824152271905538e-11 	101324.9999999961
1.117367367367367 	299.9999999999609 	1.914469623354315e-11 	101324.999999996
1.119869869869869 	299.9999999999191 	1.768422803046871e-11 	101324.999999996
1.122372372372372 	299.9999999999498 	1.943361978012037e-11 	101324.999999996
1.124874874874874 	299.9999999999444 	1.834358303647617e-11 	101324.9999999961
1.127377377377377 	299.9999999999532 	1.979707905486317e-11 	101324.9999999963
1.129879879879879 	300.000000000018 	1.929087273408132e-11 	101324.9999999965
1.132382382382382 	300.0000000000425 	1.992859246842969e-11 	101324.9999999967
1.134884884884884 	300.0000000000105 	1.947939577034076e-11 	101324.9999999968
1.137387387387387 	300.0000000000166 	1.953153685164068e-11 	101324.999999997
1.139889889889889 	299.9999999999587 	2.073368369869356e-11 	101324.9999999969
1.142392392392392 	299.9999999999499 	1.907301976372415e-11 	101324.9999999968
1.144894894894894 	300.0000000000193 	2.054198345336545e-11 	101324.9999999969
1.147397397397397 	299.9999999999973 	1.889115561161657e-11 	101324.9999999972
1.149899899899899 	299.9999999999314 	1.969454230114422e-11 	101324.9999999974
1.152402402402402 	299.9999999999172 	1.85496556279693e-11 	101324.9999999974
1.154904904904904 	299.999999999954 	1.920220392678749e-11 	101324.9999999973
1.157407407407407 	299.999999999952 	1.84024001342307e-11 	101324.9999999971
1.159909909909909 	299.9999999999245 	1.830230855689786e-11 	101324.9999999973
1.162412412412412 	299.9999999999221 	1.982605797597717e-11 	101324.9999999973
1.164914914914914 	299.9999999999533 	1.834889241089975e-11 	101324.9999999974
1.167417417417417 	299.999999999962 	2.006037783922732e-11 	101324.9999999975
1.169919919919919 	300.0000000000177 	1.872279935433092e-11 	101324.9999999977
1.172422422422422 	300.0000000000508 	1.986267549201351e-11 	101324.9999999977
1.174924924924925 	299.9999999999909 	1.909913072084878e-11 	101324.9999999976
1.177427427427427 	299.9999999999551 	2.005056356530751e-11 	101324.9999999976
1.179929929929929 	300.0000000000156 	2.079000092780751e-11 	101324.9999999978
1.182432432432432 	300.0000000000514 	1.855669680019724e-11 	101324.9999999978
1.184934934934934 	300.0000000000073 	1.973567883990876e-11 	101324.9999999976
1.187437437437437 	299.999999999974 	1.84453504471851e-11 	101324.9999999977
1.189939939939939 	299.9999999999694 	1.958947333624018e-11 	101324.9999999978
1.192442442442442 	299.9999999999298 	1.906525293137252e-11 	101324.9999999978
1.194944944944944 	299.9999999999256 	2.095059387302917e-11 	101324.9999999976
1.197447447447447 	299.9999999999907 	2.039133035460122e-11 	101324.9999999975
1.199949949949949 	300.0000000000152 	2.058552555753078e-11 	101324.9999999974
1.202452452452452 	299.9999999999535 	2.198301046670754e-11 	101324.9999999971
1.204954954954955 	299.9999999999447 	2.078708534743208e-11 	101324.999999997
1.207457457457457 	299.9999999999785 	2.236691084829776e-11 	101324.9999999969
1.20995995995996 	299.9999999999778 	2.139882847509701e-11 	101324.9999999968
1.212462462462462 	299.9999999999872 	2.286565621383229e-11 	101324.9999999969
1.214964964964964 	299.9999999999877 	2.166376285272763e-11 	101324.9999999971
1.217467467467467 	299.9999999999829 	2.238775762358518e-11 	101324.9999999972
1.219969969969969 	299.9999999999651 	2.100034653881923e-11 	101324.9999999972
1.222472472472472 	300.0000000000194 	2.137886629729433e-11 	101324.9999999972
1.224974974974975 	300.0000000000468 	2.231983448802316e-11 	101324.9999999973
1.227477477477477 	299.9999999999923 	2.046920046832228e-11 	101324.9999999974
1.229979979979979 	299.9999999999777 	2.175002025958064e-11 	101324.9999999975
1.232482482482482 	299.9999999999462 	2.034803988280356e-11 	101324.9999999977
1.234984984984984 	299.9999999999466 	2.16705258066136e-11 	101324.9999999978
1.237487487487487 	299.9999999999785 	1.972387263624434e-11 	101324.9999999978
1.239989989989989 	299.9999999999819 	2.024366483034236e-11 	101324.9999999979
1.242492492492492 	300.000000000015 	2.083740005160869e-11 	101324.9999999978
1.244994994994994 	299.9999999999794 	1.945482445986018e-11 	101324.9999999977
1.247497497497497 	299.999999999974 	2.120989081647138e-11 	101324.9999999977
1.249999999999999 	300 	2.063472919388728e-11 	101324.9999999977
