-1.25 	347.5528258147573 	0.003154255007679749 	101325.0031415926
-1.247497497497497 	300.1224737548003 	0.003080504597208346 	101324.9974718921
-1.244994994994995 	300.0001712348775 	0.002935814125635778 	101325.0021003182
-1.242492492492492 	299.9999990221534 	0.002792037147617873 	101324.9987056227
-1.23998998998999 	300.0000012971193 	0.002643580359490544 	101325.001491334
-1.237487487487487 	299.9999996793542 	0.002493215340122193 	101324.9996659649
-1.234984984984985 	300.0000010421338 	0.002341746389144807 	101325.0011980967
-1.232482482482482 	300.0000002896988 	0.002192166476987219 	101325.000378107
-1.22997997997998 	300.0000009437861 	0.002044023159388065 	101325.0010882586
-1.227477477477477 	300.0000007062365 	0.001900355651007088 	101325.0008627085
-1.224974974974975 	300.0000009299154 	0.001760193488781243 	101325.0010778429
-1.222472472472472 	300.000000994295 	0.001625904204803113 	101325.0011975543
-1.21996996996997 	300.0000010130055 	0.00149668206183115 	101325.0011817931
-1.217467467467467 	300.0000012422493 	0.001374148964787758 	101325.0014856613
-1.214964964964965 	300.000001188779 	0.001257325084857361 	101325.0013924523
-1.212462462462462 	300.0000014758562 	0.001147946259550196 	101325.0017572645
-1.20995995995996 	300.0000014193008 	0.001044115020087841 	101325.001667682
-1.207457457457457 	300.0000016896028 	0.0009482403292587862 	101325.00200659
-1.204954954954955 	300.0000016479975 	0.00085746980581082 	101325.0019404207
-1.202452452452452 	300.0000018543678 	0.0007746761888494855 	101325.0021983854
-1.19994994994995 	300.0000018558324 	0.0006966243464086497 	101325.0021882913
-1.197447447447447 	300.0000020091676 	0.0006259934250513392 	101325.0023814903
-1.194944944944945 	300.0000020880277 	0.0005597980442294359 	101325.0024645361
-1.192442442442442 	300.0000021831189 	0.0005004736156533727 	101325.0025852762
-1.18993993993994 	300.0000023016078 	0.0004447714227989165 	101325.0027176966
-1.187437437437437 	300.0000023541043 	0.0003958500429676986 	101325.002785648
-1.184934934934935 	300.0000025301306 	0.00034941156310475 	101325.0029876587
-1.182432432432432 	300.0000025558101 	0.0003094798671329573 	101325.0030227714
-1.17992992992993 	300.0000027708746 	0.0002711888564075254 	101325.0032730806
-1.177427427427427 	300.0000027442363 	0.000238981709079867 	101325.0032455191
-1.174924924924925 	300.0000029740584 	0.0002076625981096794 	101325.0035144172
-1.172422422422422 	300.0000029420065 	0.0001819530838861727 	101325.0034787685
-1.16991991991992 	300.0000031591892 	0.0001565551138047403 	101325.003733094
-1.167417417417417 	300.0000031126954 	0.0001367219166077273 	101325.0036835255
-1.164914914914915 	300.0000033422089 	0.0001153625969385385 	101325.0039498479
-1.162412412412412 	300.0000034856728 	9.829645069853689e-05 	101325.0041200799
-1.15990990990991 	300.000003429682 	7.914840610541309e-05 	101325.0040529146
-1.157407407407407 	300.0000038021872 	6.490867852703977e-05 	101325.0044952577
-1.154904904904904 	300.0000034958437 	4.83477025671718e-05 	101325.0041317864
-1.152402402402403 	300.0000040154545 	3.714913561329719e-05 	101325.0047471987
-1.1498998998999 	300.0000035988788 	2.362637375723639e-05 	101325.0042539916
-1.147397397397397 	300.0000042002406 	1.62549453379625e-05 	101325.0049654784
-1.144894894894895 	300.0000038656465 	1.434190889303356e-05 	101325.004569639
-1.142392392392392 	300.0000043356166 	1.046191168296889e-05 	101325.0051257292
-1.13988988988989 	300.0000042665901 	1.290119469245614e-05 	101325.0050438211
-1.137387387387387 	300.0000043907592 	1.269647408807033e-05 	101325.0051904333
-1.134884884884885 	300.0000044849372 	1.298498012293453e-05 	101325.0053015585
-1.132382382382382 	300.0000045594529 	1.320537552080822e-05 	101325.0053896684
-1.12987987987988 	300.0000046258434 	1.340515707850884e-05 	101325.0054684983
-1.127377377377377 	300.000004701588 	1.362813485113558e-05 	101325.0055584497
-1.124874874874875 	300.0000047940604 	1.389320206049225e-05 	101325.0056678242
-1.122372372372372 	300.000004896195 	1.418333186191691e-05 	101325.0057881121
-1.11986986986987 	300.000004995953 	1.44689860684523e-05 	101325.005905395
-1.117367367367367 	300.0000050882254 	1.473712458381947e-05 	101325.0060141584
-1.114864864864865 	300.0000051766564 	1.499598822540278e-05 	101325.0061190599
-1.112362362362362 	300.0000052659536 	1.525574208578032e-05 	101325.0062254807
-1.10985985985986 	300.0000053541551 	1.551007435782197e-05 	101325.006330512
-1.107357357357357 	300.0000054343953 	1.57414280615187e-05 	101325.0064254132
-1.104854854854855 	300.0000055039387 	1.594360523060835e-05 	101325.006506898
-1.102352352352353 	300.0000055690407 	1.613404560933446e-05 	101325.0065828196
-1.09984984984985 	300.000005640717 	1.634217282344032e-05 	101325.0066667596
-1.097347347347347 	300.0000057249067 	1.658315969405424e-05 	101325.0067661302
-1.094844844844845 	300.0000058152543 	1.68409627914252e-05 	101325.0068734622
-1.092342342342342 	300.0000058988473 	1.708279828696056e-05 	101325.006973165
-1.08983983983984 	300.0000059695113 	1.729155260423469e-05 	101325.0070574949
-1.087337337337337 	300.0000060328615 	1.748032187064367e-05 	101325.0071327038
-1.084834834834835 	300.0000061005875 	1.7678710992739e-05 	101325.0072125489
-1.082332332332332 	300.0000061796637 	1.790364534866347e-05 	101325.0073054348
-1.07982982982983 	300.0000062632769 	1.813825653483585e-05 	101325.0074035548
-1.077327327327327 	300.0000063365565 	1.834719233066006e-05 	101325.0074897008
-1.074824824824825 	300.0000063936484 	1.851584189589712e-05 	101325.0075571913
-1.072322322322323 	300.0000064428581 	1.866380095109581e-05 	101325.0076157281
-1.06981981981982 	300.000006496479 	1.882232330615008e-05 	101325.0076794784
-1.067317317317317 	300.0000065608778 	1.900752778687534e-05 	101325.0077557678
-1.064814814814815 	300.0000066312994 	1.92062047724999e-05 	101325.0078390047
-1.062312312312312 	300.0000066940407 	1.938547400804071e-05 	101325.0079132104
-1.05980980980981 	300.0000067429203 	1.953274582666339e-05 	101325.007971135
-1.057307307307307 	300.0000067916903 	1.968096119649566e-05 	101325.0080288387
-1.054804804804805 	300.0000068576001 	1.986934202816444e-05 	101325.0081065598
-1.052302302302302 	300.0000069355118 	2.008561286804421e-05 	101325.0081984495
-1.0497997997998 	300.0000070030426 	2.027742892039596e-05 	101325.0082783241
-1.047297297297297 	300.0000070500581 	2.041936577883576e-05 	101325.0083341701
-1.044794794794795 	300.0000070889786 	2.053823508549753e-05 	101325.0083804505
-1.042292292292292 	300.0000071336406 	2.066574304236949e-05 	101325.008433287
-1.03978978978979 	300.0000071795027 	2.079268606833382e-05 	101325.0084873906
-1.037287287287287 	300.0000072128364 	2.088912977596424e-05 	101325.0085267192
-1.034784784784785 	300.0000072341421 	2.095855378664886e-05 	101325.0085519511
-1.032282282282283 	300.0000072626715 	2.104787598812451e-05 	101325.0085857914
-1.02977977977978 	300.0000073145379 	2.119513068666429e-05 	101325.0086471473
-1.027277277277277 	300.0000073817891 	2.138000748284596e-05 	101325.0087265815
-1.024774774774775 	300.000007439449 	2.154043943205113e-05 	101325.0087945684
-1.022272272272272 	300.0000074713033 	2.163530680127764e-05 	101325.0088321469
-1.01976976976977 	300.000007483953 	2.167964851925055e-05 	101325.0088473206
-1.017267267267267 	300.0000074958874 	2.1719178575133e-05 	101325.0088618677
-1.014764764764765 	300.0000075180511 	2.178190269776308e-05 	101325.0088882938
-1.012262262262262 	300.0000075461884 	2.185802079326946e-05 	101325.0089212374
-1.00975975975976 	300.0000075686636 	2.191971817932125e-05 	101325.0089471055
-1.007257257257257 	300.0000075806313 	2.195766913453295e-05 	101325.0089607847
-1.004754754754755 	300.0000075928646 	2.200142475381993e-05 	101325.0089755223
-1.002252252252252 	300.0000076247201 	2.209808389548359e-05 	101325.0090141005
-0.9997497497497498 	300.0000076820052 	2.225611911142898e-05 	101325.0090825637
-0.9972472472472473 	300.0000077404081 	2.240937296967556e-05 	101325.0091514495
-0.9947447447447449 	300.0000077604593 	2.246025270197522e-05 	101325.0091742045
-0.9922422422422421 	300.0000077293079 	2.238335539926089e-05 	101325.0091363973
-0.9897397397397399 	300.0000076857821 	2.228178493661035e-05 	101325.0090848145
-0.9872372372372376 	300.0000076916397 	2.230938355697413e-05 	101325.0090926056
-0.9847347347347346 	300.0000077677092 	2.251138397014722e-05 	101325.0091837452
-0.9822322322322323 	300.0000078605779 	2.274645417555835e-05 	101325.0092941245
-0.9797297297297296 	300.0000078830336 	2.279359645775049e-05 	101325.0093201886
-0.9772272272272275 	300.0000077971555 	2.256279308021143e-05 	101325.0092174368
-0.9747247247247248 	300.0000076607318 	2.220772445332365e-05 	101325.0090549967
-0.9722222222222224 	300.0000075852222 	2.201623778530711e-05 	101325.0089654526
-0.9697197197197196 	300.0000076400529 	2.216407267314681e-05 	101325.0090310399
-0.9672172172172175 	300.0000077878144 	2.255173824590054e-05 	101325.0092071578
-0.9647147147147147 	300.000007911695 	2.28756067203335e-05 	101325.0093549423
-0.9622122122122124 	300.0000079114693 	2.287558574895576e-05 	101325.0093551836
-0.9597097097097099 	300.00000778617 	2.254943154441629e-05 	101325.0092064251
-0.9572072072072073 	300.0000076358753 	2.215752597745381e-05 	101325.0090272875
-0.9547047047047047 	300.0000075826186 	2.201896503855758e-05 	101325.0089626706
-0.9522022022022023 	300.0000076762924 	2.226435237996692e-05 	101325.0090723573
-0.9496996996996998 	300.0000078549993 	2.273066431559712e-05 	101325.0092834687
-0.9471971971971973 	300.0000079864129 	2.306709011646916e-05 	101325.0094393755
-0.9446946946946947 	300.0000079549009 	2.296618195412683e-05 	101325.0094029743
-0.9421921921921923 	300.0000077361155 	2.236498161586153e-05 	101325.0091448662
-0.93968968968969 	300.0000074171085 	2.149776306223432e-05 	101325.0087676203
-0.9371871871871872 	300.0000071500653 	2.07769348193594e-05 	101325.0084511478
-0.9346846846846848 	300.0000070756027 	2.058698247999191e-05 	101325.0083619997
-0.9321821821821823 	300.0000072590202 	2.110417069248872e-05 	101325.0085778101
-0.9296796796796799 	300.0000076581028 	2.221126353513088e-05 	101325.009049197
-0.9271771771771771 	300.0000081385259 	2.354156394521793e-05 	101325.0096176558
-0.9246746746746748 	300.000008531041 	2.462576074440421e-05 	101325.0100829724
-0.9221721721721724 	300.0000086891962 	2.505087498239965e-05 	101325.0102716815
-0.9196696696696698 	300.0000085240918 	2.456443753258149e-05 	101325.0100783787
-0.9171671671671672 	300.0000080184075 	2.311577250006753e-05 	101325.0094822388
-0.9146646646646649 	300.0000072222394 	2.084365562793856e-05 	101325.0085421809
-0.9121621621621623 	300.0000062331534 	1.802022192713598e-05 	101325.0073735121
-0.9096596596596597 	300.0000051668266 	1.496895806596745e-05 	101325.0061130471
-0.9071571571571573 	300.0000041273255 	1.198347222710977e-05 	101325.0048838274
-0.9046546546546547 	300.0000031877665 	9.274950502534934e-06 	101325.0037724959
-0.9021521521521524 	300.0000023872406 	6.959827192448242e-06 	101325.0028254752
-0.8996496496496498 	300.0000017374804 	5.075281506324735e-06 	101325.0020566481
-0.8971471471471473 	300.0000012314109 	3.603693873623402e-06 	101325.0014577431
-0.894644644644645 	300.0000008512507 	2.495657237621595e-06 	101325.0010077998
-0.892142142142142 	300.0000005747842 	1.688082133689134e-06 	101325.0006805493
-0.8896396396396397 	300.0000003795722 	1.116649385845438e-06 	101325.0004494455
-0.8871371371371374 	300.0000002453794 	7.231524385018251e-07 	101325.0002906039
-0.8846346346346349 	300.0000001554547 	4.589431531564432e-07 	101325.0001841423
-0.8821321321321324 	300.000000096603 	2.856773718572069e-07 	101325.0001144486
-0.8796296296296297 	300.0000000589267 	1.745554779815839e-07 	101325.0000698248
-0.8771271271271271 	300.0000000353039 	1.047668770449638e-07 	101325.0000418463
-0.8746246246246248 	300.0000000208041 	6.180950776302334e-08 	101325.0000246508
-0.8721221221221224 	300.000000012058 	3.586312652934306e-08 	101325.0000142815
-0.8696196196196196 	300.0000000068609 	2.047895902240371e-08 	101325.0000081415
-0.8671171171171175 	300.0000000038544 	1.151258697958312e-08 	101325.000004569
-0.8646146146146148 	300.0000000021049 	6.376802731275915e-09 	101325.0000025249
-0.8621121121121121 	300.000000001149 	3.480181915321921e-09 	101325.0000013741
-0.8596096096096097 	300.0000000006339 	1.873323548957756e-09 	101325.0000007363
-0.857107107107107 	300.0000000003128 	9.948337986116724e-10 	101325.0000003883
-0.8546046046046049 	300.0000000001639 	5.214451277400163e-10 	101325.000000201
-0.8521021021021022 	300.0000000000929 	2.694437189330532e-10 	101325.0000001015
-0.8495995995995997 	300.0000000000439 	1.38216329805429e-10 	101325.0000000494
-0.8470970970970974 	299.9999999999872 	6.934027955919774e-11 	101325.0000000227
-0.8445945945945946 	299.9999999999906 	3.544334846076527e-11 	101325.0000000094
-0.8420920920920922 	300.0000000000122 	1.732882361421097e-11 	101325.0000000026
-0.8395895895895897 	300.0000000000024 	1.058953439483599e-11 	101324.9999999993
-0.8370870870870872 	300.0000000000015 	4.756275764577656e-12 	101324.9999999977
-0.8345845845845846 	300.0000000000041 	3.476562819038409e-12 	101324.9999999969
-0.8320820820820823 	299.9999999999748 	2.220177189917952e-12 	101324.9999999965
-0.8295795795795798 	299.9999999999545 	1.763575155442621e-12 	101324.9999999962
-0.8270770770770772 	299.9999999999724 	1.952833302570026e-12 	101324.9999999962
-0.8245745745745746 	299.9999999999588 	1.467973404778647e-12 	101324.9999999962
-0.8220720720720721 	299.9999999999741 	1.71573972735359e-12 	101324.9999999961
-0.8195695695695699 	299.9999999999938 	8.379274778473879e-13 	101324.9999999959
-0.817067067067067 	299.9999999999742 	2.046054577507597e-12 	101324.9999999957
-0.8145645645645651 	299.9999999999584 	1.289437967363982e-12 	101324.9999999956
-0.8120620620620621 	299.9999999999903 	1.507806217255032e-12 	101324.9999999955
-0.8095595595595597 	300.000000000001 	1.881218018197442e-12 	101324.9999999954
-0.8070570570570572 	299.9999999999644 	1.748194682331163e-12 	101324.9999999954
-0.8045545545545546 	299.9999999999641 	2.344502589917703e-12 	101324.9999999955
-0.8020520520520523 	299.9999999999958 	1.478207002489742e-12 	101324.9999999956
-0.7995495495495494 	300.000000000014 	3.138200075158514e-12 	101324.9999999957
-0.7970470470470474 	300 	3.159250283006169e-12 	101324.9999999958
-0.7945445445445446 	300.0000000000028 	3.439111096325477e-12 	101324.9999999959
-0.7920420420420423 	300.0000000000081 	3.959071485878831e-12 	101324.9999999959
-0.7895395395395397 	300.0000000000078 	3.747832012038186e-12 	101324.9999999961
-0.7870370370370371 	300.0000000000019 	3.308179333721589e-12 	101324.999999996
-0.7845345345345348 	299.9999999999825 	3.767482284477385e-12 	101324.999999996
-0.7820320320320323 	299.9999999999851 	2.782813415275947e-12 	101324.9999999961
-0.7795295295295296 	299.9999999999575 	4.015084325411954e-12 	101324.9999999962
-0.7770270270270272 	299.9999999999487 	3.649244672436284e-12 	101324.9999999964
-0.7745245245245247 	299.9999999999464 	3.767817574975711e-12 	101324.9999999964
-0.7720220220220222 	299.9999999999658 	2.975768650117216e-12 	101324.9999999964
-0.7695195195195199 	299.9999999999702 	3.813634560458295e-12 	101324.9999999963
-0.767017017017017 	299.9999999999895 	3.258887695851829e-12 	101324.9999999962
-0.7645145145145147 	300.0000000000065 	4.020621111743032e-12 	101324.9999999962
-0.7620120120120122 	300.0000000000093 	4.099538858151901e-12 	101324.9999999962
-0.7595095095095097 	299.9999999999588 	4.988728657857527e-12 	101324.9999999961
-0.7570070070070072 	299.999999999964 	5.559608389713993e-12 	101324.9999999962
-0.7545045045045048 	299.9999999999948 	5.301408008792395e-12 	101324.9999999963
-0.7520020020020022 	299.9999999999784 	4.657394029734356e-12 	101324.9999999964
-0.7494994994994997 	299.9999999999748 	3.972392121381841e-12 	101324.9999999962
-0.7469969969969972 	299.9999999999975 	2.863728528256106e-12 	101324.9999999962
-0.7444944944944945 	299.9999999999922 	2.345425461621846e-12 	101324.9999999959
-0.7419919919919924 	299.9999999999951 	1.719618806773739e-12 	101324.9999999957
-0.7394894894894897 	299.9999999999746 	4.502461934018765e-13 	101324.9999999957
-0.7369869869869872 	299.9999999999949 	5.593622637747446e-13 	101324.9999999958
-0.7344844844844846 	299.9999999999784 	1.425120836665282e-12 	101324.9999999958
-0.7319819819819822 	300.0000000000019 	6.780352062761189e-13 	101324.9999999959
-0.7294794794794797 	299.9999999999956 	2.666550427966262e-12 	101324.9999999958
-0.7269769769769773 	300.0000000000074 	1.613801333998898e-12 	101324.9999999957
-0.7244744744744747 	300.0000000000129 	2.287513172327932e-12 	101324.9999999958
-0.721971971971972 	299.9999999999738 	2.061112869890148e-12 	101324.9999999958
-0.7194694694694695 	299.9999999999904 	1.73546410844684e-12 	101324.9999999957
-0.7169669669669674 	299.9999999999627 	9.541829022255574e-13 	101324.9999999955
-0.7144644644644647 	299.9999999999844 	6.526220079731301e-13 	101324.9999999954
-0.711961961961962 	300.0000000000049 	7.857196088207939e-13 	101324.9999999955
-0.7094594594594597 	300.0000000000084 	7.772870333519066e-13 	101324.9999999955
-0.7069569569569573 	300.0000000000134 	1.38121229598568e-12 	101324.9999999957
-0.7044544544544545 	300.0000000000151 	5.875829212880615e-13 	101324.9999999956
-0.7019519519519523 	300.0000000000041 	9.366914156781793e-13 	101324.9999999955
-0.6994494494494495 	299.9999999999587 	5.976902511675925e-13 	101324.9999999957
-0.6969469469469471 	299.9999999999683 	1.068201184767976e-12 	101324.9999999959
-0.6944444444444446 	299.9999999999809 	1.011808499820525e-12 	101324.9999999959
-0.6919419419419421 	300.000000000018 	1.078087223399195e-12 	101324.9999999959
-0.6894394394394396 	299.9999999999962 	9.221928232201559e-13 	101324.999999996
-0.6869369369369374 	300.0000000000054 	1.214673230947686e-12 	101324.999999996
-0.6844344344344344 	300.0000000000119 	6.781220709829111e-13 	101324.999999996
-0.6819319319319321 	299.9999999999766 	1.551776712928701e-12 	101324.999999996
-0.6794294294294296 	299.9999999999654 	1.83566599854228e-12 	101324.9999999959
-0.6769269269269272 	299.9999999999497 	2.005778610085086e-12 	101324.9999999959
-0.6744244244244245 	299.9999999999777 	1.679967490125958e-12 	101324.9999999958
-0.6719219219219222 	299.9999999999733 	1.890578164965335e-12 	101324.9999999957
-0.6694194194194195 	299.9999999999987 	2.665789599647515e-12 	101324.9999999958
-0.6669169169169172 	300.0000000000103 	2.332551866527712e-12 	101324.999999996
-0.6644144144144146 	299.9999999999793 	2.545742004351133e-12 	101324.9999999961
-0.661911911911912 	299.99999999998 	1.825518181431346e-12 	101324.999999996
-0.6594094094094097 	299.9999999999856 	2.289756171739121e-12 	101324.9999999958
-0.656906906906907 	299.9999999999625 	1.467471991485297e-12 	101324.9999999956
-0.6544044044044046 	299.9999999999682 	2.46132305484267e-12 	101324.9999999957
-0.6519019019019021 	299.9999999999932 	1.19799398252212e-12 	101324.9999999956
-0.6493993993993996 	300.0000000000145 	2.710489612781795e-12 	101324.9999999954
-0.6468968968968971 	300.0000000000202 	2.189036662915873e-12 	101324.9999999956
-0.6443943943943946 	299.9999999999984 	2.249126940812423e-12 	101324.9999999958
-0.6418918918918921 	299.9999999999962 	1.668511311219235e-12 	101324.9999999959
-0.6393893893893897 	299.9999999999978 	1.196202363226299e-12 	101324.9999999959
-0.6368868868868871 	299.9999999999864 	7.128621057258951e-13 	101324.9999999959
-0.6343843843843846 	299.9999999999954 	1.192606306348295e-12 	101324.999999996
-0.6318818818818821 	299.9999999999733 	1.269848591224288e-12 	101324.9999999959
-0.6293793793793795 	300.0000000000026 	1.395532602770362e-12 	101324.9999999961
-0.6268768768768773 	300.0000000000132 	1.59964432759299e-12 	101324.999999996
-0.6243743743743745 	299.9999999999868 	8.758528756516855e-13 	101324.9999999961
-0.6218718718718721 	300.000000000003 	2.199998201764128e-12 	101324.999999996
-0.6193693693693696 	299.9999999999642 	1.740561234853274e-12 	101324.999999996
-0.6168668668668671 	299.9999999999873 	2.774553144002143e-12 	101324.999999996
-0.6143643643643645 	300.000000000008 	1.917758939011949e-12 	101324.9999999962
-0.6118618618618621 	299.9999999999893 	2.45283095653972e-12 	101324.9999999964
-0.6093593593593596 	299.9999999999924 	2.228618760872381e-12 	101324.9999999966
-0.6068568568568571 	299.9999999999928 	2.442522843302685e-12 	101324.9999999964
-0.6043543543543546 	299.9999999999744 	2.051692926436905e-12 	101324.9999999962
-0.6018518518518521 	299.9999999999799 	1.890217428645661e-12 	101324.999999996
-0.5993493493493496 	299.9999999999673 	9.691740241757374e-13 	101324.9999999958
-0.5968468468468471 	299.9999999999725 	1.246572652091495e-12 	101324.9999999958
-0.5943443443443446 	299.999999999995 	7.525055476143285e-13 	101324.9999999959
-0.591841841841842 	299.9999999999764 	1.54371627110947e-12 	101324.9999999958
-0.5893393393393397 	299.9999999999706 	8.650849795288086e-13 	101324.9999999958
-0.5868368368368371 	299.9999999999974 	2.068457704546295e-12 	101324.9999999957
-0.5843343343343346 	300.0000000000018 	1.668146731279291e-12 	101324.9999999958
-0.5818318318318321 	300.0000000000161 	2.998040224626304e-12 	101324.999999996
-0.5793293293293297 	299.9999999999918 	1.21318531077605e-12 	101324.999999996
-0.5768268268268271 	300.0000000000034 	2.17879525585931e-12 	101324.999999996
-0.5743243243243245 	300.0000000000118 	1.165180682339464e-12 	101324.999999996
-0.5718218218218221 	300.0000000000086 	1.541084723308315e-12 	101324.999999996
-0.5693193193193196 	300.0000000000247 	1.251485194319709e-12 	101324.9999999959
-0.5668168168168171 	299.9999999999912 	5.608171828456794e-13 	101324.999999996
-0.5643143143143147 	299.9999999999686 	1.487864368480561e-12 	101324.9999999961
-0.5618118118118121 	300.0000000000076 	5.242506518927093e-13 	101324.9999999962
-0.5593093093093094 	300.0000000000198 	1.353247462404201e-12 	101324.999999996
-0.5568068068068072 	300.0000000000102 	8.898946276208636e-13 	101324.999999996
-0.5543043043043046 	300.0000000000094 	6.656995819585398e-13 	101324.9999999959
-0.551801801801802 	299.9999999999736 	7.785996104083843e-13 	101324.9999999959
-0.5492992992992995 	299.9999999999989 	4.616006524195172e-13 	101324.9999999961
-0.5467967967967969 	300.0000000000091 	3.413056287629807e-13 	101324.9999999961
-0.5442942942942947 	300.0000000000028 	4.943968231340159e-13 	101324.9999999963
-0.5417917917917919 	299.9999999999769 	5.703726593902769e-13 	101324.9999999965
-0.5392892892892895 	299.9999999999626 	8.535334692962885e-13 	101324.9999999966
-0.536786786786787 	299.9999999999745 	3.093165272283674e-13 	101324.9999999965
-0.5342842842842846 	299.9999999999782 	1.346583183442466e-12 	101324.9999999964
-0.531781781781782 	299.9999999999617 	6.743150691297839e-13 	101324.999999996
-0.5292792792792794 	299.9999999999578 	2.109893122733001e-12 	101324.9999999958
-0.526776776776777 	299.9999999999463 	1.851700949027474e-12 	101324.9999999959
-0.5242742742742745 	299.9999999999854 	3.658867250892035e-12 	101324.9999999959
-0.521771771771772 	300.0000000000086 	3.235291953644819e-12 	101324.9999999959
-0.5192692692692695 	299.9999999999767 	4.706399863246815e-12 	101324.9999999958
-0.516766766766767 	300.0000000000027 	2.882493394829467e-12 	101324.9999999956
-0.5142642642642645 	299.9999999999847 	4.227782297011335e-12 	101324.9999999956
-0.511761761761762 	299.9999999999719 	1.804815785286526e-12 	101324.9999999954
-0.5092592592592596 	299.9999999999848 	3.535365859626819e-12 	101324.9999999955
-0.506756756756757 	299.999999999967 	1.408034527520616e-12 	101324.9999999954
-0.5042542542542544 	299.9999999999918 	4.021912371762723e-12 	101324.9999999956
-0.5017517517517521 	300.0000000000131 	2.293338615878189e-12 	101324.9999999958
-0.4992492492492494 	300.0000000000168 	2.876699261841498e-12 	101324.999999996
-0.496746746746747 	299.9999999999916 	1.299294956413451e-12 	101324.9999999958
-0.4942442442442445 	299.9999999999675 	1.9028149864026e-12 	101324.9999999958
-0.4917417417417421 	299.9999999999662 	1.395548174153946e-12 	101324.9999999959
-0.4892392392392395 	299.9999999999736 	2.191409231660863e-12 	101324.9999999959
-0.486736736736737 	299.9999999999729 	6.451792749012058e-13 	101324.999999996
-0.4842342342342345 	299.9999999999544 	1.753202730561286e-12 	101324.9999999959
-0.481731731731732 	300.0000000000221 	9.573329929546378e-13 	101324.9999999963
-0.4792292292292296 	300.0000000000135 	1.137630263055035e-12 	101324.9999999963
-0.4767267267267268 	299.9999999999782 	2.17638532548753e-12 	101324.9999999962
-0.4742242242242246 	300.0000000000002 	1.872101960267664e-12 	101324.9999999961
-0.471721721721722 	299.9999999999763 	2.484029909752205e-12 	101324.9999999961
-0.4692192192192195 	299.9999999999904 	8.748619971427993e-13 	101324.9999999962
-0.4667167167167169 	299.9999999999511 	1.916855185279098e-12 	101324.999999996
-0.4642142142142145 	299.9999999999978 	7.24969415270718e-13 	101324.9999999958
-0.461711711711712 	300.0000000000109 	1.200724363318814e-12 	101324.9999999955
-0.4592092092092094 	300.0000000000058 	8.096561250805744e-13 	101324.9999999955
-0.456706706706707 	300.00000000003 	7.589119023839776e-13 	101324.9999999956
-0.4542042042042045 	299.999999999964 	4.259693018373516e-13 	101324.9999999957
-0.451701701701702 	299.9999999999719 	4.547769561912981e-13 	101324.9999999958
-0.4491991991991995 	299.999999999977 	3.998655648418234e-13 	101324.9999999959
-0.4466966966966969 	299.9999999999735 	4.125754026458303e-13 	101324.9999999958
-0.4441941941941945 	299.9999999999947 	1.541991658653556e-12 	101324.9999999957
-0.441691691691692 	299.9999999999754 	3.222379619557511e-13 	101324.9999999958
-0.4391891891891895 	299.9999999999915 	2.789680187329268e-12 	101324.9999999956
-0.436686686686687 	299.9999999999795 	1.045095321276252e-12 	101324.9999999955
-0.4341841841841846 	299.9999999999994 	3.365950822556306e-12 	101324.9999999955
-0.431681681681682 	299.9999999999744 	1.369511206329228e-12 	101324.9999999957
-0.4291791791791794 	299.9999999999587 	2.340122142011962e-12 	101324.9999999959
-0.426676676676677 	299.9999999999511 	6.276168385509915e-13 	101324.999999996
-0.4241741741741744 	299.9999999999799 	2.305651526808678e-12 	101324.999999996
-0.421671671671672 	300.000000000001 	1.354873723635948e-12 	101324.9999999961
-0.4191691691691694 	300.0000000000264 	2.321285695505281e-12 	101324.9999999959
-0.4166666666666669 	300.0000000000312 	1.426565054152497e-12 	101324.9999999959
-0.4141641641641645 	299.999999999967 	1.94120185414308e-12 	101324.9999999959
-0.411661661661662 	300.0000000000028 	1.620854382245338e-12 	101324.999999996
-0.4091591591591594 	300.0000000000052 	1.13508403764896e-12 	101324.9999999959
-0.406656656656657 	299.999999999976 	1.190583763727039e-12 	101324.9999999959
-0.4041541541541545 	300.0000000000076 	2.169756750878456e-12 	101324.9999999958
-0.401651651651652 	299.9999999999577 	5.893143752509542e-13 	101324.9999999958
-0.3991491491491494 	300.0000000000022 	1.822882475185161e-12 	101324.9999999959
-0.396646646646647 	299.9999999999753 	2.360959278364623e-12 	101324.999999996
-0.3941441441441444 	299.9999999999846 	2.290337859946273e-12 	101324.9999999961
-0.3916416416416419 	299.9999999999596 	2.331037123021439e-12 	101324.999999996
-0.3891391391391395 	299.9999999999779 	1.70835874564898e-12 	101324.9999999959
-0.3866366366366368 	299.999999999979 	1.258512320722488e-12 	101324.9999999958
-0.3841341341341344 	299.9999999999997 	1.126310808092567e-12 	101324.9999999957
-0.381631631631632 	299.9999999999747 	6.260041016249189e-13 	101324.9999999956
-0.3791291291291294 	300.0000000000023 	1.01404220574095e-12 	101324.9999999958
-0.3766266266266269 	300.0000000000117 	1.083902501091417e-12 	101324.9999999958
-0.3741241241241244 	300.000000000013 	3.329706431085639e-13 	101324.9999999959
-0.371621621621622 	300.0000000000114 	1.652000075665065e-12 	101324.999999996
-0.3691191191191194 	300.0000000000011 	1.562698197349309e-12 	101324.9999999961
-0.366616616616617 	300.0000000000018 	1.703145534337886e-12 	101324.9999999961
-0.3641141141141143 	299.9999999999862 	2.414956382673723e-12 	101324.9999999962
-0.3616116116116119 	299.9999999999691 	9.275245039216678e-13 	101324.9999999962
-0.3591091091091095 	299.9999999999904 	2.20327572676333e-12 	101324.999999996
-0.356606606606607 	299.9999999999954 	1.428795453248952e-12 	101324.9999999959
-0.3541041041041044 	299.9999999999977 	1.363408404462584e-12 	101324.9999999959
-0.3516016016016019 	300.0000000000142 	1.918289760032506e-12 	101324.9999999959
-0.3490990990990994 	299.9999999999958 	1.249084774847089e-12 	101324.9999999957
-0.346596596596597 	300.0000000000161 	2.737112619214091e-12 	101324.9999999958
-0.3440940940940944 	300.00000000002 	1.015625857170931e-12 	101324.9999999956
-0.3415915915915919 	300.0000000000177 	2.950506202831496e-12 	101324.9999999956
-0.3390890890890895 	299.9999999999915 	2.294485250260416e-12 	101324.9999999955
-0.3365865865865869 	300.0000000000099 	3.353348842774437e-12 	101324.9999999953
-0.3340840840840844 	299.9999999999962 	2.950740492630346e-12 	101324.9999999955
-0.3315815815815819 	300.0000000000119 	3.182017559287649e-12 	101324.9999999953
-0.3290790790790794 	300.0000000000128 	2.973962994752744e-12 	101324.9999999954
-0.3265765765765769 	299.9999999999625 	2.65431402508332e-12 	101324.9999999953
-0.3240740740740744 	300.0000000000041 	1.798790128029135e-12 	101324.9999999952
-0.3215715715715718 	300.0000000000097 	2.736405253226967e-12 	101324.999999995
-0.3190690690690695 	299.9999999999663 	1.767846233214278e-12 	101324.9999999949
-0.3165665665665668 	299.9999999999961 	2.241728355112846e-12 	101324.9999999953
-0.3140640640640644 	300.0000000000018 	1.202938361369579e-12 	101324.9999999954
-0.311561561561562 	299.9999999999594 	3.609480852075965e-12 	101324.9999999954
-0.3090590590590593 	299.9999999999962 	8.233333888867905e-13 	101324.9999999958
-0.3065565565565568 	300.0000000000013 	5.558770315429737e-12 	101324.9999999959
-0.3040540540540545 	299.999999999999 	2.066011632172668e-12 	101324.9999999959
-0.3015515515515518 	300.0000000000161 	5.779498095135701e-12 	101324.9999999956
-0.2990490490490494 	299.9999999999652 	3.550483968508095e-12 	101324.9999999955
-0.2965465465465469 	299.9999999999952 	4.667940096915312e-12 	101324.9999999953
-0.2940440440440444 	299.9999999999922 	3.645201273004291e-12 	101324.999999995
-0.2915415415415418 	300.0000000000044 	4.114824982079325e-12 	101324.999999995
-0.2890390390390395 	300.0000000000063 	4.739943066282541e-12 	101324.9999999952
-0.2865365365365368 	299.9999999999841 	3.959973511919163e-12 	101324.9999999953
-0.2840340340340343 	299.9999999999962 	5.548835586379139e-12 	101324.9999999953
-0.2815315315315318 	299.9999999999575 	3.539000250680765e-12 	101324.9999999953
-0.2790290290290295 	299.9999999999859 	4.843508915491122e-12 	101324.9999999952
-0.2765265265265269 	300.0000000000077 	3.838883798932693e-12 	101324.9999999952
-0.2740240240240244 	300.0000000000102 	4.160748070658218e-12 	101324.9999999951
-0.2715215215215219 	300.0000000000094 	4.201765205865865e-12 	101324.9999999951
-0.2690190190190194 	299.9999999999662 	4.081030812173233e-12 	101324.9999999951
-0.2665165165165169 	299.9999999999968 	4.481030019378167e-12 	101324.999999995
-0.2640140140140144 	299.9999999999862 	3.396008483600619e-12 	101324.9999999947
-0.2615115115115119 	299.9999999999977 	4.856263045873187e-12 	101324.9999999947
-0.2590090090090094 	299.999999999958 	2.892474357862414e-12 	101324.9999999946
-0.2565065065065068 	299.9999999999937 	3.9468083881156e-12 	101324.9999999947
-0.2540040040040044 	299.9999999999945 	4.393723402101754e-12 	101324.9999999945
-0.2515015015015019 	300.0000000000149 	4.039876238552911e-12 	101324.9999999949
-0.2489989989989994 	300.0000000000217 	4.854973023490759e-12 	101324.9999999951
-0.2464964964964968 	299.9999999999885 	3.29473291949037e-12 	101324.9999999952
-0.2439939939939944 	299.9999999999957 	5.956227857900216e-12 	101324.9999999952
-0.2414914914914919 	299.9999999999839 	3.224180275076546e-12 	101324.9999999951
-0.2389889889889893 	299.9999999999952 	5.961299704272147e-12 	101324.9999999948
-0.2364864864864869 	300.0000000000122 	3.510796076711483e-12 	101324.9999999945
-0.2339839839839843 	299.999999999967 	6.538146976159928e-12 	101324.9999999946
-0.2314814814814819 	299.9999999999869 	3.753785941168162e-12 	101324.9999999945
-0.2289789789789792 	299.999999999957 	5.815281646053682e-12 	101324.9999999945
-0.2264764764764769 	299.9999999999694 	3.750920820740273e-12 	101324.9999999946
-0.2239739739739743 	299.9999999999806 	4.578672756267184e-12 	101324.9999999943
-0.2214714714714718 	299.9999999999668 	4.236400112241766e-12 	101324.9999999943
-0.2189689689689693 	299.999999999979 	3.441216830249865e-12 	101324.9999999945
-0.2164664664664669 	299.999999999987 	4.867241595338825e-12 	101324.9999999944
-0.2139639639639643 	299.9999999999574 	3.161173139519384e-12 	101324.9999999945
-0.2114614614614618 	299.9999999999829 	4.769148665175143e-12 	101324.9999999944
-0.2089589589589593 	299.9999999999978 	4.408312026121422e-12 	101324.9999999944
-0.2064564564564568 	299.9999999999974 	4.399103938592594e-12 	101324.9999999943
-0.2039539539539543 	299.9999999999527 	4.744568135456092e-12 	101324.9999999944
-0.2014514514514518 	299.9999999999645 	2.973088041575339e-12 	101324.9999999944
-0.1989489489489494 	299.9999999999845 	5.094633897755991e-12 	101324.9999999945
-0.1964464464464468 	299.9999999999998 	2.361593736976892e-12 	101324.9999999944
-0.1939439439439443 	299.9999999999999 	4.932839983037515e-12 	101324.9999999945
-0.1914414414414418 	299.9999999999603 	3.496500382805954e-12 	101324.9999999948
-0.1889389389389393 	300.0000000000011 	4.270951421062565e-12 	101324.9999999948
-0.1864364364364368 	300.0000000000231 	4.229946949876228e-12 	101324.9999999949
-0.1839339339339343 	299.9999999999899 	4.152777519026288e-12 	101324.9999999947
-0.1814314314314318 	299.9999999999964 	3.907299836064772e-12 	101324.999999995
-0.1789289289289293 	299.9999999999496 	3.573528802993493e-12 	101324.999999995
-0.1764264264264268 	299.9999999999845 	2.989171517605748e-12 	101324.9999999947
-0.1739239239239243 	299.9999999999478 	3.482972538722196e-12 	101324.9999999945
-0.1714214214214218 	299.9999999999899 	2.246999396190261e-12 	101324.999999994
-0.1689189189189193 	299.9999999999706 	4.681924684907554e-12 	101324.9999999944
-0.1664164164164168 	299.9999999999961 	2.239540783578097e-12 	101324.9999999943
-0.1639139139139143 	299.9999999999904 	5.993802223374758e-12 	101324.9999999944
-0.1614114114114118 	300.0000000000124 	1.166974798149174e-12 	101324.9999999946
-0.1589089089089093 	299.9999999999991 	7.292841618852031e-12 	101324.9999999949
-0.1564064064064068 	299.9999999999895 	1.291423860853319e-12 	101324.9999999951
-0.1539039039039043 	299.9999999999978 	7.568099737566926e-12 	101324.9999999952
-0.1514014014014018 	300.0000000000099 	7.339229716694828e-13 	101324.9999999951
-0.1488988988988993 	299.9999999999989 	7.398909639092335e-12 	101324.999999995
-0.1463963963963968 	300.0000000000023 	2.461198271525228e-12 	101324.9999999949
-0.1438938938938943 	299.9999999999803 	7.186359450898505e-12 	101324.9999999947
-0.1413913913913918 	299.9999999999627 	3.655112398373512e-12 	101324.9999999945
-0.1388888888888893 	299.9999999999863 	6.098136477635272e-12 	101324.9999999944
-0.1363863863863868 	299.999999999943 	4.722538998194085e-12 	101324.9999999943
-0.1338838838838843 	299.9999999999555 	5.054895661332223e-12 	101324.9999999943
-0.1313813813813818 	299.9999999999947 	4.046068805981023e-12 	101324.9999999944
-0.1288788788788793 	299.999999999975 	4.730804647524001e-12 	101324.9999999947
-0.1263763763763768 	299.9999999999846 	3.744214971122321e-12 	101324.9999999946
-0.1238738738738743 	299.9999999999636 	4.670876829668267e-12 	101324.9999999949
-0.1213713713713717 	299.9999999999874 	2.995472346649636e-12 	101324.9999999949
-0.1188688688688693 	300.0000000000064 	4.944312835941766e-12 	101324.9999999951
-0.1163663663663668 	299.9999999999514 	1.78306682588987e-12 	101324.9999999952
-0.1138638638638643 	299.9999999999979 	4.498789185900409e-12 	101324.9999999955
-0.1113613613613618 	299.9999999999976 	3.614503895641555e-13 	101324.9999999951
-0.1088588588588592 	299.9999999999927 	4.137253601372169e-12 	101324.9999999949
-0.1063563563563568 	299.9999999999748 	2.94294484243213e-13 	101324.9999999948
-0.1038538538538543 	299.9999999999856 	3.599575051669267e-12 	101324.999999995
-0.1013513513513517 	300.0000000000063 	1.55144512190376e-12 	101324.999999995
-0.09884884884884926 	299.9999999999692 	3.693144182483651e-12 	101324.999999995
-0.09634634634634676 	299.9999999999434 	2.295837259118841e-12 	101324.9999999951
-0.09384384384384425 	299.9999999999593 	2.946255799706295e-12 	101324.9999999947
-0.09134134134134177 	300.000000000013 	2.491948106919099e-12 	101324.9999999948
-0.08883883883883925 	300.0000000000047 	3.855706048373333e-12 	101324.9999999949
-0.08633633633633674 	299.9999999999707 	4.157754472089849e-12 	101324.9999999947
-0.08383383383383426 	300.0000000000035 	4.038924528272293e-12 	101324.999999995
-0.08133133133133173 	299.9999999999831 	4.578297676876175e-12 	101324.9999999949
-0.07882882882882926 	299.9999999999385 	3.912909256832507e-12 	101324.9999999948
-0.07632632632632676 	299.9999999999778 	4.008403955653029e-12 	101324.9999999948
-0.07382382382382424 	299.9999999999446 	3.650261933813293e-12 	101324.9999999948
-0.07132132132132173 	300.0000000000077 	3.576452950094045e-12 	101324.9999999949
-0.06881881881881925 	299.9999999999733 	3.684538548906172e-12 	101324.999999995
-0.06631631631631671 	299.9999999999432 	2.558027040401937e-12 	101324.9999999948
-0.06381381381381425 	299.9999999999786 	1.972998707155122e-12 	101324.9999999945
-0.06131131131131173 	299.9999999999799 	1.538406226582022e-12 	101324.9999999944
-0.05880880880880923 	299.9999999999609 	1.457293226433296e-12 	101324.9999999943
-0.05630630630630672 	299.9999999999852 	1.60047361203144e-12 	101324.9999999946
-0.05380380380380424 	300.0000000000088 	2.079215680140367e-12 	101324.9999999947
-0.05130130130130173 	300.000000000009 	2.422275388584026e-12 	101324.9999999948
-0.04879879879879922 	299.9999999999636 	2.479484368279437e-12 	101324.999999995
-0.04629629629629672 	299.9999999999555 	2.698149937121505e-12 	101324.9999999951
-0.04379379379379422 	299.9999999999595 	2.737648252514029e-12 	101324.9999999951
-0.04129129129129173 	299.9999999999861 	2.456378104327731e-12 	101324.999999995
-0.03878878878878922 	299.9999999999947 	2.523265392155211e-12 	101324.999999995
-0.03628628628628671 	299.9999999999945 	2.284948706922033e-12 	101324.9999999949
-0.03378378378378422 	299.9999999999591 	1.985064162224094e-12 	101324.9999999948
-0.03128128128128172 	299.9999999999822 	1.767843364540134e-12 	101324.9999999952
-0.02877877877877922 	299.9999999999816 	2.450469117917908e-12 	101324.9999999948
-0.0262762762762767 	299.9999999999457 	2.649767728406856e-12 	101324.9999999948
-0.02377377377377422 	300.0000000000103 	2.194973047457416e-12 	101324.9999999947
-0.0212712712712717 	299.999999999945 	1.98200390109672e-12 	101324.9999999947
-0.01876876876876921 	299.9999999999789 	1.228663724660999e-12 	101324.9999999947
-0.01626626626626671 	300.0000000000057 	1.291016112320127e-12 	101324.9999999946
-0.0137637637637642 	299.9999999999816 	6.770960635744153e-14 	101324.9999999945
-0.0112612612612617 	300.0000000000058 	4.976424399371178e-14 	101324.9999999945
-0.008758758758759198 	299.9999999999932 	1.12378955659568e-13 	101324.9999999944
-0.006256256256256697 	299.9999999999367 	6.681770463795902e-14 	101324.9999999945
-0.003753753753754195 	299.9999999999716 	6.001900902795634e-13 	101324.9999999946
-0.001251251251251693 	299.9999999999586 	4.118826899798555e-13 	101324.9999999947
0.00125125125125081 	299.9999999999731 	1.012868020431363e-12 	101324.9999999952
0.003753753753753312 	299.9999999999782 	2.545303626055903e-13 	101324.9999999954
0.006256256256255817 	299.9999999999369 	1.243531667693846e-12 	101324.9999999956
0.008758758758758317 	299.9999999999943 	1.177753265232829e-12 	101324.9999999954
0.01126126126126082 	300.0000000000024 	8.879499029133674e-13 	101324.9999999954
0.01376376376376332 	299.999999999983 	7.312602812059578e-13 	101324.9999999954
0.01626626626626582 	300.000000000007 	1.091129082349904e-12 	101324.9999999952
0.01876876876876833 	299.9999999999751 	4.485781825738715e-13 	101324.9999999951
0.02127127127127083 	299.9999999999843 	6.866591067037428e-13 	101324.9999999953
0.02377377377377332 	299.9999999999955 	3.55891702996587e-15 	101324.9999999953
0.02627627627627583 	299.9999999999463 	1.46943928444264e-13 	101324.9999999953
0.02877877877877833 	300.0000000000001 	6.71481221474711e-13 	101324.9999999954
0.03128128128128083 	299.9999999999725 	1.05079119336144e-12 	101324.9999999954
0.03378378378378333 	299.999999999947 	1.984844905396247e-12 	101324.999999995
0.03628628628628584 	299.999999999982 	2.78146975670582e-12 	101324.9999999948
0.03878878878878834 	299.9999999999931 	2.691563430656223e-12 	101324.9999999949
0.04129129129129084 	299.9999999999848 	2.675465942642802e-12 	101324.9999999948
0.04379379379379333 	299.9999999999672 	2.204618719541972e-12 	101324.9999999947
0.04629629629629585 	299.9999999999403 	1.934104702870216e-12 	101324.9999999948
0.04879879879879834 	299.9999999999756 	1.891444204521934e-12 	101324.9999999947
0.05130130130130085 	300.0000000000055 	1.309242578609878e-12 	101324.999999995
0.05380380380380335 	300.0000000000123 	6.412382403124422e-13 	101324.9999999952
0.05630630630630584 	299.9999999999972 	3.74582627533541e-13 	101324.9999999953
0.05880880880880836 	299.9999999999606 	7.5078131487353e-13 	101324.9999999953
0.06131131131131085 	299.9999999999845 	1.109922210229427e-12 	101324.9999999951
0.06381381381381336 	299.9999999999753 	1.238205750205589e-12 	101324.9999999948
0.06631631631631586 	299.9999999999417 	1.18530349362778e-12 	101324.999999995
0.06881881881881835 	299.9999999999764 	2.318904820929992e-12 	101324.9999999947
0.07132132132132088 	299.9999999999965 	2.951758595431533e-12 	101324.9999999949
0.07382382382382337 	299.9999999999472 	3.405361368809422e-12 	101324.9999999947
0.07632632632632587 	299.9999999999794 	3.625180227135037e-12 	101324.9999999947
0.07882882882882837 	299.9999999999672 	3.326657352205611e-12 	101324.9999999947
0.08133133133133086 	299.9999999999873 	3.966086233727764e-12 	101324.999999995
0.08383383383383337 	299.9999999999974 	3.719689163169434e-12 	101324.9999999951
0.08633633633633589 	299.9999999999525 	4.177861453181935e-12 	101324.9999999951
0.08883883883883838 	300.0000000000002 	4.165537745178026e-12 	101324.9999999949
0.09134134134134086 	299.9999999999902 	3.550811781923292e-12 	101324.999999995
0.09384384384384339 	299.999999999947 	4.107676237526938e-12 	101324.999999995
0.09634634634634588 	299.999999999985 	4.138308791852387e-12 	101324.999999995
0.09884884884884838 	299.9999999999876 	4.011305547298544e-12 	101324.9999999952
0.1013513513513509 	300.0000000000127 	4.251775702170877e-12 	101324.999999995
0.1038538538538534 	299.999999999974 	4.564447660634865e-12 	101324.999999995
0.1063563563563559 	300.0000000000033 	5.405246236573842e-12 	101324.9999999948
0.1088588588588584 	300.0000000000095 	4.726343392960961e-12 	101324.9999999948
0.1113613613613609 	299.9999999999583 	5.142867252943711e-12 	101324.9999999947
0.1138638638638634 	299.9999999999678 	5.646161026168641e-12 	101324.9999999947
0.1163663663663659 	299.9999999999712 	6.152583105828152e-12 	101324.999999995
0.1188688688688684 	299.9999999999816 	6.383461305520049e-12 	101324.9999999954
0.1213713713713709 	299.9999999999962 	6.287694253856552e-12 	101324.9999999949
0.1238738738738734 	299.9999999999616 	6.115358861235606e-12 	101324.999999995
0.1263763763763759 	299.9999999999928 	6.859817435381159e-12 	101324.999999995
0.1288788788788784 	299.9999999999926 	6.135557806055123e-12 	101324.9999999954
0.1313813813813809 	299.9999999999894 	6.120632982576148e-12 	101324.9999999953
0.1338838838838834 	299.9999999999842 	5.539126328539494e-12 	101324.9999999955
0.1363863863863859 	300.0000000000106 	4.984491090378644e-12 	101324.9999999953
0.1388888888888884 	300.0000000000235 	4.345837974615462e-12 	101324.9999999951
0.1413913913913909 	300.000000000004 	4.188212781903507e-12 	101324.9999999952
0.1438938938938934 	299.9999999999948 	3.228451484161363e-12 	101324.9999999952
0.1463963963963959 	299.9999999999733 	2.558764709482213e-12 	101324.9999999952
0.1488988988988985 	299.9999999999561 	3.234364118498455e-12 	101324.9999999951
0.1514014014014009 	299.9999999999807 	2.38924031812533e-12 	101324.9999999951
0.1539039039039035 	299.99999999998 	4.229380873095388e-12 	101324.999999995
0.1564064064064059 	299.9999999999669 	2.205029958682924e-12 	101324.999999995
0.1589089089089084 	299.9999999999848 	5.088551834877924e-12 	101324.9999999951
0.1614114114114109 	299.9999999999847 	2.634275710839239e-12 	101324.9999999951
0.1639139139139134 	299.999999999954 	4.134226524926799e-12 	101324.9999999953
0.166416416416416 	300.0000000000005 	3.480323035008447e-12 	101324.9999999956
0.1689189189189185 	300.0000000000167 	3.41221871436817e-12 	101324.9999999956
0.1714214214214209 	300.0000000000043 	3.795996592758406e-12 	101324.9999999953
0.1739239239239235 	299.9999999999938 	3.079282413444975e-12 	101324.9999999954
0.1764264264264259 	299.999999999983 	5.054643689173945e-12 	101324.9999999953
0.1789289289289284 	300.0000000000022 	3.055801839286522e-12 	101324.9999999952
0.181431431431431 	299.9999999999804 	6.216532957652498e-12 	101324.9999999949
0.1839339339339334 	299.9999999999854 	4.64573337921448e-12 	101324.999999995
0.186436436436436 	299.9999999999654 	5.70956999776271e-12 	101324.9999999952
0.1889389389389385 	299.9999999999883 	5.222288109952372e-12 	101324.999999995
0.191441441441441 	299.999999999986 	4.334700783951008e-12 	101324.999999995
0.1939439439439434 	299.9999999999569 	5.172001803514482e-12 	101324.9999999948
0.196446446446446 	299.9999999999761 	3.322124901262547e-12 	101324.9999999948
0.1989489489489485 	299.999999999981 	5.536132987444469e-12 	101324.9999999946
0.2014514514514509 	299.9999999999919 	3.665276015891031e-12 	101324.9999999944
0.2039539539539535 	299.9999999999948 	4.835593363314466e-12 	101324.9999999942
0.2064564564564559 	299.9999999999749 	4.196600672057254e-12 	101324.9999999939
0.2089589589589585 	299.9999999999933 	4.471511356336415e-12 	101324.9999999944
0.211461461461461 	299.9999999999657 	4.140411620702456e-12 	101324.9999999946
0.2139639639639635 	299.9999999999931 	4.093197200389028e-12 	101324.9999999944
0.2164664664664659 	300.0000000000048 	4.520162336630568e-12 	101324.9999999944
0.2189689689689684 	300.0000000000049 	2.723551875185759e-12 	101324.9999999946
0.221471471471471 	299.9999999999998 	4.634760166114346e-12 	101324.9999999946
0.2239739739739735 	299.9999999999789 	2.942685164895816e-12 	101324.9999999943
0.226476476476476 	299.9999999999938 	4.868750740214009e-12 	101324.9999999942
0.2289789789789785 	299.9999999999955 	4.37096537833915e-12 	101324.9999999942
0.231481481481481 	299.9999999999819 	4.580501641150242e-12 	101324.9999999944
0.2339839839839835 	299.9999999999943 	4.823553347906931e-12 	101324.9999999946
0.236486486486486 	300.0000000000123 	3.763062004479023e-12 	101324.9999999946
0.2389889889889885 	300.0000000000006 	4.835498062294347e-12 	101324.9999999948
0.241491491491491 	299.9999999999533 	3.339053844665606e-12 	101324.9999999947
0.2439939939939935 	299.9999999999861 	6.358850736414171e-12 	101324.9999999948
0.246496496496496 	299.9999999999899 	4.448730015733282e-12 	101324.9999999949
0.2489989989989985 	300.0000000000158 	5.492008459331398e-12 	101324.9999999949
0.251501501501501 	300.0000000000125 	4.111889333927575e-12 	101324.9999999949
0.2540040040040035 	299.9999999999919 	3.869528433783818e-12 	101324.9999999952
0.256506506506506 	300.0000000000097 	4.39885285901167e-12 	101324.9999999951
0.2590090090090086 	299.9999999999533 	3.224775202973108e-12 	101324.9999999951
0.261511511511511 	300.0000000000039 	5.442886005501754e-12 	101324.9999999951
0.2640140140140135 	299.9999999999979 	3.324325810959234e-12 	101324.9999999951
0.2665165165165161 	299.9999999999654 	4.972932409245885e-12 	101324.9999999951
0.2690190190190185 	300.000000000006 	3.75118345266882e-12 	101324.9999999952
0.271521521521521 	300.0000000000042 	3.994324660678295e-12 	101324.9999999953
0.2740240240240235 	300.0000000000076 	3.558342217911315e-12 	101324.9999999953
0.276526526526526 	300.0000000000035 	2.403635211655854e-12 	101324.9999999955
0.2790290290290286 	299.9999999999698 	2.984369723743926e-12 	101324.9999999954
0.281531531531531 	299.9999999999571 	1.506676959293393e-12 	101324.9999999955
0.2840340340340335 	299.9999999999917 	2.830069228098253e-12 	101324.9999999955
0.2865365365365361 	299.9999999999769 	1.046450059229727e-12 	101324.9999999953
0.2890390390390385 	299.9999999999959 	2.197318347502373e-12 	101324.9999999951
0.291541541541541 	299.9999999999957 	1.85762351454648e-12 	101324.999999995
0.2940440440440436 	299.9999999999957 	1.887433414791245e-12 	101324.9999999951
0.296546546546546 	299.9999999999921 	2.192028405801045e-12 	101324.9999999951
0.2990490490490486 	299.9999999999615 	8.601873594288156e-13 	101324.9999999952
0.3015515515515511 	300.0000000000152 	3.129944655411949e-12 	101324.9999999955
0.3040540540540535 	299.9999999999973 	1.151078072715771e-12 	101324.9999999958
0.3065565565565562 	299.9999999999944 	5.071230842026861e-12 	101324.9999999956
0.3090590590590585 	299.9999999999912 	1.403324091049059e-12 	101324.9999999952
0.3115615615615611 	299.9999999999617 	4.329149007519424e-12 	101324.999999995
0.3140640640640635 	300.0000000000018 	2.109333829320411e-12 	101324.9999999953
0.316566566566566 	299.9999999999932 	3.232786759844041e-12 	101324.9999999952
0.3190690690690687 	299.9999999999674 	2.167330187415447e-12 	101324.9999999952
0.3215715715715711 	300.0000000000042 	3.163141858606505e-12 	101324.9999999954
0.3240740740740735 	299.9999999999946 	1.550371888819524e-12 	101324.9999999954
0.326576576576576 	299.9999999999486 	2.030444607778438e-12 	101324.9999999955
0.3290790790790786 	299.9999999999999 	1.123629588904962e-12 	101324.9999999955
0.3315815815815811 	300.0000000000229 	7.936431737432481e-13 	101324.9999999953
0.3340840840840836 	299.9999999999979 	4.237963979777184e-13 	101324.9999999955
0.3365865865865861 	300.0000000000313 	8.15819095300035e-13 	101324.9999999955
0.3390890890890886 	300.0000000000251 	5.06281595724857e-13 	101324.9999999956
0.3415915915915911 	299.9999999999968 	9.715948790576677e-13 	101324.9999999955
0.3440940940940935 	299.999999999974 	8.23044731481777e-13 	101324.9999999957
0.3465965965965962 	300.0000000000211 	1.333688995545471e-12 	101324.9999999957
0.3490990990990985 	300.0000000000151 	5.486804664643572e-13 	101324.9999999957
0.3516016016016011 	299.9999999999927 	3.750564430126367e-13 	101324.9999999956
0.3541041041041035 	300.0000000000032 	3.166509073369294e-13 	101324.9999999954
0.3566066066066061 	299.9999999999743 	4.909682028262362e-13 	101324.9999999955
0.3591091091091085 	299.9999999999625 	7.58383549933409e-13 	101324.9999999955
0.3616116116116112 	299.9999999999694 	1.033170051953354e-12 	101324.9999999956
0.3641141141141137 	299.9999999999669 	1.712042350884823e-12 	101324.9999999957
0.3666166166166161 	299.9999999999642 	1.238306523102948e-12 	101324.9999999958
0.3691191191191185 	300.0000000000199 	2.827269263227412e-12 	101324.9999999957
0.371621621621621 	300.0000000000065 	9.999542698086218e-13 	101324.9999999956
0.3741241241241237 	300.0000000000286 	1.886603168864396e-12 	101324.9999999955
0.3766266266266261 	300.0000000000117 	1.070696618608239e-12 	101324.9999999955
0.3791291291291286 	299.9999999999906 	5.287874105961515e-13 	101324.9999999953
0.3816316316316311 	299.9999999999633 	1.693111004449339e-12 	101324.9999999953
0.3841341341341336 	300.0000000000085 	5.612004637004681e-13 	101324.9999999951
0.3866366366366362 	300 	7.901924541056797e-13 	101324.9999999952
0.3891391391391387 	299.9999999999761 	5.225831250245636e-13 	101324.9999999952
0.391641641641641 	299.9999999999999 	2.979111034262959e-13 	101324.9999999951
0.3941441441441436 	300.0000000000045 	1.377570527085804e-13 	101324.9999999953
0.3966466466466462 	300.0000000000003 	7.350551337817825e-13 	101324.9999999952
0.3991491491491486 	299.999999999976 	4.156747716347428e-13 	101324.9999999954
0.4016516516516512 	299.9999999999539 	1.247110983980088e-12 	101324.9999999953
0.4041541541541536 	299.9999999999731 	6.483896709708721e-13 	101324.9999999953
0.4066566566566561 	299.9999999999742 	2.325903956393196e-12 	101324.9999999952
0.4091591591591587 	299.9999999999957 	6.145196873101066e-13 	101324.9999999952
0.4116616616616612 	300.000000000004 	2.24767588132076e-12 	101324.9999999953
0.4141641641641635 	300.0000000000221 	1.438294855082119e-12 	101324.9999999954
0.4166666666666662 	299.9999999999993 	2.079425697188316e-12 	101324.9999999956
0.4191691691691687 	299.9999999999694 	1.88708361779914e-12 	101324.9999999956
0.421671671671671 	300.0000000000057 	1.09470861334973e-12 	101324.9999999955
0.4241741741741737 	299.9999999999897 	2.95061731203604e-12 	101324.9999999954
0.4266766766766761 	299.9999999999769 	9.577044778439867e-13 	101324.9999999953
0.4291791791791785 	300.0000000000101 	3.786894511233473e-12 	101324.9999999955
0.4316816816816812 	300.0000000000024 	1.610807604521151e-12 	101324.9999999958
0.4341841841841836 	299.999999999988 	3.06211131950735e-12 	101324.9999999956
0.4366866866866862 	299.9999999999591 	5.753703133830668e-13 	101324.9999999955
0.4391891891891885 	299.9999999999932 	2.003289336852373e-12 	101324.9999999954
0.4416916916916913 	299.999999999991 	1.04643838069639e-12 	101324.9999999954
0.4441941941941936 	299.9999999999923 	2.123781036617045e-12 	101324.9999999951
0.4466966966966961 	299.9999999999587 	1.444550982642963e-12 	101324.9999999953
0.4491991991991987 	299.999999999989 	1.152385483610846e-12 	101324.9999999953
0.4517017017017012 	299.9999999999893 	1.235007386118293e-12 	101324.9999999954
0.4542042042042035 	299.9999999999924 	7.075893216821093e-13 	101324.9999999953
0.4567067067067062 	299.9999999999981 	1.637243600220221e-12 	101324.9999999953
0.4592092092092087 	299.9999999999651 	1.399241374959291e-12 	101324.9999999955
0.4617117117117112 	300.0000000000103 	1.854196143222556e-12 	101324.999999996
0.4642142142142137 	299.9999999999831 	1.860544796838724e-12 	101324.9999999963
0.4667167167167162 	299.9999999999988 	2.131838585002992e-12 	101324.9999999963
0.4692192192192187 	299.9999999999763 	2.482819912867416e-12 	101324.999999996
0.4717217217217212 	300.0000000000059 	2.421646803695806e-12 	101324.9999999961
0.4742242242242236 	299.9999999999782 	2.276033185220256e-12 	101324.9999999962
0.4767267267267262 	299.9999999999876 	1.346581603712946e-12 	101324.999999996
0.4792292292292287 	300.000000000011 	1.413450982696501e-12 	101324.9999999958
0.4817317317317312 	300.0000000000189 	1.250580810265772e-12 	101324.9999999956
0.4842342342342336 	299.9999999999906 	1.661501050348351e-12 	101324.9999999954
0.4867367367367362 	299.9999999999758 	2.497014521725382e-12 	101324.9999999954
0.4892392392392387 	300.0000000000148 	2.84143629310991e-12 	101324.9999999954
0.4917417417417412 	300.0000000000032 	3.866107598754214e-12 	101324.9999999955
0.4942442442442437 	299.9999999999546 	2.739009332282198e-12 	101324.9999999954
0.4967467467467462 	299.9999999999663 	3.798781401459981e-12 	101324.9999999956
0.4992492492492487 	299.9999999999621 	2.057947625070852e-12 	101324.9999999958
0.5017517517517511 	299.9999999999833 	3.406613299614673e-12 	101324.9999999959
0.5042542542542537 	299.9999999999822 	2.622344862480241e-12 	101324.9999999958
0.5067567567567562 	299.9999999999721 	3.461846990874162e-12 	101324.9999999957
0.5092592592592589 	299.9999999999811 	3.328541664947457e-12 	101324.9999999957
0.5117617617617611 	299.9999999999814 	3.274805330317846e-12 	101324.9999999956
0.5142642642642637 	299.9999999999977 	4.36170503540067e-12 	101324.9999999955
0.5167667667667663 	299.9999999999893 	3.783533984325995e-12 	101324.9999999953
0.5192692692692688 	299.9999999999599 	5.934735128540476e-12 	101324.9999999952
0.5217717717717714 	299.9999999999697 	2.686639915751555e-12 	101324.9999999951
0.5242742742742736 	299.9999999999693 	6.018069693061041e-12 	101324.9999999951
0.5267767767767763 	299.9999999999815 	3.135235879828668e-12 	101324.9999999952
0.5292792792792789 	299.9999999999708 	4.679880427734168e-12 	101324.9999999951
0.5317817817817813 	299.9999999999514 	2.886249625532105e-12 	101324.9999999949
0.5342842842842837 	300.0000000000058 	3.34868829923198e-12 	101324.9999999949
0.5367867867867864 	299.9999999999989 	2.702879100406896e-12 	101324.9999999952
0.5392892892892888 	299.9999999999777 	2.788255952330452e-12 	101324.9999999952
0.5417917917917912 	299.9999999999997 	2.588460721574221e-12 	101324.9999999952
0.5442942942942938 	299.9999999999895 	3.23341723808641e-12 	101324.9999999954
0.5467967967967964 	299.9999999999754 	3.437043604592346e-12 	101324.9999999955
0.5492992992992988 	299.9999999999726 	4.120975352577585e-12 	101324.9999999957
0.5518018018018012 	299.9999999999717 	3.614228937610082e-12 	101324.9999999956
0.5543043043043039 	300.0000000000091 	4.02029763368629e-12 	101324.9999999956
0.5568068068068063 	299.999999999994 	3.79894121380634e-12 	101324.9999999956
0.5593093093093087 	299.9999999999551 	4.126310741553897e-12 	101324.9999999956
0.5618118118118114 	299.9999999999807 	2.112735779793961e-12 	101324.9999999954
0.5643143143143137 	299.9999999999723 	2.922100455207932e-12 	101324.9999999954
0.5668168168168163 	299.9999999999981 	1.606231769778219e-12 	101324.9999999957
0.5693193193193188 	300.0000000000178 	2.396696031045525e-12 	101324.9999999959
0.5718218218218213 	300.000000000014 	2.754451888321849e-12 	101324.999999996
0.5743243243243239 	300.0000000000045 	2.52471624504514e-12 	101324.9999999962
0.5768268268268262 	300.0000000000026 	3.08984966608787e-12 	101324.9999999963
0.5793293293293288 	299.9999999999745 	1.454132369953092e-12 	101324.9999999962
0.5818318318318314 	299.9999999999604 	3.566086069219232e-12 	101324.9999999959
0.5843343343343338 	299.9999999999915 	1.305917920454597e-12 	101324.9999999958
0.5868368368368363 	299.9999999999885 	3.608961286607649e-12 	101324.9999999958
0.5893393393393387 	299.9999999999737 	2.047950746407175e-12 	101324.9999999959
0.5918418418418413 	299.999999999972 	3.550421325137787e-12 	101324.9999999958
0.5943443443443439 	300.0000000000073 	2.65881551019676e-12 	101324.9999999956
0.5968468468468463 	300.0000000000084 	3.621322975763007e-12 	101324.9999999957
0.5993493493493487 	300.0000000000225 	3.281879184269689e-12 	101324.9999999955
0.6018518518518514 	299.9999999999885 	3.384641632545193e-12 	101324.9999999955
0.6043543543543537 	299.9999999999985 	2.884393605183412e-12 	101324.9999999955
0.6068568568568564 	299.9999999999912 	3.324451856136548e-12 	101324.9999999956
0.6093593593593587 	299.9999999999636 	3.407662032179204e-12 	101324.9999999956
0.6118618618618614 	299.9999999999617 	2.931129744594902e-12 	101324.9999999956
0.6143643643643638 	300.0000000000077 	2.384404415787855e-12 	101324.9999999956
0.6168668668668662 	299.999999999993 	3.083931164478962e-12 	101324.9999999956
0.6193693693693688 	299.9999999999772 	1.794538865541092e-12 	101324.9999999953
0.6218718718718714 	299.999999999985 	2.18959200067967e-12 	101324.9999999952
0.6243743743743737 	299.9999999999667 	9.491721237211504e-13 	101324.9999999952
0.6268768768768762 	299.9999999999571 	1.731641306086601e-12 	101324.9999999951
0.629379379379379 	299.9999999999711 	4.70269008298075e-13 	101324.9999999951
0.6318818818818812 	299.999999999981 	8.293879150743477e-13 	101324.9999999953
0.6343843843843838 	300.0000000000098 	1.206133933214778e-12 	101324.9999999955
0.6368868868868864 	299.9999999999907 	2.034830225466917e-12 	101324.9999999955
0.6393893893893888 	299.9999999999609 	2.856916547691471e-12 	101324.9999999953
0.6418918918918912 	300.0000000000022 	1.607100064913837e-12 	101324.9999999952
0.6443943943943939 	299.9999999999974 	3.850502622857139e-12 	101324.9999999953
0.6468968968968963 	299.9999999999924 	1.674998554138301e-12 	101324.9999999955
0.6493993993993988 	299.9999999999877 	3.323780402034271e-12 	101324.9999999957
0.6519019019019012 	299.9999999999853 	1.591466854466103e-12 	101324.9999999958
0.6544044044044038 	299.9999999999513 	3.397407282323057e-12 	101324.9999999959
0.6569069069069065 	299.9999999999795 	1.632949286732587e-12 	101324.9999999958
0.6594094094094087 	299.9999999999776 	2.890185058544429e-12 	101324.9999999958
0.6619119119119113 	299.9999999999725 	1.629948835660451e-12 	101324.9999999959
0.664414414414414 	300.0000000000005 	2.712540017066651e-12 	101324.9999999959
0.6669169169169162 	300.0000000000056 	2.601304249052738e-12 	101324.9999999958
0.6694194194194188 	299.9999999999905 	3.486982416918504e-12 	101324.9999999957
0.6719219219219214 	299.9999999999642 	2.94010480792149e-12 	101324.9999999956
0.674424424424424 	299.9999999999888 	2.992801268446636e-12 	101324.9999999952
0.6769269269269262 	299.999999999956 	2.214422477417846e-12 	101324.999999995
0.679429429429429 	300.0000000000011 	1.85775783914008e-12 	101324.9999999948
0.6819319319319311 	299.9999999999827 	9.011680060811096e-13 	101324.9999999948
0.6844344344344341 	299.9999999999897 	1.261870058930603e-12 	101324.999999995
0.686936936936936 	299.9999999999906 	5.248562406588613e-13 	101324.9999999953
0.6894394394394392 	299.9999999999951 	8.99000809559603e-13 	101324.9999999956
0.6919419419419413 	299.9999999999919 	5.787356537255458e-13 	101324.9999999956
0.694444444444444 	299.9999999999752 	6.164778355492806e-13 	101324.9999999954
0.6969469469469463 	299.9999999999642 	7.528912472339372e-13 	101324.9999999954
0.6994494494494489 	299.9999999999595 	4.984509321488552e-13 	101324.9999999953
0.7019519519519515 	299.9999999999893 	1.197526398098564e-12 	101324.9999999952
0.7044544544544538 	299.999999999973 	1.013526353358736e-12 	101324.9999999952
0.7069569569569564 	299.9999999999957 	1.945535463798566e-12 	101324.9999999951
0.7094594594594589 	299.9999999999797 	7.101354354417837e-13 	101324.9999999951
0.7119619619619615 	299.9999999999534 	1.474729517755234e-12 	101324.999999995
0.7144644644644638 	299.9999999999744 	6.618987195930324e-13 	101324.9999999949
0.7169669669669665 	299.9999999999599 	8.285973084400521e-13 	101324.9999999948
0.7194694694694688 	299.9999999999928 	3.413100220850448e-13 	101324.9999999948
0.7219719719719715 	299.9999999999937 	3.234198326989551e-13 	101324.9999999951
0.7244744744744737 	300.0000000000002 	4.604853543943045e-13 	101324.9999999953
0.7269769769769764 	299.9999999999962 	1.138574434566609e-12 	101324.9999999953
0.7294794794794791 	299.9999999999922 	1.629355085581372e-12 	101324.9999999954
0.7319819819819813 	299.9999999999906 	1.0619323618018e-12 	101324.9999999955
0.7344844844844839 	299.999999999961 	1.272251493687321e-12 	101324.9999999954
0.7369869869869864 	299.9999999999767 	5.026839125131136e-13 	101324.9999999952
0.739489489489489 	299.9999999999699 	4.91606321641805e-13 	101324.9999999951
0.7419919919919914 	299.9999999999638 	1.09038813651756e-12 	101324.9999999949
0.7444944944944939 	299.9999999999866 	1.313993310427588e-12 	101324.999999995
0.7469969969969963 	299.9999999999817 	2.255777901544421e-12 	101324.9999999951
0.7494994994994989 	299.9999999999682 	2.057766808847481e-12 	101324.999999995
0.7520020020020015 	299.9999999999831 	2.180626941666087e-12 	101324.999999995
0.7545045045045039 	299.9999999999824 	2.117566562937246e-12 	101324.999999995
0.7570070070070062 	299.9999999999698 	8.567015488346958e-13 	101324.9999999948
0.7595095095095092 	299.9999999999621 	8.947128276288296e-13 	101324.9999999946
0.7620120120120112 	299.999999999997 	4.906156545749987e-13 	101324.9999999943
0.7645145145145138 	299.9999999999922 	7.93858711302268e-13 	101324.9999999942
0.7670170170170165 	299.9999999999666 	8.808804794918672e-13 	101324.9999999941
0.7695195195195191 	299.99999999996 	1.871897311074966e-12 	101324.9999999943
0.7720220220220213 	299.9999999999673 	1.554499256722092e-12 	101324.9999999945
0.7745245245245239 	299.9999999999684 	1.571987479210549e-12 	101324.9999999946
0.7770270270270263 	299.999999999988 	1.239933256504881e-12 	101324.9999999948
0.779529529529529 	299.9999999999883 	5.910929983753501e-13 	101324.9999999949
0.7820320320320313 	299.9999999999831 	1.888285163370097e-13 	101324.999999995
0.784534534534534 	299.9999999999955 	7.723642095825355e-13 	101324.999999995
0.7870370370370364 	299.9999999999955 	1.174698427700166e-12 	101324.9999999951
0.7895395395395389 	299.9999999999922 	8.07648591706865e-13 	101324.9999999951
0.7920420420420413 	299.9999999999861 	1.862854350610534e-12 	101324.9999999952
0.794544544544544 	299.9999999999858 	1.687107738782247e-12 	101324.9999999954
0.7970470470470463 	300.0000000000049 	2.152266699431206e-12 	101324.9999999954
0.799549549549549 	299.9999999999933 	2.073563944335071e-12 	101324.9999999951
0.8020520520520515 	299.999999999994 	1.167712979378562e-12 	101324.9999999947
0.8045545545545539 	299.9999999999731 	7.793633064194209e-13 	101324.9999999948
0.8070570570570563 	299.9999999999908 	2.49658825504476e-13 	101324.9999999947
0.8095595595595589 	299.9999999999793 	8.663313906629772e-13 	101324.9999999946
0.8120620620620614 	299.9999999999661 	1.365948751937916e-12 	101324.9999999947
0.8145645645645638 	299.999999999994 	1.376568104552238e-12 	101324.9999999948
0.8170670670670666 	299.999999999993 	2.070687377691643e-12 	101324.9999999948
0.8195695695695689 	299.9999999999873 	1.561766258894193e-12 	101324.9999999947
0.8220720720720714 	299.9999999999726 	2.873088198271349e-12 	101324.9999999946
0.8245745745745739 	300.0000000000002 	1.474476691184425e-12 	101324.9999999947
0.8270770770770765 	299.9999999999865 	2.326579766327698e-12 	101324.9999999948
0.8295795795795788 	299.9999999999736 	1.643274042500423e-12 	101324.9999999947
0.8320820820820815 	300.0000000000106 	2.008389813377633e-12 	101324.9999999948
0.834584584584584 	300.0000000000002 	1.591244931686358e-12 	101324.9999999949
0.8370870870870865 	299.999999999982 	1.647953319367085e-12 	101324.9999999951
0.8395895895895891 	299.9999999999601 	2.544261618122981e-12 	101324.9999999952
0.8420920920920915 	299.9999999999662 	2.27712851085926e-12 	101324.9999999951
0.844594594594594 	299.999999999966 	2.59918126138416e-12 	101324.999999995
0.8470970970970964 	299.9999999999744 	2.658001888852391e-12 	101324.9999999952
0.8495995995995991 	299.9999999999898 	2.819187373920876e-12 	101324.9999999954
0.8521021021021015 	299.9999999999878 	2.751792433344586e-12 	101324.9999999954
0.8546046046046039 	299.9999999999891 	2.409553193421671e-12 	101324.9999999953
0.8571071071071066 	299.9999999999967 	2.989742056470247e-12 	101324.9999999954
0.8596096096096089 	299.9999999999766 	1.653177970482864e-12 	101324.9999999953
0.8621121121121116 	299.9999999999632 	2.978409746382736e-12 	101324.9999999952
0.8646146146146139 	299.999999999995 	1.481153156306568e-12 	101324.9999999951
0.8671171171171166 	299.9999999999901 	2.297324559476422e-12 	101324.9999999951
0.8696196196196189 	299.9999999999778 	1.678534377049885e-12 	101324.9999999953
0.8721221221221216 	299.999999999979 	1.810242048761281e-12 	101324.9999999956
0.874624624624624 	299.9999999999988 	1.45006331709602e-12 	101324.9999999958
0.8771271271271264 	300.0000000000027 	1.460862099401887e-12 	101324.999999996
0.879629629629629 	299.9999999999993 	2.32178197909077e-12 	101324.999999996
0.8821321321321317 	299.9999999999915 	1.442945868202993e-12 	101324.999999996
0.8846346346346339 	299.9999999999574 	2.217706217220825e-12 	101324.9999999958
0.8871371371371364 	299.9999999999784 	9.947903950011832e-13 	101324.9999999954
0.8896396396396391 	299.9999999999793 	2.14676535925521e-12 	101324.9999999953
0.8921421421421414 	299.9999999999769 	1.776690876646917e-12 	101324.9999999953
0.8946446446446441 	299.9999999999907 	2.29381729254706e-12 	101324.9999999953
0.8971471471471464 	299.9999999999992 	2.003990577211579e-12 	101324.9999999952
0.8996496496496489 	299.9999999999864 	1.79454478971197e-12 	101324.9999999953
0.9021521521521517 	299.9999999999802 	2.812792192971684e-12 	101324.9999999954
0.9046546546546541 	299.9999999999922 	2.751509917654932e-12 	101324.9999999956
0.9071571571571564 	299.9999999999715 	3.364147244461343e-12 	101324.9999999957
0.9096596596596589 	299.9999999999722 	3.148450217095869e-12 	101324.9999999958
0.9121621621621616 	300.0000000000001 	2.797354577069153e-12 	101324.9999999959
0.9146646646646639 	299.9999999999908 	2.407408437148731e-12 	101324.9999999959
0.9171671671671666 	299.9999999999765 	2.370248955979941e-12 	101324.9999999959
0.9196696696696689 	300.0000000000024 	2.910015606456128e-12 	101324.999999996
0.9221721721721714 	300.000000000001 	2.481299280567707e-12 	101324.999999996
0.9246746746746741 	299.9999999999717 	4.251715965524107e-12 	101324.9999999959
0.9271771771771765 	299.9999999999714 	3.343252727631293e-12 	101324.9999999959
0.9296796796796791 	299.9999999999959 	4.434308937326484e-12 	101324.9999999957
0.9321821821821816 	299.9999999999864 	3.601636156846859e-12 	101324.9999999954
0.9346846846846838 	299.9999999999714 	4.064936554158003e-12 	101324.9999999954
0.9371871871871866 	300.000000000004 	3.572508986331535e-12 	101324.9999999955
0.9396896896896891 	300.0000000000045 	3.593304975528213e-12 	101324.9999999957
0.9421921921921914 	300.0000000000012 	3.992870286474045e-12 	101324.9999999958
0.9446946946946939 	299.9999999999795 	3.096852157049841e-12 	101324.9999999957
0.9471971971971965 	299.9999999999598 	3.92358017331357e-12 	101324.9999999959
0.9496996996996991 	299.9999999999783 	2.637148890992544e-12 	101324.999999996
0.9522022022022016 	299.999999999986 	3.505741090036971e-12 	101324.9999999959
0.9547047047047038 	299.9999999999829 	2.941440108595539e-12 	101324.999999996
0.9572072072072064 	299.9999999999797 	3.56551954328533e-12 	101324.9999999961
0.9597097097097093 	299.9999999999847 	3.627149163051744e-12 	101324.999999996
0.9622122122122114 	299.9999999999799 	3.289903084313647e-12 	101324.9999999959
0.964714714714714 	299.9999999999799 	3.580009407961547e-12 	101324.9999999959
0.9672172172172167 	299.99999999998 	2.978536947651874e-12 	101324.9999999959
0.969719719719719 	299.9999999999912 	3.259294893941536e-12 	101324.9999999959
0.9722222222222214 	299.9999999999889 	2.816663801344633e-12 	101324.999999996
0.9747247247247239 	299.9999999999843 	3.424408631301844e-12 	101324.9999999959
0.9772272272272267 	299.9999999999982 	3.714333385146024e-12 	101324.999999996
0.9797297297297292 	299.9999999999952 	3.841563187518247e-12 	101324.999999996
0.9822322322322313 	300.0000000000001 	3.951291947803348e-12 	101324.999999996
0.9847347347347344 	299.9999999999972 	2.741183622346089e-12 	101324.999999996
0.9872372372372363 	299.9999999999794 	3.973576826200274e-12 	101324.999999996
0.9897397397397389 	299.999999999986 	2.732918416769027e-12 	101324.9999999961
0.9922422422422417 	299.9999999999744 	4.048088515980036e-12 	101324.999999996
0.9947447447447441 	299.9999999999786 	3.24124753673014e-12 	101324.9999999961
0.9972472472472468 	299.9999999999848 	3.700153980469828e-12 	101324.9999999963
0.999749749749749 	299.9999999999812 	3.101578093114279e-12 	101324.9999999964
1.002252252252252 	299.9999999999846 	3.340488743416881e-12 	101324.9999999965
1.004754754754754 	299.9999999999895 	3.273903031281428e-12 	101324.9999999965
1.007257257257256 	299.9999999999833 	2.549485698178885e-12 	101324.9999999964
1.009759759759759 	299.9999999999822 	3.897448952137703e-12 	101324.9999999962
1.012262262262261 	299.99999999998 	3.116830714680852e-12 	101324.9999999961
1.014764764764764 	299.9999999999626 	4.484890231676509e-12 	101324.9999999963
1.017267267267267 	299.9999999999583 	4.235112705282038e-12 	101324.9999999964
1.019769769769769 	299.9999999999857 	4.828182220284324e-12 	101324.9999999964
1.022272272272272 	299.9999999999903 	4.560820393037409e-12 	101324.9999999964
1.024774774774774 	299.9999999999849 	4.504502049445547e-12 	101324.9999999963
1.027277277277277 	299.9999999999853 	5.112567148974454e-12 	101324.9999999964
1.029779779779779 	300.0000000000019 	4.700962251867928e-12 	101324.9999999963
1.032282282282282 	300.0000000000008 	5.215929324503507e-12 	101324.9999999963
1.034784784784784 	299.9999999999942 	4.254957696604757e-12 	101324.9999999962
1.037287287287286 	299.9999999999794 	3.83433210680582e-12 	101324.9999999962
1.039789789789789 	299.9999999999843 	3.191339569390087e-12 	101324.9999999963
1.042292292292291 	300.0000000000024 	3.030886196173822e-12 	101324.9999999963
1.044794794794794 	300.0000000000099 	2.969075182409417e-12 	101324.9999999962
1.047297297297296 	300.0000000000194 	2.495351407223956e-12 	101324.9999999964
1.049799799799799 	299.9999999999933 	3.701830555605208e-12 	101324.9999999965
1.052302302302302 	299.9999999999784 	2.955850601129067e-12 	101324.9999999966
1.054804804804804 	299.9999999999696 	3.96036427355624e-12 	101324.9999999965
1.057307307307306 	299.9999999999585 	3.29783930121668e-12 	101324.9999999965
1.059809809809809 	299.999999999977 	3.506709200580766e-12 	101324.9999999967
1.062312312312312 	299.9999999999762 	2.706013731810873e-12 	101324.9999999967
1.064814814814814 	299.9999999999766 	2.688142870570815e-12 	101324.9999999967
1.067317317317317 	299.999999999962 	2.613620042719135e-12 	101324.9999999967
1.069819819819819 	299.9999999999627 	3.2676051622786e-12 	101324.9999999967
1.072322322322321 	299.999999999997 	4.89293917028315e-12 	101324.9999999967
1.074824824824824 	300.0000000000061 	3.981921002977854e-12 	101324.9999999969
1.077327327327327 	300.0000000000146 	4.969727927795016e-12 	101324.9999999969
1.079829829829829 	300.0000000000178 	4.117343035243046e-12 	101324.9999999969
1.082332332332332 	300.0000000000047 	4.582429955452229e-12 	101324.9999999969
1.084834834834834 	299.9999999999945 	4.153946425813263e-12 	101324.9999999969
1.087337337337337 	299.9999999999725 	4.323211896825764e-12 	101324.9999999968
1.089839839839839 	299.9999999999668 	5.730586922577131e-12 	101324.9999999966
1.092342342342342 	299.9999999999854 	5.699209795169228e-12 	101324.9999999965
1.094844844844844 	299.9999999999852 	6.698151716776814e-12 	101324.9999999965
1.097347347347347 	299.9999999999694 	6.21005303091869e-12 	101324.9999999964
1.099849849849849 	299.999999999967 	7.955021323360575e-12 	101324.9999999965
1.102352352352352 	299.999999999978 	6.663063087097477e-12 	101324.9999999966
1.104854854854854 	299.9999999999852 	7.553926168593148e-12 	101324.9999999967
1.107357357357357 	299.9999999999781 	6.385111941359586e-12 	101324.9999999968
1.109859859859859 	299.9999999999761 	6.987687477188242e-12 	101324.999999997
1.112362362362362 	300.0000000000088 	5.638533979721098e-12 	101324.9999999969
1.114864864864865 	300.0000000000065 	5.095084472372507e-12 	101324.999999997
1.117367367367367 	299.9999999999828 	5.470226953318181e-12 	101324.9999999971
1.119869869869869 	299.9999999999649 	4.607199183914482e-12 	101324.9999999972
1.122372372372372 	299.9999999999771 	5.32621787443214e-12 	101324.9999999971
1.124874874874874 	299.9999999999745 	4.363103905858037e-12 	101324.9999999973
1.127377377377377 	299.9999999999818 	4.92971917107072e-12 	101324.9999999974
1.129879879879879 	300.0000000000122 	4.606270516631361e-12 	101324.9999999974
1.132382382382382 	300.0000000000179 	4.745076779147763e-12 	101324.9999999974
1.134884884884884 	300.0000000000022 	4.175915266094155e-12 	101324.9999999974
1.137387387387387 	300.0000000000057 	4.120093604938391e-12 	101324.9999999974
1.139889889889889 	299.9999999999816 	4.767425311865829e-12 	101324.9999999974
1.142392392392392 	299.9999999999783 	3.999566797273371e-12 	101324.9999999974
1.144894894894894 	300.0000000000047 	4.429909611199852e-12 	101324.9999999975
1.147397397397397 	299.999999999992 	3.898033175394314e-12 	101324.9999999976
1.149899899899899 	299.9999999999653 	5.190230718460145e-12 	101324.9999999976
1.152402402402402 	299.9999999999642 	5.584810182604055e-12 	101324.9999999975
1.154904904904904 	299.9999999999841 	6.253106512032448e-12 	101324.9999999974
1.157407407407407 	299.9999999999835 	5.907159872457933e-12 	101324.9999999974
1.159909909909909 	299.9999999999703 	6.257822545848807e-12 	101324.9999999975
1.162412412412412 	299.9999999999688 	7.212156028867665e-12 	101324.9999999976
1.164914914914914 	299.9999999999771 	6.225044643064572e-12 	101324.9999999977
1.167417417417417 	299.9999999999783 	7.139738542671547e-12 	101324.9999999978
1.169919919919919 	300.000000000005 	6.489495474960695e-12 	101324.9999999979
1.172422422422422 	300.0000000000181 	6.816350869264128e-12 	101324.999999998
1.174924924924925 	299.9999999999935 	5.942341071543363e-12 	101324.9999999981
1.177427427427427 	299.9999999999768 	6.533175682868078e-12 	101324.9999999981
1.179929929929929 	300.000000000002 	7.29791517751337e-12 	101324.9999999981
1.182432432432432 	300.0000000000175 	6.09072403167897e-12 	101324.9999999982
1.184934934934934 	299.9999999999995 	6.349917794482904e-12 	101324.9999999984
1.187437437437437 	299.9999999999874 	5.331777894685323e-12 	101324.9999999985
1.189939939939939 	299.9999999999861 	5.691149643475357e-12 	101324.9999999987
1.192442442442442 	299.9999999999698 	5.16573107811335e-12 	101324.9999999987
1.194944944944944 	299.99999999997 	5.948460773799954e-12 	101324.9999999987
1.197447447447447 	299.9999999999958 	5.555588572999475e-12 	101324.9999999986
1.199949949949949 	300.0000000000016 	5.720364986380256e-12 	101324.9999999984
1.202452452452452 	299.9999999999771 	6.553479297395911e-12 	101324.9999999981
1.204954954954955 	299.999999999976 	6.254716862495356e-12 	101324.9999999981
1.207457457457457 	299.9999999999878 	7.17896781712838e-12 	101324.9999999983
1.20995995995996 	299.9999999999847 	6.786101892367114e-12 	101324.9999999985
1.212462462462462 	299.9999999999929 	7.580342366016401e-12 	101324.9999999987
1.214964964964964 	299.9999999999935 	7.066402614437044e-12 	101324.999999999
1.217467467467467 	299.999999999989 	7.552880747706441e-12 	101324.9999999992
1.219969969969969 	299.9999999999849 	6.856340948543121e-12 	101324.9999999994
1.222472472472472 	300.0000000000105 	7.205632096610295e-12 	101324.9999999994
1.224974974974975 	300.0000000000216 	7.585243311281031e-12 	101324.9999999994
1.227477477477477 	299.9999999999986 	7.00768971049371e-12 	101324.9999999994
1.229979979979979 	299.9999999999916 	8.216800765912963e-12 	101324.9999999992
1.232482482482482 	299.9999999999769 	7.663324355386048e-12 	101324.9999999991
1.234984984984984 	299.9999999999768 	8.66789175165055e-12 	101324.999999999
1.237487487487487 	299.999999999986 	7.809887981637553e-12 	101324.9999999989
1.239989989989989 	299.9999999999856 	8.787466295162677e-12 	101324.9999999989
1.242492492492492 	299.9999999999998 	9.422523847341729e-12 	101324.999999999
1.244994994994994 	299.9999999999857 	8.702180014474245e-12 	101324.999999999
1.247497497497497 	299.9999999999943 	9.531535615411672e-12 	101324.999999999
1.249999999999999 	300.0000000000965 	8.77800667402589e-12 	101324.9999999993
