-1.25 	300 	0.07207092618232237 	101295.6107373854
-1.247497497497497 	299.9788249649089 	0.05968836842627366 	101301.3304257495
-1.244994994994995 	299.9853205976624 	0.04186527923894409 	101307.6421680505
-1.242492492492492 	299.9906863081992 	0.02744669854582806 	101313.9856427833
-1.23998998998999 	299.9963091183564 	0.01039695468962539 	101320.6359640348
-1.237487487487487 	300.0020553330092 	0.008345278757327197 	101327.4288991813
-1.234984984984985 	300.0077587969555 	0.022515849045726 	101334.1718196626
-1.232482482482482 	300.0133448503578 	0.0386506120646707 	101340.7762058769
-1.22997997997998 	300.0187262496319 	0.05414139240198131 	101347.1389039426
-1.227477477477477 	300.0237492762653 	0.06863610005003985 	101353.0781797051
-1.224974974974975 	300.028317486609 	0.0818818770977504 	101358.479897842
-1.222472472472472 	300.0324144687763 	0.09369115592610787 	101363.3246119853
-1.21996996996997 	300.0358979316504 	0.1037453514552005 	101367.4440155939
-1.217467467467467 	300.038651157108 	0.1117382616908107 	101370.6999341174
-1.214964964964965 	300.0406861376579 	0.1176429364080104 	101373.1065426194
-1.212462462462462 	300.0420061754795 	0.1215038625558227 	101374.6676887409
-1.20995995995996 	300.0425785162272 	0.1231441502186656 	101375.3445918591
-1.207457457457457 	300.0423746364702 	0.1225027019956497 	101375.1035253034
-1.204954954954955 	300.0413732207368 	0.119572001885932 	101373.9193302813
-1.202452452452452 	300.0395728658518 	0.1143418435942468 	101371.7903631939
-1.19994994994995 	300.0369946749208 	0.106926194922316 	101368.741559937
-1.197447447447447 	300.0337260440473 	0.09748866894156547 	101364.8763120704
-1.194944944944945 	300.0298680340944 	0.08630643895910629 	101360.3142439923
-1.192442442442442 	300.0254849386557 	0.07363215316018382 	101355.1314505972
-1.18993993993994 	300.0206426810556 	0.05968831164138628 	101349.4058927384
-1.187437437437437 	300.0154436236026 	0.04468234418348312 	101343.2587169103
-1.184934934934935 	300.0099608233263 	0.02879627129298222 	101336.7763172745
-1.182432432432432 	300.0042946959248 	0.01239711827785686 	101330.0774760401
-1.17992992992993 	299.9985796423691 	0.008481818769730309 	101323.3211254813
-1.177427427427427 	299.9928854270132 	0.02064511353768395 	101316.5896898195
-1.174924924924925 	299.9872828714344 	0.03683200507964556 	101309.9669330472
-1.172422422422422 	299.9818778603813 	0.05241926616665921 	101303.5779536534
-1.16991991991992 	299.9767881343244 	0.06709866072319218 	101297.5619288717
-1.167417417417417 	299.9721340596448 	0.08053874055050947 	101292.0610688136
-1.164914914914915 	299.9680199875138 	0.09245179910748925 	101287.1985875099
-1.162412412412412 	299.9645193087077 	0.1025770611756676 	101283.0612260235
-1.15990990990991 	299.9616753836049 	0.1107927254440005 	101279.700117548
-1.157407407407407 	299.9595154454752 	0.1170511272757875 	101277.1474173292
-1.154904904904904 	299.9580782944519 	0.121205344770133 	101275.4489041667
-1.152402402402403 	299.9574250094579 	0.1231019131123724 	101274.6767848137
-1.1498998998999 	299.9575884004661 	0.1226140836757841 	101274.8698649781
-1.147397397397397 	299.9585610415623 	0.1197529745020307 	101276.0192278688
-1.144894894894895 	299.9603168116874 	0.1146677826852639 	101278.0941136847
-1.142392392392392 	299.9628051885653 	0.1074914789409292 	101281.0348726414
-1.13988988988989 	299.9659582817759 	0.09838506631391508 	101284.7612470207
-1.137387387387387 	299.9697235771933 	0.08749201954840018 	101289.2113167955
-1.134884884884885 	299.9740441601604 	0.07498523914912501 	101294.3178156901
-1.132382382382382 	299.9788444621641 	0.06112138855520333 	101299.9915422373
-1.12987987987988 	299.9840308637627 	0.04616653864350023 	101306.1219109453
-1.127377377377377 	299.9894849446853 	0.03043458195067508 	101312.5689267529
-1.124874874874875 	299.9950817377943 	0.01421471858036723 	101319.1849862377
-1.122372372372372 	300.0007375560292 	0.008362775229586974 	101325.8711150101
-1.11986986986987 	300.0064065032958 	0.01861302483771864 	101332.5731113876
-1.117367367367367 	300.0120124761258 	0.03479346424599639 	101339.2009989475
-1.114864864864865 	300.0174249061316 	0.05041212080158222 	101345.6003222951
-1.112362362362362 	300.0225166169059 	0.06511547594437438 	101351.6207566172
-1.10985985985986 	300.0271883699318 	0.07861428010491546 	101357.1448449787
-1.107357357357357 	300.0313501187838 	0.09061343665029384 	101362.0660944894
-1.104854854854855 	300.0349283907483 	0.1009633338396514 	101366.29755546
-1.102352352352353 	300.0378803136476 	0.1094918282850634 	101369.7883978104
-1.09984984984985 	300.0401552821688 	0.1160670446829146 	101372.4788042741
-1.097347347347347 	300.0417021994786 	0.1205668153307186 	101374.3082420413
-1.094844844844845 	300.042475967031 	0.1227728435801047 	101375.2233722253
-1.092342342342342 	300.0424393998139 	0.1226460986937517 	101375.1801663726
-1.08983983983984 	300.0415857460369 	0.1201814937508498 	101374.1706925993
-1.087337337337337 	300.0399560195493 	0.1154563073214977 	101372.2435225813
-1.084834834834835 	300.0375885751939 	0.108632797125603 	101369.4439155562
-1.082332332332332 	300.0345321089837 	0.09978214814638858 	101365.8295516472
-1.07982982982983 	300.0308425862325 	0.08910097484615827 	101361.4667121455
-1.077327327327327 	300.0265832071009 	0.07678643753037113 	101356.4301338615
-1.074824824824825 	300.0218332341291 	0.06308576700721931 	101350.8136613536
-1.072322322322323 	300.0167035028724 	0.04827075075930591 	101344.7483919136
-1.06981981981982 	300.0112762244243 	0.03254880346094068 	101338.3315648162
-1.067317317317317 	300.0056538922161 	0.01628622140325608 	101331.6844482592
-1.064814814814815 	299.9999416675244 	0.008171375851518567 	101324.9313448396
-1.062312312312312 	299.9942016842292 	0.01686969918050121 	101318.1457400682
-1.05980980980981 	299.9885341969227 	0.03320954419889127 	101311.4461575352
-1.057307307307307 	299.9830722317554 	0.04896817689650887 	101304.989790834
-1.054804804804805 	299.9779367183066 	0.06379832872453087 	101298.9195944165
-1.052302302302302 	299.9732284237184 	0.07743055516699299 	101293.3545832969
-1.0497997997998 	299.9690153964153 	0.0896501670481572 	101288.3751172674
-1.047297297297297 	299.9653555734996 	0.1002158023668956 	101284.0496393427
-1.044794794794795 	299.9623190283277 	0.1089751000704619 	101280.4608647358
-1.042292292292292 	299.9599771342417 	0.1157325085564992 	101277.6931266575
-1.03978978978979 	299.9583923683227 	0.1203013444477157 	101275.8201351936
-1.037287287287287 	299.957604571399 	0.1225898873458487 	101274.8890586398
-1.034784784784785 	299.9576158198589 	0.122528436131334 	101274.9023345469
-1.032282282282283 	299.958413277085 	0.1201870561923439 	101275.8446728673
-1.02977977977978 	299.9599770516608 	0.1156708527455029 	101277.6926658508
-1.027277277277277 	299.962273177338 	0.1090463306063621 	101280.4061824964
-1.024774774774775 	299.9652621375276 	0.1004315357071488 	101283.9385721778
-1.022272272272272 	299.968894951983 	0.08993205196140672 	101288.2320217254
-1.01976976976977 	299.9730973473678 	0.07776017168424297 	101293.1987848797
-1.017267267267267 	299.9777885049477 	0.06419784394440564 	101298.7434712523
-1.014764764764765 	299.9828748065274 	0.04950207030846597 	101304.7554460221
-1.012262262262262 	299.9882488844618 	0.03396984353220738 	101311.1078443244
-1.00975975975976 	299.9938061401019 	0.01786671694148497 	101317.6770937559
-1.007257257257257 	299.9994514207581 	0.007607559011583947 	101324.3506920137
-1.004754754754755 	300.0051111468087 	0.01486420717114374 	101331.041720367
-1.002252252252252 	300.0107017585439 	0.03098431309486219 	101337.6513597605
-0.9997497497497498 	300.0161034515134 	0.04656473833101549 	101344.037930742
-0.9972472472472473 	300.0212184177756 	0.0613540653499039 	101350.0857912662
-0.9947447447447449 	300.025967846283 	0.07509084161162549 	101355.7016694102
-0.9922422422422421 	300.0302634731079 	0.0874756943616425 	101360.7811668652
-0.9897397397397399 	300.0340147754673 	0.09832751555586489 	101365.2171886361
-0.9872372372372376 	300.0371497411663 	0.1073732122934073 	101368.9244832979
-0.9847347347347346 	300.0395907515738 	0.1144696919516857 	101371.8112242268
-0.9822322322322323 	300.0412984547713 	0.1194543755397639 	101373.8308166402
-0.9797297297297296 	300.0422484677106 	0.1221377091016411 	101374.9543662138
-0.9772272272272275 	300.0424112747599 	0.1225678692835903 	101375.1469300397
-0.9747247247247248 	300.0417715313399 	0.1207045219450973 	101374.3904281027
-0.9722222222222224 	300.0403551823228 	0.1166076679672309 	101372.7155836661
-0.9697197197197196 	300.0381743125339 	0.1103357799995709 	101370.1366323278
-0.9672172172172175 	300.035282981402 	0.1019442151384157 	101366.7175227607
-0.9647147147147147 	300.0317428833023 	0.09169247608041245 	101362.5313287039
-0.9622122122122124 	300.0276173815937 	0.07978262223912183 	101357.6530434406
-0.9597097097097099 	300.0229830983139 	0.06645337732315007 	101352.1733162057
-0.9572072072072073 	300.0179364268014 	0.0518561344796042 	101346.2062043801
-0.9547047047047047 	300.0125411526209 	0.03621252332518122 	101339.8271570203
-0.9522022022022023 	300.0069202414585 	0.0199554825876202 	101333.1816238189
-0.9496996996996998 	300.0012058340483 	0.00701200340487326 	101326.425889685
-0.9471971971971973 	299.9954775716233 	0.0131749151367117 	101319.6540723107
-0.9446946946946947 	299.989820306106 	0.02951038348847941 	101312.9664966766
-0.9421921921921923 	299.9843358300941 	0.04532447408763763 	101306.4834661146
-0.93968968968969 	299.9791323533885 	0.06033466336817751 	101300.3328552528
-0.9371871871871872 	299.9743108747972 	0.07429235770062703 	101294.6340278597
-0.9346846846846848 	299.9699594924631 	0.08688784414872805 	101289.4910044173
-0.9321821821821823 	299.9661623566072 	0.09786263924287059 	101285.0031973061
-0.9296796796796799 	299.9629956151578 	0.1070098237700447 	101281.2605441599
-0.9271771771771771 	299.9605214145547 	0.1141498355071585 	101278.3364156437
-0.9246746746746748 	299.9587917846037 	0.1191718542177553 	101276.2922336189
-0.9221721721721724 	299.9578361290191 	0.1219388027545198 	101275.1627712713
-0.9196696696696698 	299.9576652816286 	0.1223917685066378 	101274.9608355372
-0.9171671671671672 	299.9582831509122 	0.1205623790453282 	101275.6909707116
-0.9146646646646649 	299.9596741964947 	0.1165293960557998 	101277.3348014187
-0.9121621621621623 	299.9618024630251 	0.1103995419321039 	101279.8499467103
-0.9096596596596597 	299.9646278474738 	0.1022537618782751 	101283.1890107784
-0.9071571571571573 	299.9680976945246 	0.09221611454796441 	101287.289808953
-0.9046546546546547 	299.9721515991874 	0.08046946209951827 	101292.0810557387
-0.9021521521521524 	299.9767243532973 	0.06726595976154701 	101297.4857244479
-0.8996496496496498 	299.9817213637721 	0.05285925668179654 	101303.3921071028
-0.8971471471471473 	299.9870281485847 	0.03751621290217201 	101309.6649068018
-0.894644644644645 	299.9925352227324 	0.0215566892949452 	101316.1747490794
-0.892142142142142 	299.9981323624814 	0.00595719114420468 	101322.7913858996
-0.8896396396396397 	300.0037480734434 	0.01092629763316252 	101329.4302883052
-0.8871371371371374 	300.0093198149356 	0.02699064751259321 	101336.0175398094
-0.8846346346346349 	300.0147423979154 	0.04265383826701954 	101342.4287423576
-0.8821321321321324 	300.0199252953757 	0.05764836909344342 	101348.5568316228
-0.8796296296296297 	300.0247758308358 	0.07166590693991838 	101354.2922161839
-0.8771271271271271 	300.0291862335147 	0.08438052680159713 	101359.5073788054
-0.8746246246246248 	300.0330665379986 	0.09559037023744722 	101364.0959036192
-0.8721221221221224 	300.0363455291976 	0.1050591039569834 	101367.9734909126
-0.8696196196196196 	300.0389489636377 	0.1126465737568976 	101371.052273676
-0.8671171171171175 	300.0408428881311 	0.1181488761154633 	101373.2920875552
-0.8646146146146148 	300.0419893974402 	0.1213890988892072 	101374.6480211661
-0.8621121121121121 	300.0423454193825 	0.1223912163592386 	101375.069096828
-0.8596096096096097 	300.0419070404691 	0.1211079930606787 	101374.5506935756
-0.857107107107107 	300.0406918674684 	0.1176010579653773 	101373.1137471085
-0.8546046046046049 	300.0387108681018 	0.1119002635120731 	101370.7711666809
-0.8521021021021022 	300.0360123886802 	0.1040562833830816 	101367.5801092897
-0.8495995995995997 	300.032640496208 	0.09427555848642015 	101363.5927993955
-0.8470970970970974 	300.0286391893198 	0.08274432690783017 	101358.8613327484
-0.8445945945945946 	300.0240988458154 	0.06968442124673263 	101353.4926253166
-0.8420920920920922 	300.0191135258289 	0.05526934878641859 	101347.5980106406
-0.8395895895895897 	300.0137687916851 	0.03979225166941351 	101341.2786551684
-0.8370870870870872 	300.0081968965868 	0.02365878948195464 	101334.6910195188
-0.8345845845845846 	300.0025235102464 	0.00721370074284873 	101327.9836976383
-0.8320820820820823 	299.9968147523041 	0.01044158365184332 	101321.2348536639
-0.8295795795795798 	299.9911403523363 	0.02568329342092078 	101314.5269659795
-0.8270770770770772 	299.9856008681353 	0.04164982715153571 	101307.9788378907
-0.8245745745745746 	299.9803190707541 	0.0569089614483332 	101301.7356024017
-0.8220720720720721 	299.9754019271269 	0.07114380976142655 	101295.9236421931
-0.8195695695695699 	299.9709391173704 	0.08405695109884806 	101290.6488649033
-0.817067067067067 	299.9670142867818 	0.09537746145843191 	101286.0101173253
-0.8145645645645651 	299.9637107070033 	0.1049275097114003 	101282.1057100657
-0.8120620620620621 	299.961088537451 	0.1125184606944638 	101279.0067082077
-0.8095595595595597 	299.9592039008487 	0.1179831675904411 	101276.7793439899
-0.8070570570570572 	299.9580867695406 	0.1212120935427972 	101275.4590108963
-0.8045545545545546 	299.9577507766884 	0.1221313018036659 	101275.0619279081
-0.8020520520520523 	299.9581950541218 	0.1208134995012912 	101275.5869098784
-0.7995495495495494 	299.959407953396 	0.1173225943423902 	101277.0202273417
-0.7970470470470474 	299.9613539842361 	0.1116997095005516 	101279.31998591
-0.7945445445445446 	299.9640102325787 	0.1040291856162035 	101282.4591322583
-0.7920420420420423 	299.9673344190833 	0.09439795822593522 	101286.3877745237
-0.7895395395395397 	299.9712715060948 	0.08301750069879175 	101291.0409101609
-0.7870370370370371 	299.9757400021268 	0.07013144057252302 	101296.3223197384
-0.7845345345345348 	299.980642836782 	0.05598779257339984 	101302.1173284302
-0.7820320320320323 	299.985860475609 	0.04088253507090344 	101308.284688034
-0.7795295295295296 	299.991299030218 	0.02512039406313525 	101314.7134895573
-0.7770270270270272 	299.9968463162969 	0.009047518462751139 	101321.2710973319
-0.7745245245245247 	300.002426947609 	0.00958254870245741 	101327.8684710576
-0.7720220220220222 	300.00797895634 	0.02313916079329409 	101334.4323138921
-0.7695195195195199 	300.0134150596194 	0.03885053028623625 	101340.8594135248
-0.767017017017017 	300.0186476361174 	0.05394266189492948 	101347.0462003826
-0.7645145145145147 	300.0235735025404 	0.06815421709413561 	101352.8705635944
-0.7620120120120122 	300.0280826880054 	0.08116531855498152 	101358.2024984809
-0.7595095095095097 	300.0320895002699 	0.09277257546092046 	101362.9405745367
-0.7570070070070072 	300.0355122309699 	0.1026782124770768 	101366.988086566
-0.7545045045045048 	300.0382831326734 	0.1107071972812204 	101370.2649237775
-0.7520020020020022 	300.0403546579238 	0.1166977602929418 	101372.7147210692
-0.7494994994994997 	300.041677438086 	0.1204817823471806 	101374.279118138
-0.7469969969969972 	300.0422195338334 	0.1220793391153147 	101374.9202734051
-0.7444944944944945 	300.041991331043 	0.1213767846083975 	101374.6503797041
-0.7419919919919924 	300.0409875351878 	0.1184295467603804 	101373.4634337431
-0.7394894894894897 	300.0392123309558 	0.1132992233567862 	101371.3641930028
-0.7369869869869872 	300.0366934262921 	0.1059804963749084 	101368.3854865489
-0.7344844844844846 	300.0334710535357 	0.09670273847667579 	101364.5749893508
-0.7319819819819822 	300.0296057602617 	0.08557464070932572 	101360.0042941167
-0.7294794794794797 	300.0252020181143 	0.07283643930626592 	101354.7971043964
-0.7269769769769773 	300.0203251163446 	0.05876255749531634 	101349.0305978311
-0.7244744744744747 	300.01506750844 	0.0435526461150841 	101342.8141999664
-0.721971971971972 	300.0095459767409 	0.02759761266664998 	101336.2860597002
-0.7194694694694695 	300.0038851253179 	0.01117532979240481 	101329.5934558814
-0.7169669669669674 	299.9981713717195 	0.009092193049535556 	101322.8386620307
-0.7144644644644647 	299.9924761488815 	0.0218550496319989 	101316.1060603375
-0.711961961961962 	299.9868819509337 	0.03796159118829358 	101309.4931938825
-0.7094594594594597 	299.9815263726802 	0.05340294508620873 	101303.1626983935
-0.7069569569569573 	299.9765198241059 	0.06792144843445373 	101297.2449814318
-0.7044544544544545 	299.9719509619184 	0.08115535802117266 	101291.8448408574
-0.7019519519519523 	299.9679032358648 	0.09278631955941641 	101287.0607867149
-0.6994494494494495 	299.9644703996765 	0.1027008402563229 	101283.0035990532
-0.6969469469469471 	299.9617045098122 	0.1106794396151914 	101279.7347388683
-0.6944444444444446 	299.9596735563736 	0.1166382768905484 	101277.3344525409
-0.6919419419419421 	299.9583872983879 	0.1204092774370256 	101275.8142348404
-0.6894394394394396 	299.9578592215955 	0.1218353408863509 	101275.1901292399
-0.6869369369369374 	299.9581102808246 	0.1210390640506005 	101275.4867896855
-0.6844344344344344 	299.9591606867854 	0.1180221134333197 	101276.7280623955
-0.6819319319319321 	299.9609566171065 	0.1128675890824199 	101278.8504346137
-0.6794294294294296 	299.963474132759 	0.1056331091997254 	101281.8256163864
-0.6769269269269272 	299.9666389476026 	0.09639003629825056 	101285.565866275
-0.6744244244244245 	299.9704105231411 	0.08544292099985366 	101290.0233768064
-0.6719219219219222 	299.9747322873157 	0.07299174637413476 	101295.1313008233
-0.6694194194194195 	299.9795292518029 	0.05926349681714802 	101300.8011279502
-0.6669169169169172 	299.9846533628832 	0.04443209690568136 	101306.8578788651
-0.6644144144144146 	299.9900339785086 	0.02878041831689937 	101313.2180967506
-0.661911911911912 	299.9955324109731 	0.01283308874471388 	101319.7179226911
-0.6594094094094097 	300.0010694690347 	0.007717469616142622 	101326.2636812836
-0.656906906906907 	300.0066099694386 	0.01917813644147001 	101332.8138434442
-0.6544044044044046 	300.0120660832641 	0.0349466864796808 	101339.2645413682
-0.6519019019019021 	300.0173436889987 	0.05022632919958859 	101345.5044622991
-0.6493993993993996 	300.0223425700599 	0.06463620559660854 	101351.4151403465
-0.6468968968968971 	300.0269467439294 	0.07790862347749995 	101356.8593058609
-0.6443943943943946 	300.0310768685649 	0.08982966142915147 	101361.7431546503
-0.6418918918918921 	300.0346354871975 	0.1001213172794068 	101365.9513492087
-0.6393893893893897 	300.0375531022236 	0.1086467201972596 	101369.4016233473
-0.6368868868868871 	300.0397896224306 	0.11511235360142 	101372.0465662515
-0.6343843843843846 	300.0413066780102 	0.1194189019834247 	101373.8406810434
-0.6318818818818821 	300.0420576427786 	0.1216112765086968 	101374.7288449446
-0.6293793793793795 	300.0420546151259 	0.1215631133019869 	101374.7252711571
-0.6268768768768773 	300.0412656491394 	0.1193054236289549 	101373.7923188911
-0.6243743743743745 	300.0396888339594 	0.1147233979663406 	101371.9275338156
-0.6218718718718721 	300.037332267452 	0.107834372181743 	101369.1407967023
-0.6193693693693696 	300.0342387950054 	0.09889255678264296 	101365.482823416
-0.6168668668668671 	300.0304705804944 	0.08808030975618014 	101361.026983104
-0.6143643643643645 	300.0261712326864 	0.07568762548894049 	101355.9431703295
-0.6118618618618621 	300.0213983931001 	0.0618892848749681 	101350.2996708833
-0.6093593593593596 	300.0162431544681 	0.04693425397400413 	101344.2042708716
-0.6068568568568571 	300.0107855337603 	0.03115599362058642 	101337.7515967231
-0.6043543543543546 	300.0051436157967 	0.01483419202955 	101331.0813456633
-0.6018518518518521 	299.9994151143694 	0.006967841552143479 	101324.3090274005
-0.5993493493493496 	299.9936861360917 	0.01829500600312484 	101317.5364580594
-0.5968468468468471 	299.9880745595112 	0.03450549305452283 	101310.9029983077
-0.5943443443443446 	299.9826987100324 	0.0500453820631199 	101304.5484477312
-0.591841841841842 	299.9776509388888 	0.06464772835338582 	101298.5819725432
-0.5893393393393397 	299.9730046438304 	0.07807983439887689 	101293.090250012
-0.5868368368368371 	299.968830853858 	0.09013555990390167 	101288.1571701686
-0.5843343343343346 	299.9652164140974 	0.1005650035839614 	101283.8853356406
-0.5818318318318321 	299.9622566538453 	0.1091027578233223 	101280.3873139968
-0.5793293293293297 	299.9600411069388 	0.1154964376305382 	101277.7688714475
-0.5768268268268271 	299.9586295644092 	0.1195757253143305 	101276.1005748086
-0.5743243243243245 	299.9580303833557 	0.121322383348817 	101275.3924394046
-0.5718218218218221 	299.9582038548133 	0.1208332131723538 	101275.5974156933
-0.5693193193193196 	299.9590922341715 	0.1182715733493152 	101276.6472275492
-0.5668168168168171 	299.9606496429433 	0.1137616207474434 	101278.4876970211
-0.5643143143143147 	299.9628614843843 	0.1073406303691828 	101281.1016266321
-0.5618118118118121 	299.9657390194301 	0.09899363673526741 	101284.502338964
-0.5593093093093094 	299.9692915967954 	0.08870033126712468 	101288.7009625438
-0.5568068068068072 	299.9734972609883 	0.07653436788812022 	101293.6716243185
-0.5543043043043046 	299.9782797195022 	0.06272478255127238 	101299.3242180174
-0.551801801801802 	299.9834982755781 	0.04767108997410008 	101305.4925462232
-0.5492992992992995 	299.9889650587978 	0.03190295796339856 	101311.9545809744
-0.5467967967967969 	299.9944877085658 	0.01595905160033007 	101318.4829678369
-0.5442942942942947 	299.9999161211967 	0.005171074095939069 	101324.9002713466
-0.5417917917917919 	300.0051775334246 	0.01498391988471917 	101331.1204163434
-0.5392892892892895 	300.0102764766194 	0.02977271722170762 	101337.1487534559
-0.536786786786787 	300.0152591872177 	0.04422059622958065 	101343.039916226
-0.5342842842842846 	300.0201607050845 	0.05841258523730719 	101348.8353144532
-0.531781781781782 	300.0249606671701 	0.07228176400295519 	101354.5108869561
-0.5292792792792794 	300.0295618700829 	0.08554752830321752 	101359.9516587872
-0.526776776776777 	300.0337942246209 	0.09772520882719815 	101364.956491077
-0.5242742742742745 	300.0374393691678 	0.1081947388426618 	101369.267116342
-0.521771771771772 	300.0402678989454 	0.1163058589952515 	101372.6121557141
-0.5192692692692695 	300.0420803892498 	0.1214945220986648 	101374.7557166613
-0.516766766766767 	300.0427440957387 	0.1233864861347187 	101375.5406913244
-0.5142642642642645 	300.0422180817483 	0.1218686588130883 	101374.918630049
-0.511761761761762 	300.0405628532376 	0.117116846592129 	101372.961351385
-0.5092592592592596 	300.0379345660386 	0.1095758869018639 	101369.8533108374
-0.506756756756757 	300.0345615842762 	0.09989588506251634 	101365.8646477287
-0.5042542542542544 	300.0307117096491 	0.08883866327792116 	101361.312145888
-0.5017517517517521 	300.0266552804964 	0.07717374824703979 	101356.5155268026
-0.4992492492492494 	300.0226315201528 	0.0655845534813646 	101351.757680172
-0.496746746746747 	300.0188257344349 	0.05460547774164353 	101347.2577081935
-0.4942442442442445 	300.015362905884 	0.04460110419744007 	101343.1633631642
-0.4917417417417421 	300.0123132781929 	0.03577880777348692 	101339.5576640021
-0.4892392392392395 	300.009702492844 	0.02821681663371165 	101336.4708923825
-0.486736736736737 	300.0075228005018 	0.02189625618767596 	101333.8938551373
-0.4842342342342345 	300.005743751027 	0.01673189735364905 	101331.7905265569
-0.481731731731732 	300.0043214356793 	0.01259885194264546 	101330.1089758024
-0.4792292292292296 	300.0032058440055 	0.009353909333077769 	101328.7900651081
-0.4767267267267268 	300.0023462690654 	0.006851274009102158 	101327.7738377111
-0.4742242242242246 	300.0016949273859 	0.004953162505662198 	101327.0037965037
-0.471721721721722 	300.0012090926124 	0.003536100201457187 	101326.4294259943
-0.4692192192192195 	300.0008520869762 	0.002493895306140933 	101326.0073625978
-0.4667167167167169 	300.0005934582856 	0.00173824058406202 	101325.7016040778
-0.4642142142142145 	300.0004086316004 	0.001197769207453752 	101325.4830964566
-0.461711711711712 	300.0002782602519 	0.0008162258593591767 	101325.3289676538
-0.4592092092092094 	300.0001874477032 	0.0005502422198557259 	101325.2216064334
-0.456706706706707 	300.0001249517788 	0.0003670518373181257 	101325.1477218551
-0.4542042042042045 	300.0000824427932 	0.0002423519215988213 	101325.097466612
-0.451701701701702 	300.0000538543275 	0.0001584235210585296 	101325.0636684271
-0.4491991991991995 	300.0000348375376 	0.000102553164586094 	101325.0411861779
-0.4466966966966969 	300.0000223218082 	6.575533646733745e-05 	101325.0263896813
-0.4441941941941945 	300.0000141696412 	4.176922042848573e-05 	101325.0167518565
-0.441691691691692 	300.0000089128658 	2.629126153133135e-05 	101325.0105371677
-0.4391891891891895 	300.0000055564013 	1.640127420431891e-05 	101325.006568989
-0.436686686686687 	300.0000034336535 	1.014221747379437e-05 	101325.0040594234
-0.4341841841841846 	300.0000021037329 	6.217995955942784e-06 	101325.00248711
-0.431681681681682 	300.0000012780156 	3.780087660657992e-06 	101325.0015109865
-0.4291791791791794 	300.0000007699829 	2.279042892345189e-06 	101325.0009103911
-0.426676676676677 	300.0000004601069 	1.362917084678735e-06 	101325.0005440778
-0.4241741741741744 	300.0000002728096 	8.085557029239895e-07 	101325.0003225671
-0.421671671671672 	300.0000001605097 	4.759265443892292e-07 	101325.0001897418
-0.4191691691691694 	300.0000000937503 	2.779759794208671e-07 	101325.0001107501
-0.4166666666666669 	300.0000000543499 	1.611322892921418e-07 	101325.0000641525
-0.4141641641641645 	300.0000000311298 	9.27035851433362e-08 	101325.0000368821
-0.411661661661662 	300.0000000178179 	5.294643044307234e-08 	101325.0000210468
-0.4091591591591594 	300.0000000100914 	3.001968445697459e-08 	101325.0000119221
-0.406656656656657 	300.0000000056057 	1.690189049478187e-08 	101325.0000067037
-0.4041541541541545 	300.0000000031895 	9.446674450045e-09 	101325.0000037413
-0.401651651651652 	300.0000000016681 	5.247614794017594e-09 	101325.000002072
-0.3991491491491494 	300.0000000009665 	2.891063251025574e-09 	101325.0000011379
-0.396646646646647 	300.0000000004803 	1.587890818878253e-09 	101325.0000006189
-0.3941441441441444 	300.0000000002688 	8.608670730033836e-10 	101325.0000003323
-0.3916416416416419 	300.0000000000759 	4.68925987154901e-10 	101325.0000001751
-0.3891391391391395 	300.0000000000289 	2.494078520972374e-10 	101325.0000000896
-0.3866366366366368 	299.9999999999936 	1.350982838261684e-10 	101325.0000000433
-0.3841341341341344 	300.0000000000201 	7.036705755908831e-11 	101325.0000000186
-0.381631631631632 	299.9999999999499 	3.832078273847882e-11 	101325.0000000053
-0.3791291291291294 	300.0000000000094 	2.037270205637977e-11 	101324.9999999982
-0.3766266266266269 	300.0000000000307 	1.148266443452074e-11 	101324.9999999944
-0.3741241241241244 	300.0000000000312 	8.244445492490754e-12 	101324.9999999925
-0.371621621621622 	300.0000000000242 	4.134545825035332e-12 	101324.9999999916
-0.3691191191191194 	300.0000000000208 	5.819633781022361e-12 	101324.9999999911
-0.366616616616617 	300.0000000000162 	2.235375595185436e-12 	101324.9999999908
-0.3641141141141143 	299.9999999999594 	4.283382944926368e-12 	101324.9999999904
-0.3616116116116119 	299.9999999999407 	1.92270169722961e-12 	101324.9999999903
-0.3591091091091095 	299.9999999999808 	2.751155952824396e-12 	101324.9999999904
-0.356606606606607 	299.999999999966 	1.740517707225818e-12 	101324.9999999905
-0.3541041041041044 	299.9999999999883 	1.341793907852794e-12 	101324.9999999904
-0.3516016016016019 	300.0000000000105 	2.524900030883417e-12 	101324.9999999906
-0.3490990990990994 	299.9999999999912 	9.64580432862712e-13 	101324.9999999907
-0.346596596596597 	300.0000000000506 	3.351303396869169e-12 	101324.999999991
-0.3440940940940944 	300.0000000000609 	7.075894374004238e-13 	101324.9999999911
-0.3415915915915919 	300.0000000000252 	2.981633031652315e-12 	101324.9999999908
-0.3390890890890895 	299.9999999999741 	5.95858569036235e-13 	101324.9999999905
-0.3365865865865869 	300.0000000000229 	1.869030125713976e-12 	101324.9999999905
-0.3340840840840844 	300.0000000000008 	4.680110188341393e-13 	101324.9999999904
-0.3315815815815819 	300.0000000000226 	2.037121683344572e-12 	101324.9999999903
-0.3290790790790794 	300.000000000025 	1.423155888021276e-12 	101324.9999999904
-0.3265765765765769 	299.999999999915 	3.472064689157789e-12 	101324.9999999906
-0.3240740740740744 	299.9999999999959 	1.591701138808071e-12 	101324.9999999904
-0.3215715715715718 	300.0000000000095 	4.42678245669629e-12 	101324.9999999903
-0.3190690690690695 	299.9999999999196 	2.373856450408176e-12 	101324.9999999902
-0.3165665665665668 	299.9999999999913 	5.063296102697668e-12 	101324.9999999898
-0.3140640640640644 	300.000000000009 	1.834346093745782e-12 	101324.9999999899
-0.311561561561562 	299.9999999999134 	5.75828867008143e-12 	101324.9999999901
-0.3090590590590593 	299.999999999993 	1.208530411247301e-12 	101324.9999999904
-0.3065565565565568 	300.0000000000006 	6.424977350418136e-12 	101324.9999999903
-0.3040540540540545 	300.0000000000046 	1.979155267052213e-12 	101324.9999999902
-0.3015515515515518 	300.0000000000416 	5.243669574312445e-12 	101324.9999999901
-0.2990490490490494 	299.9999999999409 	1.121037524104032e-12 	101324.9999999899
-0.2965465465465469 	299.9999999999824 	3.974760588044549e-12 	101324.9999999898
-0.2940440440440444 	299.9999999999965 	2.425430299867056e-12 	101324.9999999898
-0.2915415415415418 	300.0000000000054 	3.553648346669731e-12 	101324.9999999899
-0.2890390390390395 	300.0000000000066 	3.311459863234204e-12 	101324.9999999899
-0.2865365365365368 	299.99999999998 	2.518681597782954e-12 	101324.99999999
-0.2840340340340343 	300.0000000000008 	4.454089239140737e-12 	101324.9999999899
-0.2815315315315318 	299.9999999999116 	2.593234294941552e-12 	101324.99999999
-0.2790290290290295 	299.9999999999545 	4.507438110514705e-12 	101324.9999999898
-0.2765265265265269 	300.0000000000102 	3.547847012345143e-12 	101324.9999999901
-0.2740240240240244 	300.0000000000304 	4.419669378127996e-12 	101324.9999999901
-0.2715215215215219 	300.0000000000144 	4.242346467335654e-12 	101324.99999999
-0.2690190190190194 	299.9999999999387 	3.865915548013219e-12 	101324.9999999901
-0.2665165165165169 	299.999999999999 	4.641512530714015e-12 	101324.99999999
-0.2640140140140144 	299.9999999999609 	3.456047877129375e-12 	101324.9999999897
-0.2615115115115119 	300.0000000000002 	5.231075048997209e-12 	101324.9999999894
-0.2590090090090094 	299.9999999999196 	3.449678776870505e-12 	101324.9999999893
-0.2565065065065068 	299.9999999999931 	4.407116510319307e-12 	101324.9999999891
-0.2540040040040044 	299.9999999999955 	4.545238603328691e-12 	101324.9999999895
-0.2515015015015019 	300.0000000000456 	2.857560746829145e-12 	101324.9999999893
-0.2489989989989994 	300.0000000000525 	4.955228458779947e-12 	101324.9999999893
-0.2464964964964968 	299.9999999999867 	1.488723953107087e-12 	101324.9999999895
-0.2439939939939944 	299.9999999999957 	5.466470138676398e-12 	101324.99999999
-0.2414914914914919 	299.9999999999614 	1.32235351208721e-12 	101324.9999999898
-0.2389889889889893 	300.0000000000054 	6.37099105530021e-12 	101324.9999999899
-0.2364864864864869 	300.000000000026 	2.100179028266971e-12 	101324.99999999
-0.2339839839839843 	299.9999999999149 	7.101137308663456e-12 	101324.9999999901
-0.2314814814814819 	299.9999999999789 	2.822335844170491e-12 	101324.99999999
-0.2289789789789792 	299.9999999999058 	6.424460885629817e-12 	101324.9999999898
-0.2264764764764769 	299.9999999999364 	3.246738425506052e-12 	101324.9999999898
-0.2239739739739743 	299.9999999999504 	5.068781928783332e-12 	101324.9999999895
-0.2214714714714718 	299.999999999925 	3.704844845820103e-12 	101324.9999999895
-0.2189689689689693 	299.9999999999637 	3.437983255335066e-12 	101324.9999999896
-0.2164664664664669 	299.9999999999793 	4.539742494920496e-12 	101324.9999999894
-0.2139639639639643 	299.9999999999181 	3.370931127740675e-12 	101324.9999999894
-0.2114614614614618 	299.9999999999669 	4.366888150091941e-12 	101324.9999999892
-0.2089589589589593 	299.9999999999876 	4.434941998520114e-12 	101324.9999999892
-0.2064564564564568 	299.9999999999873 	3.932925479249011e-12 	101324.9999999894
-0.2039539539539543 	299.9999999998948 	4.622727046091225e-12 	101324.9999999892
-0.2014514514514518 	299.9999999999372 	1.526959959561894e-12 	101324.9999999891
-0.1989489489489494 	299.9999999999631 	4.677874836887655e-12 	101324.9999999892
-0.1964464464464468 	299.9999999999886 	1.062948544127644e-12 	101324.9999999889
-0.1939439439439443 	299.9999999999837 	4.769268616357642e-12 	101324.999999989
-0.1914414414414418 	299.9999999999047 	1.646329142685839e-12 	101324.9999999893
-0.1889389389389393 	300.0000000000095 	3.669837348366732e-12 	101324.9999999895
-0.1864364364364368 	300.0000000000488 	2.66935165145944e-12 	101324.9999999897
-0.1839339339339343 	299.9999999999671 	4.337034859058649e-12 	101324.9999999901
-0.1814314314314318 	299.9999999999965 	3.124318089981224e-12 	101324.9999999904
-0.1789289289289293 	299.9999999998827 	4.623171028351651e-12 	101324.9999999904
-0.1764264264264268 	299.9999999999786 	1.859066782343899e-12 	101324.9999999901
-0.1739239239239243 	299.9999999998856 	5.2243297160111e-12 	101324.99999999
-0.1714214214214218 	299.9999999999864 	1.040052735797492e-12 	101324.9999999902
-0.1689189189189193 	299.9999999999461 	6.328087288034792e-12 	101324.9999999901
-0.1664164164164168 	300.0000000000093 	1.454991869519202e-12 	101324.9999999901
-0.1639139139139143 	299.9999999999837 	8.057948573563328e-12 	101324.9999999903
-0.1614114114114118 	300.0000000000301 	2.388335725979617e-12 	101324.9999999901
-0.1589089089089093 	299.9999999999943 	1.048553857162239e-11 	101324.9999999901
-0.1564064064064068 	299.9999999999775 	3.008721852359409e-12 	101324.99999999
-0.1539039039039043 	299.9999999999889 	1.105217566027846e-11 	101324.99999999
-0.1514014014014018 	300.0000000000272 	2.070621329319438e-12 	101324.9999999903
-0.1488988988988993 	299.9999999999797 	1.052856813308018e-11 	101324.9999999902
-0.1463963963963968 	299.9999999999981 	7.558194876491332e-13 	101324.9999999901
-0.1438938938938943 	299.9999999999427 	8.888098383962702e-12 	101324.9999999899
-0.1413913913913918 	299.9999999999159 	1.522513447538564e-12 	101324.9999999902
-0.1388888888888893 	299.9999999999794 	8.230649994925425e-12 	101324.9999999901
-0.1363863863863868 	299.9999999998724 	3.259298574441622e-12 	101324.9999999902
-0.1338838838838843 	299.9999999999006 	6.351031984640871e-12 	101324.9999999902
-0.1313813813813818 	299.9999999999978 	2.127400876646592e-12 	101324.9999999901
-0.1288788788788793 	299.9999999999558 	4.770523110232551e-12 	101324.9999999903
-0.1263763763763768 	299.9999999999622 	7.861523143142643e-13 	101324.9999999902
-0.1238738738738743 	299.9999999999163 	4.613818465191163e-12 	101324.99999999
-0.1213713713713717 	299.9999999999778 	4.213936113137227e-13 	101324.9999999901
-0.1188688688688693 	300.0000000000054 	4.852264463019156e-12 	101324.9999999901
-0.1163663663663668 	299.9999999998959 	9.609627763623432e-13 	101324.99999999
-0.1138638638638643 	299.99999999999 	5.51840009153151e-12 	101324.9999999898
-0.1113613613613618 	299.9999999999792 	1.354709013702428e-12 	101324.9999999901
-0.1088588588588592 	299.9999999999698 	5.573158837446454e-12 	101324.9999999899
-0.1063563563563568 	299.999999999945 	1.387487566082187e-12 	101324.9999999901
-0.1038538538538543 	299.9999999999664 	4.921717114611168e-12 	101324.9999999902
-0.1013513513513517 	300.0000000000169 	4.144702635866247e-13 	101324.99999999
-0.09884884884884926 	299.9999999999328 	3.952206081807489e-12 	101324.9999999899
-0.09634634634634676 	299.9999999998709 	5.608671585955301e-13 	101324.9999999901
-0.09384384384384425 	299.9999999999148 	2.551942505543916e-12 	101324.9999999901
-0.09134134134134177 	300.000000000026 	3.181727412089736e-13 	101324.9999999901
-0.08883883883883925 	300.0000000000089 	2.162390142888965e-12 	101324.9999999901
-0.08633633633633674 	299.9999999999473 	8.349418536873527e-13 	101324.99999999
-0.08383383383383426 	300.0000000000072 	1.2008425162569e-12 	101324.99999999
-0.08133133133133173 	299.999999999964 	1.247985434017971e-12 	101324.9999999898
-0.07882882882882926 	299.9999999998685 	1.166529018398181e-12 	101324.9999999898
-0.07632632632632676 	299.9999999999502 	1.04289284025907e-12 	101324.9999999897
-0.07382382382382424 	299.9999999998799 	1.394817155366104e-12 	101324.9999999899
-0.07132132132132173 	300.0000000000115 	1.135815367092817e-12 	101324.9999999899
-0.06881881881881925 	299.9999999999562 	1.367028497074602e-12 	101324.9999999898
-0.06631631631631671 	299.9999999998793 	1.652255426055222e-12 	101324.9999999896
-0.06381381381381425 	299.9999999999472 	1.996876240064843e-12 	101324.9999999896
-0.06131131131131173 	299.9999999999492 	1.642737841071766e-12 	101324.9999999895
-0.05880880880880923 	299.9999999999042 	1.337449499751953e-12 	101324.9999999893
-0.05630630630630672 	299.9999999999606 	8.777853167380673e-13 	101324.9999999892
-0.05380380380380424 	300.0000000000136 	7.768896451309995e-13 	101324.9999999889
-0.05130130130130173 	300.0000000000136 	8.973771087476612e-13 	101324.9999999889
-0.04879879879879922 	299.9999999999343 	1.082309815785264e-12 	101324.9999999891
-0.04629629629629672 	299.9999999999185 	4.917856072237069e-13 	101324.9999999897
-0.04379379379379422 	299.9999999999086 	6.656137208484238e-13 	101324.9999999901
-0.04129129129129173 	299.9999999999732 	5.654591081593125e-13 	101324.9999999902
-0.03878878878878922 	299.9999999999765 	1.522482170303679e-12 	101324.9999999906
-0.03628628628628671 	299.9999999999754 	1.384706544100667e-12 	101324.9999999907
-0.03378378378378422 	299.9999999999159 	1.991154442499885e-12 	101324.9999999906
-0.03128128128128172 	299.9999999999627 	1.711819257882716e-12 	101324.9999999905
-0.02877877877877922 	299.9999999999624 	2.326335663939986e-12 	101324.9999999903
-0.0262762762762767 	299.9999999998851 	2.423913941505367e-12 	101324.9999999903
-0.02377377377377422 	300.0000000000273 	2.688303442672741e-12 	101324.9999999904
-0.0212712712712717 	299.9999999998905 	2.757758489650374e-12 	101324.9999999902
-0.01876876876876921 	299.9999999999638 	2.190045786537278e-12 	101324.9999999901
-0.01626626626626671 	300.0000000000143 	2.975689219295663e-12 	101324.9999999901
-0.0137637637637642 	299.9999999999608 	2.044612767889448e-12 	101324.9999999899
-0.0112612612612617 	300.0000000000182 	2.270635688652376e-12 	101324.9999999898
-0.008758758758759198 	299.9999999999943 	2.16635982062498e-12 	101324.9999999897
-0.006256256256256697 	299.999999999866 	2.29509743547903e-12 	101324.9999999895
-0.003753753753754195 	299.9999999999462 	1.077122491228496e-12 	101324.9999999895
-0.001251251251251693 	299.9999999999123 	1.946117027545579e-12 	101324.9999999897
0.00125125125125081 	299.9999999999453 	1.261299067627651e-12 	101324.9999999896
0.003753753753753312 	299.9999999999589 	2.237861958779542e-12 	101324.9999999898
0.006256256256255817 	299.9999999998659 	1.202661413709278e-12 	101324.9999999899
0.008758758758758317 	299.9999999999873 	1.520205529226017e-12 	101324.9999999897
0.01126126126126082 	300.0000000000096 	1.324186961192051e-12 	101324.9999999895
0.01376376376376332 	299.9999999999647 	1.503298366541639e-12 	101324.9999999895
0.01626626626626582 	300.0000000000073 	8.796309900207259e-13 	101324.9999999892
0.01876876876876833 	299.99999999995 	9.873399260808969e-13 	101324.9999999894
0.02127127127127083 	299.999999999965 	6.944341547169646e-13 	101324.9999999897
0.02377377377377332 	299.9999999999917 	2.099656538095356e-13 	101324.9999999897
0.02627627627627583 	299.999999999889 	5.021885736074675e-13 	101324.9999999898
0.02877877877877833 	300.0000000000089 	1.577217914447767e-12 	101324.9999999897
0.03128128128128083 	299.9999999999368 	9.848886202795984e-13 	101324.9999999895
0.03378378378378333 	299.9999999998875 	1.998944076021603e-12 	101324.9999999893
0.03628628628628584 	299.9999999999636 	1.891286120589656e-12 	101324.9999999895
0.03878878878878834 	299.9999999999745 	2.177468856784043e-12 	101324.9999999896
0.04129129129129084 	299.9999999999738 	2.405528118953945e-12 	101324.9999999895
0.04379379379379333 	299.9999999999308 	1.673884064825624e-12 	101324.9999999896
0.04629629629629585 	299.9999999998723 	1.554702024575246e-12 	101324.9999999895
0.04879879879879834 	299.9999999999421 	1.525396810930662e-12 	101324.9999999895
0.05130130130130085 	300.0000000000136 	9.59538936461131e-13 	101324.9999999895
0.05380380380380335 	300.0000000000224 	5.532818880902341e-13 	101324.9999999898
0.05630630630630584 	299.9999999999844 	5.508338433559603e-13 	101324.9999999899
0.05880880880880836 	299.9999999999111 	4.076799219682354e-13 	101324.99999999
0.06131131131131085 	299.9999999999688 	3.113902423004845e-13 	101324.9999999898
0.06381381381381336 	299.9999999999572 	8.220458254704114e-14 	101324.9999999899
0.06631631631631586 	299.9999999998736 	5.686571125729235e-13 	101324.9999999899
0.06881881881881835 	299.9999999999382 	2.962961859084385e-13 	101324.9999999899
0.07132132132132088 	299.9999999999845 	5.573407457712259e-13 	101324.9999999901
0.07382382382382337 	299.9999999998856 	1.036411450654694e-13 	101324.9999999902
0.07632632632632587 	299.999999999967 	5.386175944308564e-13 	101324.9999999901
0.07882882882882837 	299.9999999999279 	6.19424705011026e-13 	101324.9999999902
0.08133133133133086 	299.9999999999861 	9.734144625514009e-13 	101324.9999999902
0.08383383383383337 	299.9999999999852 	5.689428096608431e-13 	101324.99999999
0.08633633633633589 	299.9999999998922 	4.142798683582614e-13 	101324.99999999
0.08883883883883838 	300.0000000000085 	8.735275392076114e-13 	101324.9999999896
0.09134134134134086 	299.9999999999818 	4.878236711186247e-13 	101324.9999999892
0.09384384384384339 	299.9999999998784 	1.483852326204567e-12 	101324.9999999894
0.09634634634634588 	299.9999999999601 	1.706244719267485e-12 	101324.9999999897
0.09884884884884838 	299.999999999967 	1.549286666770684e-12 	101324.9999999898
0.1013513513513509 	300.0000000000273 	1.19784102376e-12 	101324.99999999
0.1038538538538534 	299.9999999999425 	1.493953102490752e-12 	101324.9999999899
0.1063563563563559 	300.0000000000198 	2.162691346400667e-12 	101324.9999999899
0.1088588588588584 	300.0000000000268 	1.815743347540739e-12 	101324.9999999902
0.1113613613613609 	299.99999999991 	1.953847896579915e-12 	101324.9999999902
0.1138638638638634 	299.9999999999344 	2.4738884678943e-12 	101324.9999999903
0.1163663663663659 	299.9999999999365 	2.758282232586452e-12 	101324.9999999902
0.1188688688688684 	299.9999999999665 	2.917020607907482e-12 	101324.9999999902
0.1213713713713709 	299.9999999999943 	1.921826514663789e-12 	101324.9999999901
0.1238738738738734 	299.9999999999125 	2.183453331126208e-12 	101324.9999999896
0.1263763763763759 	299.9999999999825 	2.155855582569588e-12 	101324.9999999897
0.1288788788788784 	299.9999999999844 	1.323757064787136e-12 	101324.9999999896
0.1313813813813809 	299.9999999999838 	1.095752401626979e-12 	101324.9999999898
0.1338838838838834 	299.9999999999719 	1.111073641137389e-12 	101324.9999999896
0.1363863863863859 	300.0000000000352 	1.604879044379957e-12 	101324.9999999896
0.1388888888888884 	300.0000000000538 	1.799702655208259e-12 	101324.9999999891
0.1413913913913909 	299.9999999999981 	1.418024514933576e-12 	101324.9999999893
0.1438938938938934 	299.9999999999873 	2.275111784901146e-12 	101324.9999999891
0.1463963963963959 	299.9999999999575 	1.57448182534709e-12 	101324.999999989
0.1488988988988985 	299.9999999998972 	2.798028646902917e-12 	101324.999999989
0.1514014014014009 	299.9999999999625 	8.814444642998935e-13 	101324.9999999888
0.1539039039039035 	299.9999999999565 	2.468840927607536e-12 	101324.9999999887
0.1564064064064059 	299.9999999999234 	8.716801030286607e-13 	101324.999999989
0.1589089089089084 	299.9999999999734 	2.1874505158897e-12 	101324.9999999893
0.1614114114114109 	299.9999999999679 	7.00184082153427e-13 	101324.9999999893
0.1639139139139134 	299.9999999998981 	1.66598899374862e-12 	101324.9999999894
0.166416416416416 	300.0000000000027 	6.372252430640505e-13 	101324.9999999894
0.1689189189189185 	300.0000000000355 	3.572309860086603e-13 	101324.9999999895
0.1714214214214209 	299.9999999999936 	5.964780926718204e-13 	101324.9999999894
0.1739239239239235 	299.9999999999887 	1.001095710799974e-12 	101324.9999999893
0.1764264264264259 	299.9999999999609 	1.787632625341907e-12 	101324.9999999892
0.1789289289289284 	300.0000000000085 	1.052269959259604e-12 	101324.9999999891
0.181431431431431 	299.9999999999585 	2.558940620730755e-12 	101324.9999999891
0.1839339339339334 	299.9999999999635 	1.236511945628914e-12 	101324.9999999891
0.186436436436436 	299.9999999999134 	3.323232806649974e-12 	101324.9999999894
0.1889389389389385 	299.99999999998 	3.04731999286518e-12 	101324.9999999892
0.191441441441441 	299.9999999999739 	2.59967248573407e-12 	101324.999999989
0.1939439439439434 	299.9999999999094 	3.875867659614313e-12 	101324.9999999889
0.196446446446446 	299.9999999999355 	2.729184254709189e-12 	101324.999999989
0.1989489489489485 	299.9999999999642 	5.134577234534992e-12 	101324.999999989
0.2014514514514509 	299.9999999999785 	2.851646705449139e-12 	101324.999999989
0.2039539539539535 	299.9999999999918 	3.855487212246706e-12 	101324.9999999889
0.2064564564564559 	299.9999999999519 	2.770143640327833e-12 	101324.999999989
0.2089589589589585 	299.9999999999741 	3.005007605501508e-12 	101324.9999999891
0.211461461461461 	299.9999999999243 	3.17067267979392e-12 	101324.9999999891
0.2139639639639635 	299.9999999999813 	3.094700797436756e-12 	101324.9999999893
0.2164664664664659 	299.9999999999939 	4.226418890813269e-12 	101324.9999999895
0.2189689689689684 	299.9999999999939 	2.207472666318179e-12 	101324.9999999894
0.221471471471471 	299.9999999999952 	4.56158231299798e-12 	101324.9999999895
0.2239739739739735 	299.9999999999462 	2.688225571475452e-12 	101324.9999999896
0.226476476476476 	299.9999999999781 	3.996969283725441e-12 	101324.9999999897
0.2289789789789785 	299.9999999999966 	2.511180857872144e-12 	101324.9999999899
0.231481481481481 	299.9999999999853 	2.236077050466577e-12 	101324.99999999
0.2339839839839835 	299.9999999999857 	2.689385259900932e-12 	101324.9999999898
0.236486486486486 	300.0000000000229 	1.878151055115521e-12 	101324.9999999896
0.2389889889889885 	299.9999999999987 	2.842978083339569e-12 	101324.9999999896
0.241491491491491 	299.99999999991 	6.637580246869304e-13 	101324.9999999893
0.2439939939939935 	299.9999999999758 	4.010152044520232e-12 	101324.9999999891
0.246496496496496 	299.9999999999907 	1.809242894790421e-12 	101324.9999999892
0.2489989989989985 	300.0000000000386 	3.191372992273688e-12 	101324.9999999892
0.251501501501501 	300.0000000000316 	2.345847682015716e-12 	101324.9999999891
0.2540040040040035 	299.9999999999824 	2.498390369794767e-12 	101324.9999999892
0.256506506506506 	300.0000000000288 	3.162062609647835e-12 	101324.9999999892
0.2590090090090086 	299.9999999998914 	1.796228944687578e-12 	101324.9999999892
0.261511511511511 	299.9999999999944 	4.347913959792969e-12 	101324.9999999892
0.2640140140140135 	299.9999999999861 	1.926839187308224e-12 	101324.9999999891
0.2665165165165161 	299.9999999999192 	4.098303909454766e-12 	101324.9999999892
0.2690190190190185 	300.0000000000065 	3.091927081132964e-12 	101324.9999999893
0.271521521521521 	300.0000000000108 	3.798813098641313e-12 	101324.9999999896
0.2740240240240235 	300.0000000000177 	3.435821848306191e-12 	101324.9999999893
0.276526526526526 	300.0000000000055 	3.054591370121793e-12 	101324.9999999892
0.2790290290290286 	299.9999999999301 	4.183567068875161e-12 	101324.9999999894
0.281531531531531 	299.999999999918 	2.83151726209585e-12 	101324.9999999893
0.2840340340340335 	299.9999999999757 	3.349397310439396e-12 	101324.9999999892
0.2865365365365361 	299.9999999999524 	2.054598311577539e-12 	101324.9999999893
0.2890390390390385 	299.9999999999969 	2.074852732786918e-12 	101324.9999999892
0.291541541541541 	299.9999999999963 	1.820141601037546e-12 	101324.9999999892
0.2940440440440436 	299.9999999999895 	2.785138055728958e-13 	101324.9999999893
0.296546546546546 	299.9999999999864 	2.104537137245372e-12 	101324.9999999892
0.2990490490490486 	299.9999999999257 	1.967508296211267e-12 	101324.9999999892
0.3015515515515511 	300.0000000000434 	3.03558527291603e-12 	101324.9999999889
0.3040540540540535 	299.9999999999953 	3.404877615177636e-12 	101324.9999999891
0.3065565565565562 	299.9999999999947 	3.662638677670964e-12 	101324.9999999889
0.3090590590590585 	299.9999999999847 	3.417909104766802e-12 	101324.9999999888
0.3115615615615611 	299.9999999999288 	2.95072992591242e-12 	101324.9999999888
0.3140640640640635 	300.0000000000036 	1.637937860670349e-12 	101324.9999999888
0.316566566566566 	299.9999999999893 	2.85604674108633e-12 	101324.999999989
0.3190690690690687 	299.9999999999473 	1.191408874138819e-12 	101324.9999999891
0.3215715715715711 	300.0000000000146 	2.483590770535594e-12 	101324.9999999894
0.3240740740740735 	299.9999999999951 	1.754599960924888e-12 	101324.9999999897
0.326576576576576 	299.9999999998884 	1.00356409269999e-12 	101324.9999999897
0.3290790790790786 	300.0000000000096 	1.173341809310688e-12 	101324.99999999
0.3315815815815811 	300.0000000000367 	4.12410693171268e-13 	101324.9999999903
0.3340840840840836 	299.9999999999847 	1.656879736116179e-12 	101324.9999999899
0.3365865865865861 	300.0000000000619 	2.893195313145455e-13 	101324.9999999898
0.3390890890890886 	300.0000000000545 	1.859067184470864e-12 	101324.9999999896
0.3415915915915911 	300.0000000000022 	3.758061284039799e-13 	101324.9999999895
0.3440940940940935 	299.9999999999458 	1.320085768857914e-12 	101324.9999999896
0.3465965965965962 	300.0000000000396 	7.104730851404131e-13 	101324.9999999896
0.3490990990990985 	300.0000000000305 	1.071169096756376e-12 	101324.9999999897
0.3516016016016011 	299.9999999999851 	1.098992711509957e-12 	101324.9999999897
0.3541041041041035 	300.0000000000093 	1.488185411165699e-12 	101324.9999999898
0.3566066066066061 	299.9999999999515 	2.323371003384703e-12 	101324.9999999899
0.3591091091091085 	299.9999999999084 	9.170773419233752e-13 	101324.9999999899
0.3616116116116112 	299.9999999999266 	2.626957366970458e-12 	101324.9999999899
0.3641141141141137 	299.9999999999179 	1.858892201804276e-12 	101324.9999999898
0.3666166166166161 	299.9999999999151 	2.37150660200863e-12 	101324.9999999898
0.3691191191191185 	300.0000000000488 	3.350413367155007e-12 	101324.9999999897
0.371621621621621 	300.0000000000207 	2.464070016846115e-12 	101324.9999999897
0.3741241241241237 	300.00000000006 	2.357540956514048e-12 	101324.9999999897
0.3766266266266261 	300.0000000000316 	2.029635006479129e-12 	101324.9999999897
0.3791291291291286 	299.9999999999783 	1.8936247709105e-12 	101324.9999999897
0.3816316316316311 	299.9999999999077 	1.370369328714627e-12 	101324.9999999896
0.3841341341341336 	300.00000000001 	2.041884631807569e-12 	101324.9999999894
0.3866366366366362 	299.999999999996 	1.019833526102346e-12 	101324.9999999894
0.3891391391391387 	299.9999999999455 	1.44851231368682e-12 	101324.9999999896
0.391641641641641 	299.9999999999945 	7.003132948127529e-13 	101324.9999999894
0.3941441441441436 	300.0000000000082 	9.035130361161466e-13 	101324.9999999894
0.3966466466466462 	299.9999999999993 	1.076337470040698e-12 	101324.9999999896
0.3991491491491486 	299.9999999999446 	4.152372026146155e-13 	101324.9999999897
0.4016516516516512 	299.9999999999108 	1.350270637439841e-12 	101324.9999999899
0.4041541541541536 	299.9999999999444 	1.010014993912789e-12 	101324.9999999898
0.4066566566566561 	299.9999999999428 	7.627912528373444e-13 	101324.9999999899
0.4091591591591587 	299.9999999999949 	1.498699708808144e-12 	101324.9999999898
0.4116616616616612 	300.0000000000093 	3.216975478901531e-13 	101324.9999999896
0.4141641641641635 	300.0000000000476 	6.913372321999396e-13 	101324.9999999894
0.4166666666666662 	299.9999999999905 	8.087441190901312e-13 	101324.9999999895
0.4191691691691687 	299.9999999999304 	1.25697466650523e-12 	101324.9999999895
0.421671671671671 	300.0000000000114 	1.745580904851782e-12 	101324.9999999894
0.4241741741741737 	299.9999999999698 	2.877691559953628e-12 	101324.9999999893
0.4266766766766761 	299.9999999999447 	2.207783530390217e-12 	101324.9999999895
0.4291791791791785 	300.0000000000202 	3.475690259605275e-12 	101324.9999999895
0.4316816816816812 	300.0000000000125 	3.000278951738758e-12 	101324.9999999893
0.4341841841841836 	299.9999999999835 	2.877991924569462e-12 	101324.9999999896
0.4366866866866862 	299.9999999999141 	2.512216901122126e-12 	101324.9999999898
0.4391891891891885 	299.9999999999866 	1.690688880576696e-12 	101324.9999999898
0.4416916916916913 	299.9999999999808 	1.653526686936956e-12 	101324.9999999897
0.4441941941941936 	299.9999999999857 	1.911034773794822e-12 	101324.9999999898
0.4466966966966961 	299.9999999999099 	4.434412642071617e-13 	101324.9999999897
0.4491991991991987 	299.9999999999756 	1.082262282855854e-12 	101324.9999999893
0.4517017017017012 	299.9999999999739 	5.337560800644643e-13 	101324.9999999891
0.4542042042042035 	299.9999999999783 	1.10461280307669e-12 	101324.9999999889
0.4567067067067062 	299.9999999999873 	1.16305351359161e-12 	101324.9999999887
0.4592092092092087 	299.9999999999168 	1.26909029027736e-12 	101324.9999999889
0.4617117117117112 	300.0000000000181 	1.23311632304138e-12 	101324.9999999893
0.4642142142142137 	299.9999999999573 	1.364748857673077e-12 	101324.9999999893
0.4667167167167162 	299.9999999999861 	5.992345733649611e-13 	101324.9999999893
0.4692192192192187 	299.9999999999497 	3.540914160504956e-13 	101324.9999999893
0.4717217217217212 	300.0000000000136 	3.655478753714872e-13 	101324.9999999892
0.4742242242242236 	299.9999999999502 	8.063647938908731e-13 	101324.9999999892
0.4767267267267262 	299.999999999975 	1.357011639809268e-12 	101324.9999999893
0.4792292292292287 	300.0000000000126 	9.441938098812603e-13 	101324.9999999891
0.4817317317317312 	300.0000000000315 	4.301785693674008e-13 	101324.9999999892
0.4842342342342336 	299.9999999999834 	6.30642460426008e-13 	101324.9999999894
0.4867367367367362 	299.9999999999471 	4.511137282354312e-13 	101324.9999999894
0.4892392392392387 	300.0000000000264 	1.633953831703141e-12 	101324.9999999897
0.4917417417417412 	300.0000000000032 	5.234332201113999e-13 	101324.9999999899
0.4942442442442437 	299.9999999998984 	1.376193988436166e-12 	101324.99999999
0.4967467467467462 	299.9999999999216 	1.047670627991067e-12 	101324.99999999
0.4992492492492487 	299.9999999999089 	9.97047043041728e-13 	101324.9999999899
0.5017517517517511 	299.9999999999486 	1.233499709305514e-13 	101324.9999999898
0.5042542542542537 	299.9999999999597 	5.210548851941305e-13 	101324.9999999897
0.5067567567567562 	299.9999999999354 	8.959129816169426e-13 	101324.9999999894
0.5092592592592589 	299.9999999999633 	6.553415780061723e-13 	101324.9999999893
0.5117617617617611 	299.9999999999518 	2.071607881891219e-12 	101324.999999989
0.5142642642642637 	299.9999999999797 	1.189812612220352e-12 	101324.9999999888
0.5167667667667663 	299.9999999999659 	3.244092899288858e-12 	101324.9999999888
0.5192692692692688 	299.9999999999156 	2.889888835308363e-12 	101324.999999989
0.5217717717717714 	299.9999999999328 	3.741565583310132e-12 	101324.9999999891
0.5242742742742736 	299.9999999999373 	2.419179788311848e-12 	101324.999999989
0.5267767767767763 	299.9999999999535 	3.45157928959783e-12 	101324.9999999892
0.5292792792792789 	299.9999999999336 	1.378764487377427e-12 	101324.9999999892
0.5317817817817813 	299.9999999998956 	2.898261767929291e-12 	101324.9999999893
0.5342842842842837 	300.0000000000173 	1.062944865159895e-12 	101324.9999999893
0.5367867867867864 	300.0000000000056 	2.368177878187657e-12 	101324.9999999895
0.5392892892892888 	299.9999999999547 	1.359531006460546e-12 	101324.9999999896
0.5417917917917912 	300.0000000000052 	2.976592060686059e-12 	101324.9999999898
0.5442942942942938 	299.9999999999786 	1.927442991219117e-12 	101324.9999999899
0.5467967967967964 	299.9999999999483 	2.624818630426743e-12 	101324.9999999899
0.5492992992992988 	299.9999999999373 	1.69263985820436e-12 	101324.9999999899
0.5518018018018012 	299.9999999999307 	2.719358175516264e-12 	101324.9999999899
0.5543043043043039 	300.0000000000238 	2.120609796928001e-12 	101324.9999999899
0.5568068068068063 	299.9999999999909 	2.704670750803234e-12 	101324.9999999899
0.5593093093093087 	299.9999999998961 	1.600784428662198e-12 	101324.99999999
0.5618118118118114 	299.9999999999591 	3.481002221268297e-12 	101324.9999999897
0.5643143143143137 	299.9999999999413 	3.162084563547177e-12 	101324.9999999896
0.5668168168168163 	299.9999999999878 	4.262225166875187e-12 	101324.9999999896
0.5693193193193188 	300.000000000031 	4.465503943793179e-12 	101324.9999999898
0.5718218218218213 	300.0000000000263 	3.866883015700911e-12 	101324.9999999898
0.5743243243243239 	300.0000000000094 	5.187634578262372e-12 	101324.9999999902
0.5768268268268262 	300.0000000000077 	3.189247060071686e-12 	101324.9999999905
0.5793293293293288 	299.9999999999498 	5.446780019167299e-12 	101324.9999999907
0.5818318318318314 	299.9999999999169 	2.109368711682332e-12 	101324.9999999909
0.5843343343343338 	299.9999999999795 	5.521746022617983e-12 	101324.9999999909
0.5868368368368363 	299.999999999974 	1.505955705536357e-12 	101324.999999991
0.5893393393393387 	299.9999999999403 	4.207863151935248e-12 	101324.9999999908
0.5918418418418413 	299.999999999934 	1.4052820573411e-12 	101324.9999999905
0.5943443443443439 	300.0000000000113 	3.602743369878437e-12 	101324.9999999903
0.5968468468468463 	300.0000000000176 	1.572093317720862e-12 	101324.9999999901
0.5993493493493487 	300.0000000000434 	3.086694481438585e-12 	101324.9999999903
0.6018518518518514 	299.9999999999792 	1.554479017043714e-12 	101324.9999999905
0.6043543543543537 	299.9999999999925 	2.929236355963619e-12 	101324.9999999904
0.6068568568568564 	299.9999999999783 	1.726023766924405e-12 	101324.9999999905
0.6093593593593587 	299.999999999922 	3.062658103891969e-12 	101324.9999999904
0.6118618618618614 	299.9999999999185 	2.41350295891482e-12 	101324.9999999903
0.6143643643643638 	300.000000000019 	3.56280370000834e-12 	101324.9999999901
0.6168668668668662 	299.9999999999829 	2.016480858466613e-12 	101324.9999999901
0.6193693693693688 	299.9999999999513 	3.648075958663067e-12 	101324.9999999903
0.6218718718718714 	299.9999999999606 	2.363024436766924e-12 	101324.9999999904
0.6243743743743737 	299.9999999999275 	3.642978136092418e-12 	101324.9999999905
0.6268768768768762 	299.9999999999202 	2.248049297092153e-12 	101324.9999999905
0.629379379379379 	299.9999999999488 	2.995175141940395e-12 	101324.9999999904
0.6318818818818812 	299.9999999999737 	2.509848996299675e-12 	101324.9999999903
0.6343843843843838 	300.0000000000173 	2.188392151816136e-12 	101324.9999999905
0.6368868868868864 	299.9999999999798 	2.747879614438969e-12 	101324.9999999905
0.6393893893893888 	299.999999999915 	1.632753048253772e-12 	101324.9999999907
0.6418918918918912 	300.0000000000111 	4.734767924370664e-12 	101324.9999999905
0.6443943943943939 	299.9999999999974 	2.648138125165996e-12 	101324.9999999905
0.6468968968968963 	299.9999999999872 	4.910497090144797e-12 	101324.9999999905
0.6493993993993988 	299.9999999999731 	2.240631343798426e-12 	101324.9999999907
0.6519019019019012 	299.9999999999714 	4.244791022457191e-12 	101324.9999999909
0.6544044044044038 	299.9999999998947 	1.818682535635254e-12 	101324.9999999908
0.6569069069069065 	299.9999999999496 	4.48409309003857e-12 	101324.9999999909
0.6594094094094087 	299.9999999999596 	2.462651115380905e-12 	101324.9999999907
0.6619119119119113 	299.9999999999492 	4.569156631938301e-12 	101324.9999999907
0.664414414414414 	299.9999999999992 	2.33696278732882e-12 	101324.9999999908
0.6669169169169162 	300.0000000000233 	3.548639214927257e-12 	101324.9999999907
0.6694194194194188 	299.9999999999857 	1.969633184277351e-12 	101324.9999999906
0.6719219219219214 	299.9999999999138 	3.321229256046538e-12 	101324.9999999905
0.674424424424424 	299.9999999999649 	2.24754750240835e-12 	101324.9999999905
0.6769269269269262 	299.99999999991 	3.596977407447865e-12 	101324.9999999904
0.679429429429429 	300.0000000000047 	2.820600086545804e-12 	101324.9999999903
0.6819319319319311 	299.9999999999823 	3.734380438869697e-12 	101324.9999999904
0.6844344344344341 	299.9999999999947 	2.728634363656921e-12 	101324.9999999906
0.686936936936936 	299.9999999999881 	3.445129279019014e-12 	101324.9999999907
0.6894394394394392 	299.9999999999822 	2.251553924687179e-12 	101324.9999999907
0.6919419419419413 	299.9999999999862 	2.19885061848551e-12 	101324.9999999907
0.694444444444444 	299.9999999999326 	2.072722089984836e-12 	101324.9999999907
0.6969469469469463 	299.9999999999228 	2.535050686878176e-12 	101324.9999999906
0.6994494494494489 	299.9999999999131 	3.732790935272712e-12 	101324.9999999905
0.7019519519519515 	299.9999999999845 	3.642586945651237e-12 	101324.9999999904
0.7044544544544538 	299.9999999999512 	5.195979346486556e-12 	101324.9999999901
0.7069569569569564 	299.9999999999983 	3.228729126225176e-12 	101324.9999999901
0.7094594594594589 	299.9999999999654 	5.20495041757627e-12 	101324.9999999902
0.7119619619619615 	299.9999999999079 	3.059544234535993e-12 	101324.9999999902
0.7144644644644638 	299.9999999999485 	4.739960279574268e-12 	101324.99999999
0.7169669669669665 	299.9999999999134 	3.368788361469876e-12 	101324.99999999
0.7194694694694688 	299.9999999999902 	4.3192027621672e-12 	101324.99999999
0.7219719719719715 	299.9999999999849 	3.22892819105169e-12 	101324.9999999897
0.7244744744744737 	300.0000000000014 	3.350534304009558e-12 	101324.9999999898
0.7269769769769764 	299.9999999999907 	3.327336026434244e-12 	101324.9999999899
0.7294794794794791 	299.9999999999846 	2.287807227021724e-12 	101324.9999999902
0.7319819819819813 	299.9999999999772 	3.600344440126082e-12 	101324.9999999905
0.7344844844844839 	299.9999999999188 	2.300755005224155e-12 	101324.9999999904
0.7369869869869864 	299.9999999999467 	3.357212905018252e-12 	101324.9999999903
0.739489489489489 	299.9999999999357 	3.083124729526268e-12 	101324.9999999901
0.7419919919919914 	299.9999999999244 	3.115972159345362e-12 	101324.9999999902
0.7444944944944939 	299.9999999999756 	3.881180690535473e-12 	101324.9999999902
0.7469969969969963 	299.9999999999669 	2.812455027841729e-12 	101324.9999999904
0.7494994994994989 	299.9999999999416 	4.932155824289037e-12 	101324.9999999905
0.7520020020020015 	299.9999999999727 	2.324723084043533e-12 	101324.9999999906
0.7545045045045039 	299.999999999967 	4.568838761188423e-12 	101324.9999999908
0.7570070070070062 	299.9999999999335 	2.277204175669398e-12 	101324.9999999908
0.7595095095095092 	299.9999999999289 	4.192461971140263e-12 	101324.9999999908
0.7620120120120112 	300.0000000000108 	3.313691778166669e-12 	101324.9999999907
0.7645145145145138 	299.9999999999856 	3.653384164137685e-12 	101324.9999999906
0.7670170170170165 	299.9999999999241 	3.977921083833728e-12 	101324.9999999907
0.7695195195195191 	299.9999999999223 	3.431812827364787e-12 	101324.9999999908
0.7720220220220213 	299.9999999999267 	5.253831231402608e-12 	101324.9999999909
0.7745245245245239 	299.9999999999241 	3.378128425715211e-12 	101324.9999999908
0.7770270270270263 	299.9999999999626 	5.135192064809423e-12 	101324.9999999908
0.779529529529529 	299.9999999999804 	4.295798558661276e-12 	101324.9999999909
0.7820320320320313 	299.9999999999721 	4.814347264131419e-12 	101324.999999991
0.784534534534534 	300.0000000000031 	4.439371860529135e-12 	101324.999999991
0.7870370370370364 	299.9999999999943 	3.80870081188499e-12 	101324.999999991
0.7895395395395389 	299.9999999999782 	4.615005773165444e-12 	101324.9999999909
0.7920420420420413 	299.9999999999674 	3.055250782275171e-12 	101324.9999999907
0.794544544544544 	299.9999999999648 	4.677587182045938e-12 	101324.9999999909
0.7970470470470463 	299.9999999999994 	2.341039886049978e-12 	101324.9999999911
0.799549549549549 	299.9999999999816 	4.487219099276053e-12 	101324.9999999911
0.8020520520520515 	299.9999999999862 	2.338640384948078e-12 	101324.9999999912
0.8045545545545539 	299.9999999999421 	4.600047646612924e-12 	101324.9999999913
0.8070570570570563 	299.9999999999719 	3.742462680014839e-12 	101324.9999999915
0.8095595595595589 	299.9999999999478 	4.545852791189033e-12 	101324.9999999916
0.8120620620620614 	299.999999999934 	4.308228248369141e-12 	101324.9999999917
0.8145645645645638 	300.0000000000023 	4.141792927700349e-12 	101324.9999999918
0.8170670670670666 	299.9999999999955 	4.679276351912052e-12 	101324.9999999917
0.8195695695695689 	299.9999999999753 	3.488029681838929e-12 	101324.9999999916
0.8220720720720714 	299.9999999999393 	5.050042186595448e-12 	101324.9999999916
0.8245745745745739 	299.9999999999879 	2.733450418271078e-12 	101324.9999999916
0.8270770770770765 	299.9999999999634 	3.963753391138435e-12 	101324.9999999916
0.8295795795795788 	299.9999999999446 	3.144207495416202e-12 	101324.9999999917
0.8320820820820815 	300.0000000000134 	4.014343566379448e-12 	101324.9999999919
0.834584584584584 	300.0000000000086 	3.413222081680693e-12 	101324.999999992
0.8370870870870865 	299.9999999999683 	3.192918160556453e-12 	101324.9999999919
0.8395895895895891 	299.9999999999228 	3.899760506012492e-12 	101324.9999999919
0.8420920920920915 	299.9999999999406 	3.607060261859084e-12 	101324.9999999918
0.844594594594594 	299.9999999999333 	3.915993716503516e-12 	101324.9999999917
0.8470970970970964 	299.9999999999407 	3.703293944353765e-12 	101324.9999999916
0.8495995995995991 	299.9999999999826 	3.336523732950547e-12 	101324.9999999916
0.8521021021021015 	299.9999999999756 	3.326058334229747e-12 	101324.9999999915
0.8546046046046039 	299.9999999999744 	2.598160301194607e-12 	101324.9999999914
0.8571071071071066 	299.9999999999947 	3.62904417799423e-12 	101324.9999999913
0.8596096096096089 	299.9999999999546 	2.137573867317453e-12 	101324.9999999914
0.8621121121121116 	299.9999999999243 	4.454187167038735e-12 	101324.9999999914
0.8646146146146139 	299.9999999999954 	2.545152258576746e-12 	101324.9999999913
0.8671171171171166 	299.9999999999676 	3.912625262174364e-12 	101324.9999999914
0.8696196196196189 	299.9999999999343 	3.556079179307749e-12 	101324.9999999914
0.8721221221221216 	299.9999999999791 	4.649546404464911e-12 	101324.9999999915
0.874624624624624 	299.999999999995 	4.773435304107547e-12 	101324.9999999915
0.8771271271271264 	299.9999999999954 	4.666497011335977e-12 	101324.9999999916
0.879629629629629 	300.0000000000115 	4.863259075867181e-12 	101324.9999999916
0.8821321321321317 	299.9999999999802 	3.032362081211461e-12 	101324.9999999916
0.8846346346346339 	299.9999999999185 	4.698800732412364e-12 	101324.9999999914
0.8871371371371364 	299.9999999999546 	2.956756914874429e-12 	101324.9999999915
0.8896396396396391 	299.9999999999673 	4.390325695911188e-12 	101324.9999999918
0.8921421421421414 	299.999999999966 	3.462319276733992e-12 	101324.9999999919
0.8946446446446441 	299.999999999978 	4.659700085121137e-12 	101324.999999992
0.8971471471471464 	300.0000000000032 	4.349840539728087e-12 	101324.9999999919
0.8996496496496489 	299.9999999999822 	4.26928599567248e-12 	101324.999999992
0.9021521521521517 	299.9999999999695 	5.054034377198151e-12 	101324.9999999919
0.9046546546546541 	300.0000000000005 	4.329135122247521e-12 	101324.9999999917
0.9071571571571564 	299.9999999999542 	4.436510523163472e-12 	101324.9999999917
0.9096596596596589 	299.9999999999466 	3.953209689844702e-12 	101324.9999999917
0.9121621621621616 	299.9999999999981 	4.010393417235657e-12 	101324.9999999916
0.9146646646646639 	299.9999999999721 	4.242284510469039e-12 	101324.9999999915
0.9171671671671666 	299.999999999952 	4.423488971573578e-12 	101324.9999999916
0.9196696696696689 	300.0000000000027 	5.522038889464414e-12 	101324.9999999918
0.9221721721721714 	299.9999999999882 	4.025435630454539e-12 	101324.9999999921
0.9246746746746741 	299.9999999999351 	6.206219536015106e-12 	101324.9999999923
0.9271771771771765 	299.9999999999524 	4.680261858399043e-12 	101324.9999999925
0.9296796796796791 	299.9999999999895 	6.542381097664853e-12 	101324.9999999926
0.9321821821821816 	299.9999999999623 	5.328339487673197e-12 	101324.9999999926
0.9346846846846838 	299.9999999999469 	6.377759906530755e-12 	101324.9999999924
0.9371871871871866 	300.0000000000074 	6.337778884677857e-12 	101324.9999999923
0.9396896896896891 	300.000000000004 	6.866505713515858e-12 	101324.9999999923
0.9421921921921914 	300.0000000000004 	7.542985502744367e-12 	101324.9999999922
0.9446946946946939 	299.9999999999675 	6.68843830046773e-12 	101324.9999999923
0.9471971971971965 	299.9999999999252 	8.211332597201469e-12 	101324.9999999926
0.9496996996996991 	299.9999999999621 	6.344443030791533e-12 	101324.9999999927
0.9522022022022016 	299.9999999999771 	7.730603727241589e-12 	101324.9999999927
0.9547047047047038 	299.9999999999812 	6.640220060434672e-12 	101324.9999999926
0.9572072072072064 	299.9999999999583 	7.198684928378749e-12 	101324.9999999926
0.9597097097097093 	299.9999999999566 	6.676109113777569e-12 	101324.9999999927
0.9622122122122114 	299.9999999999554 	6.313822463691557e-12 	101324.9999999927
0.964714714714714 	299.9999999999454 	6.897687777591638e-12 	101324.9999999928
0.9672172172172167 	299.999999999949 	5.930577085368054e-12 	101324.9999999927
0.969719719719719 	299.9999999999814 	6.170119680152269e-12 	101324.9999999926
0.9722222222222214 	299.9999999999693 	5.408270500506069e-12 	101324.9999999925
0.9747247247247239 	299.9999999999667 	5.403865314811122e-12 	101324.9999999926
0.9772272272272267 	300.0000000000044 	5.504908833612539e-12 	101324.9999999927
0.9797297297297292 	299.9999999999811 	5.01372738002044e-12 	101324.9999999929
0.9822322322322313 	299.9999999999809 	5.972169287394066e-12 	101324.999999993
0.9847347347347344 	299.9999999999819 	4.959427652982517e-12 	101324.999999993
0.9872372372372363 	299.9999999999361 	7.476152772279238e-12 	101324.999999993
0.9897397397397389 	299.9999999999636 	5.705687765755273e-12 	101324.9999999928
0.9922422422422417 	299.9999999999496 	7.578616955774439e-12 	101324.9999999928
0.9947447447447441 	299.9999999999534 	6.456783268780298e-12 	101324.9999999928
0.9972472472472468 	299.9999999999578 	7.277933271455119e-12 	101324.9999999926
0.999749749749749 	299.9999999999634 	6.857523366668533e-12 	101324.9999999925
1.002252252252252 	299.9999999999825 	6.919136286554817e-12 	101324.9999999924
1.004754754754754 	299.9999999999944 	6.84489712227332e-12 	101324.9999999923
1.007257257257256 	299.9999999999741 	5.72887283376717e-12 	101324.9999999923
1.009759759759759 	299.9999999999578 	7.360061674905698e-12 	101324.9999999924
1.012262262262261 	299.999999999945 	5.613738126092014e-12 	101324.9999999927
1.014764764764764 	299.9999999999271 	7.059969175524176e-12 	101324.999999993
1.017267267267267 	299.9999999999197 	6.459379386459591e-12 	101324.9999999931
1.019769769769769 	299.9999999999607 	7.783216904387499e-12 	101324.999999993
1.022272272272272 	299.9999999999762 	7.511973821353103e-12 	101324.9999999926
1.024774774774774 	299.9999999999826 	7.852960310199842e-12 	101324.9999999923
1.027277277277277 	299.9999999999769 	8.555067749615689e-12 	101324.999999992
1.029779779779779 	300.0000000000026 	7.443233973250173e-12 	101324.9999999919
1.032282282282282 	300.0000000000042 	7.804182936537501e-12 	101324.9999999919
1.034784784784784 	299.9999999999948 	7.471472014589934e-12 	101324.999999992
1.037287287287286 	299.9999999999623 	8.000762335915183e-12 	101324.9999999922
1.039789789789789 	299.9999999999677 	8.099371586644834e-12 	101324.9999999924
1.042292292292291 	300.000000000004 	7.907462328543005e-12 	101324.9999999925
1.044794794794794 	300.0000000000217 	8.059677121415574e-12 	101324.9999999925
1.047297297297296 	300.0000000000368 	6.753137847481625e-12 	101324.9999999925
1.049799799799799 	299.9999999999923 	8.065113825741466e-12 	101324.9999999927
1.052302302302302 	299.9999999999511 	6.371819179028621e-12 	101324.9999999928
1.054804804804804 	299.9999999999277 	8.058710147683868e-12 	101324.9999999928
1.057307307307306 	299.9999999999204 	7.332681650419217e-12 	101324.9999999927
1.059809809809809 	299.9999999999578 	8.820724232118143e-12 	101324.9999999925
1.062312312312312 	299.9999999999523 	8.499992123282811e-12 	101324.9999999927
1.064814814814814 	299.999999999949 	8.804916229300631e-12 	101324.9999999928
1.067317317317317 	299.999999999925 	8.196160371567033e-12 	101324.9999999929
1.069819819819819 	299.9999999999196 	7.561950651337146e-12 	101324.9999999931
1.072322322322321 	299.9999999999843 	8.682458052923545e-12 	101324.9999999932
1.074824824824824 	300.0000000000067 	6.692277236033484e-12 	101324.9999999932
1.077327327327327 	300.0000000000266 	7.601278533640112e-12 	101324.9999999932
1.079829829829829 	300.0000000000392 	6.517313568378757e-12 	101324.9999999931
1.082332332332332 	299.9999999999947 	6.926795843458673e-12 	101324.9999999929
1.084834834834834 	299.9999999999654 	6.587865824546163e-12 	101324.9999999928
1.087337337337337 	299.9999999999362 	6.457584158302195e-12 	101324.9999999928
1.089839839839839 	299.9999999999243 	7.603363822690108e-12 	101324.9999999929
1.092342342342342 	299.9999999999603 	6.611965762466931e-12 	101324.9999999929
1.094844844844844 	299.9999999999611 	8.465110117651868e-12 	101324.9999999928
1.097347347347347 	299.9999999999316 	7.659987600811749e-12 	101324.9999999926
1.099849849849849 	299.9999999999221 	1.017710340571756e-11 	101324.9999999928
1.102352352352352 	299.9999999999516 	8.071654400761875e-12 	101324.9999999928
1.104854854854854 	299.9999999999699 	9.830865262066925e-12 	101324.9999999927
1.107357357357357 	299.999999999952 	8.08136942820678e-12 	101324.9999999928
1.109859859859859 	299.9999999999449 	9.682355822193652e-12 	101324.999999993
1.112362362362362 	300.0000000000155 	8.970853339153407e-12 	101324.9999999931
1.114864864864865 	300.0000000000146 	9.38511069887926e-12 	101324.9999999932
1.117367367367367 	299.9999999999596 	9.803361202903613e-12 	101324.9999999931
1.119869869869869 	299.9999999999184 	8.732711034591775e-12 	101324.9999999929
1.122372372372372 	299.999999999951 	1.001367337380469e-11 	101324.9999999927
1.124874874874874 	299.9999999999467 	9.281305351874567e-12 	101324.9999999925
1.127377377377377 	299.9999999999561 	1.039973588236649e-11 	101324.9999999926
1.129879879879879 	300.0000000000143 	1.003896991559264e-11 	101324.9999999926
1.132382382382382 	300.0000000000369 	1.071155633410044e-11 	101324.9999999925
1.134884884884884 	300.0000000000077 	1.025347198899305e-11 	101324.9999999923
1.137387387387387 	300.0000000000079 	1.014272846517082e-11 	101324.9999999921
1.139889889889889 	299.9999999999568 	1.119246209043135e-11 	101324.999999992
1.142392392392392 	299.9999999999527 	1.020093030932219e-11 	101324.999999992
1.144894894894894 	300.0000000000136 	1.151051614408312e-11 	101324.9999999919
1.147397397397397 	299.9999999999943 	1.034994212908796e-11 	101324.9999999919
1.149899899899899 	299.9999999999339 	1.091669163500491e-11 	101324.9999999919
1.152402402402402 	299.9999999999192 	9.999807422922189e-12 	101324.999999992
1.154904904904904 	299.9999999999563 	1.071405839540746e-11 	101324.9999999919
1.157407407407407 	299.9999999999569 	1.019854066426179e-11 	101324.9999999919
1.159909909909909 	299.9999999999281 	1.059864377095575e-11 	101324.9999999919
1.162412412412412 	299.9999999999246 	1.231086162493348e-11 	101324.9999999919
1.164914914914914 	299.9999999999529 	1.161761611149599e-11 	101324.999999992
1.167417417417417 	299.9999999999608 	1.30182561931851e-11 	101324.999999992
1.169919919919919 	300.0000000000105 	1.159580653701201e-11 	101324.9999999921
1.172422422422422 	300.000000000037 	1.166080571293837e-11 	101324.9999999923
1.174924924924925 	299.9999999999848 	1.008388624156406e-11 	101324.9999999925
1.177427427427427 	299.9999999999533 	1.046571090279515e-11 	101324.9999999929
1.179929929929929 	300.0000000000069 	1.095595125638576e-11 	101324.9999999932
1.182432432432432 	300.0000000000391 	9.16925045037736e-12 	101324.9999999933
1.184934934934934 	300.0000000000026 	9.635187651775547e-12 	101324.9999999933
1.187437437437437 	299.9999999999594 	8.642305810336942e-12 	101324.9999999932
1.189939939939939 	299.9999999999449 	9.838531235800374e-12 	101324.999999993
1.192442442442442 	299.999999999919 	9.417932984833069e-12 	101324.9999999928
1.194944944944944 	299.9999999999275 	1.029921931599698e-11 	101324.9999999926
1.197447447447447 	299.9999999999874 	9.210062063651309e-12 	101324.9999999926
1.199949949949949 	300.0000000000039 	8.821038120335586e-12 	101324.9999999926
1.202452452452452 	299.9999999999469 	9.561591718306803e-12 	101324.9999999926
1.204954954954955 	299.9999999999407 	8.707490694339791e-12 	101324.9999999926
1.207457457457457 	299.9999999999704 	9.897612347041749e-12 	101324.9999999927
1.20995995995996 	299.9999999999663 	9.21492799360024e-12 	101324.9999999926
1.212462462462462 	299.999999999981 	1.035619055151376e-11 	101324.9999999926
1.214964964964964 	299.9999999999849 	9.785664499831585e-12 	101324.9999999926
1.217467467467467 	299.9999999999841 	1.098591597469149e-11 	101324.9999999925
1.219969969969969 	299.9999999999679 	1.035854208565474e-11 	101324.9999999925
1.222472472472472 	300.0000000000148 	1.048169735688873e-11 	101324.9999999926
1.224974974974975 	300.0000000000413 	1.044688980412667e-11 	101324.9999999926
1.227477477477477 	299.9999999999899 	9.043577603865815e-12 	101324.9999999927
1.229979979979979 	299.9999999999729 	1.015337207050321e-11 	101324.9999999928
1.232482482482482 	299.9999999999448 	9.276059115377715e-12 	101324.9999999928
1.234984984984984 	299.9999999999429 	1.047552693527128e-11 	101324.9999999928
1.237487487487487 	299.9999999999664 	9.21011678126177e-12 	101324.9999999929
1.239989989989989 	299.9999999999717 	9.813155003211427e-12 	101324.999999993
1.242492492492492 	300.0000000000041 	1.01929091122886e-11 	101324.999999993
1.244994994994994 	299.9999999999758 	9.002212054982387e-12 	101324.999999993
1.247497497497497 	299.999999999977 	9.752705263848245e-12 	101324.9999999931
1.249999999999999 	300 	8.980180764680149e-12 	101324.9999999931
