-1.25 	300 	0.07300477039275502 	101354.3892626146
-1.247497497497497 	300.0286039110346 	0.08138489070962708 	101359.9657430349
-1.244994994994995 	300.0333358391704 	0.09649104082007162 	101364.4087492074
-1.242492492492492 	300.0366413598387 	0.1065881545151896 	101368.3208859397
-1.23998998998999 	300.0392824198244 	0.1134195862925522 	101371.4466074033
-1.237487487487487 	300.0411428153151 	0.1189434203892086 	101373.6466398412
-1.234984984984985 	300.0422192918317 	0.1220907952182268 	101374.9197887608
-1.232482482482482 	300.0426070417037 	0.1231530312557287 	101375.3783686372
-1.22997997997998 	300.0422261219928 	0.1220094457606414 	101374.9278981188
-1.227477477477477 	300.0410098511977 	0.1185324433778729 	101373.4896470544
-1.224974974974975 	300.0390086356654 	0.1127627106804767 	101371.1231524838
-1.222472472472472 	300.0362777118393 	0.104856978420297 	101367.8937399158
-1.21996996996997 	300.0328580710496 	0.09494983448458486 	101363.8499813973
-1.217467467467467 	300.0288313756907 	0.08332811445934603 	101359.0884814334
-1.214964964964965 	300.0243181176203 	0.0702770977941318 	101353.7518001013
-1.212462462462462 	300.019391843523 	0.05601959661183521 	101347.92696408
-1.20995995995996 	300.014118265705 	0.0407876501585998 	101341.6917410304
-1.207457457457457 	300.0086045402865 	0.02482334432949874 	101335.1728651469
-1.204954954954955 	300.0029330102172 	0.008445604314944209 	101328.4677076635
-1.202452452452452 	299.9971836196921 	0.008630629937316083 	101321.6708105276
-1.19994994994995 	299.9914744205307 	0.02467553789813987 	101314.9217642759
-1.197447447447447 	299.9859222435901 	0.04073455244970339 	101308.358615621
-1.194944944944945 	299.9806098389378 	0.05611647127480462 	101302.079178843
-1.192442442442442 	299.9756097060044 	0.07055096024975652 	101296.1691279132
-1.18993993993994 	299.9710562392451 	0.08368483165820226 	101290.787186075
-1.187437437437437 	299.9670776816939 	0.09522094547890633 	101286.0849336452
-1.184934934934935 	299.9637304080712 	0.1048882837560902 	101282.1288866933
-1.182432432432432 	299.9610542341241 	0.1125865819796422 	101278.9660531463
-1.17992992992993 	299.9590912624712 	0.1182489913896764 	101276.6461428366
-1.177427427427427 	299.9578503643932 	0.1218181874921469 	101275.1795353012
-1.174924924924925 	299.9573737366344 	0.1231961799869766 	101274.6162303725
-1.172422422422422 	299.9577159073182 	0.1222162020275666 	101275.0205620005
-1.16991991991992 	299.9588715627201 	0.1188675295761211 	101276.3862109628
-1.167417417417417 	299.960808251301 	0.1132452328096911 	101278.6749254419
-1.164914914914915 	299.9634917235624 	0.1055414710299551 	101281.8462221234
-1.162412412412412 	299.966831308755 	0.09593507553589266 	101285.7930557705
-1.15990990990991 	299.9707456291911 	0.08457371066471503 	101290.4192760224
-1.157407407407407 	299.9751746989327 	0.07172295739036104 	101295.6540524152
-1.154904904904904 	299.9800522278635 	0.05756706758024432 	101301.4191292323
-1.152402402402403 	299.98530716279 	0.04238173785082598 	101307.63053122
-1.1498998998999 	299.9908373460046 	0.02650217436470291 	101314.1676108011
-1.147397397397397 	299.9964790702509 	0.01016017071899696 	101320.8368606251
-1.144894894894895 	300.002142823622 	0.008667281487803156 	101327.5324648095
-1.142392392392392 	300.0078019269799 	0.02263920633546567 	101334.222917562
-1.13988988988989 	300.0133698872285 	0.03872030168554325 	101340.8059099023
-1.137387387387387 	300.0187268485091 	0.05417284282896345 	101347.1397565556
-1.134884884884885 	300.0237394658997 	0.06864357717804676 	101353.0667330092
-1.132382382382382 	300.0282926534163 	0.08181278878326745 	101358.4506949932
-1.12987987987988 	300.0323083651282 	0.09342565229268179 	101363.1993096793
-1.127377377377377 	300.0357335690562 	0.1033512994398394 	101367.2497594421
-1.124874874874875 	300.038523969858 	0.1114227765158639 	101370.5496363096
-1.122372372372372 	300.0406284011344 	0.1174860595723739 	101373.0383695315
-1.11986986986987 	300.0419887389864 	0.1214033724349991 	101374.6471817619
-1.117367367367367 	300.0425601458922 	0.1230262619142915 	101375.3229934127
-1.114864864864865 	300.0423174055666 	0.1223122453574311 	101375.0359402473
-1.112362362362362 	300.0412652209098 	0.1192733259930268 	101373.7917244588
-1.10985985985986 	300.0394446134172 	0.1140030163239106 	101371.6388036638
-1.107357357357357 	300.0369031756949 	0.1066492156290574 	101368.6334537851
-1.104854854854855 	300.0336819525234 	0.09733805628655981 	101364.8242931194
-1.102352352352353 	300.0298373175746 	0.08623959369870436 	101360.2780364908
-1.09984984984985 	300.0254393503702 	0.07353051285331703 	101355.0776444431
-1.097347347347347 	300.0205750866132 	0.05946676868448593 	101349.3260729863
-1.094844844844845 	300.0153538730378 	0.04436171127578963 	101343.1527046474
-1.092342342342342 	300.0098751444507 	0.02850330381677917 	101336.6751357336
-1.08983983983984 	300.0042310210248 	0.01220316877447216 	101330.0023071909
-1.087337337337337 	299.9985150475717 	0.0087310940430111 	101323.2448576896
-1.084834834834835 	299.9927945934194 	0.02090865187476128 	101316.482417643
-1.082332332332332 	299.9871686167103 	0.03715701722226336 	101309.831975125
-1.07982982982983 	299.981770428304 	0.05274643110371921 	101303.45108307
-1.077327327327327 	299.9767145993929 	0.0673268744834902 	101297.4751169229
-1.074824824824825 	299.9721096261528 	0.08063414065972135 	101292.032269095
-1.072322322322323 	299.9680348303247 	0.09245923211772206 	101287.2162331205
-1.06981981981982 	299.9645364315949 	0.1025688561652429 	101283.0815549343
-1.067317317317317 	299.9616728812293 	0.1108093916549787 	101279.6972681777
-1.064814814814815 	299.9595135099008 	0.1170319122797038 	101277.1452263899
-1.062312312312312 	299.9581100443029 	0.1210801999291059 	101275.4864924111
-1.05980980980981 	299.9575088362015 	0.1228476588208242 	101274.7759498424
-1.057307307307307 	299.9577165133491 	0.1222643967509152 	101275.0213555899
-1.054804804804805 	299.9587013166616 	0.1193660519681443 	101276.1851025255
-1.052302302302302 	299.9604477605903 	0.1142868837755514 	101278.248964828
-1.0497997997998 	299.9629311666905 	0.1071584183766229 	101281.1838230761
-1.047297297297297 	299.9660859864125 	0.09805967804922353 	101284.9122607857
-1.044794794794795 	299.9698604500006 	0.08711429999017535 	101289.373155363
-1.042292292292292 	299.9741828142604 	0.07458190882736002 	101294.4817761535
-1.03978978978979 	299.9789588655414 	0.06073387998060108 	101300.1268404445
-1.037287287287287 	299.9841204896093 	0.04587236860590993 	101306.227907625
-1.034784784784785 	299.9895684420554 	0.03021548468762254 	101312.6677045635
-1.032282282282283 	299.995162391435 	0.01397329945660269 	101319.2804000114
-1.02977977977978 	300.0008149131277 	0.008387426934423991 	101325.9626603127
-1.027277277277277 	300.0064787684375 	0.01882126360446018 	101332.6586283175
-1.024774774774775 	300.0120560132746 	0.03492313338064412 	101339.2525415484
-1.022272272272272 	300.017415077971 	0.05041228203400289 	101345.5887916885
-1.01976976976977 	300.0224519084927 	0.06495966959352048 	101351.5443204123
-1.017267267267267 	300.027092014322 	0.0783547787429852 	101357.0310086935
-1.014764764764765 	300.0312564741594 	0.09035338407683598 	101361.9554455095
-1.012262262262262 	300.0348618345099 	0.1007854892048446 	101366.218915996
-1.00975975975976 	300.0378360194148 	0.1094081531972179 	101369.7361085047
-1.007257257257257 	300.0401100522637 	0.1159864665061463 	101372.4253944207
-1.004754754754755 	300.0416340268419 	0.1203966044757709 	101374.2277235165
-1.002252252252252 	300.0423790725971 	0.1225150089045349 	101375.1088771655
-0.9997497497497498 	300.0423266830833 	0.122360141893014 	101375.0469397512
-0.9972472472472473 	300.0414861355121 	0.1199471423672521 	101374.0529904051
-0.9947447447447449 	300.0398873656574 	0.1152790485099927 	101372.1624158671
-0.9922422422422421 	300.0375455463144 	0.1084755159438993 	101369.3931253416
-0.9897397397397399 	300.034493669161 	0.0996438116701249 	101365.7841863766
-0.9872372372372376 	300.0307912409785 	0.08895023857288316 	101361.4060785482
-0.9847347347347346 	300.0265118750335 	0.07662651237037583 	101356.3458779063
-0.9822322322322323 	300.0217514511045 	0.06287691543789642 	101350.7170530321
-0.9797297297297296 	300.0166087011156 	0.04798089413093195 	101344.6363933951
-0.9772272272272275 	300.0111572605949 	0.03222681300395789 	101338.1910051235
-0.9747247247247248 	300.0055073518806 	0.01590994566509277 	101331.5112912467
-0.9722222222222224 	299.9997808435115 	0.008052085028432668 	101324.7413032786
-0.9697197197197196 	299.9940634371396 	0.01725277850359421 	101317.9824089786
-0.9672172172172175 	299.9884524386316 	0.03349111912872719 	101311.3495983359
-0.9647147147147147 	299.9830414654152 	0.04911918953123835 	101304.9535066684
-0.9622122122122124 	299.9779157164181 	0.06389288173460084 	101298.8948641878
-0.9597097097097099 	299.9731895825307 	0.07753856313074016 	101293.3087533465
-0.9572072072072073 	299.9689623228023 	0.08980787755633748 	101288.3124902744
-0.9547047047047047 	299.9653037185147 	0.1003548589320599 	101283.988443196
-0.9522022022022023 	299.9622964222609 	0.1089937231639593 	101280.4342232177
-0.9496996996996998 	299.9599998807142 	0.1156223905314662 	101277.7200989008
-0.9471971971971973 	299.9584536246533 	0.1200845222451233 	101275.8926055801
-0.9446946946946947 	299.9576955894589 	0.1223398286449677 	101274.9967102991
-0.9421921921921923 	299.9577265209722 	0.1222709039998578 	101275.0332545533
-0.93968968968969 	299.9585258649714 	0.1198802054345499 	101275.977808104
-0.9371871871871872 	299.9601036166969 	0.1153217546135263 	101277.8423227365
-0.9346846846846848 	299.9624242143623 	0.1086480350809262 	101280.5847665517
-0.9321821821821823 	299.9654233862743 	0.09999678303257419 	101284.1292247379
-0.9296796796796799 	299.9690445246751 	0.08949324571908025 	101288.4088955359
-0.9271771771771771 	299.9732235398803 	0.07734273136956471 	101293.3480248218
-0.9246746746746748 	299.9778850196896 	0.0638305226721001 	101298.8576309244
-0.9221721721721724 	299.9829788707142 	0.04917994448219981 	101304.8785422775
-0.9196696696696698 	299.9883748052905 	0.03366572439515154 	101311.2567721071
-0.9171671671671672 	299.9939363012963 	0.01754515900305173 	101317.8310558264
-0.9146646646646649 	299.9995546726711 	0.007234484287206333 	101324.4728473763
-0.9121621621621623 	300.0051694202789 	0.01498413085179366 	101331.1107000601
-0.9096596596596597 	300.0107118829321 	0.03102726193822249 	101337.6634280169
-0.9071571571571573 	300.0160842900684 	0.04655341071199154 	101344.0153581269
-0.9046546546546547 	300.021186908165 	0.06128141443004109 	101350.0486218453
-0.9021521521521524 	300.0259258681638 	0.07498990855920162 	101355.6521193042
-0.8996496496496498 	300.0302080177412 	0.08733811741718371 	101360.7156796794
-0.8971471471471473 	300.0339486518535 	0.09817082134826771 	101365.1390902905
-0.894644644644645 	300.0370755956329 	0.1072056554950988 	101368.8368819576
-0.892142142142142 	300.0395234842625 	0.1142558222051285 	101371.7317641499
-0.8896396396396397 	300.0412362609849 	0.1192126125767831 	101373.7573485288
-0.8871371371371374 	300.0421762280918 	0.1219031558277592 	101374.8690227194
-0.8846346346346349 	300.0423229263535 	0.1223400425218165 	101375.042542688
-0.8821321321321324 	300.041679674248 	0.120481412499233 	101374.2818760592
-0.8796296296296297 	300.0402663647192 	0.116368997286739 	101372.6106346832
-0.8771271271271271 	300.0381071717553 	0.1101301126083051 	101370.057308464
-0.8746246246246248 	300.0352359326442 	0.1018241371420958 	101366.6619643757
-0.8721221221221224 	300.0317055005921 	0.0916295556200518 	101362.48722589
-0.8696196196196196 	300.0275770752484 	0.07970078353845474 	101357.6054550844
-0.8671171171171175 	300.022929730046 	0.06624896768205649 	101352.1102973568
-0.8646146146146148 	300.0178564693955 	0.05158918619335501 	101346.1117452584
-0.8621121121121121 	300.012457256029 	0.03597522741352968 	101339.7280408884
-0.8596096096096097 	300.0068462434839 	0.01976757987398457 	101333.0942406197
-0.857107107107107 	300.0011435496644 	0.006444194218660752 	101326.352318593
-0.8546046046046049 	299.9954240535224 	0.01332163664083799 	101319.5908882307
-0.8521021021021022 	299.9897704371727 	0.0296367832773127 	101312.9076311102
-0.8495995995995997 	299.9842844172875 	0.04548168761067718 	101306.4227683777
-0.8470970970970974 	299.9790768786324 	0.06052268139389461 	101300.2673882209
-0.8445945945945946 	299.9742573777222 	0.07445109982621385 	101294.5708531346
-0.8420920920920922 	299.9699182357282 	0.08702830906789395 	101289.4423249651
-0.8395895895895897 	299.9661361488382 	0.09791478974348231 	101284.9723022906
-0.8370870870870872 	299.9629921165709 	0.106991248486889 	101281.2564800794
-0.8345845845845846 	299.9605461580898 	0.114064049820102 	101278.3657558985
-0.8320820820820823 	299.9588444242201 	0.1189833591613327 	101276.3545025779
-0.8295795795795798 	299.9579140219942 	0.1217048007110461 	101275.2548990412
-0.8270770770770772 	299.9577639229049 	0.1221146643024437 	101275.077493669
-0.8245745745745746 	299.9583899550788 	0.1202712869462233 	101275.8172584494
-0.8220720720720721 	299.959790168321 	0.1162265310320522 	101277.4719568562
-0.8195695695695699 	299.9619304259784 	0.1100544831636209 	101280.0012428468
-0.817067067067067 	299.9647692566616 	0.1018596208321983 	101283.3561998419
-0.8145645645645651 	299.9682528756006 	0.09175572614912131 	101287.4733007899
-0.8120620620620621 	299.9723166024713 	0.07998363400491711 	101292.2761490069
-0.8095595595595597 	299.9768782350596 	0.06678842207695017 	101297.6677021454
-0.8070570570570572 	299.9818565688839 	0.05245607100440906 	101303.5519989071
-0.8045545545545546 	299.9871302281846 	0.03723424755683913 	101309.7856475886
-0.8020520520520523 	299.9926000743607 	0.02137796360941426 	101316.25150385
-0.7995495495495494 	299.9981688071803 	0.005243806479631762 	101322.8345506825
-0.7970470470470474 	300.0037683967228 	0.01099599850614903 	101329.4544029549
-0.7945445445445446 	300.0093296343883 	0.02701870484454896 	101336.0292312346
-0.7920420420420423 	300.0147435312367 	0.0426583827814061 	101342.4301570268
-0.7895395395395397 	300.0199038874784 	0.05758472133933412 	101348.5316142605
-0.7870370370370371 	300.0247240449875 	0.07151967451673436 	101354.2310641037
-0.7845345345345348 	300.0291189559182 	0.08420162018821592 	101359.4279115265
-0.7820320320320323 	300.0329999416834 	0.09541539703753657 	101364.0172397061
-0.7795295295295296 	300.0362806109224 	0.1048752027029678 	101367.8968015894
-0.7770270270270272 	300.038883588586 	0.112405614410294 	101370.9750551299
-0.7745245245245247 	300.0407628310037 	0.1178555370631977 	101373.1974979465
-0.7720220220220222 	300.0418912695522 	0.1210934058489809 	101374.5320597416
-0.7695195195195199 	300.0422455999454 	0.1221115682523127 	101374.9511324205
-0.767017017017017 	300.041816710732 	0.1208678974444773 	101374.4439536673
-0.7645145145145147 	300.0406115634355 	0.1173809899978406 	101373.0188712545
-0.7620120120120122 	300.0386460949148 	0.1116946343593149 	101370.6946463093
-0.7595095095095097 	300.0359524025903 	0.1038872604698763 	101367.5092560257
-0.7570070070070072 	300.0325730910117 	0.09410154423644107 	101363.5131755017
-0.7545045045045048 	300.0285539182825 	0.08248973208034915 	101358.7605864268
-0.7520020020020022 	300.023975480828 	0.06927957198019005 	101353.3468501313
-0.7494994994994997 	300.0189486230018 	0.05475100545767751 	101347.403106988
-0.7469969969969972 	300.0135944979895 	0.0392760166486655 	101341.0726684992
-0.7444944944944945 	300.0080423069712 	0.02323581775144017 	101334.5083264356
-0.7419919919919924 	300.0024038671428 	0.006910197594812634 	101327.8423290272
-0.7394894894894897 	299.9967327112841 	0.01072579642854095 	101321.1379557628
-0.7369869869869872 	299.9910731268484 	0.02587744768681724 	101314.447569544
-0.7344844844844846 	299.9855164133471 	0.04192602754648306 	101307.8790995949
-0.7319819819819822 	299.9801976197405 	0.05727974157651029 	101301.5921293828
-0.7294794794794797 	299.975263700866 	0.07152858742383916 	101295.7603346118
-0.7269769769769773 	299.9708323496651 	0.08433853074413049 	101290.5227577953
-0.7244744744744747 	299.9669741308848 	0.09549944957448971 	101285.9627238477
-0.721971971971972 	299.9637277393935 	0.1048893459458165 	101282.1259257713
-0.7194694694694695 	299.961126665867 	0.1124036882192194 	101279.0518527251
-0.7169669669669674 	299.9592185311109 	0.1179029867770459 	101276.7967051257
-0.7144644644644647 	299.9580671040238 	0.1212102819429399 	101275.4358498634
-0.711961961961962 	299.9577312183769 	0.1221681526288219 	101275.0388812881
-0.7094594594594597 	299.9582320491642 	0.1207232084507897 	101275.6307094309
-0.7069569569569573 	299.9595345178632 	0.1169729336776039 	101277.1698745312
-0.7044544544544545 	299.9615599485214 	0.111132263471452 	101279.5634650969
-0.7019519519519523 	299.9642199785792 	0.1034435597850672 	101282.7071068672
-0.6994494494494495 	299.9674507387239 	0.0940869757206991 	101286.5253354516
-0.6969469469469471 	299.9712268191535 	0.08314134708878856 	101290.9881929241
-0.6944444444444446 	299.975545831958 	0.07062556337223647 	101296.0929111307
-0.6919419419419421 	299.9803946226758 	0.05659394768916515 	101301.8240056002
-0.6894394394394396 	299.9857076784507 	0.04124576288720198 	101308.1041411447
-0.6869369369369374 	299.9913458297033 	0.0249810602605648 	101314.7688600549
-0.6844344344344344 	299.9971105682671 	0.008357565820937784 	101321.5835620853
-0.6819319319319321 	300.0027907498421 	0.01010682760454498 	101328.2986550599
-0.6794294294294296 	300.0082230439733 	0.02374454820596156 	101334.7209916553
-0.6769269269269272 	300.0133368000832 	0.03856572846643834 	101340.7670134034
-0.6744244244244245 	300.0181536711346 	0.05254470555497861 	101346.4622570952
-0.6719219219219222 	300.0227410553749 	0.06585154681439542 	101351.8863682586
-0.6694194194194195 	300.0271458244716 	0.07860190908420163 	101357.0947660494
-0.6669169169169172 	300.0313410874224 	0.09070986984576754 	101362.0556091715
-0.6644144144144146 	300.0352056548006 	0.1018289336183653 	101366.6255865469
-0.661911911911912 	300.0385386714913 	0.1113907932881656 	101370.5671420942
-0.6594094094094097 	300.0410998945018 	0.1187175393577615 	101373.5960922446
-0.656906906906907 	300.0426619322777 	0.1231689178979421 	101375.4434763334
-0.6544044044044046 	300.0430611086339 	0.1242855325671529 	101375.9155845071
-0.6519019019019021 	300.0422350244039 	0.1218957913267327 	101374.9387069384
-0.6493993993993996 	300.0402407602759 	0.1161662037993659 	101372.5804856976
-0.6468968968968971 	300.037250099313 	0.1075857970324676 	101369.0439195444
-0.6443943943943946 	300.0335216822948 	0.09688913791942649 	101364.6349635784
-0.6418918918918921 	300.0293590647041 	0.08493743522690481 	101359.7126830679
-0.6393893893893897 	300.0250631950983 	0.07258545449568773 	101354.632987064
-0.6368868868868871 	300.0208905750653 	0.06056618475872734 	101349.6991841879
-0.6343843843843846 	300.0170288995707 	0.04942271025867469 	101345.1331878327
-0.6318818818818821 	300.0135943432854 	0.03949566498387262 	101341.0723243327
-0.6293793793793795 	300.0106413324541 	0.03094780404863865 	101337.580902585
-0.6268768768768773 	300.0081764208908 	0.0238029830326148 	101334.6666303174
-0.6243743743743745 	300.0061726566316 	0.01798714791365733 	101332.2975350565
-0.6218718718718721 	300.0045822576897 	0.01336548252367184 	101330.4172152859
-0.6193693693693696 	300.0033473076019 	0.0097728364192046 	101328.9572804224
-0.6168668668668671 	300.0024078190118 	0.00703654366693344 	101327.8466077018
-0.6143643643643645 	300.0017065786438 	0.004991864126676291 	101327.0175740088
-0.6118618618618621 	300.0011924398467 	0.003491147171911639 	101326.4097407218
-0.6093593593593596 	300.0008218082365 	0.002408197486400793 	101325.9715677151
-0.6068568568568571 	300.0005588902422 	0.001639204309485533 	101325.66073775
-0.6043543543543546 	300.0003752209493 	0.001101473057171444 	101325.4435982626
-0.6018518518518521 	300.0002487831169 	0.0007309428135110878 	101325.2941195463
-0.5993493493493496 	300.0001629612719 	0.0004792017269944256 	101325.1926583119
-0.5968468468468471 	300.0001054929594 	0.0003104736400504662 	101325.1247174299
-0.5943443443443446 	300.0000675109798 	0.0001988560697104263 	101325.0798138569
-0.591841841841842 	300.0000427232399 	0.0001259471858673199 	101325.0505090023
-0.5893393393393397 	300.0000267431702 	7.890298996414379e-05 	101325.0316168303
-0.5868368368368371 	300.0000165628181 	4.890648254088151e-05 	101325.0195812039
-0.5843343343343346 	300.0000101515685 	2.999946950178453e-05 	101325.0120015664
-0.5818318318318321 	300.0000061590131 	1.821524571280362e-05 	101325.0072813865
-0.5793293293293297 	300.000003699612 	1.095030136820746e-05 	101325.0043738382
-0.5768268268268271 	300.0000022007405 	6.5189338348453e-06 	101325.0026017999
-0.5743243243243245 	300.0000012966918 	3.843906734587057e-06 	101325.0015329681
-0.5718218218218221 	300.0000007568848 	2.245411994757645e-06 	101325.0008947914
-0.5693193193193196 	300.0000004377898 	1.299645111408592e-06 	101325.000517508
-0.5668168168168171 	300.0000002508839 	7.454756679294624e-07 	101325.0002966145
-0.5643143143143147 	300.0000001424814 	4.238310720563267e-07 	101325.0001685067
-0.5618118118118121 	300.0000000802903 	2.388770134042195e-07 	101325.0000948981
-0.5593093093093094 	300.0000000448633 	1.334867317056889e-07 	101325.0000529874
-0.5568068068068072 	300.0000000248384 	7.397080031265688e-08 	101325.0000293373
-0.5543043043043046 	300.0000000136457 	4.06522740324636e-08 	101325.000016108
-0.551801801801802 	300.0000000073758 	2.216203934247124e-08 	101325.0000087712
-0.5492992992992995 	300.0000000040066 	1.198494340202162e-08 	101325.0000047365
-0.5467967967967969 	300.0000000021641 	6.432968265491901e-09 	101325.0000025361
-0.5442942942942947 	300.0000000011548 	3.425746548135222e-09 	101325.0000013456
-0.5417917917917919 	300.0000000005635 	1.813088141563155e-09 	101325.0000007068
-0.5392892892892895 	300.0000000002433 	9.504798694496195e-10 	101325.0000003668
-0.536786786786787 	300.0000000001162 	4.979873616073368e-10 	101325.0000001871
-0.5342842842842846 	300.0000000000408 	2.56424809772662e-10 	101325.0000000928
-0.531781781781782 	299.9999999999725 	1.353185785048242e-10 	101325.0000000435
-0.5292792792792794 	299.9999999999454 	6.688256555288799e-11 	101325.0000000181
-0.526776776776777 	299.9999999999195 	3.830748848151812e-11 	101325.0000000052
-0.5242742742742745 	299.9999999999814 	1.601555586994168e-11 	101324.9999999985
-0.521771771771772 	300.0000000000188 	1.469466355783379e-11 	101324.9999999953
-0.5192692692692695 	299.999999999961 	4.251034996051322e-12 	101324.9999999936
-0.516766766766767 	300.0000000000065 	9.021671782969054e-12 	101324.9999999929
-0.5142642642642645 	299.9999999999715 	2.898399135402937e-12 	101324.9999999926
-0.511761761761762 	299.9999999999491 	6.814124711592537e-12 	101324.9999999924
-0.5092592592592596 	299.9999999999707 	2.531045623403419e-12 	101324.9999999924
-0.506756756756757 	299.9999999999349 	5.479683492923731e-12 	101324.9999999922
-0.5042542542542544 	299.9999999999919 	2.544514157586268e-12 	101324.9999999921
-0.5017517517517521 	300.0000000000295 	3.965575973968391e-12 	101324.9999999919
-0.4992492492492494 	300.0000000000346 	1.522524470337397e-12 	101324.9999999916
-0.496746746746747 	299.9999999999835 	3.647164115368893e-12 	101324.9999999915
-0.4942442442442445 	299.9999999999402 	1.327871740349545e-12 	101324.9999999914
-0.4917417417417421 	299.999999999938 	3.837025904878948e-12 	101324.9999999913
-0.4892392392392395 	299.9999999999554 	1.568288931092356e-12 	101324.9999999912
-0.486736736736737 	299.9999999999578 	4.63494302082444e-12 	101324.9999999911
-0.4842342342342345 	299.999999999921 	2.373981243147441e-12 	101324.9999999913
-0.481731731731732 	300.0000000000339 	5.197153547346762e-12 	101324.9999999913
-0.4792292292292296 	300.0000000000207 	2.210079673445749e-12 	101324.9999999914
-0.4767267267267268 	299.9999999999525 	6.163606054040127e-12 	101324.9999999916
-0.4742242242242246 	299.999999999995 	1.954352277018008e-12 	101324.9999999916
-0.471721721721722 	299.9999999999538 	4.314650022507095e-12 	101324.9999999916
-0.4692192192192195 	299.9999999999773 	1.715561788730086e-12 	101324.9999999915
-0.4667167167167169 	299.9999999999094 	3.508909149859146e-12 	101324.9999999914
-0.4642142142142145 	299.9999999999931 	8.913502071875587e-13 	101324.9999999913
-0.461711711711712 	300.0000000000157 	4.101915427657491e-12 	101324.9999999913
-0.4592092092092094 	300.0000000000086 	2.6245916682857e-12 	101324.9999999915
-0.456706706706707 	300.0000000000501 	4.920353384261932e-12 	101324.9999999915
-0.4542042042042045 	299.999999999939 	3.518881522745945e-12 	101324.9999999914
-0.451701701701702 	299.9999999999514 	5.254633056963802e-12 	101324.9999999913
-0.4491991991991995 	299.9999999999574 	3.727450377771825e-12 	101324.9999999911
-0.4466966966966969 	299.9999999999545 	5.148900736653588e-12 	101324.9999999911
-0.4441941941941945 	299.9999999999941 	2.37075005607431e-12 	101324.9999999911
-0.441691691691692 	299.9999999999572 	5.086925737674358e-12 	101324.9999999911
-0.4391891891891895 	299.9999999999899 	1.322808052453727e-12 	101324.9999999911
-0.436686686686687 	299.9999999999694 	5.154161244894082e-12 	101324.999999991
-0.4341841841841846 	299.999999999998 	2.145293368242199e-12 	101324.9999999912
-0.431681681681682 	299.9999999999456 	4.420216595540548e-12 	101324.9999999913
-0.4291791791791794 	299.9999999999306 	1.174392444605858e-12 	101324.9999999913
-0.426676676676677 	299.999999999906 	3.784383514403059e-12 	101324.9999999913
-0.4241741741741744 	299.999999999965 	1.004787915279527e-12 	101324.9999999911
-0.421671671671672 	300.0000000000034 	3.838665077673909e-12 	101324.9999999912
-0.4191691691691694 	300.0000000000513 	2.144432060740898e-12 	101324.9999999912
-0.4166666666666669 	300.0000000000614 	4.003547480998228e-12 	101324.9999999911
-0.4141641641641645 	299.9999999999379 	2.446011782950796e-12 	101324.9999999911
-0.411661661661662 	300.000000000003 	2.926104206651401e-12 	101324.9999999912
-0.4091591591591594 	300.0000000000045 	1.857861862377699e-12 	101324.9999999914
-0.406656656656657 	299.9999999999444 	2.495001867549969e-12 	101324.9999999917
-0.4041541541541545 	300.0000000000122 	7.417736363458448e-13 	101324.9999999915
-0.401651651651652 	299.9999999999239 	2.714432318957124e-12 	101324.9999999915
-0.3991491491491494 	299.9999999999994 	1.905052310625183e-12 	101324.9999999913
-0.396646646646647 	299.9999999999551 	3.709026586767883e-12 	101324.999999991
-0.3941441441441444 	299.9999999999828 	2.672059754118845e-12 	101324.999999991
-0.3916416416416419 	299.9999999999332 	3.166941604587979e-12 	101324.9999999908
-0.3891391391391395 	299.9999999999536 	2.393772692620635e-12 	101324.9999999909
-0.3866366366366368 	299.9999999999556 	1.633461853761871e-12 	101324.9999999907
-0.3841341341341344 	299.9999999999946 	1.529007364211423e-12 	101324.9999999908
-0.381631631631632 	299.999999999948 	1.10014293200583e-12 	101324.9999999909
-0.3791291291291294 	299.9999999999998 	6.437458221096419e-13 	101324.9999999912
-0.3766266266266269 	300.0000000000193 	1.208368412693379e-12 	101324.9999999913
-0.3741241241241244 	300.0000000000256 	2.886472016459126e-12 	101324.9999999913
-0.371621621621622 	300.0000000000165 	1.224120704223973e-12 	101324.9999999913
-0.3691191191191194 	300.0000000000123 	3.813937378987838e-12 	101324.9999999914
-0.366616616616617 	300.0000000000114 	9.623125174470853e-13 	101324.9999999916
-0.3641141141141143 	299.9999999999663 	3.438551058992774e-12 	101324.9999999917
-0.3616116116116119 	299.99999999995 	1.284023630407146e-12 	101324.9999999916
-0.3591091091091095 	299.9999999999852 	2.53182775469898e-12 	101324.9999999916
-0.356606606606607 	299.9999999999721 	2.185942177073427e-12 	101324.9999999916
-0.3541041041041044 	299.9999999999911 	2.148070611635715e-12 	101324.9999999916
-0.3516016016016019 	300.0000000000108 	3.324332777579149e-12 	101324.9999999915
-0.3490990990990994 	299.9999999999937 	1.508995303896155e-12 	101324.9999999914
-0.346596596596597 	300.0000000000398 	3.572797135648635e-12 	101324.9999999912
-0.3440940940940944 	300.0000000000479 	9.627720824867353e-13 	101324.9999999909
-0.3415915915915919 	300.000000000021 	3.731764997050061e-12 	101324.9999999909
-0.3390890890890895 	299.9999999999756 	1.777714170869183e-12 	101324.9999999909
-0.3365865865865869 	300.0000000000144 	3.166209216678822e-12 	101324.9999999911
-0.3340840840840844 	299.9999999999994 	2.139794782213438e-12 	101324.9999999914
-0.3315815815815819 	300.0000000000221 	2.98656995626565e-12 	101324.9999999916
-0.3290790790790794 	300.0000000000217 	2.603870069300762e-12 	101324.9999999915
-0.3265765765765769 	299.9999999999314 	3.85760484200231e-12 	101324.9999999915
-0.3240740740740744 	299.9999999999939 	2.544784367794778e-12 	101324.9999999915
-0.3215715715715718 	300.0000000000063 	4.322365075170278e-12 	101324.9999999918
-0.3190690690690695 	299.9999999999355 	2.259573027334097e-12 	101324.999999992
-0.3165665665665668 	299.9999999999885 	4.409318131445789e-12 	101324.9999999921
-0.3140640640640644 	300.0000000000043 	1.958132453331165e-12 	101324.9999999919
-0.311561561561562 	299.9999999999322 	5.513596808701825e-12 	101324.9999999918
-0.3090590590590593 	299.9999999999913 	7.8629532779753e-13 	101324.9999999921
-0.3065565565565568 	300.0000000000032 	6.421418796519353e-12 	101324.9999999923
-0.3040540540540545 	300.0000000000031 	1.481980430910826e-12 	101324.9999999922
-0.3015515515515518 	300.000000000036 	6.13169249507288e-12 	101324.9999999923
-0.2990490490490494 	299.9999999999512 	2.556161032241303e-12 	101324.9999999925
-0.2965465465465469 	299.9999999999872 	5.020499847041321e-12 	101324.9999999924
-0.2940440440440444 	299.9999999999973 	3.62195428894947e-12 	101324.9999999924
-0.2915415415415418 	300.0000000000065 	4.052320631208024e-12 	101324.9999999924
-0.2890390390390395 	300.0000000000073 	4.627316923507907e-12 	101324.9999999924
-0.2865365365365368 	299.9999999999845 	3.261205887299187e-12 	101324.9999999924
-0.2840340340340343 	300.000000000001 	5.160142996425086e-12 	101324.9999999923
-0.2815315315315318 	299.9999999999296 	2.947777602408663e-12 	101324.9999999922
-0.2790290290290295 	299.9999999999604 	4.912701542377821e-12 	101324.9999999922
-0.2765265265265269 	300.0000000000047 	3.172179199470325e-12 	101324.9999999925
-0.2740240240240244 	300.000000000026 	3.915878471061219e-12 	101324.9999999928
-0.2715215215215219 	300.000000000013 	4.038932721517655e-12 	101324.9999999927
-0.2690190190190194 	299.9999999999484 	3.855914469884906e-12 	101324.9999999924
-0.2665165165165169 	299.9999999999997 	5.00365796610986e-12 	101324.9999999926
-0.2640140140140144 	299.9999999999717 	3.52731200089146e-12 	101324.9999999924
-0.2615115115115119 	300.0000000000017 	4.556376759306749e-12 	101324.9999999924
-0.2590090090090094 	299.9999999999357 	2.237446639886456e-12 	101324.999999992
-0.2565065065065068 	299.9999999999944 	2.996279707806244e-12 	101324.999999992
-0.2540040040040044 	299.999999999996 	3.277996922546529e-12 	101324.9999999919
-0.2515015015015019 	300.0000000000364 	2.518927841164844e-12 	101324.999999992
-0.2489989989989994 	300.0000000000424 	4.822366702050704e-12 	101324.9999999921
-0.2464964964964968 	299.9999999999894 	2.308002740037711e-12 	101324.9999999922
-0.2439939939939944 	299.9999999999935 	6.309449519633667e-12 	101324.9999999923
-0.2414914914914919 	299.9999999999679 	1.885267043064373e-12 	101324.9999999922
-0.2389889889889893 	300.0000000000013 	6.372585393523647e-12 	101324.9999999918
-0.2364864864864869 	300.0000000000221 	2.492502668850804e-12 	101324.9999999916
-0.2339839839839843 	299.9999999999346 	6.94054377661642e-12 	101324.9999999916
-0.2314814814814819 	299.9999999999831 	2.701384396509363e-12 	101324.9999999916
-0.2289789789789792 	299.9999999999215 	6.139144175255413e-12 	101324.9999999915
-0.2264764764764769 	299.9999999999494 	2.996761975239927e-12 	101324.9999999914
-0.2239739739739743 	299.9999999999607 	4.34680553375863e-12 	101324.9999999913
-0.2214714714714718 	299.9999999999392 	3.157965064525578e-12 	101324.9999999911
-0.2189689689689693 	299.9999999999692 	2.714011402522027e-12 	101324.9999999909
-0.2164664664664669 	299.9999999999828 	3.662455213983682e-12 	101324.9999999912
-0.2139639639639643 	299.999999999935 	1.986852554537728e-12 	101324.9999999912
-0.2114614614614618 	299.9999999999721 	2.949686402976591e-12 	101324.9999999915
-0.2089589589589593 	299.9999999999919 	2.548699740511129e-12 	101324.9999999915
-0.2064564564564568 	299.9999999999912 	1.877710436270101e-12 	101324.9999999914
-0.2039539539539543 	299.9999999999136 	3.367806901033693e-12 	101324.9999999915
-0.2014514514514518 	299.9999999999455 	8.344879752905283e-13 	101324.9999999913
-0.1989489489489494 	299.9999999999692 	3.487921670567544e-12 	101324.9999999914
-0.1964464464464468 	299.9999999999936 	1.182824398459758e-12 	101324.9999999912
-0.1939439439439443 	299.9999999999887 	2.56608252254151e-12 	101324.9999999909
-0.1914414414414418 	299.9999999999219 	3.845101669925945e-13 	101324.999999991
-0.1889389389389393 	300.0000000000067 	2.265159561639372e-12 	101324.9999999912
-0.1864364364364368 	300.0000000000373 	2.006357297393959e-12 	101324.9999999914
-0.1839339339339343 	299.9999999999757 	3.743177346854574e-12 	101324.9999999914
-0.1814314314314318 	299.999999999997 	3.027799742213038e-12 	101324.9999999915
-0.1789289289289293 	299.9999999999039 	4.333907148795657e-12 	101324.9999999916
-0.1764264264264268 	299.9999999999816 	3.223917529521361e-12 	101324.9999999918
-0.1739239239239243 	299.9999999999054 	5.696769800982355e-12 	101324.9999999919
-0.1714214214214218 	299.9999999999886 	2.376653218234309e-12 	101324.9999999922
-0.1689189189189193 	299.9999999999546 	6.201798108693678e-12 	101324.9999999924
-0.1664164164164168 	300.0000000000056 	1.053110196933729e-12 	101324.9999999921
-0.1639139139139143 	299.9999999999864 	7.927720198438557e-12 	101324.9999999921
-0.1614114114114118 	300.000000000024 	8.814151565674265e-13 	101324.9999999922
-0.1589089089089093 	299.9999999999951 	9.846800932345846e-12 	101324.9999999923
-0.1564064064064068 	299.9999999999806 	2.577133643025165e-12 	101324.9999999921
-0.1539039039039043 	299.99999999999 	9.440260421814808e-12 	101324.999999992
-0.1514014014014018 	300.0000000000234 	2.737593591214649e-12 	101324.999999992
-0.1488988988988993 	299.9999999999838 	8.053645203117475e-12 	101324.9999999919
-0.1463963963963968 	299.9999999999998 	1.879120841923273e-12 	101324.9999999918
-0.1438938938938943 	299.9999999999535 	6.813916197562551e-12 	101324.9999999917
-0.1413913913913918 	299.9999999999324 	7.812808699600998e-13 	101324.9999999914
-0.1388888888888893 	299.9999999999819 	5.290328686910264e-12 	101324.9999999914
-0.1363863863863868 	299.9999999998934 	1.355887665539788e-12 	101324.9999999915
-0.1338838838838843 	299.9999999999194 	3.931499695807493e-12 	101324.9999999914
-0.1313813813813818 	299.9999999999931 	2.008084602393253e-12 	101324.9999999914
-0.1288788788788793 	299.9999999999646 	4.698762799524436e-12 	101324.9999999913
-0.1263763763763768 	299.9999999999675 	2.70088896774668e-12 	101324.9999999917
-0.1238738738738743 	299.9999999999323 	5.368247122502959e-12 	101324.9999999923
-0.1213713713713717 	299.9999999999811 	1.836438602057435e-12 	101324.9999999922
-0.1188688688688693 	300.0000000000052 	4.779317931770614e-12 	101324.9999999918
-0.1163663663663668 	299.9999999999126 	5.062639872534474e-13 	101324.9999999914
-0.1138638638638643 	299.999999999992 	4.086436544159665e-12 	101324.9999999915
-0.1113613613613618 	299.9999999999861 	1.696459377131803e-12 	101324.9999999915
-0.1088588588588592 	299.999999999975 	4.39340439839054e-12 	101324.9999999912
-0.1063563563563568 	299.9999999999561 	1.45517637353021e-12 	101324.9999999913
-0.1038538538538543 	299.9999999999756 	3.79320948548665e-12 	101324.9999999912
-0.1013513513513517 	300.0000000000136 	1.708282639657619e-13 	101324.9999999912
-0.09884884884884926 	299.9999999999463 	3.379388880021186e-12 	101324.9999999915
-0.09634634634634676 	299.9999999998973 	7.157563159369056e-13 	101324.9999999917
-0.09384384384384425 	299.9999999999322 	2.032547033998209e-12 	101324.9999999917
-0.09134134134134177 	300.0000000000221 	1.22856420818137e-12 	101324.9999999917
-0.08883883883883925 	300.0000000000082 	3.492739735640265e-12 	101324.9999999915
-0.08633633633633674 	299.9999999999572 	3.217096113328637e-12 	101324.9999999914
-0.08383383383383426 	300.0000000000067 	3.909393148989596e-12 	101324.9999999917
-0.08133133133133173 	299.9999999999683 	4.399119223001175e-12 	101324.9999999917
-0.07882882882882926 	299.9999999998893 	4.099591759622086e-12 	101324.9999999917
-0.07632632632632676 	299.9999999999593 	4.409778503842954e-12 	101324.9999999917
-0.07382382382382424 	299.9999999999035 	4.999404302916866e-12 	101324.9999999917
-0.07132132132132173 	300.0000000000099 	4.817534257010626e-12 	101324.9999999914
-0.06881881881881925 	299.9999999999603 	4.673554312604766e-12 	101324.9999999913
-0.06631631631631671 	299.9999999998993 	4.143762621992708e-12 	101324.9999999914
-0.06381381381381425 	299.9999999999569 	3.612591189851672e-12 	101324.9999999916
-0.06131131131131173 	299.9999999999579 	3.471892131656602e-12 	101324.9999999917
-0.05880880880880923 	299.9999999999209 	3.309461553552127e-12 	101324.9999999916
-0.05630630630630672 	299.9999999999677 	2.92095779329266e-12 	101324.9999999917
-0.05380380380380424 	300.0000000000137 	3.322689586225028e-12 	101324.9999999918
-0.05130130130130173 	300.0000000000115 	3.47401665456727e-12 	101324.9999999917
-0.04879879879879922 	299.9999999999479 	3.321637199991258e-12 	101324.9999999916
-0.04629629629629672 	299.9999999999361 	2.497344034975856e-12 	101324.9999999918
-0.04379379379379422 	299.9999999999212 	2.446609076040322e-12 	101324.9999999918
-0.04129129129129173 	299.9999999999769 	2.008932939750194e-12 	101324.9999999916
-0.03878878878878922 	299.9999999999815 	2.070534280614114e-12 	101324.9999999915
-0.03628628628628671 	299.9999999999807 	1.349071358824992e-12 	101324.9999999915
-0.03378378378378422 	299.9999999999319 	1.82751254931984e-12 	101324.9999999917
-0.03128128128128172 	299.9999999999694 	1.060789214652457e-12 	101324.9999999918
-0.02877877877877922 	299.9999999999695 	1.553286829451923e-12 	101324.9999999916
-0.0262762762762767 	299.9999999999062 	1.276457388932912e-12 	101324.9999999916
-0.02377377377377422 	300.0000000000149 	1.123988236320262e-12 	101324.9999999917
-0.0212712712712717 	299.999999999906 	1.328825873187994e-12 	101324.9999999919
-0.01876876876876921 	299.9999999999695 	5.784259705773089e-13 	101324.9999999917
-0.01626626626626671 	300.0000000000152 	1.142517500789005e-12 	101324.9999999916
-0.0137637637637642 	299.9999999999649 	5.610522971208367e-13 	101324.9999999916
-0.0112612612612617 	300.0000000000134 	8.470784290032692e-13 	101324.9999999917
-0.008758758758759198 	299.999999999994 	5.378269993244415e-13 	101324.9999999918
-0.006256256256256697 	299.9999999998917 	4.775996790623401e-13 	101324.9999999915
-0.003753753753754195 	299.9999999999542 	6.706036708950584e-13 	101324.9999999915
-0.001251251251251693 	299.9999999999314 	8.961793191619659e-13 	101324.9999999913
0.00125125125125081 	299.9999999999549 	2.140840619076392e-12 	101324.999999991
0.003753753753753312 	299.9999999999653 	1.59404313234132e-12 	101324.9999999912
0.006256256256255817 	299.9999999998905 	2.537090665576687e-12 	101324.9999999911
0.008758758758758317 	299.9999999999905 	2.334151422542428e-12 	101324.9999999912
0.01126126126126082 	300.0000000000071 	2.206946749326286e-12 	101324.9999999913
0.01376376376376332 	299.999999999969 	1.730903455756987e-12 	101324.9999999913
0.01626626626626582 	300.000000000009 	1.596992075778934e-12 	101324.9999999914
0.01876876876876833 	299.9999999999583 	1.005574208842847e-12 	101324.9999999915
0.02127127127127083 	299.9999999999717 	1.159720207577582e-12 	101324.9999999916
0.02377377377377332 	299.9999999999961 	8.440611390099002e-13 	101324.9999999918
0.02627627627627583 	299.9999999999098 	9.760834295223701e-13 	101324.9999999918
0.02877877877877833 	300.0000000000085 	1.400702242214636e-12 	101324.9999999919
0.03128128128128083 	299.9999999999466 	1.105112312993158e-12 	101324.9999999919
0.03378378378378333 	299.9999999999089 	1.987614870346586e-12 	101324.999999992
0.03628628628628584 	299.9999999999753 	2.077581542891594e-12 	101324.9999999922
0.03878878878878834 	299.9999999999814 	2.160274813929991e-12 	101324.999999992
0.04129129129129084 	299.9999999999768 	2.488775426633786e-12 	101324.9999999919
0.04379379379379333 	299.9999999999426 	2.563917983456899e-12 	101324.9999999918
0.04629629629629585 	299.999999999897 	1.918864552860393e-12 	101324.9999999918
0.04879879879879834 	299.9999999999563 	2.148060843837421e-12 	101324.999999992
0.05130130130130085 	300.0000000000142 	2.17111544389237e-12 	101324.9999999917
0.05380380380380335 	300.0000000000135 	1.555859635427486e-12 	101324.9999999916
0.05630630630630584 	299.9999999999886 	1.443079507593878e-12 	101324.9999999914
0.05880880880880836 	299.9999999999227 	1.546627547770906e-12 	101324.9999999911
0.06131131131131085 	299.9999999999763 	2.221906772716385e-12 	101324.999999991
0.06381381381381336 	299.9999999999663 	2.736816713294157e-12 	101324.9999999911
0.06631631631631586 	299.9999999998961 	3.517705426453474e-12 	101324.9999999909
0.06881881881881835 	299.9999999999532 	3.87422025760882e-12 	101324.9999999906
0.07132132132132088 	299.9999999999855 	3.220917737219404e-12 	101324.9999999908
0.07382382382382337 	299.9999999999082 	3.58366575663551e-12 	101324.9999999912
0.07632632632632587 	299.9999999999721 	3.61622664800173e-12 	101324.9999999913
0.07882882882882837 	299.9999999999401 	3.138614035876651e-12 	101324.9999999912
0.08133133133133086 	299.9999999999831 	2.610378313628032e-12 	101324.9999999911
0.08383383383383337 	299.9999999999824 	1.191346552215399e-12 	101324.999999991
0.08633633633633589 	299.9999999999127 	1.43741266308216e-12 	101324.9999999912
0.08883883883883838 	300.0000000000093 	2.139235585921716e-12 	101324.9999999913
0.09134134134134086 	299.9999999999893 	1.844666547373249e-12 	101324.9999999914
0.09384384384384339 	299.9999999999018 	2.339477162978736e-12 	101324.9999999915
0.09634634634634588 	299.9999999999686 	2.179116090308342e-12 	101324.9999999914
0.09884884884884838 	299.9999999999729 	2.356036792519766e-12 	101324.9999999914
0.1013513513513509 	300.0000000000161 	2.406369129910605e-12 	101324.9999999915
0.1038538538538534 	299.9999999999526 	2.43702528385745e-12 	101324.9999999914
0.1063563563563559 	300.0000000000119 	2.944588583844368e-12 	101324.9999999913
0.1088588588588584 	300.0000000000277 	2.483174322002957e-12 	101324.9999999915
0.1113613613613609 	299.9999999999224 	3.040153453836051e-12 	101324.9999999916
0.1138638638638634 	299.9999999999476 	3.43677567891726e-12 	101324.9999999917
0.1163663663663659 	299.9999999999473 	3.614581308891565e-12 	101324.9999999917
0.1188688688688684 	299.9999999999708 	3.783502973110821e-12 	101324.9999999913
0.1213713713713709 	299.9999999999935 	3.405022086948219e-12 	101324.999999991
0.1238738738738734 	299.9999999999274 	3.399908823585386e-12 	101324.9999999909
0.1263763763763759 	299.9999999999874 	2.865002354754771e-12 	101324.999999991
0.1288788788788784 	299.9999999999906 	1.861590487029744e-12 	101324.999999991
0.1313813813813809 	299.9999999999884 	1.665609957045587e-12 	101324.999999991
0.1338838838838834 	299.9999999999745 	1.963473667380005e-12 	101324.9999999909
0.1363863863863859 	300.0000000000273 	1.62287391006254e-12 	101324.9999999909
0.1388888888888884 	300.0000000000425 	1.477724554695438e-12 	101324.9999999909
0.1413913913913909 	299.9999999999982 	5.726664031527417e-13 	101324.9999999907
0.1438938938938934 	299.9999999999922 	1.009329751721421e-12 	101324.9999999906
0.1463963963963959 	299.9999999999619 	2.873938566287303e-13 	101324.9999999907
0.1488988988988985 	299.9999999999167 	1.670536299451486e-12 	101324.999999991
0.1514014014014009 	299.9999999999671 	2.877058885402939e-13 	101324.9999999912
0.1539039039039035 	299.999999999965 	1.555133917481728e-12 	101324.9999999913
0.1564064064064059 	299.9999999999414 	1.232911766206293e-12 	101324.9999999913
0.1589089089089084 	299.9999999999807 	2.904008590537711e-12 	101324.9999999914
0.1614114114114109 	299.9999999999771 	1.144247803790654e-12 	101324.9999999914
0.1639139139139134 	299.999999999917 	3.32468194128094e-12 	101324.9999999915
0.166416416416416 	300.0000000000071 	2.626320536196285e-12 	101324.9999999914
0.1689189189189185 	300.0000000000261 	2.276438751312865e-12 	101324.9999999914
0.1714214214214209 	299.9999999999941 	2.963396783080091e-12 	101324.9999999913
0.1739239239239235 	299.9999999999856 	1.633401729823022e-12 	101324.9999999913
0.1764264264264259 	299.9999999999664 	3.207917434692976e-12 	101324.9999999912
0.1789289289289284 	300.0000000000024 	9.77600025159312e-13 	101324.9999999915
0.181431431431431 	299.9999999999653 	3.553719858170528e-12 	101324.9999999918
0.1839339339339334 	299.9999999999721 	2.071278276920677e-12 	101324.999999992
0.186436436436436 	299.9999999999305 	3.766064471138906e-12 	101324.999999992
0.1889389389389385 	299.9999999999828 	3.212700612881299e-12 	101324.9999999921
0.191441441441441 	299.9999999999783 	2.291763102682753e-12 	101324.9999999919
0.1939439439439434 	299.9999999999225 	3.218039175278425e-12 	101324.9999999915
0.196446446446446 	299.9999999999511 	1.605089870346354e-12 	101324.9999999919
0.1989489489489485 	299.9999999999706 	4.033605848839813e-12 	101324.9999999916
0.2014514514514509 	299.9999999999845 	2.054759578485049e-12 	101324.9999999918
0.2039539539539535 	299.9999999999915 	3.720935814880247e-12 	101324.999999992
0.2064564564564559 	299.9999999999599 	2.654784565644267e-12 	101324.9999999921
0.2089589589589585 	299.9999999999841 	2.796248700822258e-12 	101324.9999999922
0.211461461461461 	299.9999999999359 	2.92893411235006e-12 	101324.999999992
0.2139639639639635 	299.9999999999847 	2.805580795845058e-12 	101324.999999992
0.2164664664664659 	299.9999999999961 	4.548869027491837e-12 	101324.999999992
0.2189689689689684 	299.9999999999965 	2.709317294576757e-12 	101324.9999999921
0.221471471471471 	299.9999999999926 	4.972859113746798e-12 	101324.9999999921
0.2239739739739735 	299.9999999999584 	2.303647115842273e-12 	101324.9999999918
0.226476476476476 	299.999999999979 	4.006495795821774e-12 	101324.9999999916
0.2289789789789785 	299.9999999999937 	3.168199756927813e-12 	101324.9999999916
0.231481481481481 	299.9999999999906 	3.125647673021224e-12 	101324.9999999915
0.2339839839839835 	299.9999999999879 	3.439019096408345e-12 	101324.9999999914
0.236486486486486 	300.0000000000206 	1.968608675667818e-12 	101324.9999999914
0.2389889889889885 	300.0000000000011 	3.070813957110544e-12 	101324.9999999913
0.241491491491491 	299.9999999999285 	1.241601084756891e-12 	101324.9999999913
0.2439939939939935 	299.9999999999791 	3.851798623671846e-12 	101324.9999999914
0.246496496496496 	299.9999999999921 	9.001714525886001e-13 	101324.9999999913
0.2489989989989985 	300.0000000000334 	2.70372755843924e-12 	101324.9999999911
0.251501501501501 	300.000000000028 	1.178314304033361e-12 	101324.9999999912
0.2540040040040035 	299.9999999999919 	1.706249248557812e-12 	101324.9999999914
0.256506506506506 	300.0000000000246 	2.673367064745088e-12 	101324.9999999914
0.2590090090090086 	299.9999999999136 	1.097187608866864e-12 	101324.9999999916
0.261511511511511 	299.9999999999986 	3.654181060910771e-12 	101324.9999999916
0.2640140140140135 	299.9999999999909 	1.249813946492298e-12 	101324.9999999917
0.2665165165165161 	299.9999999999334 	3.578291976573607e-12 	101324.9999999915
0.2690190190190185 	300.000000000007 	2.463181061985358e-12 	101324.9999999914
0.271521521521521 	300.0000000000115 	2.919828684169508e-12 	101324.9999999915
0.2740240240240235 	300.0000000000148 	2.856660888718926e-12 	101324.9999999916
0.276526526526526 	300.0000000000071 	2.528603342368119e-12 	101324.9999999915
0.2790290290290286 	299.9999999999475 	4.033155795043171e-12 	101324.9999999913
0.281531531531531 	299.9999999999324 	2.485767566157896e-12 	101324.9999999914
0.2840340340340335 	299.999999999976 	4.419884169840843e-12 	101324.9999999915
0.2865365365365361 	299.9999999999632 	3.197932532280641e-12 	101324.9999999913
0.2890390390390385 	299.9999999999987 	3.820832446265934e-12 	101324.999999991
0.291541541541541 	299.9999999999984 	3.120599187121005e-12 	101324.9999999907
0.2940440440440436 	299.9999999999896 	1.767403681423394e-12 	101324.9999999908
0.296546546546546 	299.9999999999939 	2.753904416901621e-12 	101324.9999999911
0.2990490490490486 	299.9999999999396 	1.109650587986752e-12 	101324.9999999912
0.3015515515515511 	300.0000000000294 	3.73646737920768e-12 	101324.9999999911
0.3040540540540535 	299.9999999999944 	2.882760276349694e-12 	101324.999999991
0.3065565565565562 	299.9999999999978 	4.010138663687319e-12 	101324.9999999909
0.3090590590590585 	299.9999999999906 	2.995978287818262e-12 	101324.9999999909
0.3115615615615611 	299.9999999999444 	2.739033982590841e-12 	101324.9999999911
0.3140640640640635 	300.0000000000059 	1.725493399559543e-12 	101324.9999999911
0.316566566566566 	299.9999999999932 	1.995932528467171e-12 	101324.9999999913
0.3190690690690687 	299.9999999999539 	9.830673965964021e-13 	101324.9999999913
0.3215715715715711 	300.0000000000152 	1.945009769159804e-12 	101324.9999999913
0.3240740740740735 	300.0000000000002 	1.183866547785822e-12 	101324.9999999909
0.326576576576576 	299.9999999999138 	5.089200833097383e-13 	101324.999999991
0.3290790790790786 	300.0000000000064 	6.381560990714864e-13 	101324.999999991
0.3315815815815811 	300.0000000000278 	5.930178899808584e-13 	101324.9999999909
0.3340840840840836 	299.9999999999862 	2.903529164837798e-13 	101324.9999999911
0.3365865865865861 	300.0000000000498 	1.572235376196182e-12 	101324.9999999911
0.3390890890890886 	300.0000000000456 	3.611443243914066e-13 	101324.9999999911
0.3415915915915911 	300.0000000000014 	1.921692432270098e-12 	101324.999999991
0.3440940940940935 	299.9999999999507 	1.264398537626157e-12 	101324.9999999909
0.3465965965965962 	300.0000000000293 	3.36069313887169e-12 	101324.9999999908
0.3490990990990985 	300.000000000023 	1.534647996676787e-12 	101324.9999999908
0.3516016016016011 	299.9999999999876 	1.912475032592234e-12 	101324.9999999909
0.3541041041041035 	300.0000000000063 	1.331761705804132e-12 	101324.9999999911
0.3566066066066061 	299.9999999999615 	2.439931697356591e-13 	101324.9999999911
0.3591091091091085 	299.9999999999259 	1.277263470545197e-12 	101324.9999999913
0.3616116116116112 	299.9999999999432 	1.52301139096653e-12 	101324.9999999913
0.3641141141141137 	299.999999999936 	1.738528941234717e-12 	101324.9999999912
0.3666166166166161 	299.9999999999319 	2.764912108996309e-12 	101324.9999999912
0.3691191191191185 	300.0000000000356 	3.227541426694376e-12 	101324.9999999912
0.371621621621621 	300.000000000008 	1.65538599617148e-12 	101324.9999999911
0.3741241241241237 	300.0000000000408 	2.494468778289108e-12 	101324.9999999909
0.3766266266266261 	300.0000000000276 	1.380735070482355e-12 	101324.9999999908
0.3791291291291286 	299.9999999999862 	1.84873651129121e-12 	101324.9999999907
0.3816316316316311 	299.9999999999256 	9.551984202437294e-13 	101324.9999999907
0.3841341341341336 	300.0000000000066 	2.580507729208696e-12 	101324.9999999907
0.3866366366366362 	299.9999999999964 	1.90269191382039e-12 	101324.9999999905
0.3891391391391387 	299.9999999999579 	3.808387449325194e-12 	101324.9999999904
0.391641641641641 	299.999999999992 	2.872730983254358e-12 	101324.9999999907
0.3941441441441436 	300.00000000001 	3.326390142803991e-12 	101324.9999999907
0.3966466466466462 	300.0000000000014 	2.18117009257828e-12 	101324.9999999908
0.3991491491491486 	299.9999999999557 	2.890404393267746e-12 	101324.9999999909
0.4016516516516512 	299.9999999999266 	1.321833974209757e-12 	101324.999999991
0.4041541541541536 	299.9999999999513 	2.134755602041087e-12 	101324.9999999911
0.4066566566566561 	299.999999999952 	6.704511305349909e-13 	101324.9999999912
0.4091591591591587 	299.9999999999941 	1.264314322502558e-12 	101324.9999999913
0.4116616616616612 	300.0000000000051 	6.271597520258366e-13 	101324.9999999914
0.4141641641641635 	300.000000000034 	2.096872738669786e-13 	101324.9999999916
0.4166666666666662 	299.9999999999957 	4.786934927835174e-13 	101324.9999999914
0.4191691691691687 	299.9999999999479 	1.574447984815727e-12 	101324.9999999914
0.421671671671671 	300.0000000000106 	1.690116547214794e-12 	101324.9999999912
0.4241741741741737 	299.9999999999747 	2.542239116004813e-12 	101324.999999991
0.4266766766766761 	299.9999999999525 	2.552832339993008e-12 	101324.9999999907
0.4291791791791785 	300.0000000000155 	2.915775364993078e-12 	101324.9999999905
0.4316816816816812 	300.0000000000093 	3.163444822020627e-12 	101324.9999999906
0.4341841841841836 	299.999999999984 	3.007189566920042e-12 	101324.9999999907
0.4366866866866862 	299.9999999999294 	1.63109056820561e-12 	101324.9999999908
0.4391891891891885 	299.9999999999901 	2.189445363897142e-12 	101324.9999999907
0.4416916916916913 	299.9999999999823 	1.391629529596308e-12 	101324.9999999908
0.4441941941941936 	299.9999999999878 	9.668399722879459e-13 	101324.9999999909
0.4466966966966961 	299.9999999999244 	1.003637874224154e-12 	101324.9999999911
0.4491991991991987 	299.999999999984 	1.910152316678741e-13 	101324.9999999911
0.4517017017017012 	299.9999999999812 	1.372461202023095e-13 	101324.9999999912
0.4542042042042035 	299.9999999999839 	6.830452311227877e-14 	101324.999999991
0.4567067067067062 	299.9999999999957 	1.385830183878526e-13 	101324.9999999911
0.4592092092092087 	299.999999999933 	2.834374343885739e-13 	101324.9999999911
0.4617117117117112 	300.0000000000165 	6.649756193645861e-13 	101324.999999991
0.4642142142142137 	299.9999999999648 	8.23499742668797e-13 	101324.999999991
0.4667167167167162 	299.9999999999918 	7.999192748020902e-13 	101324.999999991
0.4692192192192187 	299.9999999999588 	7.284392617968014e-13 	101324.9999999909
0.4717217217217212 	300.0000000000113 	1.0756108645902e-12 	101324.9999999909
0.4742242242242236 	299.9999999999601 	9.591167395432795e-13 	101324.9999999909
0.4767267267267262 	299.9999999999798 	1.34756139912022e-12 	101324.9999999911
0.4792292292292287 	300.0000000000131 	1.282888728884158e-12 	101324.9999999912
0.4817317317317312 	300.00000000003 	8.255285854103544e-13 	101324.9999999911
0.4842342342342336 	299.9999999999879 	7.849430329759247e-13 	101324.9999999912
0.4867367367367362 	299.9999999999602 	5.86998246180706e-13 	101324.9999999914
0.4892392392392387 	300.0000000000261 	8.643374089518359e-13 	101324.9999999913
0.4917417417417412 	300.0000000000054 	1.239691267565574e-12 	101324.9999999911
0.4942442442442437 	299.9999999999149 	9.543488116044316e-13 	101324.9999999909
0.4967467467467462 	299.9999999999309 	1.584266408326011e-12 	101324.9999999908
0.4992492492492487 	299.9999999999278 	6.806714182338915e-13 	101324.999999991
0.5017517517517511 	299.9999999999591 	7.5882173814335e-13 	101324.9999999908
0.5042542542542537 	299.9999999999681 	2.376987760463308e-13 	101324.999999991
0.5067567567567562 	299.99999999995 	4.554654437693623e-13 	101324.999999991
0.5092592592592589 	299.9999999999736 	1.044017037862177e-12 	101324.999999991
0.5117617617617611 	299.9999999999619 	1.259157609039489e-12 	101324.999999991
0.5142642642642637 	299.9999999999856 	1.909906580916989e-12 	101324.9999999911
0.5167667667667663 	299.999999999973 	2.461715150893514e-12 	101324.9999999909
0.5192692692692688 	299.9999999999267 	2.634695238580923e-12 	101324.999999991
0.5217717717717714 	299.9999999999403 	4.185091000277271e-12 	101324.9999999909
0.5242742742742736 	299.9999999999428 	2.110311537700198e-12 	101324.9999999908
0.5267767767767763 	299.9999999999593 	3.30685670234004e-12 	101324.9999999909
0.5292792792792789 	299.9999999999432 	1.959596034987627e-12 	101324.999999991
0.5317817817817813 	299.9999999999186 	2.541822283469379e-12 	101324.9999999912
0.5342842842842837 	300.0000000000138 	1.19689352901624e-12 	101324.9999999913
0.5367867867867864 	300.0000000000023 	2.267950476582346e-12 	101324.9999999914
0.5392892892892888 	299.9999999999619 	8.796602561129531e-13 	101324.9999999914
0.5417917917917912 	300.000000000002 	1.661736619307814e-12 	101324.9999999912
0.5442942942942938 	299.9999999999861 	3.498782211083776e-13 	101324.999999991
0.5467967967967964 	299.9999999999611 	5.470304457322846e-13 	101324.999999991
0.5492992992992988 	299.9999999999515 	3.492510467549859e-13 	101324.999999991
0.5518018018018012 	299.9999999999416 	8.323651993459712e-13 	101324.9999999909
0.5543043043043039 	300.0000000000175 	7.565293675282304e-13 	101324.9999999909
0.5568068068068063 	299.9999999999903 	9.207657183798123e-13 	101324.9999999908
0.5593093093093087 	299.9999999999121 	9.3740334205589e-13 	101324.9999999909
0.5618118118118114 	299.9999999999617 	1.099308133497264e-12 	101324.9999999909
0.5643143143143137 	299.9999999999456 	4.976152583799065e-13 	101324.9999999908
0.5668168168168163 	299.999999999992 	1.424224174422725e-12 	101324.9999999909
0.5693193193193188 	300.0000000000292 	1.553441033047743e-12 	101324.999999991
0.5718218218218213 	300.0000000000239 	1.235319141249509e-12 	101324.9999999911
0.5743243243243239 	300.0000000000065 	2.153031588604273e-12 	101324.9999999911
0.5768268268268262 	300.0000000000063 	1.441901040141324e-12 	101324.9999999911
0.5793293293293288 	299.9999999999558 	2.945454140396923e-12 	101324.9999999912
0.5818318318318314 	299.9999999999256 	1.947783539988476e-12 	101324.9999999912
0.5843343343343338 	299.9999999999795 	3.896763037151206e-12 	101324.9999999913
0.5868368368368363 	299.9999999999736 	1.818554493277809e-12 	101324.9999999912
0.5893393393393387 	299.9999999999499 	2.508912112551386e-12 	101324.9999999914
0.5918418418418413 	299.9999999999454 	1.76207829229259e-12 	101324.9999999915
0.5943443443443439 	300.0000000000122 	1.444771483119736e-12 	101324.9999999916
0.5968468468468463 	300.0000000000155 	2.071122203528772e-12 	101324.9999999914
0.5993493493493487 	300.0000000000408 	1.555778932570643e-12 	101324.9999999915
0.6018518518518514 	299.9999999999803 	2.85447013248192e-12 	101324.9999999914
0.6043543543543537 	299.9999999999909 	2.145928270208075e-12 	101324.9999999915
0.6068568568568564 	299.9999999999816 	2.944490953305508e-12 	101324.9999999915
0.6093593593593587 	299.9999999999405 	1.784729046520733e-12 	101324.9999999915
0.6118618618618614 	299.9999999999309 	1.833830497675381e-12 	101324.9999999917
0.6143643643643638 	300.0000000000106 	1.067279371301898e-12 	101324.9999999917
0.6168668668668662 	299.9999999999802 	2.133273940106237e-12 	101324.9999999917
0.6193693693693688 	299.9999999999607 	8.900033721434408e-13 	101324.9999999919
0.6218718718718714 	299.9999999999688 	2.210329026783515e-12 	101324.9999999919
0.6243743743743737 	299.9999999999425 	7.169004241560221e-13 	101324.9999999918
0.6268768768768762 	299.9999999999324 	1.385736132460063e-12 	101324.9999999916
0.629379379379379 	299.9999999999561 	5.396749801064375e-13 	101324.9999999916
0.6318818818818812 	299.9999999999782 	4.698484732625048e-13 	101324.9999999915
0.6343843843843838 	300.000000000016 	7.577069843796236e-13 	101324.9999999915
0.6368868868868864 	299.9999999999817 	1.667260282407506e-12 	101324.9999999914
0.6393893893893888 	299.9999999999295 	2.281720906011444e-12 	101324.9999999915
0.6418918918918912 	300.0000000000088 	2.837968757718425e-12 	101324.9999999915
0.6443943943943939 	299.9999999999842 	3.906368447730154e-12 	101324.9999999917
0.6468968968968963 	299.9999999999841 	3.151292255090583e-12 	101324.9999999919
0.6493993993993988 	299.9999999999807 	3.236054224194165e-12 	101324.9999999921
0.6519019019019012 	299.999999999975 	2.874609487320844e-12 	101324.9999999922
0.6544044044044038 	299.9999999999149 	2.468220055240167e-12 	101324.9999999922
0.6569069069069065 	299.9999999999594 	2.41956205520069e-12 	101324.9999999922
0.6594094094094087 	299.9999999999664 	1.503607929390731e-12 	101324.9999999923
0.6619119119119113 	299.9999999999567 	2.323138957855589e-12 	101324.9999999924
0.664414414414414 	300.0000000000035 	9.462245525738062e-13 	101324.9999999925
0.6669169169169162 	300.0000000000203 	1.71776843914319e-12 	101324.9999999927
0.6694194194194188 	299.9999999999901 	8.859230353871261e-13 	101324.9999999928
0.6719219219219214 	299.9999999999323 	1.887000658186169e-12 	101324.9999999927
0.674424424424424 	299.9999999999767 	9.703291596237295e-13 	101324.9999999926
0.6769269269269262 	299.9999999999266 	1.865893594829222e-12 	101324.9999999926
0.679429429429429 	300.0000000000055 	1.15246526384973e-12 	101324.9999999926
0.6819319319319311 	299.9999999999831 	1.654055185517953e-12 	101324.9999999926
0.6844344344344341 	299.9999999999952 	5.595974867670653e-13 	101324.9999999928
0.686936936936936 	299.9999999999898 	9.853900687837562e-13 	101324.999999993
0.6894394394394392 	299.9999999999835 	3.128439563458213e-13 	101324.9999999931
0.6919419419419413 	299.9999999999868 	5.268000520957391e-13 	101324.9999999932
0.694444444444444 	299.9999999999479 	9.693528641385783e-13 	101324.9999999933
0.6969469469469463 	299.9999999999382 	1.378958629276137e-12 	101324.9999999933
0.6994494494494489 	299.9999999999283 	2.452687946217638e-12 	101324.9999999933
0.7019519519519515 	299.9999999999891 	1.969446737321035e-12 	101324.9999999932
0.7044544544544538 	299.9999999999542 	3.343471325727916e-12 	101324.9999999931
0.7069569569569564 	299.9999999999953 	1.975586310930572e-12 	101324.9999999931
0.7094594594594589 	299.9999999999696 	4.109960360568012e-12 	101324.999999993
0.7119619619619615 	299.9999999999242 	2.200530497505834e-12 	101324.9999999931
0.7144644644644638 	299.9999999999574 	3.597631695694561e-12 	101324.9999999932
0.7169669669669665 	299.9999999999331 	2.541333063820362e-12 	101324.9999999934
0.7194694694694688 	299.9999999999941 	3.096442691786876e-12 	101324.9999999935
0.7219719719719715 	299.9999999999887 	2.195378385763072e-12 	101324.9999999934
0.7244744744744737 	300.0000000000048 	2.786825877311924e-12 	101324.9999999934
0.7269769769769764 	299.9999999999966 	2.908064266546652e-12 	101324.9999999935
0.7294794794794791 	299.9999999999894 	2.174778106366931e-12 	101324.9999999936
0.7319819819819813 	299.999999999987 	3.614348795940454e-12 	101324.9999999935
0.7344844844844839 	299.9999999999318 	2.73143180628243e-12 	101324.9999999933
0.7369869869869864 	299.9999999999534 	4.072333829502847e-12 	101324.9999999932
0.739489489489489 	299.9999999999441 	3.911516772983028e-12 	101324.9999999931
0.7419919919919914 	299.9999999999344 	3.542080192605552e-12 	101324.9999999931
0.7444944944944939 	299.9999999999828 	3.506404894770624e-12 	101324.9999999932
0.7469969969969963 	299.9999999999765 	1.851462331663008e-12 	101324.9999999934
0.7494994994994989 	299.9999999999521 	3.844908215581203e-12 	101324.9999999935
0.7520020020020015 	299.9999999999749 	1.959949397263862e-12 	101324.9999999936
0.7545045045045039 	299.9999999999716 	4.571986156231237e-12 	101324.9999999936
0.7570070070070062 	299.9999999999472 	2.74548443468873e-12 	101324.9999999936
0.7595095095095092 	299.9999999999388 	4.298310428405074e-12 	101324.999999994
0.7620120120120112 	300.0000000000082 	3.396515320531437e-12 	101324.9999999942
0.7645145145145138 	299.9999999999898 	3.332213394041778e-12 	101324.9999999941
0.7670170170170165 	299.9999999999404 	3.545169404532905e-12 	101324.999999994
0.7695195195195191 	299.9999999999336 	2.904436445229063e-12 	101324.999999994
0.7720220220220213 	299.9999999999442 	5.115510737044247e-12 	101324.9999999939
0.7745245245245239 	299.9999999999405 	3.990737243333417e-12 	101324.9999999937
0.7770270270270263 	299.9999999999687 	5.842311436883611e-12 	101324.9999999935
0.779529529529529 	299.9999999999851 	4.752782826397273e-12 	101324.9999999937
0.7820320320320313 	299.9999999999757 	4.878158104511973e-12 	101324.9999999938
0.784534534534534 	299.9999999999981 	4.412223571689773e-12 	101324.9999999937
0.7870370370370364 	299.9999999999928 	3.859758680650891e-12 	101324.9999999937
0.7895395395395389 	299.99999999998 	4.504212062127883e-12 	101324.9999999938
0.7920420420420413 	299.9999999999756 	3.304818042302663e-12 	101324.9999999937
0.794544544544544 	299.9999999999729 	5.131901698809931e-12 	101324.9999999938
0.7970470470470463 	299.9999999999986 	3.517114882589229e-12 	101324.999999994
0.799549549549549 	299.999999999987 	6.28159577450793e-12 	101324.9999999943
0.8020520520520515 	299.9999999999867 	3.585386418903892e-12 	101324.9999999945
0.8045545545545539 	299.9999999999502 	5.41797567091882e-12 	101324.9999999946
0.8070570570570563 	299.9999999999839 	4.522199540211864e-12 	101324.9999999945
0.8095595595595589 	299.9999999999634 	5.252900866705303e-12 	101324.9999999946
0.8120620620620614 	299.9999999999516 	5.301974725857052e-12 	101324.9999999947
0.8145645645645638 	300.000000000003 	5.110256287838546e-12 	101324.9999999946
0.8170670670670666 	300.0000000000002 	5.434511356874385e-12 	101324.9999999945
0.8195695695695689 	299.999999999984 	3.785374676954679e-12 	101324.9999999945
0.8220720720720714 	299.9999999999531 	5.900634155232129e-12 	101324.9999999942
0.8245745745745739 	299.9999999999925 	4.216602713582379e-12 	101324.9999999944
0.8270770770770765 	299.9999999999817 	6.023903862343383e-12 	101324.9999999945
0.8295795795795788 	299.9999999999584 	5.392632334938915e-12 	101324.9999999946
0.8320820820820815 	300.0000000000113 	6.361720283253305e-12 	101324.9999999948
0.834584584584584 	300.0000000000017 	5.851321237380964e-12 	101324.9999999949
0.8370870870870865 	299.9999999999616 	5.575953587994907e-12 	101324.9999999948
0.8395895895895891 	299.9999999999365 	6.227779761637813e-12 	101324.9999999947
0.8420920920920915 	299.999999999958 	5.438648564138081e-12 	101324.9999999946
0.844594594594594 	299.999999999949 	5.528413293926718e-12 	101324.9999999947
0.8470970970970964 	299.999999999952 	5.343363156558008e-12 	101324.9999999947
0.8495995995995991 	299.9999999999932 	5.550083565749709e-12 	101324.9999999946
0.8521021021021015 	299.9999999999827 	6.191496198686942e-12 	101324.9999999947
0.8546046046046039 	299.9999999999754 	5.72022391382742e-12 	101324.9999999947
0.8571071071071066 	300.0000000000012 	6.242528639518561e-12 	101324.9999999949
0.8596096096096089 	299.9999999999727 	4.545541144478693e-12 	101324.9999999951
0.8621121121121116 	299.9999999999447 	7.724776420978038e-12 	101324.9999999952
0.8646146146146139 	299.9999999999983 	6.024765506536933e-12 	101324.9999999952
0.8671171171171166 	299.9999999999785 	7.495132546070481e-12 	101324.9999999951
0.8696196196196189 	299.9999999999496 	6.69241514242026e-12 	101324.9999999951
0.8721221221221216 	299.9999999999756 	7.102133588858396e-12 	101324.9999999951
0.874624624624624 	300.0000000000068 	6.947698293134328e-12 	101324.9999999951
0.8771271271271264 	300.0000000000003 	7.005426057473553e-12 	101324.9999999951
0.879629629629629 	299.9999999999997 	8.071845024883669e-12 	101324.9999999953
0.8821321321321317 	299.999999999986 	6.866287607469863e-12 	101324.9999999953
0.8846346346346339 	299.9999999999359 	9.440495856652476e-12 	101324.9999999951
0.8871371371371364 	299.9999999999606 	7.408323218310242e-12 	101324.9999999949
0.8896396396396391 	299.9999999999649 	8.963747188689047e-12 	101324.9999999948
0.8921421421421414 	299.9999999999707 	7.324012345973706e-12 	101324.9999999947
0.8946446446446441 	299.9999999999856 	7.747620840374853e-12 	101324.9999999945
0.8971471471471464 	299.9999999999989 	7.268092267801e-12 	101324.9999999941
0.8996496496496489 	299.9999999999806 	6.643362550885207e-12 	101324.9999999942
0.9021521521521517 	299.9999999999687 	7.202082706184923e-12 	101324.9999999943
0.9046546546546541 	299.9999999999928 	5.786240980945832e-12 	101324.9999999945
0.9071571571571564 	299.999999999954 	6.166997008947619e-12 	101324.9999999946
0.9096596596596589 	299.9999999999546 	6.182818107483052e-12 	101324.9999999945
0.9121621621621616 	300.0000000000095 	6.74733521198464e-12 	101324.9999999944
0.9146646646646639 	299.9999999999814 	6.84344241301351e-12 	101324.9999999943
0.9171671671671666 	299.9999999999517 	7.121779054694829e-12 	101324.9999999946
0.9196696696696689 	299.9999999999993 	7.860398639114074e-12 	101324.9999999948
0.9221721721721714 	300.0000000000003 	6.018567932413464e-12 	101324.9999999949
0.9246746746746741 	299.9999999999521 	8.220026990167042e-12 	101324.999999995
0.9271771771771765 	299.9999999999575 	6.3740079935276e-12 	101324.999999995
0.9296796796796791 	299.9999999999955 	8.592745566479093e-12 	101324.999999995
0.9321821821821816 	299.9999999999787 	7.603190921523101e-12 	101324.999999995
0.9346846846846838 	299.999999999958 	8.892285716803756e-12 	101324.9999999951
0.9371871871871866 	300.0000000000134 	8.257758417143069e-12 	101324.9999999951
0.9396896896896891 	300.0000000000149 	8.01091605136629e-12 	101324.999999995
0.9421921921921914 	300.0000000000108 	8.106252066207308e-12 	101324.9999999947
0.9446946946946939 	299.9999999999701 	7.15627260653678e-12 	101324.9999999946
0.9471971971971965 	299.9999999999321 	9.044506677973843e-12 	101324.9999999946
0.9496996996996991 	299.9999999999619 	7.40648480936494e-12 	101324.9999999946
0.9522022022022016 	299.9999999999748 	9.060842857055656e-12 	101324.9999999946
0.9547047047047038 	299.9999999999733 	8.033233998864185e-12 	101324.9999999946
0.9572072072072064 	299.9999999999642 	8.766276264881428e-12 	101324.9999999945
0.9597097097097093 	299.9999999999659 	8.451086231440194e-12 	101324.9999999944
0.9622122122122114 	299.9999999999596 	8.209496514255238e-12 	101324.9999999945
0.964714714714714 	299.9999999999587 	8.886733902552299e-12 	101324.9999999944
0.9672172172172167 	299.999999999964 	7.833699837028997e-12 	101324.9999999943
0.969719719719719 	299.9999999999903 	8.615265276238748e-12 	101324.9999999942
0.9722222222222214 	299.99999999998 	8.146317839052382e-12 	101324.9999999941
0.9747247247247239 	299.9999999999771 	8.333757441036018e-12 	101324.9999999941
0.9772272272272267 	300.000000000002 	7.990011226540797e-12 	101324.9999999943
0.9797297297297292 	299.9999999999898 	7.391114385698545e-12 	101324.9999999944
0.9822322322322313 	299.9999999999936 	7.893494909999156e-12 	101324.9999999944
0.9847347347347344 	299.9999999999931 	6.545657954041482e-12 	101324.9999999944
0.9872372372372363 	299.9999999999565 	8.983874691736351e-12 	101324.9999999943
0.9897397397397389 	299.9999999999788 	7.316402081150993e-12 	101324.9999999943
0.9922422422422417 	299.9999999999618 	9.468858590318072e-12 	101324.9999999944
0.9947447447447441 	299.999999999959 	8.498454436104383e-12 	101324.9999999945
0.9972472472472468 	299.9999999999655 	9.359283950075221e-12 	101324.9999999944
0.999749749749749 	299.9999999999683 	8.992205102861902e-12 	101324.9999999942
1.002252252252252 	299.9999999999872 	9.529747600356691e-12 	101324.999999994
1.004754754754754 	299.9999999999846 	9.792842520805624e-12 	101324.9999999939
1.007257257257256 	299.999999999972 	9.040598348440764e-12 	101324.9999999938
1.009759759759759 	299.9999999999637 	1.047025119636414e-11 	101324.9999999937
1.012262262262261 	299.9999999999575 	8.236842669796768e-12 	101324.9999999936
1.014764764764764 	299.9999999999349 	9.516992235352406e-12 	101324.9999999936
1.017267267267267 	299.9999999999257 	8.538693907420522e-12 	101324.9999999937
1.019769769769769 	299.9999999999576 	9.175133985590014e-12 	101324.9999999937
1.022272272272272 	299.9999999999714 	8.386934133053703e-12 	101324.9999999939
1.024774774774774 	299.9999999999804 	8.235359071335251e-12 	101324.9999999939
1.027277277277277 	299.9999999999771 	8.858490739488278e-12 	101324.9999999938
1.029779779779779 	300.000000000001 	7.588681793328253e-12 	101324.9999999939
1.032282282282282 	300.0000000000011 	8.159578828915339e-12 	101324.9999999941
1.034784784784784 	299.999999999993 	7.973582124859851e-12 	101324.9999999942
1.037287287287286 	299.9999999999697 	8.582902642423114e-12 	101324.9999999942
1.039789789789789 	299.9999999999788 	8.362828395608089e-12 	101324.9999999943
1.042292292292291 	300.0000000000092 	8.331450453638981e-12 	101324.9999999944
1.044794794794794 	300.0000000000202 	8.412282145503059e-12 	101324.9999999944
1.047297297297296 	300.0000000000325 	7.131797474987061e-12 	101324.9999999945
1.049799799799799 	299.9999999999923 	8.234657791229757e-12 	101324.9999999945
1.052302302302302 	299.9999999999658 	6.454738785871855e-12 	101324.9999999944
1.054804804804804 	299.9999999999491 	7.881615580163039e-12 	101324.9999999944
1.057307307307306 	299.9999999999327 	6.495634426378137e-12 	101324.9999999944
1.059809809809809 	299.9999999999579 	6.971628848503207e-12 	101324.9999999944
1.062312312312312 	299.9999999999536 	6.133701485667777e-12 	101324.9999999943
1.064814814814814 	299.9999999999518 	6.724526583321691e-12 	101324.9999999943
1.067317317317317 	299.9999999999359 	7.216454822165086e-12 	101324.9999999945
1.069819819819819 	299.999999999937 	7.513386545669445e-12 	101324.9999999948
1.072322322322321 	299.9999999999928 	9.545414649161749e-12 	101324.9999999946
1.074824824824824 	300.0000000000166 	8.313019927606659e-12 	101324.9999999945
1.077327327327327 	300.00000000003 	9.659421609219396e-12 	101324.9999999946
1.079829829829829 	300.0000000000304 	8.339145253260621e-12 	101324.9999999946
1.082332332332332 	299.9999999999979 	9.005873737781351e-12 	101324.9999999944
1.084834834834834 	299.9999999999751 	8.671424527826227e-12 	101324.9999999943
1.087337337337337 	299.9999999999465 	8.494141786427463e-12 	101324.9999999942
1.089839839839839 	299.9999999999395 	9.521951042090589e-12 	101324.9999999942
1.092342342342342 	299.9999999999719 	8.326165495021405e-12 	101324.9999999943
1.094844844844844 	299.9999999999737 	8.992337509496167e-12 	101324.9999999943
1.097347347347347 	299.9999999999504 	7.446870652761751e-12 	101324.9999999944
1.099849849849849 	299.999999999939 	9.839758571808465e-12 	101324.9999999944
1.102352352352352 	299.9999999999627 	8.228534347489585e-12 	101324.9999999944
1.104854854854854 	299.9999999999833 	1.034561029740494e-11 	101324.9999999943
1.107357357357357 	299.9999999999679 	9.011535716440174e-12 	101324.9999999942
1.109859859859859 	299.999999999955 	1.038358322169696e-11 	101324.9999999941
1.112362362362362 	300.0000000000154 	9.122068017001158e-12 	101324.999999994
1.114864864864865 	300.0000000000161 	8.925509370827005e-12 	101324.9999999939
1.117367367367367 	299.9999999999719 	9.353982062749136e-12 	101324.9999999937
1.119869869869869 	299.9999999999397 	7.707120421325166e-12 	101324.9999999939
1.122372372372372 	299.9999999999672 	8.560610513521586e-12 	101324.9999999942
1.124874874874874 	299.9999999999638 	7.598000336141819e-12 	101324.9999999945
1.127377377377377 	299.9999999999746 	8.599193120097375e-12 	101324.9999999945
1.129879879879879 	300.0000000000172 	7.950733030419685e-12 	101324.9999999944
1.132382382382382 	300.0000000000202 	8.472586852564728e-12 	101324.9999999944
1.134884884884884 	299.9999999999995 	8.374734114983988e-12 	101324.9999999943
1.137387387387387 	300.0000000000113 	8.116295552117901e-12 	101324.9999999943
1.139889889889889 	299.9999999999629 	8.639597596084171e-12 	101324.9999999942
1.142392392392392 	299.9999999999537 	7.050063640851474e-12 	101324.9999999943
1.144894894894894 	300.0000000000101 	7.769730248378161e-12 	101324.9999999944
1.147397397397397 	299.9999999999997 	6.864895745031535e-12 	101324.9999999942
1.149899899899899 	299.9999999999462 	7.99943691808584e-12 	101324.9999999941
1.152402402402402 	299.9999999999361 	7.270235602999655e-12 	101324.999999994
1.154904904904904 	299.9999999999782 	7.397528125427344e-12 	101324.9999999941
1.157407407407407 	299.9999999999802 	6.413068305209819e-12 	101324.9999999941
1.159909909909909 	299.9999999999472 	6.537443724057807e-12 	101324.999999994
1.162412412412412 	299.9999999999329 	8.385338144909186e-12 	101324.9999999939
1.164914914914914 	299.9999999999662 	7.872162987294027e-12 	101324.9999999939
1.167417417417417 	299.9999999999776 	9.42651408787791e-12 	101324.999999994
1.169919919919919 	300.0000000000152 	8.503069374839933e-12 	101324.9999999942
1.172422422422422 	300.0000000000329 	8.816551671432944e-12 	101324.9999999942
1.174924924924925 	299.9999999999879 	7.489138622535337e-12 	101324.9999999942
1.177427427427427 	299.9999999999707 	7.722872951642111e-12 	101324.9999999942
1.179929929929929 	300.0000000000073 	8.073431109265792e-12 	101324.9999999942
1.182432432432432 	300.0000000000227 	6.973386740267396e-12 	101324.9999999942
1.184934934934934 	299.9999999999992 	8.208258808628776e-12 	101324.9999999943
1.187437437437437 	299.9999999999848 	7.16759083787472e-12 	101324.9999999944
1.189939939939939 	299.9999999999791 	7.488941457099426e-12 	101324.9999999945
1.192442442442442 	299.9999999999412 	6.401256000495132e-12 	101324.9999999946
1.194944944944944 	299.9999999999479 	7.080093198962084e-12 	101324.9999999945
1.197447447447447 	300.000000000007 	6.551820091637774e-12 	101324.9999999945
1.199949949949949 	300.0000000000163 	6.652295988710007e-12 	101324.9999999945
1.202452452452452 	299.9999999999618 	7.342130807662046e-12 	101324.9999999945
1.204954954954955 	299.9999999999582 	6.457837570827464e-12 	101324.9999999944
1.207457457457457 	299.9999999999932 	7.414841102542654e-12 	101324.9999999944
1.20995995995996 	299.9999999999875 	6.607653840766572e-12 	101324.9999999944
1.212462462462462 	299.9999999999811 	7.288333056468435e-12 	101324.9999999944
1.214964964964964 	299.9999999999799 	6.472286054193518e-12 	101324.9999999944
1.217467467467467 	299.9999999999802 	7.121605444058013e-12 	101324.9999999944
1.219969969969969 	299.9999999999698 	6.181944072213356e-12 	101324.9999999946
1.222472472472472 	300.0000000000084 	6.243113978714898e-12 	101324.9999999948
1.224974974974975 	300.0000000000227 	6.320786791893212e-12 	101324.9999999948
1.227477477477477 	299.9999999999885 	4.859742970839352e-12 	101324.9999999946
1.229979979979979 	299.9999999999871 	5.499193019733335e-12 	101324.9999999947
1.232482482482482 	299.9999999999599 	4.504148647877236e-12 	101324.9999999946
1.234984984984984 	299.9999999999583 	5.72905386778378e-12 	101324.9999999946
1.237487487487487 	299.9999999999881 	5.204759345802184e-12 	101324.9999999947
1.239989989989989 	299.9999999999923 	6.060012689746706e-12 	101324.9999999948
1.242492492492492 	300.0000000000169 	6.222638533537555e-12 	101324.9999999946
1.244994994994994 	299.9999999999949 	5.077570769619677e-12 	101324.9999999947
1.247497497497497 	300 	6.007023502879945e-12 	101324.9999999948
1.249999999999999 	300.0000000000489 	5.342156964143487e-12 	101324.9999999949
