-1.25 	300 	1 	101354.3892626146
-1.247497497497497 	299.8359211689705 	21.72873109089318 	101399.2818006396
-1.244994994994995 	299.8313029225322 	20.14132756928423 	101364.5989796864
-1.242492492492492 	299.8824330461064 	18.64478710406756 	101398.5903784024
-1.23998998998999 	299.891707269644 	17.21385357730308 	101372.374556855
-1.237487487487487 	299.9312353177465 	15.86198684820512 	101398.0673042175
-1.234984984984985 	299.9362978640406 	14.57425672867547 	101375.8064206535
-1.232482482482482 	299.9675278557742 	13.35986664209113 	101396.5573375344
-1.22997997997998 	299.9680008578805 	12.2119200452773 	101375.9980757857
-1.227477477477477 	299.9918817866416 	11.13380377974299 	101392.1042112372
-1.224974974974975 	299.9886849348955 	10.12431128668613 	101372.8667706959
-1.222472472472472 	300.0072004430867 	9.179067521249115 	101385.891919359
-1.21996996996997 	300.001954089009 	8.305120735853492 	101368.6419029089
-1.217467467467467 	300.0153184981899 	7.488139828465423 	101378.1452858969
-1.214964964964965 	300.0082988735114 	6.741320935248561 	101362.1131438141
-1.212462462462462 	300.0169325455267 	6.045162225811415 	101367.9764138543
-1.20995995995996 	300.0097603838193 	5.417039917242131 	101354.2063812816
-1.207457457457457 	300.0154460717855 	4.8289619760056 	101358.0039118585
-1.204954954954955 	300.0088306345488 	4.305866084699893 	101346.6218283797
-1.202452452452452 	300.0113131966927 	3.817187186761335 	101347.6569616634
-1.19994994994995 	300.0051203971399 	3.386382406688903 	101337.9802922589
-1.197447447447447 	300.0063178308686 	2.980985889358719 	101338.183686037
-1.194944944944945 	300.002294885184 	2.629792855316768 	101331.8907481597
-1.192442442442442 	300.002053426427 	2.299888109180302 	101330.8742585785
-1.18993993993994 	299.9981165535357 	2.013507406929672 	101325.2183816001
-1.187437437437437 	299.9979396387874 	1.744781196252148 	101324.5796404093
-1.184934934934935 	299.9972543745818 	1.514762939080031 	101323.1309858035
-1.182432432432432 	299.9967835113698 	1.300979924718743 	101322.3505753933
-1.17992992992993 	299.9948245880144 	1.114325266635412 	101319.6155063588
-1.177427427427427 	299.9950812240049 	0.9433397158521735 	101319.8170988093
-1.174924924924925 	299.9979126712543 	0.7942371204893666 	101322.901974199
-1.172422422422422 	299.9993059878915 	0.6677792862141173 	101324.5154703003
-1.16991991991992 	299.9990069251774 	0.5430848105437962 	101323.992923786
-1.167417417417417 	300.0010157237961 	0.4412205300552663 	101326.3589040856
-1.164914914914915 	300.0060125565143 	0.3462703982838068 	101332.1685004659
-1.162412412412412 	300.0096018043585 	0.2888733361004948 	101336.4291000965
-1.15990990990991 	300.0110930132449 	0.1930632037083962 	101338.1310863856
-1.157407407407407 	300.0215695166179 	0.1284131134820926 	101350.5268895416
-1.154904904904904 	300.016324206204 	0.08471279164158924 	101344.297445746
-1.152402402402403 	300.0254056294849 	0.06042851686848288 	101355.0392280992
-1.1498998998999 	300.0285647293601 	0.08386569456601747 	101358.7714504536
-1.147397397397397 	300.0327040835532 	0.09470715775827385 	101363.6663207415
-1.144894894894895 	300.0367617023272 	0.1064230549708527 	101368.4646883172
-1.142392392392392 	300.0406552715839 	0.1176842855086729 	101373.0690790979
-1.13988988988989 	300.0443388028017 	0.1283438063232356 	101377.4253007632
-1.137387387387387 	300.0477860126062 	0.1383083435557958 	101381.5022611048
-1.134884884884885 	300.0509439928676 	0.1474185310105621 	101385.2371319978
-1.132382382382382 	300.0537199099942 	0.1554199402710263 	101388.5202458972
-1.12987987987988 	300.056018358233 	0.1620565319291242 	101391.2388701462
-1.127377377377377 	300.0577927217098 	0.1671981332980909 	101393.3375141469
-1.124874874874875 	300.0590584159254 	0.1708779330209866 	101394.8344965424
-1.122372372372372 	300.0598592462759 	0.1731977066332666 	101395.7819164896
-1.11986986986987 	300.0602038193762 	0.1741753178193348 	101396.1895080403
-1.117367367367367 	300.0600527744701 	0.1737261633585525 	101396.0107108725
-1.114864864864865 	300.0593895015087 	0.1718163339165731 	101395.2263828274
-1.112362362362362 	300.0582513683015 	0.1685252536908035 	101393.8803736372
-1.10985985985986 	300.0566622948029 	0.1639055757913037 	101392.0008523489
-1.107357357357357 	300.054594191603 	0.1579012724442103 	101389.5549100786
-1.104854854854855 	300.0520282812044 	0.1504858995725328 	101386.5202757205
-1.102352352352353 	300.0490255880464 	0.1418368071565862 	101382.9690155675
-1.09984984984985 	300.0457285181551 	0.1323432162302369 	101379.0697200141
-1.097347347347347 	300.0422966894012 	0.1224310767361964 	101375.0111951111
-1.094844844844845 	300.0388132308457 	0.1123267777433778 	101370.8916765284
-1.092342342342342 	300.0352539099327 	0.1019985809778176 	101366.6826226486
-1.08983983983984 	300.0315855873503 	0.09139626556795208 	101362.3448052401
-1.087337337337337 	300.0278791731452 	0.08071599069070168 	101357.9619587861
-1.084834834834835 	300.024288615326 	0.07036638850702917 	101353.7162897517
-1.082332332332332 	300.0209580765302 	0.0607530906803368 	101349.7782805719
-1.07982982982983 	300.0179856726852 	0.05215914644956905 	101346.2636660181
-1.077327327327327 	300.0154173483646 	0.04471152008588252 	101343.2269466162
-1.074824824824825 	300.0132365978037 	0.03838308652747692 	101340.64862403
-1.072322322322323 	300.011421207876 	0.03315258871847945 	101338.5021696165
-1.06981981981982 	300.0100470654496 	0.02924458659671821 	101336.877446895
-1.067317317317317 	300.0092882108245 	0.02711216256052709 	101335.9802970007
-1.064814814814815 	300.0092808763525 	0.02709784260536789 	101335.9715426337
-1.062312312312312 	300.0100011642107 	0.02913002941776789 	101336.8230079465
-1.05980980980981 	300.0112752609131 	0.03274137615200362 	101338.3294008653
-1.057307307307307 	300.0128812051002 	0.037339320770204 	101340.2280851019
-1.054804804804805 	300.0146816325816 	0.04258857235247551 	101342.3567401398
-1.052302302302302 	300.0167742967694 	0.04879652264035386 	101344.830988137
-1.0497997997998 	300.0195241945033 	0.05691608445556799 	101348.0822553198
-1.047297297297297 	300.0232712203205 	0.06772773702842162 	101352.5126744332
-1.044794794794795 	300.027841319847 	0.08069320493687286 	101357.9165981695
-1.042292292292292 	300.0325078672191 	0.0939759584863003 	101363.4347094738
-1.03978978978979 	300.0366747351808 	0.1061190508860841 	101368.362194278
-1.037287287287287 	300.0405365873287 	0.1176177801824609 	101372.9291642437
-1.034784784784785 	300.0448833408182 	0.130410524427051 	101378.069567627
-1.032282282282283 	300.0502012195734 	0.1456499747415827 	101384.3587589521
-1.02977977977978 	300.0560432291861 	0.1621911023841076 	101391.2682577091
-1.027277277277277 	300.0614281046046 	0.1775920088974551 	101397.6373474762
-1.024774774774775 	300.065861724793 	0.1906321890915183 	101402.881614894
-1.022272272272272 	300.0698603084495 	0.2025928983963294 	101407.6114055477
-1.01976976976977 	300.0743887760556 	0.2158436058861443 	101412.9680032963
-1.017267267267267 	300.0797636623603 	0.2310750988286411 	101419.3262712745
-1.014764764764765 	300.0850836402692 	0.2458519571616437 	101425.6199761295
-1.012262262262262 	300.0887197347354 	0.2558924555705484 	101429.9217961111
-1.00975975975976 	300.0894919767427 	0.258203805693748 	101430.835321674
-1.007257257257257 	300.0877402754826 	0.2538603403745611 	101428.7631160582
-1.004754754754755 	300.0854725159514 	0.248334551621706 	101426.0804470705
-1.002252252252252 	300.0854160321578 	0.2490774506115506 	101426.0142344918
-0.9997497497497498 	300.089744687097 	0.2619582717226919 	101431.1348834157
-0.9972472472472473 	300.0989833675668 	0.2882030799286022 	101442.0642093981
-0.9947447447447449 	300.1114563764813 	0.3231472842378083 	101456.8223733821
-0.9922422422422421 	300.1238921490111 	0.35785617535479 	101471.5385274582
-0.9897397397397399 	300.1328197927504 	0.3826825497690949 	101482.104462221
-0.9872372372372376 	300.1356917678841 	0.3904434649916215 	101485.5028917278
-0.9847347347347346 	300.1314296803999 	0.3781032834769567 	101480.4583815047
-0.9822322322322323 	300.1205398779091 	0.3470791848130238 	101467.5728286058
-0.9797297297297296 	300.1048200647105 	0.3023635841884595 	101448.9727363703
-0.9772272272272275 	300.0867148062891 	0.2507489838071085 	101427.5518832103
-0.9747247247247248 	300.0685679969098 	0.1987982318522747 	101406.0849723483
-0.9722222222222224 	300.0520756113127 	0.1513646361105912 	101386.5778916302
-0.9697197197197196 	300.0381414596985 	0.1111266362899474 	101370.0986878897
-0.9672172172172175 	300.0270276343284 	0.0789232033460975 	101356.9562545241
-0.9647147147147147 	300.0185778387249 	0.05436544432436462 	101346.9648902379
-0.9622122122122124 	300.0124133464245 	0.03640076619073599 	101339.676172316
-0.9597097097097099 	300.0080773467984 	0.02373301123295848 	101334.5496171914
-0.9572072072072073 	300.0051262300391 	0.0150909899370509 	101331.0605362932
-0.9547047047047047 	300.0031772326533 	0.009370888354360873 	101328.7562928995
-0.9522022022022023 	300.0019253996789 	0.005689107439384552 	101327.2763025928
-0.9496996996996998 	300.0011419695311 	0.003380265829790973 	101326.3500910911
-0.9471971971971973 	300.000663502821 	0.001967413245532122 	101325.7844247437
-0.9446946946946947 	300.0003779539088 	0.001122620584884484 	101325.4468354836
-0.9421921921921923 	300.0002112334643 	0.0006284695102499175 	101325.2497307326
-0.93968968968969 	300.0001159060527 	0.0003454155654482648 	101325.1370300784
-0.9371871871871872 	300.00006247933 	0.0001864980745182382 	101325.0738663747
-0.9346846846846848 	300.0000331054631 	9.897572511795013e-05 	101325.0391391154
-0.9321821821821823 	300.0000172514071 	5.165752231534687e-05 	101325.0203956038
-0.9296796796796799 	300.000008845513 	2.652780876329259e-05 	101325.0104576781
-0.9271771771771771 	300.0000044646903 	1.341003858795311e-05 	101325.0052784268
-0.9246746746746748 	300.0000022192888 	6.675820614956451e-06 	101325.0026237885
-0.9221721721721724 	300.0000010868473 	3.274150562502124e-06 	101325.0012849353
-0.9196696696696698 	300.0000005245735 	1.58261574699912e-06 	101325.0006201892
-0.9171671671671672 	300.0000002496074 	7.542032776514863e-07 	101325.0002951281
-0.9146646646646649 	300.0000001171536 	3.544734237111801e-07 	101325.0001385108
-0.9121621621621623 	300.0000000542543 	1.643613880612459e-07 	101325.0000641325
-0.9096596596596597 	300.0000000247733 	7.520878593178064e-08 	101325.0000293033
-0.9071571571571573 	300.0000000111766 	3.39718082140653e-08 	101325.0000132163
-0.9046546546546547 	300.0000000049899 	1.515222059290907e-08 	101325.0000058848
-0.9021521521521524 	300.0000000021786 	6.675960696947153e-09 	101325.0000025872
-0.8996496496496498 	300.000000000947 	2.905487856107086e-09 	101325.0000011229
-0.8971471471471473 	300.0000000004165 	1.24966293388534e-09 	101325.0000004806
-0.894644644644645 	300.0000000001762 	5.316244812150019e-10 	101325.0000002024
-0.892142142142142 	300.000000000074 	2.230733789012389e-10 	101325.0000000832
-0.8896396396396397 	300.0000000000369 	9.347919944933657e-11 	101325.0000000327
-0.8871371371371374 	299.9999999999953 	3.753074075618269e-11 	101325.0000000113
-0.8846346346346349 	299.99999999998 	1.64917960664628e-11 	101325.0000000026
-0.8821321321321324 	299.9999999999777 	5.386706793853319e-12 	101324.9999999992
-0.8796296296296297 	299.9999999999783 	4.080917880230379e-12 	101324.9999999978
-0.8771271271271271 	299.9999999999782 	2.681215896037752e-12 	101324.9999999974
-0.8746246246246248 	299.9999999999952 	2.775380049505215e-12 	101324.9999999974
-0.8721221221221224 	300.000000000003 	2.024974902931159e-12 	101324.9999999974
-0.8696196196196196 	299.9999999999875 	1.800237341569901e-12 	101324.9999999972
-0.8671171171171175 	299.9999999999956 	1.597109277196629e-12 	101324.999999997
-0.8646146146146148 	299.9999999999758 	1.152303473814988e-12 	101324.9999999969
-0.8621121121121121 	299.9999999999907 	1.085063302885784e-12 	101324.9999999968
-0.8596096096096097 	300.0000000000086 	5.172928344278931e-13 	101324.9999999968
-0.857107107107107 	299.9999999999845 	2.419458357959174e-13 	101324.9999999968
-0.8546046046046049 	299.999999999995 	3.152284941826122e-13 	101324.9999999969
-0.8521021021021022 	300.0000000000029 	1.683054046407558e-13 	101324.9999999969
-0.8495995995995997 	299.9999999999973 	4.063483373678101e-13 	101324.9999999968
-0.8470970970970974 	299.9999999999696 	8.111685829392157e-13 	101324.9999999967
-0.8445945945945946 	299.9999999999797 	8.982694639789826e-13 	101324.9999999967
-0.8420920920920922 	300.0000000000027 	1.056867467246829e-12 	101324.9999999968
-0.8395895895895897 	299.9999999999978 	2.077008493390498e-12 	101324.9999999969
-0.8370870870870872 	299.9999999999991 	1.595245115398796e-12 	101324.9999999968
-0.8345845845845846 	300.0000000000021 	1.682880247894479e-12 	101324.9999999968
-0.8320820820820823 	299.9999999999797 	9.085432442517298e-13 	101324.9999999968
-0.8295795795795798 	299.9999999999624 	8.98000524691648e-13 	101324.9999999968
-0.8270770770770772 	299.9999999999786 	1.342579643279792e-12 	101324.9999999968
-0.8245745745745746 	299.9999999999669 	9.771667609692259e-13 	101324.999999997
-0.8220720720720721 	299.9999999999797 	1.516309709620384e-12 	101324.9999999972
-0.8195695695695699 	299.9999999999958 	8.851702881052057e-13 	101324.9999999972
-0.817067067067067 	299.9999999999799 	2.249742867258375e-12 	101324.9999999971
-0.8145645645645651 	299.9999999999662 	1.45287252868349e-12 	101324.9999999972
-0.8120620620620621 	299.9999999999933 	9.929041671342347e-13 	101324.9999999972
-0.8095595595595597 	300.000000000005 	8.5787046973615e-13 	101324.9999999972
-0.8070570570570572 	299.9999999999769 	5.758468384155618e-13 	101324.999999997
-0.8045545545545546 	299.9999999999733 	1.439164367439917e-12 	101324.9999999968
-0.8020520520520523 	299.9999999999915 	1.331003961337088e-12 	101324.9999999966
-0.7995495495495494 	300.0000000000066 	2.43439254851468e-12 	101324.9999999965
-0.7970470470470474 	299.9999999999992 	2.886618796327684e-12 	101324.9999999964
-0.7945445445445446 	300.0000000000014 	2.913632183236494e-12 	101324.9999999962
-0.7920420420420423 	300.0000000000053 	3.424172234883498e-12 	101324.9999999962
-0.7895395395395397 	300.0000000000033 	3.130599443302873e-12 	101324.9999999962
-0.7870370370370371 	299.9999999999981 	2.982726903629145e-12 	101324.9999999964
-0.7845345345345348 	299.9999999999844 	2.919428986066307e-12 	101324.9999999965
-0.7820320320320323 	299.9999999999851 	2.647641507792723e-12 	101324.9999999964
-0.7795295295295296 	299.9999999999664 	2.933468700353967e-12 	101324.9999999964
-0.7770270270270272 	299.9999999999584 	3.292075315896429e-12 	101324.9999999963
-0.7745245245245247 	299.9999999999552 	2.721158635243892e-12 	101324.9999999962
-0.7720220220220222 	299.999999999974 	2.801029893194658e-12 	101324.9999999961
-0.7695195195195199 	299.9999999999766 	2.209293548574589e-12 	101324.9999999962
-0.767017017017017 	299.9999999999901 	3.110641904446915e-12 	101324.9999999964
-0.7645145145145147 	300.0000000000066 	3.278627223838477e-12 	101324.9999999965
-0.7620120120120122 	300.0000000000112 	3.629805781317768e-12 	101324.9999999966
-0.7595095095095097 	299.9999999999674 	3.9745450583519e-12 	101324.9999999967
-0.7570070070070072 	299.9999999999686 	5.179172700296169e-12 	101324.9999999967
-0.7545045045045048 	299.9999999999931 	4.699336843296325e-12 	101324.9999999965
-0.7520020020020022 	299.9999999999837 	4.424923499052475e-12 	101324.9999999963
-0.7494994994994997 	299.9999999999785 	3.519367200469989e-12 	101324.9999999959
-0.7469969969969972 	299.9999999999944 	2.511222690925257e-12 	101324.9999999958
-0.7444944944944945 	299.9999999999916 	2.306438654552491e-12 	101324.9999999957
-0.7419919919919924 	299.9999999999915 	1.182627714067403e-12 	101324.9999999957
-0.7394894894894897 	299.999999999977 	6.010221497870467e-13 	101324.9999999958
-0.7369869869869872 	299.9999999999926 	3.283025606871338e-13 	101324.9999999958
-0.7344844844844846 	299.9999999999831 	6.818555729263278e-13 	101324.9999999957
-0.7319819819819822 	300.0000000000003 	7.997733245840615e-13 	101324.9999999958
-0.7294794794794797 	299.9999999999966 	1.638167446831741e-12 	101324.9999999957
-0.7269769769769773 	300.0000000000034 	1.019887735962586e-12 	101324.9999999959
-0.7244744744744747 	300.0000000000073 	9.594937153808951e-13 	101324.9999999963
-0.721971971971972 	299.9999999999788 	6.995339989033304e-13 	101324.9999999963
-0.7194694694694695 	299.9999999999928 	5.93119182545758e-13 	101324.9999999964
-0.7169669669669674 	299.9999999999687 	3.408363912686737e-13 	101324.9999999964
-0.7144644644644647 	299.9999999999867 	4.132642809707012e-13 	101324.9999999964
-0.711961961961962 	300.0000000000034 	5.558110610065966e-13 	101324.9999999963
-0.7094594594594597 	300.0000000000045 	4.909147737359559e-13 	101324.9999999962
-0.7069569569569573 	300.0000000000106 	1.039298353636422e-12 	101324.9999999962
-0.7044544544544545 	300.0000000000131 	3.673060717426802e-13 	101324.9999999962
-0.7019519519519523 	300.0000000000015 	6.731384100824685e-13 	101324.9999999965
-0.6994494494494495 	299.9999999999655 	8.962977415265327e-13 	101324.9999999964
-0.6969469469469471 	299.9999999999718 	9.503069490700734e-13 	101324.9999999964
-0.6944444444444446 	299.9999999999794 	1.048728854293098e-12 	101324.9999999964
-0.6919419419419421 	300.0000000000109 	1.50997652984418e-12 	101324.9999999963
-0.6894394394394396 	299.999999999997 	1.27382709656505e-12 	101324.9999999963
-0.6869369369369374 	300.000000000004 	1.268932174667387e-12 	101324.9999999964
-0.6844344344344344 	300.0000000000102 	6.775925553791717e-13 	101324.9999999965
-0.6819319319319321 	299.9999999999812 	8.344820464369379e-13 	101324.9999999966
-0.6794294294294296 	299.9999999999722 	6.45245513132836e-13 	101324.9999999967
-0.6769269269269272 	299.9999999999594 	5.552468131322318e-13 	101324.9999999967
-0.6744244244244245 	299.9999999999843 	2.24173782214734e-13 	101324.9999999968
-0.6719219219219222 	299.9999999999816 	3.438702565176926e-13 	101324.9999999967
-0.6694194194194195 	299.9999999999987 	3.094670895950186e-13 	101324.9999999966
-0.6669169169169172 	300.000000000008 	7.485773454577095e-13 	101324.9999999965
-0.6644144144144146 	299.9999999999808 	5.111613830201939e-13 	101324.9999999963
-0.661911911911912 	299.9999999999825 	5.352588831817507e-13 	101324.9999999964
-0.6594094094094097 	299.9999999999872 	1.061655732946914e-12 	101324.9999999963
-0.656906906906907 	299.9999999999708 	1.163128400284374e-12 	101324.9999999962
-0.6544044044044046 	299.9999999999741 	2.762922631752238e-12 	101324.9999999963
-0.6519019019019021 	299.9999999999948 	1.863329567688345e-12 	101324.9999999965
-0.6493993993993996 	300.0000000000109 	3.087798413066469e-12 	101324.9999999967
-0.6468968968968971 	300.0000000000145 	1.597751755550676e-12 	101324.9999999968
-0.6443943943943946 	299.9999999999968 	1.837417684802309e-12 	101324.9999999967
-0.6418918918918921 	299.9999999999964 	1.497418506477261e-12 	101324.9999999966
-0.6393893893893897 	299.9999999999982 	6.338758708788123e-13 	101324.9999999966
-0.6368868868868871 	299.999999999987 	8.573830534724907e-13 	101324.9999999966
-0.6343843843843846 	299.9999999999981 	7.18123419902663e-13 	101324.9999999965
-0.6318818818818821 	299.9999999999796 	4.477645901306914e-13 	101324.9999999966
-0.6293793793793795 	300.0000000000017 	3.684823708924828e-13 	101324.9999999966
-0.6268768768768773 	300.0000000000076 	5.917363360599489e-13 	101324.9999999968
-0.6243743743743745 	299.9999999999894 	3.822875730871831e-13 	101324.9999999968
-0.6218718718718721 	300.0000000000027 	1.793712463751071e-12 	101324.9999999969
-0.6193693693693696 	299.999999999971 	1.420925744803527e-12 	101324.999999997
-0.6168668668668671 	299.9999999999916 	2.560510810408417e-12 	101324.9999999974
-0.6143643643643645 	300.0000000000073 	1.848645230213796e-12 	101324.9999999974
-0.6118618618618621 	299.9999999999939 	2.002979687134429e-12 	101324.9999999973
-0.6093593593593596 	299.9999999999925 	1.518367958168374e-12 	101324.9999999971
-0.6068568568568571 	299.9999999999927 	1.73887622570438e-12 	101324.999999997
-0.6043543543543546 	299.9999999999813 	1.747631325394369e-12 	101324.9999999971
-0.6018518518518521 	299.999999999986 	2.170749945553457e-12 	101324.9999999972
-0.5993493493493496 	299.9999999999732 	1.562241039274074e-12 	101324.9999999971
-0.5968468468468471 	299.9999999999792 	2.101729537341796e-12 	101324.9999999969
-0.5943443443443446 	299.9999999999974 	1.286953654610651e-12 	101324.9999999967
-0.591841841841842 	299.999999999979 	1.873486353283088e-12 	101324.9999999964
-0.5893393393393397 	299.9999999999761 	9.178934973050704e-13 	101324.9999999961
-0.5868368368368371 	299.9999999999951 	2.149285724256401e-12 	101324.9999999961
-0.5843343343343346 	299.9999999999998 	1.633932771260508e-12 	101324.9999999964
-0.5818318318318321 	300.0000000000142 	2.269565217243484e-12 	101324.9999999965
-0.5793293293293297 	299.9999999999932 	9.290308977372642e-13 	101324.9999999965
-0.5768268268268271 	300.0000000000019 	2.273779219354323e-12 	101324.9999999965
-0.5743243243243245 	300.0000000000113 	1.331418082488644e-12 	101324.9999999966
-0.5718218218218221 	300.0000000000109 	1.259760760954938e-12 	101324.9999999967
-0.5693193193193196 	300.0000000000215 	1.251101746963437e-12 	101324.9999999967
-0.5668168168168171 	299.9999999999952 	4.854225618021214e-13 	101324.9999999966
-0.5643143143143147 	299.9999999999749 	1.346589942207026e-12 	101324.9999999965
-0.5618118118118121 	300.000000000006 	4.869002898221996e-13 	101324.9999999963
-0.5593093093093094 	300.0000000000164 	8.886844320389529e-13 	101324.9999999963
-0.5568068068068072 	300.0000000000081 	6.763272881832211e-13 	101324.9999999963
-0.5543043043043046 	300.000000000009 	7.411907439359348e-13 	101324.9999999964
-0.551801801801802 	299.9999999999784 	4.574267957452235e-13 	101324.9999999966
-0.5492992992992995 	299.9999999999993 	6.054483527120652e-13 	101324.9999999968
-0.5467967967967969 	300.0000000000072 	5.516344353425658e-13 	101324.9999999968
-0.5442942942942947 	300.0000000000044 	6.440302698718799e-13 	101324.999999997
-0.5417917917917919 	299.9999999999806 	5.069332087105988e-13 	101324.9999999972
-0.5392892892892895 	299.999999999969 	1.014692057458101e-12 	101324.9999999974
-0.536786786786787 	299.9999999999798 	6.213453906114176e-13 	101324.9999999974
-0.5342842842842846 	299.9999999999834 	1.312602148432569e-12 	101324.9999999976
-0.531781781781782 	299.9999999999704 	4.340571783756181e-13 	101324.9999999975
-0.5292792792792794 	299.9999999999673 	1.837164693633613e-12 	101324.9999999972
-0.526776776776777 	299.9999999999588 	1.243620094176717e-12 	101324.999999997
-0.5242742742742745 	299.9999999999896 	2.951293943477516e-12 	101324.9999999971
-0.521771771771772 	300.0000000000063 	2.760260535078327e-12 	101324.9999999971
-0.5192692692692695 	299.9999999999817 	3.849947955487539e-12 	101324.9999999973
-0.516766766766767 	300.0000000000006 	3.087121766507602e-12 	101324.9999999973
-0.5142642642642645 	299.9999999999839 	2.928248800624012e-12 	101324.9999999974
-0.511761761761762 	299.9999999999773 	2.278980668185768e-12 	101324.9999999975
-0.5092592592592596 	299.9999999999872 	2.269182102881019e-12 	101324.9999999976
-0.506756756756757 	299.9999999999756 	1.267686224648855e-12 	101324.9999999974
-0.5042542542542544 	299.9999999999992 	1.825740194913658e-12 	101324.9999999973
-0.5017517517517521 	300.0000000000144 	4.72003816452086e-13 	101324.9999999971
-0.4992492492492494 	300.0000000000156 	1.230975331650754e-12 	101324.9999999969
-0.496746746746747 	299.9999999999954 	6.522304330792872e-13 	101324.9999999966
-0.4942442442442445 	299.9999999999714 	1.239749703916958e-12 	101324.9999999965
-0.4917417417417421 	299.9999999999714 	6.204045541097981e-13 	101324.9999999968
-0.4892392392392395 	299.9999999999792 	1.127310653938918e-12 	101324.9999999968
-0.486736736736737 	299.9999999999795 	6.406024276502184e-13 	101324.9999999967
-0.4842342342342345 	299.9999999999636 	1.93116062775715e-12 	101324.9999999966
-0.481731731731732 	300.0000000000163 	9.384579857372818e-13 	101324.9999999967
-0.4792292292292296 	300.0000000000106 	2.302931100285973e-12 	101324.9999999967
-0.4767267267267268 	299.9999999999812 	7.732245098989406e-13 	101324.9999999966
-0.4742242242242246 	300.0000000000005 	3.020170277738076e-12 	101324.9999999967
-0.471721721721722 	299.9999999999818 	1.301359718238738e-12 	101324.9999999968
-0.4692192192192195 	299.9999999999928 	1.925847768524324e-12 	101324.999999997
-0.4667167167167169 	299.9999999999604 	8.833863816590231e-13 	101324.999999997
-0.4642142142142145 	299.999999999997 	1.256046943201405e-12 	101324.9999999971
-0.461711711711712 	300.0000000000085 	6.043932527243495e-13 	101324.9999999971
-0.4592092092092094 	300.0000000000031 	1.089498811493748e-12 	101324.9999999971
-0.456706706706707 	300.0000000000238 	6.034992525245903e-13 	101324.999999997
-0.4542042042042045 	299.9999999999734 	1.140886089160638e-12 	101324.9999999971
-0.451701701701702 	299.9999999999779 	1.099921070980558e-12 	101324.9999999969
-0.4491991991991995 	299.9999999999822 	1.0370451852486e-12 	101324.9999999966
-0.4466966966966969 	299.9999999999811 	2.146890401023399e-13 	101324.9999999967
-0.4441941941941945 	299.9999999999976 	7.706649311080652e-13 	101324.9999999969
-0.441691691691692 	299.9999999999826 	4.743144319705545e-13 	101324.9999999968
-0.4391891891891895 	299.9999999999949 	2.284055413984595e-12 	101324.9999999967
-0.436686686686687 	299.9999999999866 	1.290051997963082e-12 	101324.9999999968
-0.4341841841841846 	299.9999999999996 	3.243274646846657e-12 	101324.9999999969
-0.431681681681682 	299.9999999999776 	7.504584455115497e-13 	101324.9999999968
-0.4291791791791794 	299.999999999968 	2.206472675711334e-12 	101324.999999997
-0.426676676676677 	299.9999999999621 	1.000540703906611e-12 	101324.9999999972
-0.4241741741741744 	299.9999999999864 	2.605261638226931e-12 	101324.9999999972
-0.421671671671672 	300.0000000000031 	1.79110280956327e-12 	101324.9999999973
-0.4191691691691694 	300.0000000000226 	1.71175628741324e-12 	101324.9999999972
-0.4166666666666669 	300.0000000000271 	3.776032579627022e-13 	101324.9999999972
-0.4141641641641645 	299.9999999999721 	1.297358274460563e-13 	101324.9999999971
-0.411661661661662 	300.0000000000015 	1.055513227746337e-13 	101324.9999999969
-0.4091591591591594 	300.0000000000053 	4.375733631687104e-13 	101324.9999999969
-0.406656656656657 	299.9999999999774 	1.527512056837614e-13 	101324.9999999968
-0.4041541541541545 	300.0000000000078 	4.408511681404374e-13 	101324.9999999967
-0.401651651651652 	299.9999999999662 	5.210610047870481e-13 	101324.9999999967
-0.3991491491491494 	300.0000000000019 	1.730030452604857e-12 	101324.9999999968
-0.396646646646647 	299.9999999999811 	1.803219362273671e-12 	101324.9999999969
-0.3941441441441444 	299.9999999999914 	2.301358551794134e-12 	101324.999999997
-0.3916416416416419 	299.9999999999716 	1.702745639832517e-12 	101324.9999999971
-0.3891391391391395 	299.999999999982 	1.939608600366426e-12 	101324.9999999972
-0.3866366366366368 	299.9999999999813 	4.46176321726405e-13 	101324.999999997
-0.3841341341341344 	300.000000000001 	1.730758811445087e-12 	101324.9999999971
-0.381631631631632 	299.9999999999782 	1.124927299364443e-12 	101324.9999999971
-0.3791291291291294 	300.0000000000019 	6.906752263693369e-13 	101324.9999999972
-0.3766266266266269 	300.0000000000105 	2.987464366818112e-13 	101324.9999999971
-0.3741241241241244 	300.000000000011 	1.151843141190055e-12 	101324.999999997
-0.371621621621622 	300.0000000000101 	8.398335270751618e-13 	101324.9999999969
-0.3691191191191194 	300.0000000000051 	1.804945596078813e-12 	101324.9999999969
-0.366616616616617 	300.0000000000056 	1.450164972773481e-12 	101324.999999997
-0.3641141141141143 	299.9999999999893 	1.438772412758893e-12 	101324.9999999969
-0.3616116116116119 	299.9999999999737 	1.32056147202499e-12 	101324.9999999968
-0.3591091091091095 	299.9999999999896 	7.838699388020839e-13 	101324.9999999966
-0.356606606606607 	299.9999999999923 	3.371680230788112e-13 	101324.9999999966
-0.3541041041041044 	299.9999999999984 	7.29549214439764e-13 	101324.9999999967
-0.3516016016016019 	300.0000000000102 	1.471586286991019e-12 	101324.9999999968
-0.3490990990990994 	299.9999999999976 	6.217726107157938e-13 	101324.9999999965
-0.346596596596597 	300.0000000000124 	2.311367498085048e-12 	101324.9999999965
-0.3440940940940944 	300.0000000000151 	7.824263863126871e-13 	101324.9999999965
-0.3415915915915919 	300.0000000000133 	2.368691286084904e-12 	101324.9999999966
-0.3390890890890895 	299.9999999999922 	7.802733204891889e-13 	101324.9999999964
-0.3365865865865869 	300.0000000000054 	1.233964307350486e-12 	101324.9999999963
-0.3340840840840844 	299.9999999999944 	8.158490874751617e-13 	101324.9999999961
-0.3315815815815819 	300.0000000000095 	1.514875241351078e-12 	101324.9999999963
-0.3290790790790794 	300.0000000000123 	1.606229844426988e-12 	101324.9999999962
-0.3265765765765769 	299.9999999999706 	1.673026468668643e-12 	101324.9999999963
-0.3240740740740744 	300.000000000001 	1.428874671730597e-12 	101324.9999999963
-0.3215715715715718 	300.0000000000069 	2.210271067411294e-12 	101324.9999999967
-0.3190690690690695 	299.9999999999729 	1.306211696218033e-12 	101324.9999999966
-0.3165665665665668 	299.9999999999951 	1.749826038025515e-12 	101324.9999999965
-0.3140640640640644 	299.9999999999972 	2.807462456418408e-13 	101324.9999999966
-0.311561561561562 	299.9999999999673 	2.182703672058107e-12 	101324.9999999968
-0.3090590590590593 	299.9999999999993 	1.180604134971988e-12 	101324.9999999966
-0.3065565565565568 	300.0000000000031 	3.190428141660506e-12 	101324.9999999965
-0.3040540540540545 	299.9999999999977 	1.012432670862392e-12 	101324.9999999962
-0.3015515515515518 	300.0000000000118 	3.27177011407094e-12 	101324.999999996
-0.2990490490490494 	299.9999999999715 	1.587841178229821e-12 	101324.9999999959
-0.2965465465465469 	299.9999999999984 	2.565406681754298e-12 	101324.9999999959
-0.2940440440440444 	299.9999999999946 	1.995085391401722e-12 	101324.999999996
-0.2915415415415418 	300.000000000006 	2.190601266223641e-12 	101324.9999999961
-0.2890390390390395 	300.0000000000075 	2.828728541606692e-12 	101324.9999999963
-0.2865365365365368 	299.9999999999864 	1.405534136806722e-12 	101324.9999999963
-0.2840340340340343 	299.9999999999981 	2.792857036839139e-12 	101324.999999996
-0.2815315315315318 	299.9999999999633 	1.193623664514439e-12 	101324.9999999957
-0.2790290290290295 	299.9999999999853 	2.179278680420531e-12 	101324.9999999956
-0.2765265265265269 	300.0000000000053 	1.056139892145775e-12 	101324.9999999956
-0.2740240240240244 	300.000000000008 	1.705311523191824e-12 	101324.9999999956
-0.2715215215215219 	300.0000000000071 	2.40317183508706e-12 	101324.9999999955
-0.2690190190190194 	299.9999999999735 	2.864699931013259e-12 	101324.9999999956
-0.2665165165165169 	299.9999999999959 	3.879966397774276e-12 	101324.9999999958
-0.2640140140140144 	299.9999999999904 	3.469872345480858e-12 	101324.9999999957
-0.2615115115115119 	299.9999999999976 	5.108882791325545e-12 	101324.9999999959
-0.2590090090090094 	299.9999999999653 	3.46997379100272e-12 	101324.9999999959
-0.2565065065065068 	299.9999999999951 	3.819565545560274e-12 	101324.9999999958
-0.2540040040040044 	299.9999999999927 	3.155147602054039e-12 	101324.999999996
-0.2515015015015019 	300.0000000000106 	2.873285533331169e-12 	101324.9999999961
-0.2489989989989994 	300.0000000000173 	3.707590372328338e-12 	101324.9999999963
-0.2464964964964968 	299.9999999999906 	2.168079668599634e-12 	101324.9999999959
-0.2439939939939944 	299.9999999999911 	4.391956589907164e-12 	101324.9999999957
-0.2414914914914919 	299.999999999981 	2.189959784514102e-12 	101324.999999996
-0.2389889889889893 	299.999999999996 	4.545875631969755e-12 	101324.9999999958
-0.2364864864864869 	300.0000000000088 	2.288594465451798e-12 	101324.9999999957
-0.2339839839839843 	299.9999999999759 	4.610658649690999e-12 	101324.9999999956
-0.2314814814814819 	299.9999999999891 	2.364764707092033e-12 	101324.9999999959
-0.2289789789789792 	299.9999999999638 	4.441635549033193e-12 	101324.999999996
-0.2264764764764769 	299.9999999999744 	3.212905905724125e-12 	101324.9999999963
-0.2239739739739743 	299.9999999999868 	4.3054994761755e-12 	101324.9999999966
-0.2214714714714718 	299.9999999999742 	3.737593276526088e-12 	101324.9999999964
-0.2189689689689693 	299.9999999999842 	3.015114565018034e-12 	101324.9999999963
-0.2164664664664669 	299.9999999999895 	4.050609229209127e-12 	101324.9999999963
-0.2139639639639643 	299.9999999999688 	2.441715446379783e-12 	101324.9999999963
-0.2114614614614618 	299.9999999999865 	3.197689474719665e-12 	101324.9999999961
-0.2089589589589593 	300.0000000000003 	2.991561057483924e-12 	101324.9999999961
-0.2064564564564568 	300.0000000000007 	2.684880562904916e-12 	101324.9999999963
-0.2039539539539543 	299.9999999999644 	3.185953981161747e-12 	101324.9999999964
-0.2014514514514518 	299.9999999999673 	1.257366159560328e-12 	101324.9999999964
-0.1989489489489494 	299.9999999999885 	3.147661120076078e-12 	101324.9999999962
-0.1964464464464468 	300.0000000000044 	7.327329305933313e-13 	101324.999999996
-0.1939439439439443 	299.9999999999995 	3.443503158207629e-12 	101324.9999999959
-0.1914414414414418 	299.9999999999695 	2.705702060758772e-12 	101324.999999996
-0.1889389389389393 	299.9999999999981 	3.934245033658642e-12 	101324.9999999962
-0.1864364364364368 	300.0000000000109 	4.083451969310235e-12 	101324.999999996
-0.1839339339339343 	299.9999999999876 	3.916197542514914e-12 	101324.9999999957
-0.1814314314314318 	299.9999999999937 	4.071696411552484e-12 	101324.9999999958
-0.1789289289289293 	299.9999999999558 	4.555169118766069e-12 	101324.999999996
-0.1764264264264268 	299.9999999999889 	4.155444942699903e-12 	101324.9999999959
-0.1739239239239243 	299.999999999956 	4.240242393680476e-12 	101324.9999999959
-0.1714214214214218 	299.9999999999951 	2.740253975043122e-12 	101324.9999999959
-0.1689189189189193 	299.9999999999753 	3.510091579043595e-12 	101324.9999999957
-0.1664164164164168 	299.9999999999982 	1.896361457254486e-12 	101324.9999999956
-0.1639139139139143 	299.9999999999929 	4.876286908641775e-12 	101324.9999999957
-0.1614114114114118 	300.0000000000064 	1.282399120533671e-12 	101324.9999999957
-0.1589089089089093 	300.0000000000003 	6.813712143679082e-12 	101324.9999999959
-0.1564064064064068 	299.9999999999866 	6.71778273449554e-13 	101324.9999999959
-0.1539039039039043 	299.999999999998 	7.394450978263405e-12 	101324.9999999959
-0.1514014014014018 	300.0000000000103 	1.969760733029492e-12 	101324.9999999958
-0.1488988988988993 	299.9999999999989 	7.77903559843707e-12 	101324.9999999956
-0.1463963963963968 	300.0000000000011 	3.055555434880488e-12 	101324.9999999955
-0.1438938938938943 	299.9999999999836 	6.669731779650118e-12 	101324.9999999957
-0.1413913913913918 	299.9999999999654 	3.561606760959133e-12 	101324.9999999959
-0.1388888888888893 	299.9999999999881 	5.151496718315564e-12 	101324.9999999958
-0.1363863863863868 	299.999999999952 	3.897087096138674e-12 	101324.9999999958
-0.1338838838838843 	299.9999999999704 	3.909377197879134e-12 	101324.9999999955
-0.1313813813813818 	299.9999999999968 	2.940805471277926e-12 	101324.9999999954
-0.1288788788788793 	299.9999999999816 	3.476840565575114e-12 	101324.9999999953
-0.1263763763763768 	299.999999999988 	2.870456094763052e-12 	101324.9999999954
-0.1238738738738743 	299.9999999999725 	3.752163067281262e-12 	101324.9999999951
-0.1213713713713717 	299.9999999999962 	2.470622299099588e-12 	101324.999999995
-0.1188688688688693 	300.0000000000074 	4.694040180486237e-12 	101324.9999999949
-0.1163663663663668 	299.9999999999559 	2.642641989442862e-12 	101324.9999999949
-0.1138638638638643 	299.9999999999936 	5.404840980435754e-12 	101324.9999999954
-0.1113613613613618 	299.9999999999941 	2.796528710706449e-12 	101324.9999999954
-0.1088588588588592 	299.9999999999914 	6.060587173367246e-12 	101324.9999999955
-0.1063563563563568 	299.999999999984 	2.932245436004882e-12 	101324.9999999956
-0.1038538538538543 	299.9999999999935 	5.48285791058716e-12 	101324.9999999954
-0.1013513513513517 	300.0000000000043 	4.104900072154872e-12 	101324.9999999953
-0.09884884884884926 	299.9999999999803 	5.383126533259344e-12 	101324.9999999952
-0.09634634634634676 	299.9999999999597 	4.123617899815164e-12 	101324.9999999952
-0.09384384384384425 	299.9999999999627 	4.182765593992824e-12 	101324.9999999951
-0.09134134134134177 	300.000000000006 	3.536588459212491e-12 	101324.9999999952
-0.08883883883883925 	300.0000000000041 	4.097086031938353e-12 	101324.9999999952
-0.08633633633633674 	299.9999999999774 	3.536914298911442e-12 	101324.9999999952
-0.08383383383383426 	300.0000000000011 	3.403846153057048e-12 	101324.9999999953
-0.08133133133133173 	299.999999999986 	3.950567245442211e-12 	101324.9999999955
-0.07882882882882926 	299.999999999953 	3.943753347676725e-12 	101324.9999999958
-0.07632632632632676 	299.9999999999839 	4.008881805956389e-12 	101324.9999999957
-0.07382382382382424 	299.9999999999551 	3.431798211115068e-12 	101324.9999999957
-0.07132132132132173 	300.0000000000039 	2.792201943475202e-12 	101324.9999999956
-0.06881881881881925 	299.9999999999829 	2.336382421649079e-12 	101324.9999999954
-0.06631631631631671 	299.999999999953 	1.846946824590727e-12 	101324.9999999956
-0.06381381381381425 	299.9999999999812 	1.370284046222918e-12 	101324.9999999954
-0.06131131131131173 	299.9999999999824 	1.605431461897849e-12 	101324.9999999953
-0.05880880880880923 	299.9999999999667 	1.61147123813659e-12 	101324.9999999952
-0.05630630630630672 	299.9999999999831 	1.781865391987767e-12 	101324.9999999953
-0.05380380380380424 	300.0000000000064 	1.869919666249449e-12 	101324.9999999956
-0.05130130130130173 	300.0000000000069 	1.651443914074097e-12 	101324.9999999958
-0.04879879879879922 	299.9999999999762 	1.290967394858578e-12 	101324.9999999957
-0.04629629629629672 	299.9999999999709 	6.315759103950012e-13 	101324.9999999952
-0.04379379379379422 	299.9999999999602 	9.787997827696105e-13 	101324.9999999954
-0.04129129129129173 	299.9999999999923 	7.099178802834057e-13 	101324.9999999953
-0.03878878878878922 	299.9999999999931 	1.339304036658202e-12 	101324.9999999954
-0.03628628628628671 	299.9999999999919 	1.014754447387348e-12 	101324.9999999954
-0.03378378378378422 	299.9999999999683 	1.195693251009946e-12 	101324.9999999952
-0.03128128128128172 	299.9999999999843 	2.516930527653047e-13 	101324.9999999952
-0.02877877877877922 	299.9999999999838 	5.3487189784664e-13 	101324.9999999955
-0.0262762762762767 	299.9999999999565 	1.902561264756527e-13 	101324.9999999956
-0.02377377377377422 	300.000000000007 	3.473218226160994e-13 	101324.9999999957
-0.0212712712712717 	299.9999999999571 	6.478021622759908e-13 	101324.9999999955
-0.01876876876876921 	299.9999999999864 	2.48795749760009e-14 	101324.9999999953
-0.01626626626626671 	300.0000000000032 	9.186743309060682e-13 	101324.9999999953
-0.0137637637637642 	299.9999999999824 	4.531488800320896e-13 	101324.9999999952
-0.0112612612612617 	300.0000000000035 	5.66140968165896e-13 	101324.999999995
-0.008758758758759198 	299.9999999999971 	5.763246187689712e-13 	101324.9999999952
-0.006256256256256697 	299.9999999999522 	7.444472655242401e-13 	101324.9999999953
-0.003753753753754195 	299.9999999999789 	7.799938155737001e-14 	101324.9999999953
-0.001251251251251693 	299.9999999999665 	6.484444142078744e-13 	101324.9999999952
0.00125125125125081 	299.9999999999791 	5.747776841319309e-13 	101324.9999999952
0.003753753753753312 	299.9999999999832 	1.273586097327413e-12 	101324.9999999952
0.006256256256255817 	299.9999999999509 	9.428301688653921e-13 	101324.999999995
0.008758758758758317 	299.9999999999944 	3.181137288647917e-13 	101324.999999995
0.01126126126126082 	300.0000000000026 	2.104815705928053e-13 	101324.9999999951
0.01376376376376332 	299.9999999999852 	3.348929591638124e-13 	101324.9999999953
0.01626626626626582 	300.0000000000023 	5.46516050351444e-13 	101324.9999999954
0.01876876876876833 	299.9999999999806 	4.694677034615151e-13 	101324.9999999958
0.02127127127127083 	299.9999999999882 	6.334686982357554e-13 	101324.9999999958
0.02377377377377332 	299.9999999999981 	6.367972426926233e-13 	101324.9999999958
0.02627627627627583 	299.9999999999591 	6.238995212279559e-13 	101324.9999999958
0.02877877877877833 	299.9999999999994 	1.126423736695996e-12 	101324.9999999957
0.03128128128128083 	299.9999999999744 	7.848699556042437e-13 	101324.9999999954
0.03378378378378333 	299.9999999999548 	1.336457118835494e-12 	101324.9999999954
0.03628628628628584 	299.9999999999898 	2.054603337916171e-12 	101324.9999999951
0.03878878878878834 	299.9999999999923 	2.15941053602184e-12 	101324.999999995
0.04129129129129084 	299.9999999999868 	2.446609200944041e-12 	101324.9999999951
0.04379379379379333 	299.9999999999712 	2.910725745486007e-12 	101324.9999999951
0.04629629629629585 	299.9999999999504 	3.596804724549647e-12 	101324.999999995
0.04879879879879834 	299.9999999999783 	4.147994160449545e-12 	101324.999999995
0.05130130130130085 	300.0000000000034 	3.756372119058733e-12 	101324.999999995
0.05380380380380335 	300.0000000000107 	2.80489157389899e-12 	101324.9999999954
0.05630630630630584 	299.9999999999945 	2.47690194817881e-12 	101324.9999999956
0.05880880880880836 	299.9999999999671 	2.5103208004188e-12 	101324.9999999957
0.06131131131131085 	299.9999999999895 	3.196308546383646e-12 	101324.9999999959
0.06381381381381336 	299.9999999999816 	2.753528899098255e-12 	101324.9999999958
0.06631631631631586 	299.9999999999501 	2.275093460679445e-12 	101324.9999999959
0.06881881881881835 	299.9999999999761 	2.055148456355051e-12 	101324.9999999962
0.07132132132132088 	299.9999999999986 	1.443527827441865e-12 	101324.9999999961
0.07382382382382337 	299.9999999999587 	1.542789951683741e-12 	101324.999999996
0.07632632632632587 	299.9999999999861 	1.873570749976553e-12 	101324.9999999963
0.07882882882882837 	299.9999999999721 	1.964588159429983e-12 	101324.9999999961
0.08133133133133086 	299.9999999999966 	3.111857470659502e-12 	101324.999999996
0.08383383383383337 	299.9999999999967 	3.239415655686188e-12 	101324.9999999961
0.08633633633633589 	299.999999999958 	4.143048716220204e-12 	101324.9999999959
0.08883883883883838 	300.0000000000048 	4.673851071605459e-12 	101324.9999999961
0.09134134134134086 	299.9999999999954 	4.025600855451174e-12 	101324.9999999961
0.09384384384384339 	299.9999999999569 	4.63501698371173e-12 	101324.999999996
0.09634634634634588 	299.9999999999845 	4.265952919027574e-12 	101324.9999999959
0.09884884884884838 	299.9999999999877 	4.041883692792871e-12 	101324.9999999959
0.1013513513513509 	300.0000000000124 	2.889523407084825e-12 	101324.9999999959
0.1038538538538534 	299.9999999999752 	2.269267303137151e-12 	101324.999999996
0.1063563563563559 	300.0000000000048 	2.682567360333149e-12 	101324.9999999959
0.1088588588588584 	300.0000000000093 	1.912717169289795e-12 	101324.9999999959
0.1113613613613609 	299.9999999999741 	2.199039162739565e-12 	101324.9999999959
0.1138638638638634 	299.9999999999787 	2.361154679861017e-12 	101324.9999999958
0.1163663663663659 	299.9999999999749 	3.250133890977257e-12 	101324.9999999956
0.1188688688688684 	299.9999999999834 	3.487913308976117e-12 	101324.9999999955
0.1213713713713709 	299.9999999999955 	3.900043902409573e-12 	101324.9999999954
0.1238738738738734 	299.9999999999649 	3.860466550399916e-12 	101324.9999999956
0.1263763763763759 	299.9999999999939 	4.011715615103507e-12 	101324.9999999954
0.1288788788788784 	299.9999999999941 	3.63219035079028e-12 	101324.9999999955
0.1313813813813809 	299.9999999999936 	4.219030029287745e-12 	101324.9999999956
0.1338838838838834 	299.9999999999855 	4.353101442544738e-12 	101324.9999999955
0.1363863863863859 	300.0000000000106 	4.370811981546646e-12 	101324.9999999955
0.1388888888888884 	300.000000000017 	3.87533231954158e-12 	101324.9999999957
0.1413913913913909 	299.9999999999985 	3.811706024635061e-12 	101324.9999999958
0.1438938938938934 	299.9999999999965 	3.29374472419631e-12 	101324.9999999957
0.1463963963963959 	299.9999999999836 	3.165112845743443e-12 	101324.9999999956
0.1488988988988985 	299.9999999999616 	3.736723420842196e-12 	101324.9999999961
0.1514014014014009 	299.9999999999839 	3.415917871672171e-12 	101324.9999999962
0.1539039039039035 	299.9999999999804 	4.282429038472902e-12 	101324.9999999961
0.1564064064064059 	299.9999999999816 	2.676923196615474e-12 	101324.9999999958
0.1589089089089084 	299.9999999999882 	4.835746774612294e-12 	101324.9999999954
0.1614114114114109 	299.9999999999866 	2.945245000094944e-12 	101324.9999999952
0.1639139139139134 	299.9999999999636 	4.081644883954174e-12 	101324.9999999952
0.166416416416416 	299.9999999999974 	4.073727816928055e-12 	101324.9999999953
0.1689189189189185 	300.0000000000123 	4.23227386774925e-12 	101324.9999999954
0.1714214214214209 	299.9999999999922 	4.965246134525695e-12 	101324.9999999954
0.1739239239239235 	299.9999999999945 	4.385645947894443e-12 	101324.9999999957
0.1764264264264259 	299.9999999999804 	4.790410913984017e-12 	101324.9999999958
0.1789289289289284 	300.0000000000029 	2.059440777999145e-12 	101324.9999999958
0.181431431431431 	299.9999999999864 	4.046877515158582e-12 	101324.9999999958
0.1839339339339334 	299.9999999999895 	2.608001474039783e-12 	101324.9999999958
0.186436436436436 	299.9999999999714 	4.059736360045603e-12 	101324.9999999956
0.1889389389389385 	299.9999999999907 	4.200203758999161e-12 	101324.9999999954
0.191441441441441 	299.9999999999901 	3.793314802600942e-12 	101324.9999999956
0.1939439439439434 	299.9999999999672 	4.752083470170586e-12 	101324.9999999956
0.196446446446446 	299.9999999999808 	3.523192288836544e-12 	101324.9999999958
0.1989489489489485 	299.999999999987 	5.586830527437281e-12 	101324.999999996
0.2014514514514509 	299.9999999999923 	3.947379383698172e-12 	101324.9999999961
0.2039539539539535 	299.9999999999941 	4.453218308570866e-12 	101324.9999999959
0.2064564564564559 	299.9999999999818 	3.847299350643769e-12 	101324.999999996
0.2089589589589585 	299.9999999999915 	4.409730883109436e-12 	101324.9999999959
0.211461461461461 	299.999999999976 	4.423997947660068e-12 	101324.9999999958
0.2139639639639635 	299.9999999999959 	4.180179595244736e-12 	101324.9999999957
0.2164664664664659 	300.0000000000013 	4.526165516515306e-12 	101324.9999999958
0.2189689689689684 	299.999999999999 	3.636150178889222e-12 	101324.9999999957
0.221471471471471 	299.9999999999992 	5.253968797906627e-12 	101324.9999999958
0.2239739739739735 	299.9999999999803 	3.733042194929286e-12 	101324.9999999959
0.226476476476476 	299.9999999999931 	5.003633466795389e-12 	101324.9999999957
0.2289789789789785 	299.9999999999993 	4.055510458997557e-12 	101324.9999999958
0.231481481481481 	299.9999999999933 	3.475397755933379e-12 	101324.999999996
0.2339839839839835 	299.9999999999923 	3.854782226236943e-12 	101324.9999999961
0.236486486486486 	300.0000000000088 	2.973293945428123e-12 	101324.999999996
0.2389889889889885 	299.9999999999995 	3.856393718587454e-12 	101324.9999999959
0.241491491491491 	299.9999999999681 	2.400233473438347e-12 	101324.9999999959
0.2439939939939935 	299.9999999999943 	4.747547051264778e-12 	101324.9999999961
0.246496496496496 	299.9999999999929 	2.79999862369119e-12 	101324.9999999959
0.2489989989989985 	300.0000000000096 	3.608758880829605e-12 	101324.9999999962
0.251501501501501 	300.0000000000071 	2.252618923024512e-12 	101324.9999999962
0.2540040040040035 	299.9999999999943 	1.807977932705441e-12 	101324.9999999958
0.256506506506506 	300.0000000000065 	2.312579998917354e-12 	101324.9999999958
0.2590090090090086 	299.9999999999616 	1.760914619984803e-12 	101324.9999999957
0.261511511511511 	300.0000000000035 	3.807910252413012e-12 	101324.9999999957
0.2640140140140135 	299.9999999999935 	1.497348284853281e-12 	101324.9999999958
0.2665165165165161 	299.9999999999721 	2.584663914772184e-12 	101324.9999999961
0.2690190190190185 	300.0000000000074 	1.560730824817131e-12 	101324.999999996
0.271521521521521 	299.9999999999994 	1.708527676178098e-12 	101324.999999996
0.2740240240240235 	300.0000000000038 	1.96292798024345e-12 	101324.9999999962
0.276526526526526 	300.0000000000006 	1.213113555498258e-12 	101324.9999999961
0.2790290290290286 	299.9999999999753 	1.880765637301237e-12 	101324.9999999961
0.281531531531531 	299.9999999999654 	6.301177426377848e-13 	101324.9999999962
0.2840340340340335 	299.9999999999917 	2.416202726793223e-12 	101324.9999999962
0.2865365365365361 	299.9999999999825 	9.690159401859802e-13 	101324.9999999958
0.2890390390390385 	299.9999999999954 	1.794214294695209e-12 	101324.9999999956
0.291541541541541 	299.9999999999961 	1.400963930147437e-12 	101324.9999999956
0.2940440440440436 	299.9999999999955 	1.281883690597975e-12 	101324.9999999955
0.296546546546546 	299.9999999999934 	1.410016926176262e-12 	101324.9999999957
0.2990490490490486 	299.9999999999681 	5.397945887228257e-13 	101324.9999999961
0.3015515515515511 	300.0000000000103 	2.354756645792258e-12 	101324.999999996
0.3040540540540535 	299.9999999999907 	1.32095323863069e-12 	101324.9999999961
0.3065565565565562 	299.9999999999969 	3.097687606933607e-12 	101324.9999999961
0.3090590590590585 	299.9999999999926 	9.536864858934906e-13 	101324.9999999959
0.3115615615615611 	299.9999999999693 	2.720855769589284e-12 	101324.999999996
0.3140640640640635 	299.9999999999973 	1.061914423806949e-12 	101324.9999999963
0.316566566566566 	299.9999999999932 	2.22249097212047e-12 	101324.9999999966
0.3190690690690687 	299.9999999999799 	9.373728131878775e-13 	101324.9999999967
0.3215715715715711 	300.0000000000034 	1.501478229098939e-12 	101324.9999999967
0.3240740740740735 	299.9999999999956 	5.852069589797619e-13 	101324.9999999967
0.326576576576576 	299.9999999999566 	7.399231180898636e-13 	101324.9999999967
0.3290790790790786 	299.9999999999998 	4.322591930507293e-13 	101324.9999999968
0.3315815815815811 	300.0000000000169 	4.422272370292508e-13 	101324.9999999965
0.3340840840840836 	299.9999999999981 	4.288005674331164e-13 	101324.9999999966
0.3365865865865861 	300.0000000000258 	7.958057616866236e-13 	101324.9999999966
0.3390890890890886 	300.0000000000197 	2.815281656187291e-13 	101324.9999999966
0.3415915915915911 	300.0000000000001 	3.448154224256769e-13 	101324.9999999965
0.3440940940940935 	299.999999999977 	1.243163126500241e-12 	101324.9999999965
0.3465965965965962 	300.0000000000167 	1.00055634026313e-12 	101324.9999999967
0.3490990990990985 	300.0000000000121 	3.732629320452019e-13 	101324.9999999969
0.3516016016016011 	299.9999999999923 	2.437846834633191e-13 	101324.9999999967
0.3541041041041035 	300.000000000004 	4.10054299838065e-13 	101324.9999999968
0.3566066066066061 	299.9999999999828 	6.286311296026401e-13 	101324.9999999968
0.3591091091091085 	299.9999999999667 	6.634660433125167e-13 	101324.9999999966
0.3616116116116112 	299.9999999999743 	1.066699169358626e-12 	101324.9999999965
0.3641141141141137 	299.9999999999691 	1.258373891655735e-12 	101324.9999999964
0.3666166166166161 	299.9999999999671 	1.444797460977625e-12 	101324.9999999967
0.3691191191191185 	300.0000000000118 	2.223823851024672e-12 	101324.9999999968
0.371621621621621 	300.0000000000072 	8.624049752020027e-13 	101324.9999999968
0.3741241241241237 	300.0000000000207 	1.405003608773156e-12 	101324.9999999968
0.3766266266266261 	300.0000000000088 	5.447544805417987e-13 	101324.9999999968
0.3791291291291286 	299.9999999999926 	6.740788201378022e-13 	101324.9999999968
0.3816316316316311 	299.9999999999678 	6.40891546345304e-13 	101324.9999999967
0.3841341341341336 	300.0000000000017 	6.365226575365823e-13 	101324.9999999966
0.3866366366366362 	299.9999999999968 	9.062165887828005e-13 	101324.9999999966
0.3891391391391387 	299.9999999999816 	7.211266646495434e-13 	101324.9999999968
0.391641641641641 	299.9999999999987 	8.723313783044386e-13 	101324.9999999968
0.3941441441441436 	300.0000000000039 	6.935967143368826e-13 	101324.9999999967
0.3966466466466462 	300.0000000000001 	1.346965935452669e-12 	101324.9999999966
0.3991491491491486 	299.9999999999794 	1.179861407338215e-12 	101324.9999999964
0.4016516516516512 	299.9999999999666 	1.505059418601881e-12 	101324.9999999965
0.4041541541541536 	299.999999999981 	4.643296533589579e-13 	101324.9999999964
0.4066566566566561 	299.9999999999797 	1.734706042820781e-12 	101324.9999999964
0.4091591591591587 	299.9999999999976 	1.067253191624203e-12 	101324.9999999964
0.4116616616616612 	300.0000000000045 	1.175130071331473e-12 	101324.9999999966
0.4141641641641635 	300.0000000000164 	1.058644346143315e-12 	101324.9999999966
0.4166666666666662 	299.9999999999982 	2.445417671744901e-12 	101324.9999999966
0.4191691691691687 	299.9999999999757 	2.955722224530663e-12 	101324.9999999966
0.421671671671671 	300.0000000000049 	2.645728711445544e-12 	101324.9999999965
0.4241741741741737 	299.9999999999875 	3.842436983811025e-12 	101324.9999999964
0.4266766766766761 	299.9999999999788 	1.0862372163516e-12 	101324.9999999964
0.4291791791791785 	300.0000000000089 	3.654335288166036e-12 	101324.9999999963
0.4316816816816812 	300.000000000002 	6.997106468647729e-13 	101324.9999999963
0.4341841841841836 	299.9999999999909 	3.350034944619643e-12 	101324.9999999962
0.4366866866866862 	299.9999999999667 	8.048713562462778e-13 	101324.9999999965
0.4391891891891885 	299.9999999999979 	2.163379063190717e-12 	101324.9999999966
0.4416916916916913 	299.9999999999956 	1.480190796056195e-12 	101324.9999999968
0.4441941941941936 	299.9999999999946 	2.043527932384183e-12 	101324.9999999968
0.4466966966966961 	299.9999999999692 	1.822149129262355e-12 	101324.9999999968
0.4491991991991987 	299.9999999999949 	1.762448591550782e-12 	101324.9999999967
0.4517017017017012 	299.9999999999944 	2.75424472421481e-12 	101324.9999999968
0.4542042042042035 	299.999999999994 	2.295181567345549e-12 	101324.9999999967
0.4567067067067062 	299.9999999999975 	2.512752107444243e-12 	101324.9999999967
0.4592092092092087 	299.9999999999703 	1.566176225682194e-12 	101324.9999999967
0.4617117117117112 	300.0000000000073 	1.382361624632374e-12 	101324.9999999967
0.4642142142142137 	299.9999999999855 	1.414411575919153e-12 	101324.9999999966
0.4667167167167162 	299.9999999999963 	1.89764875353645e-12 	101324.9999999966
0.4692192192192187 	299.9999999999821 	2.815363421767266e-12 	101324.9999999963
0.4717217217217212 	300.0000000000056 	3.458641791951793e-12 	101324.9999999963
0.4742242242242236 	299.9999999999813 	4.110051433685473e-12 	101324.9999999962
0.4767267267267262 	299.9999999999909 	3.829866021242502e-12 	101324.9999999966
0.4792292292292287 	300.0000000000055 	4.158311310664466e-12 	101324.9999999964
0.4817317317317312 	300.0000000000121 	3.794268466899557e-12 	101324.9999999964
0.4842342342342336 	299.999999999993 	3.842280587737007e-12 	101324.9999999966
0.4867367367367362 	299.9999999999816 	4.048355908640757e-12 	101324.9999999966
0.4892392392392387 	300.0000000000095 	3.942399380078378e-12 	101324.9999999967
0.4917417417417412 	300.0000000000011 	4.816450598835879e-12 	101324.9999999965
0.4942442442442437 	299.9999999999606 	3.758361176249244e-12 	101324.9999999964
0.4967467467467462 	299.9999999999681 	4.163389493454316e-12 	101324.9999999964
0.4992492492492487 	299.9999999999661 	2.285372525719453e-12 	101324.9999999963
0.5017517517517511 	299.9999999999805 	3.636602673819513e-12 	101324.9999999964
0.5042542542542537 	299.9999999999852 	2.756039545653145e-12 	101324.9999999966
0.5067567567567562 	299.9999999999791 	3.194396417555521e-12 	101324.9999999967
0.5092592592592589 	299.9999999999874 	3.281993973104048e-12 	101324.9999999966
0.5117617617617611 	299.9999999999836 	2.634389562061573e-12 	101324.9999999965
0.5142642642642637 	299.9999999999948 	3.221930367996276e-12 	101324.9999999965
0.5167667667667663 	299.9999999999894 	1.808061980063573e-12 	101324.9999999965
0.5192692692692688 	299.9999999999686 	3.512297891209335e-12 	101324.9999999967
0.5217717717717714 	299.999999999972 	1.257136178253481e-12 	101324.9999999967
0.5242742742742736 	299.999999999972 	2.755291503001926e-12 	101324.9999999968
0.5267767767767763 	299.9999999999824 	5.122295655117013e-13 	101324.9999999968
0.5292792792792789 	299.9999999999743 	1.970236801331833e-12 	101324.9999999969
0.5317817817817813 	299.9999999999634 	6.504578396606422e-13 	101324.9999999967
0.5342842842842837 	300.0000000000067 	1.295147696947416e-12 	101324.9999999966
0.5367867867867864 	300.0000000000006 	1.405566385072519e-12 	101324.9999999967
0.5392892892892888 	299.9999999999823 	1.34400455965449e-12 	101324.9999999968
0.5417917917917912 	300.0000000000002 	1.1077405188659e-12 	101324.9999999966
0.5442942942942938 	299.9999999999902 	1.117552027972207e-12 	101324.9999999963
0.5467967967967964 	299.9999999999795 	7.214200787729016e-13 	101324.9999999962
0.5492992992992988 	299.9999999999725 	8.015939873255558e-13 	101324.9999999963
0.5518018018018012 	299.9999999999721 	6.799984669647389e-13 	101324.9999999963
0.5543043043043039 	300.000000000008 	9.572013048268989e-13 	101324.9999999965
0.5568068068068063 	299.9999999999948 	7.385401254509645e-13 	101324.9999999966
0.5593093093093087 	299.9999999999624 	1.168366202297109e-12 	101324.9999999964
0.5618118118118114 	299.9999999999851 	8.365021593560016e-13 	101324.9999999962
0.5643143143143137 	299.9999999999774 	7.414304566678485e-13 	101324.9999999961
0.5668168168168163 	299.9999999999955 	3.948947087399429e-13 	101324.9999999962
0.5693193193193188 	300.000000000014 	6.106420655298274e-13 	101324.9999999961
0.5718218218218213 	300.0000000000123 	9.49310746653519e-13 	101324.9999999961
0.5743243243243239 	300.0000000000059 	1.108780609680465e-12 	101324.9999999961
0.5768268268268262 	300.0000000000013 	1.953630413521725e-12 	101324.9999999962
0.5793293293293288 	299.9999999999806 	9.795845004440646e-13 	101324.9999999964
0.5818318318318314 	299.9999999999688 	2.787307895467031e-12 	101324.9999999966
0.5843343343343338 	299.9999999999922 	1.36530515242793e-12 	101324.9999999967
0.5868368368368363 	299.9999999999882 	2.358628458821786e-12 	101324.9999999969
0.5893393393393387 	299.9999999999751 	7.941877011592994e-13 	101324.9999999968
0.5918418418418413 	299.9999999999752 	1.520011280656208e-12 	101324.9999999966
0.5943443443443439 	300.0000000000053 	9.368231522151334e-13 	101324.9999999963
0.5968468468468463 	300.0000000000067 	1.294636281849006e-12 	101324.9999999961
0.5993493493493487 	300.0000000000188 	1.279911706991449e-12 	101324.999999996
0.6018518518518514 	299.9999999999918 	2.049543904401049e-12 	101324.9999999961
0.6043543543543537 	299.9999999999987 	2.528325972820195e-12 	101324.9999999963
0.6068568568568564 	299.9999999999924 	2.943034464278433e-12 	101324.9999999963
0.6093593593593587 	299.9999999999686 	2.779261667618234e-12 	101324.9999999966
0.6118618618618614 	299.9999999999675 	1.951160381228409e-12 	101324.9999999966
0.6143643643643638 	300.0000000000032 	1.596702584354543e-12 	101324.9999999964
0.6168668668668662 	299.9999999999936 	2.338323125746504e-12 	101324.9999999963
0.6193693693693688 	299.9999999999815 	1.732916505102701e-12 	101324.9999999961
0.6218718718718714 	299.9999999999866 	2.238714303259737e-12 	101324.999999996
0.6243743743743737 	299.9999999999735 	7.459438865927316e-13 	101324.9999999959
0.6268768768768762 	299.9999999999689 	1.336347625051965e-12 	101324.9999999959
0.629379379379379 	299.9999999999782 	4.111201874906613e-13 	101324.999999996
0.6318818818818812 	299.999999999984 	6.678652545172282e-13 	101324.999999996
0.6343843843843838 	300.0000000000047 	1.117866358855388e-12 	101324.9999999962
0.6368868868868864 	299.9999999999912 	1.289351508699468e-12 	101324.9999999962
0.6393893893893888 	299.9999999999702 	1.856481067201198e-12 	101324.9999999963
0.6418918918918912 	300.0000000000002 	1.332906397298613e-12 	101324.9999999963
0.6443943943943939 	299.9999999999956 	2.741719535035273e-12 	101324.9999999962
0.6468968968968963 	299.9999999999902 	1.335615828309151e-12 	101324.9999999962
0.6493993993993988 	299.9999999999865 	2.132983204856456e-12 	101324.999999996
0.6519019019019012 	299.9999999999847 	1.199711707801709e-12 	101324.9999999959
0.6544044044044038 	299.9999999999598 	1.58901923281222e-12 	101324.9999999959
0.6569069069069065 	299.9999999999845 	9.437715082011438e-13 	101324.9999999958
0.6594094094094087 	299.9999999999807 	9.232072930448862e-13 	101324.9999999957
0.6619119119119113 	299.9999999999779 	6.780161443484621e-13 	101324.9999999956
0.664414414414414 	299.999999999998 	1.667973755012772e-12 	101324.9999999956
0.6669169169169162 	300.000000000005 	1.574892879392529e-12 	101324.9999999957
0.6694194194194188 	299.9999999999933 	2.101153868415351e-12 	101324.9999999957
0.6719219219219214 	299.9999999999729 	1.386132727104567e-12 	101324.9999999956
0.674424424424424 	299.9999999999912 	1.365150568611546e-12 	101324.9999999956
0.6769269269269262 	299.9999999999663 	9.365367402976425e-13 	101324.9999999958
0.679429429429429 	300.0000000000008 	8.793595172389738e-13 	101324.9999999958
0.6819319319319311 	299.9999999999884 	3.963608624940386e-13 	101324.9999999959
0.6844344344344341 	299.9999999999984 	7.378791346886276e-13 	101324.999999996
0.686936936936936 	299.9999999999976 	6.843160807613794e-13 	101324.9999999961
0.6894394394394392 	299.9999999999962 	1.779345931367499e-13 	101324.999999996
0.6919419419419413 	299.9999999999935 	3.133540590765162e-13 	101324.999999996
0.694444444444444 	299.9999999999787 	1.909624396034598e-13 	101324.999999996
0.6969469469469463 	299.9999999999714 	4.885538595426278e-13 	101324.999999996
0.6994494494494489 	299.9999999999663 	4.365366159032324e-13 	101324.9999999961
0.7019519519519515 	299.9999999999919 	1.198750092180567e-12 	101324.999999996
0.7044544544544538 	299.999999999979 	9.915441776877453e-13 	101324.9999999959
0.7069569569569564 	299.999999999998 	2.138895815342224e-12 	101324.9999999957
0.7094594594594589 	299.9999999999847 	1.278896398367765e-12 	101324.9999999956
0.7119619619619615 	299.9999999999615 	2.550576186117966e-12 	101324.9999999957
0.7144644644644638 	299.9999999999771 	1.534876317709957e-12 	101324.9999999958
0.7169669669669665 	299.9999999999666 	1.796199321933686e-12 	101324.999999996
0.7194694694694688 	299.9999999999978 	8.447087836575987e-13 	101324.9999999962
0.7219719719719715 	299.9999999999975 	9.344821099175089e-13 	101324.9999999961
0.7244744744744737 	300.0000000000008 	9.193184001982296e-13 	101324.9999999962
0.7269769769769764 	299.9999999999968 	9.100889949533641e-13 	101324.9999999962
0.7294794794794791 	299.9999999999933 	1.942586080257069e-12 	101324.9999999961
0.7319819819819813 	299.999999999992 	1.008978038837996e-12 	101324.9999999961
0.7344844844844839 	299.9999999999673 	1.203660565255533e-12 	101324.9999999958
0.7369869869869864 	299.999999999982 	1.059400493464794e-12 	101324.9999999957
0.739489489489489 	299.9999999999769 	5.93101605295367e-13 	101324.9999999958
0.7419919919919914 	299.9999999999719 	7.195316250956319e-13 	101324.9999999956
0.7444944944944939 	299.9999999999883 	1.536451703533539e-12 	101324.9999999954
0.7469969969969963 	299.9999999999881 	1.484376233161121e-12 	101324.9999999954
0.7494994994994989 	299.9999999999762 	2.367271488896933e-12 	101324.9999999955
0.7520020020020015 	299.999999999986 	1.92162404785633e-12 	101324.9999999957
0.7545045045045039 	299.9999999999868 	1.987981129479648e-12 	101324.9999999958
0.7570070070070062 	299.9999999999775 	8.294194208181922e-13 	101324.9999999957
0.7595095095095092 	299.9999999999709 	1.509655759094865e-12 	101324.9999999956
0.7620120120120112 	300.0000000000006 	5.473085986219815e-13 	101324.9999999955
0.7645145145145138 	299.999999999995 	5.879105983329921e-13 	101324.9999999954
0.7670170170170165 	299.9999999999724 	1.271843659275816e-12 	101324.9999999955
0.7695195195195191 	299.9999999999669 	1.393406757167144e-12 	101324.9999999958
0.7720220220220213 	299.999999999975 	1.643501399783039e-12 	101324.9999999957
0.7745245245245239 	299.9999999999773 	1.073564401306017e-12 	101324.9999999958
0.7770270270270263 	299.9999999999883 	1.13975305491767e-12 	101324.9999999958
0.779529529529529 	299.9999999999902 	5.983870703096363e-13 	101324.9999999958
0.7820320320320313 	299.9999999999857 	5.861523662131072e-13 	101324.9999999959
0.784534534534534 	299.9999999999959 	7.071404817879962e-13 	101324.999999996
0.7870370370370364 	299.999999999994 	9.08349131186792e-13 	101324.999999996
0.7895395395395389 	299.9999999999897 	1.649799814216166e-12 	101324.9999999956
0.7920420420420413 	299.9999999999919 	1.080725291293411e-12 	101324.9999999955
0.794544544544544 	299.9999999999969 	2.208791911498171e-12 	101324.9999999955
0.7970470470470463 	300.0000000000024 	1.700897218692791e-12 	101324.9999999954
0.799549549549549 	299.9999999999923 	2.195190863989504e-12 	101324.9999999955
0.8020520520520515 	299.9999999999946 	8.484934369026641e-13 	101324.9999999955
0.8045545545545539 	299.9999999999786 	1.026074679511471e-12 	101324.9999999958
0.8070570570570563 	299.9999999999969 	3.006258417764988e-13 	101324.9999999958
0.8095595595595589 	299.9999999999849 	6.36297861038534e-13 	101324.9999999958
0.8120620620620614 	299.9999999999724 	7.58619828853843e-13 	101324.9999999958
0.8145645645645638 	299.9999999999956 	7.986703224940669e-13 	101324.9999999959
0.8170670670670666 	299.9999999999932 	1.548818184534538e-12 	101324.999999996
0.8195695695695689 	299.9999999999877 	1.396195079141453e-12 	101324.9999999961
0.8220720720720714 	299.9999999999753 	1.797323521824888e-12 	101324.9999999961
0.8245745745745739 	300.0000000000003 	5.410825212920653e-13 	101324.9999999961
0.8270770770770765 	299.9999999999902 	9.513890353546474e-13 	101324.9999999962
0.8295795795795788 	299.9999999999801 	3.743542700048754e-13 	101324.9999999964
0.8320820820820815 	300.0000000000075 	8.291200874550146e-13 	101324.9999999967
0.834584584584584 	300.0000000000023 	5.442222712024804e-13 	101324.9999999965
0.8370870870870865 	299.9999999999852 	6.221335226642088e-13 	101324.9999999961
0.8395895895895891 	299.9999999999666 	5.303387969462441e-13 	101324.9999999958
0.8420920920920915 	299.9999999999703 	1.9147404681409e-13 	101324.9999999956
0.844594594594594 	299.9999999999687 	3.028337071138313e-13 	101324.9999999955
0.8470970970970964 	299.9999999999746 	4.153321388422747e-13 	101324.9999999955
0.8495995995995991 	299.9999999999913 	6.674299066654378e-13 	101324.9999999956
0.8521021021021015 	299.9999999999899 	1.018284786284803e-12 	101324.9999999958
0.8546046046046039 	299.9999999999906 	1.049595228643627e-12 	101324.9999999961
0.8571071071071066 	299.9999999999969 	1.755632342276612e-12 	101324.9999999961
0.8596096096096089 	299.9999999999793 	1.414907028620429e-12 	101324.999999996
0.8621121121121116 	299.9999999999678 	1.748034122839557e-12 	101324.999999996
0.8646146146146139 	299.999999999993 	7.074033461198468e-13 	101324.999999996
0.8671171171171166 	299.9999999999892 	1.285793871950252e-12 	101324.9999999961
0.8696196196196189 	299.999999999981 	1.000576164442771e-12 	101324.999999996
0.8721221221221216 	299.999999999983 	1.58059921027565e-12 	101324.999999996
0.874624624624624 	299.9999999999966 	1.400693801025248e-12 	101324.9999999959
0.8771271271271264 	300.0000000000015 	5.130104597551499e-13 	101324.9999999954
0.879629629629629 	299.9999999999993 	2.423967572605904e-12 	101324.9999999946
0.8821321321321317 	299.9999999999894 	7.378208625657808e-12 	101324.999999993
0.8846346346346339 	299.9999999999621 	1.678011969302329e-11 	101324.9999999889
0.8871371371371364 	299.9999999999656 	4.425410568887495e-11 	101324.9999999786
0.8896396396396391 	299.9999999999444 	1.077756072880633e-10 	101324.9999999538
0.8921421421421414 	299.9999999998961 	2.629554452785098e-10 	101324.9999998942
0.8946446446446441 	299.9999999997893 	6.288992821015028e-10 	101324.9999997528
0.8971471471471464 	299.9999999995143 	1.485741526345181e-09 	101324.9999994211
0.8996496496496489 	299.9999999988527 	3.466448527652498e-09 	101324.9999986532
0.9021521521521517 	299.9999999973626 	7.987882156186472e-09 	101324.9999968969
0.9046546546546541 	299.9999999940181 	1.818565104183594e-08 	101324.9999929309
0.9071571571571564 	299.9999999865218 	4.088697256988037e-08 	101324.9999840898
0.9096596596596589 	299.9999999700688 	9.076575690117951e-08 	101324.9999646369
0.9121621621621616 	299.999999934374 	1.988975836512417e-07 	101324.9999224049
0.9146646646646639 	299.9999998578697 	4.301180505965125e-07 	101324.999831969
0.9171671671671666 	299.9999996963373 	9.176272458524165e-07 	101324.9996410123
0.9196696696696689 	299.9999993601946 	1.930758189543523e-06 	101324.9992435777
0.9221721721721714 	299.9999986708314 	4.00522189517319e-06 	101324.9984285664
0.9246746746746741 	299.9999972785014 	8.188545663186863e-06 	101324.996782498
0.9271771771771765 	299.9999945102074 	1.649314335940415e-05 	101324.9935096601
0.9296796796796791 	299.9999890943003 	3.271449714001628e-05 	101324.9871066414
0.9321821821821816 	299.9999786737142 	6.387473526671666e-05 	101324.9747868602
0.9346846846846838 	299.9999589665449 	0.0001227067501789878 	101324.9514880206
0.9371871871871866 	299.9999223563494 	0.0002318151276916731 	101324.9082055768
0.9396896896896891 	299.9998555935452 	0.0004304430864359386 	101324.8292753914
0.9421921921921914 	299.9997361675169 	0.0007851236047618378 	101324.6880845831
0.9446946946946939 	299.9995267856613 	0.001405836669691864 	101324.4405447473
0.9471971971971965 	299.9991673200901 	0.00246949411799662 	101324.015571502
0.9496996996996991 	299.9985636388859 	0.004252372445367463 	101323.3018817217
0.9522022022022016 	299.9975730686641 	0.007172105778418481 	101322.1308100754
0.9547047047047038 	299.9959870305306 	0.01183748180387004 	101320.2557877446
0.9572072072072064 	299.99351287145 	0.01909993226141728 	101317.3308784403
0.9597097097097093 	299.9897592510208 	0.03009381322521735 	101312.8935333269
0.9622122122122114 	299.984232619892 	0.04624343656052582 	101306.360484807
0.964714714714714 	299.9763559218009 	0.06920463024516213 	101297.0499492772
0.9672172172172167 	299.9655236023343 	0.1007005132102531 	101284.2467864059
0.969719719719719 	299.9512074456239 	0.1422105926802856 	101267.3277460732
0.9722222222222214 	299.9331231037149 	0.1944865996119268 	101245.9583646609
0.9747247247247239 	299.9114546942575 	0.2569055227208671 	101220.3582252664
0.9772272272272267 	299.8871120982018 	0.3267516948268555 	101191.6043709853
0.9797297297297292 	299.8619328554978 	0.3987324305275041 	101161.8686668945
0.9822322322322313 	299.838601419137 	0.4653013327095924 	101134.321073037
0.9847347347347344 	299.820096232869 	0.5181664026693279 	101112.4760859229
0.9872372372372363 	299.80883231163 	0.5506089268116371 	101099.1812268564
0.9897397397397389 	299.8058507301136 	0.5597402541329369 	101095.6610330658
0.9922422422422417 	299.8103244252708 	0.5478921429890915 	101100.9408978299
0.9947447447447441 	299.8195680477289 	0.5226174309730275 	101111.8546314649
0.9972472472472468 	299.8296174021515 	0.4949843344532472 	101123.7178797846
0.999749749749749 	299.8364550090879 	0.4759750475091961 	101131.7898383129
1.002252252252252 	299.8377660300655 	0.4718835513506299 	101133.3384798798
1.004754754754754 	299.8340768181852 	0.4814013418661243 	101128.9828563773
1.007257257257256 	299.8283452650184 	0.4966012673961897 	101122.2149591513
1.009759759759759 	299.8242893382884 	0.5075173748808038 	101117.4270060643
1.012262262262261 	299.8241986262944 	0.5080465964567943 	101117.319147888
1.014764764764764 	299.8275085499865 	0.4995646600609999 	101121.2266486526
1.017267267267267 	299.8313869932268 	0.4894293212482934 	101125.8065203376
1.019769769769769 	299.8329355216041 	0.4851925876787962 	101127.6349886043
1.022272272272272 	299.8314323767999 	0.4887956799355577 	101125.8604482459
1.024774774774774 	299.8287676940222 	0.4954952320087291 	101122.7140332215
1.027277277277277 	299.8275863869691 	0.4985740029316212 	101121.3188983663
1.029779779779779 	299.8288264804812 	0.4955901176954721 	101122.7825492456
1.032282282282282 	299.8309747908745 	0.4902305047364587 	101125.3195111677
1.034784784784784 	299.8318177660701 	0.4879884251637351 	101126.3151395218
1.037287287287286 	299.8308112548588 	0.4902843086299986 	101125.1268975672
1.039789789789789 	299.8295047396395 	0.4934177124576541 	101123.5838607413
1.042292292292291 	299.8295624865568 	0.4933370885311733 	101123.651811494
1.044794794794794 	299.8307992120439 	0.4903970380371276 	101125.1118379368
1.047297297297296 	299.8316155538496 	0.4883561778054889 	101126.0761024058
1.049799799799799 	299.8311836224681 	0.4892268636237815 	101125.5664210327
1.052302302302302 	299.8304331407147 	0.4909161631458007 	101124.6798351149
1.054804804804804 	299.8305776272025 	0.4905983739242468 	101124.8501140603
1.057307307307306 	299.8313912160236 	0.4887111204909445 	101125.8109961676
1.059809809809809 	299.8317231024761 	0.4878467277920012 	101126.20299244
1.062312312312312 	299.8313216212731 	0.4886364533773837 	101125.7289075019
1.064814814814814 	299.8310916670914 	0.4891099097217652 	101125.4571952088
1.067317317317317 	299.831516214455 	0.4881551138528537 	101125.9583206965
1.069819819819819 	299.831943577867 	0.4871403403273993 	101126.4630739618
1.072322322322321 	299.8318304902383 	0.4872702332629497 	101126.3296697219
1.074824824824824 	299.8316427122984 	0.4876035147819674 	101126.1078083387
1.077327327327327 	299.8318914138299 	0.487038905915098 	101126.4012064955
1.079829829829829 	299.83221948999 	0.4862724116891899 	101126.78867811
1.082332332332332 	299.8321907002213 	0.4862225958952635 	101126.7548693466
1.084834834834834 	299.8321129418151 	0.4863049330586391 	101126.6627567567
1.087337337337337 	299.8323289981206 	0.4858094028792235 	101126.9176709817
1.089839839839839 	299.8325452311456 	0.4852845604386989 	101127.1733049219
1.092342342342342 	299.832523385108 	0.4852218031054177 	101127.1474378126
1.094844844844844 	299.832552825315 	0.4850850750855851 	101127.1819983104
1.097347347347347 	299.8327606978409 	0.4846056324852125 	101127.4274945149
1.099849849849849 	299.8328726817483 	0.4842868059252422 	101127.5598949281
1.102352352352352 	299.8328739510789 	0.484183062880109 	101127.5611352068
1.104854854854854 	299.8329946909345 	0.4838739067406826 	101127.7035271928
1.107357357357357 	299.8331528431713 	0.4834839530326314 	101127.8904975186
1.109859859859859 	299.8331974836065 	0.4832917570711285 	101127.9431143348
1.112362362362362 	299.8332693556338 	0.4830652620448795 	101128.0277967328
1.114864864864865 	299.8334168835671 	0.4827048395675968 	101128.2020290253
1.117367367367367 	299.8334980049965 	0.4824486355270029 	101128.2978746541
1.119869869869869 	299.8335599720771 	0.4822333625714804 	101128.3709173388
1.122372372372372 	299.8336872693935 	0.4819125987743289 	101128.521163503
1.124874874874874 	299.8337837768985 	0.4816335976997896 	101128.6352286821
1.127377377377377 	299.8338509393565 	0.481406124189567 	101128.7143732987
1.129879879879879 	299.8339649187113 	0.4811085176042679 	101128.8488261499
1.132382382382382 	299.8340639386477 	0.4808280750182128 	101128.9658322569
1.134884884884884 	299.8341382332225 	0.4805881301729671 	101129.0536086282
1.137387387387387 	299.8342457920509 	0.4803016500826196 	101129.1805378175
1.139889889889889 	299.8343423967323 	0.4800269830063018 	101129.2944829212
1.142392392392392 	299.8344231659155 	0.4797775318491098 	101129.3897783846
1.144894894894894 	299.8345276913515 	0.4794964293932746 	101129.5131464355
1.147397397397397 	299.83462026672 	0.4792287093674683 	101129.6224131129
1.149899899899899 	299.8347065459438 	0.4789718555025288 	101129.7242585033
1.152402402402402 	299.8348085176026 	0.4786948468886111 	101129.8446653151
1.154904904904904 	299.8348979927065 	0.4784328692297687 	101129.9501854388
1.157407407407407 	299.8349894385799 	0.4781709161277694 	101130.0580604562
1.159909909909909 	299.8350878936737 	0.4778993051766853 	101130.174334725
1.162412412412412 	299.8351763009385 	0.4776395499589561 	101130.2786813932
1.164914914914914 	299.8352713278388 	0.4773739075086351 	101130.390846539
1.167417417417417 	299.8353655465368 	0.4771084239841994 	101130.5020477786
1.169919919919919 	299.8354556354245 	0.4768488571957072 	101130.6084263938
1.172422422422422 	299.8355514518787 	0.4765837533729496 	101130.7214741635
1.174924924924925 	299.8356427997828 	0.4763229965231446 	101130.8291441195
1.177427427427427 	299.8357358456751 	0.4760619641514896 	101130.9388972335
1.179929929929929 	299.8358295536516 	0.4757999549979959 	101131.0495508271
1.182432432432432 	299.8359207747599 	0.4755412474974622 	101131.1572419979
1.184934934934934 	299.8360148201008 	0.4752810551755011 	101131.2681671686
1.187437437437437 	299.8361066658152 	0.4750229106169065 	101131.3764201029
1.189939939939939 	299.836199474943 	0.4747648020154517 	101131.4860228758
1.192442442442442 	299.8362919983289 	0.4745073762583982 	101131.5954307619
1.194944944944944 	299.8363841734456 	0.4742515560765039 	101131.7040701945
1.197447447447447 	299.8364773771458 	0.4739959095322814 	101131.8138338705
1.199949949949949 	299.8365694088582 	0.4737422221369189 	101131.9222721256
1.202452452452452 	299.8366621354284 	0.4734887933452833 	101132.0317591678
1.204954954954955 	299.836754098126 	0.4732366408784847 	101132.1404386796
1.207457457457457 	299.8368465994799 	0.4729858518094318 	101132.2495315736
1.20995995995996 	299.8369390505694 	0.4727362234887493 	101132.358434376
1.212462462462462 	299.8370314401889 	0.4724874521700428 	101132.467290012
1.214964964964964 	299.8371240501593 	0.4722413147748741 	101132.5763157121
1.217467467467467 	299.8372163512121 	0.4719942299115606 	101132.6851140969
1.219969969969969 	299.8373086740449 	0.4717535463551141 	101132.7941716527
1.222472472472472 	299.8374010083098 	0.4715010122752296 	101132.9029948546
1.224974974974975 	299.8374936312421 	0.4712855983036587 	101133.0120665352
1.227477477477477 	299.8375861599842 	0.4709748057555433 	101133.1209250645
1.229979979979979 	299.8376790853477 	0.4709172473696653 	101133.2302741475
1.232482482482482 	299.8377718114878 	0.4698657473213784 	101133.3389937244
1.234984984984984 	299.8378678753346 	0.4713845834737754 	101133.4529550956
1.237487487487487 	299.837958914621 	0.4674863986745395 	101133.5569824313
1.239989989989989 	299.8380447126403 	0.471181223822428 	101133.6630328764
1.242492492492492 	299.8381529382355 	0.4689263194717044 	101133.7803130366
1.244994994994994 	299.8377183252633 	0.46531810458948 	101133.8614325998
1.247497497497497 	299.4681653593937 	0.4717736675719721 	101133.9806476701
1.249999999999999 	303.9463797475943 	0.4685218774994687 	101134.0931673155
