-1.25 	299.997030943589 	0.9998162080949734 	101325
-1.247497497497497 	299.9941697018683 	0.9873339726923127 	101318.1164156119
-1.244994994994995 	299.988530497348 	0.966848947809561 	101311.4502606568
-1.242492492492492 	299.9830890526089 	0.9511260112090234 	101305.0096118797
-1.23998998998999 	299.9779472907774 	0.9362609367270917 	101298.9319984472
-1.237487487487487 	299.9732096140182 	0.9225698507902182 	101293.3323805383
-1.234984984984985 	299.9689636740917 	0.910299230028583 	101288.314052251
-1.232482482482482 	299.9652874577105 	0.899675189237196 	101283.9693409625
-1.22997997997998 	299.9622479202061 	0.8908921288682781 	101280.3772425263
-1.227477477477477 	299.9599015449674 	0.8841122845348153 	101277.6042351283
-1.224974974974975 	299.9582918583731 	0.879461491308603 	101275.70186202
-1.222472472472472 	299.9574479593338 	0.8770240680694734 	101274.704500693
-1.21996996996997 	299.9573840848786 	0.876842769156405 	101274.6292657828
-1.217467467467467 	299.9581021807829 	0.8789206599111309 	101275.4778289789
-1.214964964964965 	299.9595892085112 	0.8832190936916636 	101277.234618879
-1.212462462462462 	299.9618158733618 	0.8896566953618043 	101279.8659085594
-1.20995995995996 	299.9647411568874 	0.8981138072332302 	101283.3229995038
-1.207457457457457 	299.968311464154 	0.9084348171511069 	101287.54249013
-1.204954954954955 	299.9724607996459 	0.9204295924909551 	101292.4465691316
-1.202452452452452 	299.9771132018203 	0.9338780889637663 	101297.9453829103
-1.19994994994995 	299.9821835780696 	0.9485343482340012 	101303.9385177156
-1.197447447447447 	299.9875790607018 	0.9641298230134013 	101310.3161801758
-1.194944944944945 	299.9932007085822 	0.9803788306604706 	101316.9614624029
-1.192442442442442 	299.9989459451182 	0.9969849345977659 	101323.7532287359
-1.18993993993994 	300.0047101172626 	1.013645201110389 	101330.5677035983
-1.187437437437437 	300.010387516077 	1.030054512440139 	101337.2799513375
-1.184934934934935 	300.0158742289556 	1.045912562815323 	101343.7670104307
-1.182432432432432 	300.0210703278097 	1.060930527762243 	101349.9107618153
-1.17992992992993 	300.0258813898517 	1.074835213442817 	101355.5995158686
-1.177427427427427 	300.030219496291 	1.087372672387926 	101360.7292401421
-1.174924924924925 	300.0340050917003 	1.098313125405854 	101365.2058273434
-1.172422422422422 	300.037168762961 	1.107455796515999 	101368.9470334
-1.16991991991992 	300.0396523983749 	1.114633329126864 	101371.8842152658
-1.167417417417417 	300.041410976345 	1.119715298214871 	101373.9640509244
-1.164914914914915 	300.0424128080587 	1.1226095058312 	101375.1488377684
-1.162412412412412 	300.0426396009811 	1.123261888766353 	101375.4166599236
-1.15990990990991 	300.0420849039402 	1.12165666008184 	101374.7605773208
-1.157407407407407 	300.0407573370252 	1.117820302746434 	101373.1911712443
-1.154904904904904 	300.0386824770023 	1.111823011329601 	101370.7377814046
-1.152402402402403 	300.0358979327635 	1.103773705610057 	101367.4449163079
-1.1498998998999 	300.032453597469 	1.093817867304091 	101363.3720307635
-1.147397397397397 	300.0284122698944 	1.082136313365223 	101358.5932057295
-1.144894894894895 	300.0238474509782 	1.068941924662639 	101353.1955558299
-1.142392392392392 	300.0188426049053 	1.054475740192605 	101347.277889835
-1.13988988988989 	300.0134891997862 	1.039002241069052 	101340.9482802613
-1.137387387387387 	300.007885629465 	1.022805950591446 	101334.3232127186
-1.134884884884885 	300.0021356208256 	1.006186161835458 	101327.5253044117
-1.132382382382382 	299.9963453703431 	0.9894503783526318 	101320.6801706076
-1.12987987987988 	299.9906224255299 	0.9729087547313875 	101313.9149042788
-1.127377377377377 	299.9850723513967 	0.9568666501974232 	101307.3542752292
-1.124874874874875 	299.9797972417242 	0.9416200854449197 	101301.119002628
-1.122372372372372 	299.9748954466654 	0.9274520350276867 	101295.3251596585
-1.11986986986987 	299.9704573118316 	0.9146243314681864 	101290.0795957957
-1.117367367367367 	299.9665646313098 	0.9033733841375334 	101285.4787227662
-1.114864864864865 	299.9632892733064 	0.8939063765072691 	101281.6076308683
-1.112362362362362 	299.9606901761952 	0.8863947766545454 	101278.5359911901
-1.10985985985986 	299.9588142663247 	0.8809739636061825 	101276.3190530506
-1.107357357357357 	299.9576954672426 	0.8777408180091246 	101274.9968964795
-1.104854854854855 	299.9573517975219 	0.8767496597864514 	101274.5909232213
-1.102352352352353 	299.9577893819055 	0.8780173204579365 	101275.1082151501
-1.09984984984985 	299.9590014817057 	0.8815202524756742 	101276.5402537814
-1.097347347347347 	299.9609622247322 	0.8871879017271304 	101278.8571027131
-1.094844844844845 	299.9636340227797 	0.8949126201053803 	101282.0146414916
-1.092342342342342 	299.9669691372727 	0.9045528202232078 	101285.956171433
-1.08983983983984 	299.9709042744871 	0.915928104393004 	101290.6070117938
-1.087337337337337 	299.9753674785032 	0.9288308621508223 	101295.8821411421
-1.084834834834835 	299.9802801297309 	0.9430301871931945 	101301.6887455417
-1.082332332332332 	299.9855505295793 	0.958263317561825 	101307.9184372811
-1.07982982982983 	299.991080929393 	0.9742504161159486 	101314.4557806
-1.077327327327327 	299.9967748189026 	0.9907076568899578 	101321.1867303002
-1.074824824824825 	300.0025279487801 	1.00733414840445 	101327.9879628414
-1.072322322322323 	300.0082315579284 	1.023821402747529 	101334.7310945315
-1.06981981981982 	300.0137866188755 	1.039878108146246 	101341.2988413573
-1.067317317317317 	300.0190946805912 	1.055216261981708 	101347.5748425908
-1.064814814814815 	300.0240520859322 	1.069544388532425 	101353.4366179712
-1.062312312312312 	300.0285696446531 	1.082604071270818 	101358.778383948
-1.05980980980981 	300.0325730927714 	1.094171903355246 	101363.5125170329
-1.057307307307307 	300.0359841803188 	1.104026068843011 	101367.5463027473
-1.054804804804805 	300.0387325338963 	1.111972384290747 	101370.7964064809
-1.052302302302302 	300.0407776282283 	1.117884732663638 	101373.2150084327
-1.0497997997998 	300.0420880501637 	1.121664036162349 	101374.764771354
-1.047297297297297 	300.0426240885623 	1.123208617802215 	101375.3984811698
-1.044794794794795 	300.0423699431019 	1.122478999268434 	101375.0975677398
-1.042292292292292 	300.0413467301613 	1.119521679347342 	101373.8878585542
-1.03978978978979 	300.0395740428028 	1.114387318307376 	101371.7919503508
-1.037287287287287 	300.0370592860776 	1.107117955468536 	101368.8182055905
-1.034784784784785 	300.0338484536804 	1.097849636152608 	101365.0213187693
-1.032282282282283 	300.0300304720495 	1.086812608383061 	101360.5065541038
-1.02977977977978 	300.0256719149705 	1.074197810403347 	101355.3527990245
-1.027277277277277 	300.0208132505894 	1.060153970459498 	101349.6078179551
-1.024774774774775 	300.0155444162834 	1.044945595196274 	101343.3781419136
-1.022272272272272 	300.0100123600359 	1.028959526267589 	101336.837526016
-1.01976976976977 	300.0043271949387 	1.012502811007864 	101330.1161527605
-1.017267267267267 	299.998534840748 	0.9957506215276755 	101323.2684307096
-1.014764764764765 	299.9927192312084 	0.978968707680784 	101316.3935006641
-1.012262262262262 	299.9870558799738 	0.9626219644584378 	101309.6988633211
-1.00975975975976 	299.9817039524826 	0.9471287772397763 	101303.3726520207
-1.007257257257257 	299.9767020869199 	0.9326337414980197 	101297.4604929629
-1.004754754754755 	299.9720502145867 	0.9191989734435537 	101291.9622231758
-1.002252252252252 	299.9678628001909 	0.907147433632663 	101287.0130640737
-0.9997497497497498 	299.9643447699061 	0.8969962628885967 	101282.8551994916
-0.9972472472472473 	299.9616002042794 	0.8890127742959715 	101279.611539828
-0.9947447447447449 	299.9595491452863 	0.8830304129370726 	101277.1875063644
-0.9922422422422421 	299.9580924539802 	0.8788417082762567 	101275.465956968
-0.9897397397397399 	299.9573108865935 	0.8766632503392924 	101274.5423959111
-0.9872372372372376 	299.9574178109763 	0.8770138576659464 	101274.6692429283
-0.9847347347347346 	299.958506270779 	0.8801007262500272 	101275.9552693932
-0.9822322322322323 	299.9603997478681 	0.885477768911891 	101278.1924616707
-0.9797297297297296 	299.9628179468605 	0.8924494555332925 	101281.0501752358
-0.9772272272272275 	299.9656705887498 	0.9007849471178659 	101284.4214947904
-0.9747247247247248 	299.9691356744915 	0.9109093879557197 	101288.5167014031
-0.9722222222222224 	299.9734261465839 	0.9233225858001043 	101293.5875542945
-0.9697197197197196 	299.978488848444 	0.93785063432629 	101299.5714251583
-0.9672172172172175 	299.983954643905 	0.9535240543693203 	101306.0319929038
-0.9647147147147147 	299.9893982779673 	0.9692336996706556 	101312.466699778
-0.9622122122122124 	299.9946574174757 	0.9845395941276605 	101318.683665044
-0.9597097097097099 	299.9999117829119 	0.9998755738735005 	101324.895122939
-0.9572072072072073 	300.0054568049808 	1.015972900554294 	101331.4505150728
-0.9547047047047047 	300.0113759391146 	1.033013605419387 	101338.4485831481
-0.9522022022022023 	300.0173830722107 	1.050217930203902 	101345.5510114706
-0.9496996996996998 	300.0229520904113 	1.066177440794288 	101352.1358711535
-0.9471971971971973 	300.0276229575648 	1.079656046683415 	101357.6590000955
-0.9446946946946947 	300.0312584818514 	1.090272084069878 	101361.9580057208
-0.9421921921921923 	300.0340858970459 	1.098615271791479 	101365.3015680874
-0.93968968968969 	300.0365139307912 	1.105765842819057 	101368.1727961121
-0.9371871871871872 	300.0388565070845 	1.112559118340461 	101370.9430435503
-0.9346846846846848 	300.041133581576 	1.11904388534215 	101373.6359704147
-0.9321821821821823 	300.0430456130227 	1.124402220572896 	101375.8971568075
-0.9296796796796799 	300.0441085504343 	1.127308291124425 	101377.1540674966
-0.9271771771771771 	300.0438626170031 	1.126494308510442 	101376.8621088304
-0.9246746746746748 	300.0420493785243 	1.121254881808703 	101374.7183114573
-0.9221721721721724 	300.03871252998 	1.11170497497801 	101370.7732480554
-0.9196696696696698 	300.0341716747874 	1.098727970015873 	101365.4037087819
-0.9171671671671672 	300.0289151823181 	1.083692376653005 	101359.1879233006
-0.9146646646646649 	300.0234721194715 	1.06809047560947 	101352.751761783
-0.9121621621621623 	300.0183010547648 	1.05322729101455 	101346.6374618962
-0.9096596596596597 	300.0137251304803 	1.040033303773998 	101341.2270539875
-0.9071571571571573 	300.0099157048282 	1.029011850444162 	101336.7230645306
-0.9046546546546547 	300.0069111564567 	1.020287573763851 	101333.1707906134
-0.9021521521521524 	300.0046541251377 	1.013709086827536 	101330.5023539092
-0.8996496496496498 	300.0030325096905 	1.008964222586397 	101328.5851792955
-0.8971471471471473 	300.0019143842633 	1.005679581357111 	101327.2632726851
-0.894644644644645 	300.0011723834412 	1.003491089236962 	101326.3860444828
-0.892142142142142 	300.0006973288051 	1.002084265110315 	101325.8244138188
-0.8896396396396397 	300.0004032825789 	1.001209938997508 	101325.4767794926
-0.8871371371371374 	300.0002270001218 	1.000683642983084 	101325.2683705667
-0.8846346346346349 	300.0001244787689 	1.000376318269618 	101325.1471651202
-0.8821321321321324 	300.0000665571353 	1.000201983738459 	101325.0786873775
-0.8796296296296297 	300.0000347275633 	1.000105794003124 	101325.0410568588
-0.8771271271271271 	300.000017695383 	1.000054114483278 	101325.0209205331
-0.8746246246246248 	300.0000088116324 	1.000027050578954 	101325.0104176619
-0.8721221221221224 	300.0000042908908 	1.000013223104367 	101325.0050729757
-0.8696196196196196 	300.0000020445565 	1.000006324847313 	101325.0024172256
-0.8671171171171175 	300.0000009538134 	1.000002961942577 	101325.0011276759
-0.8646146146146148 	300.0000004358761 	1.000001358784952 	101325.0005153474
-0.8621121121121121 	300.0000001952267 	1.000000610931647 	101325.0002308271
-0.8596096096096097 	300.0000000857519 	1.000000269341628 	101325.0001013802
-0.857107107107107 	300.0000000369427 	1.000000116493393 	101325.0000436815
-0.8546046046046049 	300.0000000156255 	1.000000049452179 	101325.0000184713
-0.8521021021021022 	300.0000000065004 	1.000000020612199 	101325.0000076682
-0.8495995995995997 	300.0000000026609 	1.000000008439767 	101325.0000031261
-0.8470970970970974 	300.0000000010523 	1.000000003396407 	101325.0000012516
-0.8445945945945946 	300.0000000003925 	1.000000001344117 	101325.0000004918
-0.8420920920920922 	300.0000000001662 	1.000000000523612 	101325.0000001887
-0.8395895895895897 	300.0000000000824 	1.000000000206717 	101325.0000000697
-0.8370870870870872 	300.0000000000293 	1.000000000075772 	101325.0000000237
-0.8345845845845846 	300.000000000005 	1.000000000027026 	101325.0000000067
-0.8320820820820823 	299.9999999999885 	1.000000000012004 	101325.0000000006
-0.8295795795795798 	299.9999999999677 	1.000000000005303 	101324.9999999982
-0.8270770770770772 	299.9999999999676 	1.000000000002891 	101324.9999999971
-0.8245745745745746 	299.9999999999689 	1.000000000002117 	101324.999999997
-0.8220720720720721 	299.9999999999844 	1.000000000001411 	101324.9999999972
-0.8195695695695699 	299.9999999999931 	1.000000000000988 	101324.9999999972
-0.817067067067067 	299.9999999999876 	1.000000000006161 	101324.9999999971
-0.8145645645645651 	299.9999999999582 	0.9999999999986541 	101324.9999999969
-0.8120620620620621 	299.9999999999776 	0.9999999999975338 	101324.9999999966
-0.8095595595595597 	300.0000000000015 	1.000000000001293 	101324.9999999962
-0.8070570570570572 	299.999999999994 	1.000000000002007 	101324.9999999958
-0.8045545545545546 	299.9999999999598 	1.000000000002088 	101324.9999999961
-0.8020520520520523 	299.9999999999852 	1.000000000001644 	101324.9999999968
-0.7995495495495494 	300.0000000000046 	1.000000000006379 	101324.9999999966
-0.7970470470470474 	299.9999999999881 	0.9999999999981847 	101324.9999999961
-0.7945445445445446 	299.9999999999925 	0.9999999999994278 	101324.9999999962
-0.7920420420420423 	300.0000000000052 	0.9999999999992918 	101324.9999999962
-0.7895395395395397 	300.0000000000141 	1.000000000002263 	101324.9999999967
-0.7870370370370371 	299.9999999999991 	0.9999999999995557 	101324.999999997
-0.7845345345345348 	299.9999999999959 	0.9999999999991009 	101324.999999997
-0.7820320320320323 	300.0000000000007 	1.000000000000154 	101324.9999999966
-0.7795295295295296 	299.9999999999785 	1.000000000005822 	101324.9999999964
-0.7770270270270272 	299.9999999999682 	0.9999999999984033 	101324.9999999962
-0.7745245245245247 	299.9999999999653 	0.9999999999971866 	101324.999999996
-0.7720220220220222 	299.9999999999733 	0.9999999999997415 	101324.9999999959
-0.7695195195195199 	299.9999999999628 	1.000000000000743 	101324.999999996
-0.767017017017017 	299.9999999999691 	1.00000000000131 	101324.9999999963
-0.7645145145145147 	299.9999999999903 	1.000000000001497 	101324.9999999966
-0.7620120120120122 	299.9999999999949 	1.000000000000447 	101324.9999999965
-0.7595095095095097 	299.9999999999807 	1.000000000008523 	101324.9999999962
-0.7570070070070072 	299.9999999999575 	0.9999999999968199 	101324.9999999954
-0.7545045045045048 	299.9999999999686 	1.000000000001445 	101324.9999999952
-0.7520020020020022 	299.9999999999601 	0.9999999999981284 	101324.9999999958
-0.7494994994994997 	299.9999999999734 	1.000000000000161 	101324.9999999967
-0.7469969969969972 	299.9999999999867 	0.999999999998692 	101324.999999997
-0.7444944944944945 	299.9999999999763 	0.9999999999989806 	101324.9999999969
-0.7419919919919924 	299.9999999999878 	1.000000000000528 	101324.9999999964
-0.7394894894894897 	299.9999999999673 	0.9999999999996128 	101324.9999999958
-0.7369869869869872 	299.9999999999753 	0.9999999999985268 	101324.9999999957
-0.7344844844844846 	299.9999999999808 	0.9999999999982047 	101324.9999999961
-0.7319819819819822 	299.9999999999986 	1.000000000004035 	101324.9999999962
-0.7294794794794797 	300.0000000000076 	0.9999999999968531 	101324.9999999958
-0.7269769769769773 	300.0000000000071 	0.9999999999967341 	101324.9999999953
-0.7244744744744747 	300.000000000002 	0.9999999999997066 	101324.999999995
-0.721971971971972 	299.999999999982 	0.9999999999999115 	101324.9999999955
-0.7194694694694695 	299.9999999999814 	0.9999999999994251 	101324.9999999957
-0.7169669669669674 	299.9999999999692 	0.9999999999989548 	101324.9999999958
-0.7144644644644647 	299.9999999999919 	0.9999999999982221 	101324.9999999962
-0.711961961961962 	300.0000000000076 	0.9999999999972 	101324.9999999965
-0.7094594594594597 	300.0000000000043 	0.9999999999999443 	101324.9999999961
-0.7069569569569573 	299.9999999999939 	0.9999999999969131 	101324.9999999959
-0.7044544544544545 	299.9999999999998 	0.9999999999978306 	101324.9999999961
-0.7019519519519523 	300.0000000000036 	0.9999999999994171 	101324.9999999961
-0.6994494494494495 	299.9999999999783 	0.999999999999547 	101324.9999999959
-0.6969469469469471 	299.9999999999844 	0.9999999999991532 	101324.9999999959
-0.6944444444444446 	299.9999999999968 	0.9999999999984227 	101324.9999999962
-0.6919419419419421 	300.0000000000104 	0.9999999999980408 	101324.9999999959
-0.6894394394394396 	299.9999999999854 	0.9999999999981017 	101324.9999999955
-0.6869369369369374 	299.9999999999905 	0.9999999999980322 	101324.9999999958
-0.6844344344344344 	299.9999999999964 	0.9999999999981408 	101324.9999999957
-0.6819319319319321 	299.9999999999717 	0.9999999999976774 	101324.9999999953
-0.6794294294294296 	299.9999999999767 	0.9999999999977952 	101324.9999999953
-0.6769269269269272 	299.999999999966 	0.9999999999978832 	101324.9999999955
-0.6744244244244245 	299.9999999999867 	0.9999999999979846 	101324.9999999954
-0.6719219219219222 	299.9999999999665 	0.999999999998249 	101324.9999999954
-0.6694194194194195 	299.9999999999892 	0.9999999999982059 	101324.9999999954
-0.6669169169169172 	300.0000000000014 	0.9999999999978499 	101324.9999999956
-0.6644144144144146 	299.9999999999982 	0.9999999999976961 	101324.9999999958
-0.661911911911912 	299.9999999999963 	0.999999999997475 	101324.999999996
-0.6594094094094097 	299.9999999999795 	0.9999999999980855 	101324.9999999964
-0.656906906906907 	299.9999999999748 	0.9999999999990844 	101324.9999999966
-0.6544044044044046 	299.9999999999562 	0.999999999998743 	101324.9999999965
-0.6519019019019021 	299.9999999999663 	0.9999999999980831 	101324.9999999963
-0.6493993993993996 	299.9999999999964 	0.9999999999971101 	101324.9999999962
-0.6468968968968971 	300.0000000000048 	1.0000000000026 	101324.9999999963
-0.6443943943943946 	300.0000000000121 	0.9999999999946619 	101324.9999999964
-0.6418918918918921 	300.0000000000162 	0.9999999999956276 	101324.9999999963
-0.6393893893893897 	300.0000000000165 	0.9999999999984283 	101324.9999999963
-0.6368868868868871 	300.0000000000134 	0.9999999999984382 	101324.9999999966
-0.6343843843843846 	300.0000000000128 	0.9999999999985265 	101324.9999999968
-0.6318818818818821 	299.999999999987 	0.9999999999992124 	101324.9999999967
-0.6293793793793795 	299.9999999999928 	0.9999999999996244 	101324.9999999962
-0.6268768768768773 	299.9999999999977 	1.000000000000646 	101324.9999999962
-0.6243743743743745 	299.9999999999762 	1.000000000003806 	101324.9999999963
-0.6218718718718721 	299.9999999999846 	0.9999999999987152 	101324.9999999965
-0.6193693693693696 	299.999999999974 	0.9999999999987735 	101324.999999997
-0.6168668668668671 	299.999999999992 	0.999999999999891 	101324.9999999968
-0.6143643643643645 	300.0000000000013 	0.9999999999995978 	101324.9999999964
-0.6118618618618621 	300.0000000000119 	0.9999999999996988 	101324.9999999961
-0.6093593593593596 	300.0000000000186 	0.9999999999994261 	101324.999999996
-0.6068568568568571 	299.9999999999875 	0.9999999999987047 	101324.9999999961
-0.6043543543543546 	299.9999999999827 	0.9999999999985947 	101324.9999999963
-0.6018518518518521 	299.9999999999737 	0.9999999999990054 	101324.9999999963
-0.5993493493493496 	299.9999999999869 	0.9999999999994029 	101324.9999999964
-0.5968468468468471 	299.9999999999927 	0.9999999999996153 	101324.9999999963
-0.5943443443443446 	299.9999999999927 	0.9999999999995122 	101324.9999999964
-0.591841841841842 	299.9999999999674 	0.9999999999994285 	101324.9999999966
-0.5893393393393397 	299.9999999999707 	0.9999999999994369 	101324.9999999967
-0.5868368368368371 	299.999999999991 	0.9999999999982302 	101324.9999999965
-0.5843343343343346 	300.0000000000143 	1.000000000002834 	101324.9999999968
-0.5818318318318321 	300.0000000000196 	0.9999999999934469 	101324.9999999968
-0.5793293293293297 	299.9999999999866 	0.9999999999947483 	101324.9999999969
-0.5768268268268271 	299.9999999999903 	0.9999999999978008 	101324.9999999968
-0.5743243243243245 	299.9999999999999 	0.9999999999983638 	101324.9999999965
-0.5718218218218221 	299.9999999999965 	0.9999999999979212 	101324.9999999959
-0.5693193193193196 	300.0000000000115 	0.9999999999979368 	101324.9999999955
-0.5668168168168171 	300.0000000000069 	0.9999999999985295 	101324.9999999955
-0.5643143143143147 	299.9999999999689 	0.999999999998371 	101324.9999999957
-0.5618118118118121 	299.999999999994 	1.000000000001556 	101324.9999999961
-0.5593093093093094 	300.0000000000055 	0.9999999999976954 	101324.999999996
-0.5568068068068072 	300.0000000000025 	0.9999999999990524 	101324.999999996
-0.5543043043043046 	300.0000000000036 	1.00000000000153 	101324.9999999964
-0.551801801801802 	299.9999999999711 	1.000000000001029 	101324.9999999966
-0.5492992992992995 	299.9999999999876 	1.000000000000118 	101324.9999999965
-0.5467967967967969 	300.0000000000035 	1.00000000000022 	101324.9999999958
-0.5442942942942947 	300.0000000000102 	1.000000000000646 	101324.9999999957
-0.5417917917917919 	299.9999999999717 	1.000000000001277 	101324.9999999959
-0.5392892892892895 	299.9999999999681 	1.000000000001285 	101324.9999999959
-0.536786786786787 	299.999999999971 	1.000000000000512 	101324.9999999961
-0.5342842842842846 	299.9999999999688 	0.9999999999994642 	101324.9999999964
-0.531781781781782 	299.9999999999502 	0.9999999999987979 	101324.9999999964
-0.5292792792792794 	299.9999999999555 	0.9999999999985896 	101324.9999999963
-0.526776776776777 	299.9999999999661 	0.9999999999988055 	101324.9999999961
-0.5242742742742745 	299.9999999999739 	0.9999999999993634 	101324.9999999958
-0.521771771771772 	299.999999999991 	1.000000000005895 	101324.9999999962
-0.5192692692692695 	299.9999999999906 	0.9999999999956999 	101324.9999999965
-0.516766766766767 	299.999999999996 	0.9999999999998832 	101324.9999999964
-0.5142642642642645 	299.9999999999669 	0.99999999999745 	101324.9999999958
-0.511761761761762 	299.9999999999852 	1.000000000001013 	101324.9999999957
-0.5092592592592596 	300.0000000000057 	0.9999999999971618 	101324.9999999962
-0.506756756756757 	299.999999999986 	0.9999999999980036 	101324.9999999962
-0.5042542542542544 	300.0000000000082 	0.9999999999996783 	101324.9999999963
-0.5017517517517521 	300.0000000000175 	1.00000000000029 	101324.9999999965
-0.4992492492492494 	300.0000000000112 	0.9999999999998461 	101324.9999999965
-0.496746746746747 	300.0000000000032 	0.9999999999992105 	101324.999999997
-0.4942442442442445 	299.9999999999686 	0.9999999999988665 	101324.9999999972
-0.4917417417417421 	299.9999999999669 	0.9999999999992901 	101324.9999999969
-0.4892392392392395 	299.9999999999667 	0.9999999999996427 	101324.9999999966
-0.486736736736737 	299.9999999999808 	0.9999999999997298 	101324.9999999962
-0.4842342342342345 	299.9999999999777 	0.9999999999997008 	101324.9999999967
-0.481731731731732 	300.0000000000096 	1.000000000000013 	101324.9999999967
-0.4792292292292296 	300.0000000000165 	0.9999999999999412 	101324.9999999961
-0.4767267267267268 	299.9999999999765 	1.000000000006458 	101324.9999999959
-0.4742242242242246 	299.9999999999835 	0.9999999999960776 	101324.999999996
-0.471721721721722 	299.9999999999651 	0.9999999999977722 	101324.9999999961
-0.4692192192192195 	299.9999999999707 	1.000000000000999 	101324.9999999959
-0.4667167167167169 	299.9999999999644 	1.000000000000984 	101324.9999999958
-0.4642142142142145 	299.9999999999999 	1.000000000000856 	101324.999999996
-0.461711711711712 	300.0000000000079 	1.000000000000724 	101324.9999999959
-0.4592092092092094 	299.9999999999961 	1.000000000000984 	101324.9999999958
-0.456706706706707 	300.0000000000163 	1.000000000001215 	101324.999999996
-0.4542042042042045 	299.9999999999861 	1.000000000000834 	101324.9999999963
-0.451701701701702 	299.9999999999868 	1.000000000000403 	101324.9999999963
-0.4491991991991995 	299.9999999999695 	0.9999999999996444 	101324.9999999962
-0.4466966966966969 	299.9999999999678 	0.9999999999996616 	101324.9999999959
-0.4441941941941945 	299.9999999999794 	0.9999999999999361 	101324.9999999951
-0.441691691691692 	299.9999999999629 	0.9999999999997262 	101324.9999999958
-0.4391891891891895 	299.9999999999844 	0.9999999999989525 	101324.999999996
-0.436686686686687 	299.9999999999805 	1.0000000000059 	101324.9999999959
-0.4341841841841846 	299.9999999999831 	0.9999999999961903 	101324.9999999958
-0.431681681681682 	299.9999999999741 	0.9999999999975869 	101324.999999996
-0.4291791791791794 	299.999999999971 	1.000000000000386 	101324.9999999959
-0.426676676676677 	299.9999999999558 	1.000000000000968 	101324.9999999958
-0.4241741741741744 	299.9999999999822 	1.000000000000807 	101324.999999996
-0.421671671671672 	300.0000000000056 	0.9999999999997666 	101324.9999999961
-0.4191691691691694 	300.000000000007 	0.9999999999985915 	101324.9999999962
-0.4166666666666669 	300.0000000000142 	0.9999999999979889 	101324.9999999961
-0.4141641641641645 	299.9999999999775 	0.9999999999980929 	101324.9999999961
-0.411661661661662 	299.9999999999908 	0.9999999999994783 	101324.9999999965
-0.4091591591591594 	299.9999999999886 	1.000000000001765 	101324.9999999966
-0.406656656656657 	299.9999999999631 	1.000000000002589 	101324.9999999966
-0.4041541541541545 	300 	1.000000000002346 	101324.9999999967
-0.401651651651652 	299.9999999999722 	1.000000000001262 	101324.9999999964
-0.3991491491491494 	299.9999999999878 	1.000000000000135 	101324.999999996
-0.396646646646647 	299.9999999999866 	1.000000000006585 	101324.9999999957
-0.3941441441441444 	300.000000000003 	0.9999999999958773 	101324.9999999958
-0.3916416416416419 	299.9999999999854 	0.999999999998109 	101324.999999996
-0.3891391391391395 	299.9999999999892 	1.000000000000314 	101324.9999999963
-0.3866366366366368 	299.9999999999977 	1.000000000000418 	101324.9999999962
-0.3841341341341344 	299.9999999999981 	1.000000000000988 	101324.9999999954
-0.381631631631632 	299.9999999999662 	1.00000000000187 	101324.999999995
-0.3791291291291294 	299.9999999999918 	1.000000000001984 	101324.9999999953
-0.3766266266266269 	299.9999999999922 	1.000000000001672 	101324.9999999954
-0.3741241241241244 	300.0000000000138 	1.000000000001725 	101324.9999999955
-0.371621621621622 	300.0000000000007 	1.000000000000829 	101324.9999999957
-0.3691191191191194 	300.0000000000101 	1.000000000007209 	101324.9999999959
-0.366616616616617 	300.0000000000083 	0.9999999999966126 	101324.9999999956
-0.3641141141141143 	299.9999999999699 	0.9999999999992102 	101324.9999999953
-0.3616116116116119 	299.9999999999847 	1.000000000002632 	101324.9999999956
-0.3591091091091095 	300.0000000000065 	1.000000000003558 	101324.9999999962
-0.356606606606607 	299.9999999999855 	1.000000000003399 	101324.9999999969
-0.3541041041041044 	300.0000000000015 	1.000000000002574 	101324.999999997
-0.3516016016016019 	300.0000000000043 	1.000000000001582 	101324.9999999962
-0.3490990990990994 	300.000000000009 	1.00000000000139 	101324.9999999954
-0.346596596596597 	300.0000000000146 	1.00000000000449 	101324.9999999952
-0.3440940940940944 	300.0000000000148 	0.9999999999995903 	101324.9999999957
-0.3415915915915919 	300.0000000000105 	1.000000000001193 	101324.999999996
-0.3390890890890895 	299.9999999999825 	1.000000000002423 	101324.9999999959
-0.3365865865865869 	299.9999999999972 	1.000000000002741 	101324.9999999958
-0.3340840840840844 	299.9999999999926 	1.00000000000306 	101324.9999999956
-0.3315815815815819 	300.0000000000127 	1.000000000002678 	101324.9999999954
-0.3290790790790794 	300.0000000000159 	1.000000000001896 	101324.9999999955
-0.3265765765765769 	299.9999999999733 	1.00000000000152 	101324.9999999951
-0.3240740740740744 	299.9999999999915 	1.000000000001926 	101324.9999999952
-0.3215715715715718 	300.0000000000011 	1.000000000003054 	101324.9999999955
-0.3190690690690695 	299.9999999999764 	1.000000000004446 	101324.9999999956
-0.3165665665665668 	299.9999999999912 	1.000000000004027 	101324.9999999957
-0.3140640640640644 	300.0000000000012 	1.000000000003134 	101324.999999996
-0.311561561561562 	299.9999999999771 	1.00000000000286 	101324.999999996
-0.3090590590590593 	299.9999999999946 	1.000000000002933 	101324.9999999957
-0.3065565565565568 	300.0000000000038 	1.000000000010497 	101324.9999999953
-0.3040540540540545 	299.9999999999913 	0.9999999999984097 	101324.9999999951
-0.3015515515515518 	299.9999999999989 	1.000000000001024 	101324.999999995
-0.2990490490490494 	299.9999999999764 	1.000000000003755 	101324.9999999949
-0.2965465465465469 	299.9999999999955 	1.000000000004065 	101324.9999999957
-0.2940440440440444 	300.0000000000087 	1.000000000004177 	101324.9999999954
-0.2915415415415418 	300.0000000000134 	1.000000000004323 	101324.9999999955
-0.2890390390390395 	300.0000000000025 	1.000000000004568 	101324.9999999951
-0.2865365365365368 	299.999999999988 	1.000000000004564 	101324.9999999947
-0.2840340340340343 	299.999999999992 	1.000000000007194 	101324.9999999949
-0.2815315315315318 	299.9999999999852 	1.000000000000311 	101324.9999999952
-0.2790290290290295 	299.9999999999712 	1.000000000001592 	101324.9999999954
-0.2765265265265269 	299.9999999999946 	1.000000000003529 	101324.9999999951
-0.2740240240240244 	300.00000000002 	1.000000000004497 	101324.9999999949
-0.2715215215215219 	300.0000000000223 	1.000000000004439 	101324.9999999947
-0.2690190190190194 	299.9999999999734 	1.000000000004773 	101324.9999999952
-0.2665165165165169 	299.9999999999896 	1.000000000004711 	101324.9999999953
-0.2640140140140144 	299.9999999999876 	1.000000000004302 	101324.999999995
-0.2615115115115119 	299.9999999999994 	1.000000000007899 	101324.9999999948
-0.2590090090090094 	299.9999999999646 	1.000000000002374 	101324.9999999953
-0.2565065065065068 	299.9999999999894 	1.000000000003811 	101324.9999999953
-0.2540040040040044 	299.9999999999975 	1.000000000004581 	101324.9999999945
-0.2515015015015019 	300.000000000014 	1.000000000004764 	101324.9999999943
-0.2489989989989994 	300.0000000000181 	1.000000000004583 	101324.9999999948
-0.2464964964964968 	299.9999999999914 	1.000000000004939 	101324.9999999944
-0.2439939939939944 	299.9999999999974 	1.000000000009258 	101324.9999999945
-0.2414914914914919 	299.9999999999791 	1.000000000002911 	101324.999999995
-0.2389889889889893 	299.9999999999871 	1.000000000003825 	101324.9999999954
-0.2364864864864869 	300.0000000000124 	1.000000000004118 	101324.9999999948
-0.2339839839839843 	299.9999999999779 	1.000000000008225 	101324.9999999947
-0.2314814814814819 	299.999999999986 	1.00000000000193 	101324.9999999945
-0.2289789789789792 	299.9999999999591 	1.000000000004236 	101324.9999999951
-0.2264764764764769 	299.9999999999683 	1.000000000006245 	101324.999999995
-0.2239739739739743 	299.9999999999812 	1.000000000005993 	101324.9999999949
-0.2214714714714718 	299.9999999999604 	1.000000000005491 	101324.9999999951
-0.2189689689689693 	299.999999999975 	1.000000000004705 	101324.999999995
-0.2164664664664669 	299.9999999999914 	1.000000000008205 	101324.9999999945
-0.2139639639639643 	299.9999999999678 	1.000000000001746 	101324.9999999948
-0.2114614614614618 	299.9999999999816 	1.000000000003342 	101324.9999999951
-0.2089589589589593 	299.9999999999977 	1.000000000002757 	101324.999999995
-0.2064564564564568 	299.9999999999966 	1.000000000001701 	101324.999999995
-0.2039539539539543 	299.9999999999565 	1.000000000001711 	101324.9999999945
-0.2014514514514518 	299.9999999999644 	1.00000000000216 	101324.9999999944
-0.1989489489489494 	299.9999999999782 	1.000000000005726 	101324.9999999942
-0.1964464464464468 	299.999999999997 	0.9999999999996535 	101324.9999999945
-0.1939439439439443 	299.999999999998 	1.000000000002227 	101324.9999999946
-0.1914414414414418 	299.9999999999692 	1.000000000003605 	101324.9999999951
-0.1889389389389393 	299.9999999999935 	1.00000000000362 	101324.9999999952
-0.1864364364364368 	300.0000000000148 	1.000000000004372 	101324.9999999948
-0.1839339339339343 	299.9999999999928 	1.000000000005088 	101324.9999999947
-0.1814314314314318 	299.9999999999942 	1.000000000004652 	101324.9999999945
-0.1789289289289293 	299.9999999999569 	1.000000000005113 	101324.9999999943
-0.1764264264264268 	299.9999999999748 	1.000000000004343 	101324.9999999944
-0.1739239239239243 	299.9999999999557 	1.000000000003969 	101324.9999999948
-0.1714214214214218 	299.999999999987 	1.000000000003412 	101324.999999995
-0.1689189189189193 	299.9999999999702 	1.000000000002909 	101324.9999999949
-0.1664164164164168 	299.999999999995 	1.000000000002654 	101324.9999999949
-0.1639139139139143 	300.0000000000011 	1.000000000003547 	101324.9999999948
-0.1614114114114118 	300.0000000000103 	1.000000000003952 	101324.9999999948
-0.1589089089089093 	299.9999999999976 	1.000000000012018 	101324.9999999942
-0.1564064064064068 	299.9999999999911 	0.9999999999995179 	101324.9999999941
-0.1539039039039043 	299.9999999999947 	1.000000000007414 	101324.999999995
-0.1514014014014018 	300.0000000000057 	1.000000000002464 	101324.9999999952
-0.1488988988988993 	299.9999999999948 	1.000000000006828 	101324.9999999951
-0.1463963963963968 	300.0000000000012 	1.000000000001603 	101324.9999999946
-0.1438938938938943 	299.9999999999729 	1.00000000000387 	101324.999999994
-0.1413913913913918 	299.9999999999716 	1.000000000004437 	101324.9999999942
-0.1388888888888893 	299.9999999999823 	1.00000000000401 	101324.9999999941
-0.1363863863863868 	299.9999999999613 	1.000000000004152 	101324.9999999935
-0.1338838838838843 	299.9999999999475 	1.000000000003969 	101324.9999999936
-0.1313813813813818 	299.9999999999887 	1.000000000004168 	101324.9999999942
-0.1288788788788793 	299.9999999999702 	1.000000000003687 	101324.9999999947
-0.1263763763763768 	299.9999999999831 	1.000000000004279 	101324.9999999945
-0.1238738738738743 	299.9999999999667 	1.000000000004849 	101324.9999999946
-0.1213713713713717 	299.9999999999836 	1.000000000004876 	101324.9999999943
-0.1188688688688693 	300.0000000000054 	1.000000000004486 	101324.9999999949
-0.1163663663663668 	299.9999999999576 	1.000000000003398 	101324.9999999945
-0.1138638638638643 	299.9999999999863 	1.000000000006367 	101324.9999999943
-0.1113613613613618 	299.9999999999901 	1.000000000000071 	101324.9999999952
-0.1088588588588592 	299.9999999999895 	1.000000000006291 	101324.9999999948
-0.1063563563563568 	299.9999999999799 	1.00000000000115 	101324.999999995
-0.1038538538538543 	299.9999999999882 	1.000000000002914 	101324.9999999949
-0.1013513513513517 	300.000000000007 	1.000000000003135 	101324.9999999946
-0.09884884884884926 	299.9999999999811 	1.000000000002459 	101324.9999999945
-0.09634634634634676 	299.9999999999603 	1.000000000002438 	101324.9999999946
-0.09384384384384425 	299.9999999999482 	1.000000000003319 	101324.999999995
-0.09134134134134177 	300.0000000000006 	1.000000000004282 	101324.9999999948
-0.08883883883883925 	300.0000000000035 	1.000000000005182 	101324.999999995
-0.08633633633633674 	299.9999999999717 	1.000000000004697 	101324.9999999949
-0.08383383383383426 	299.9999999999974 	1.000000000003114 	101324.9999999951
-0.08133133133133173 	299.9999999999889 	1.000000000002166 	101324.9999999953
-0.07882882882882926 	299.9999999999537 	1.000000000002022 	101324.9999999947
-0.07632632632632676 	299.999999999977 	1.00000000000256 	101324.9999999949
-0.07382382382382424 	299.999999999954 	1.000000000002979 	101324.9999999949
-0.07132132132132173 	299.9999999999896 	1.000000000003317 	101324.9999999948
-0.06881881881881925 	299.9999999999741 	1.000000000003807 	101324.999999995
-0.06631631631631671 	299.999999999949 	1.000000000003462 	101324.9999999947
-0.06381381381381425 	299.999999999972 	1.000000000003312 	101324.999999995
-0.06131131131131173 	299.9999999999764 	1.000000000003617 	101324.9999999948
-0.05880880880880923 	299.9999999999767 	1.000000000002968 	101324.9999999951
-0.05630630630630672 	299.9999999999764 	1.000000000002574 	101324.9999999952
-0.05380380380380424 	300.0000000000123 	1.000000000002887 	101324.999999995
-0.05130130130130173 	300.000000000001 	1.000000000002532 	101324.999999995
-0.04879879879879922 	299.9999999999517 	1.000000000002775 	101324.9999999949
-0.04629629629629672 	299.9999999999612 	1.000000000002791 	101324.9999999947
-0.04379379379379422 	299.9999999999653 	1.000000000002097 	101324.9999999952
-0.04129129129129173 	299.9999999999703 	1.00000000000183 	101324.9999999954
-0.03878878878878922 	300.0000000000017 	1.000000000002259 	101324.9999999959
-0.03628628628628671 	299.9999999999847 	1.000000000002635 	101324.999999996
-0.03378378378378422 	299.9999999999607 	1.000000000002998 	101324.9999999947
-0.03128128128128172 	299.9999999999771 	1.000000000002508 	101324.9999999947
-0.02877877877877922 	300.0000000000003 	1.000000000002137 	101324.9999999949
-0.0262762762762767 	299.9999999999488 	1.000000000000432 	101324.9999999951
-0.02377377377377422 	299.9999999999876 	1.000000000000393 	101324.9999999941
-0.0212712712712717 	299.999999999945 	1.000000000001488 	101324.9999999945
-0.01876876876876921 	299.9999999999854 	1.000000000001954 	101324.9999999952
-0.01626626626626671 	299.9999999999944 	1.000000000001658 	101324.9999999954
-0.0137637637637642 	299.9999999999709 	0.9999999999997805 	101324.9999999953
-0.0112612612612617 	299.9999999999906 	0.9999999999993865 	101324.9999999953
-0.008758758758759198 	299.9999999999852 	1.000000000000685 	101324.9999999952
-0.006256256256256697 	299.9999999999658 	1.000000000001738 	101324.9999999948
-0.003753753753754195 	299.9999999999677 	1.00000000000112 	101324.9999999947
-0.001251251251251693 	299.9999999999639 	1.000000000000226 	101324.9999999952
0.00125125125125081 	299.999999999954 	0.9999999999990765 	101324.9999999949
0.003753753753753312 	299.9999999999642 	0.9999999999982415 	101324.9999999947
0.006256256256255817 	299.9999999999583 	0.9999999999981356 	101324.9999999948
0.008758758758758317 	299.9999999999671 	0.9999999999983619 	101324.9999999951
0.01126126126126082 	299.9999999999819 	0.9999999999979033 	101324.9999999946
0.01376376376376332 	299.9999999999717 	0.9999999999984028 	101324.9999999948
0.01626626626626582 	299.9999999999891 	0.9999999999995106 	101324.9999999955
0.01876876876876833 	299.9999999999881 	0.999999999999157 	101324.9999999953
0.02127127127127083 	299.999999999958 	0.999999999998645 	101324.9999999953
0.02377377377377332 	299.9999999999886 	0.9999999999981606 	101324.9999999952
0.02627627627627583 	299.9999999999549 	0.9999999999981501 	101324.9999999948
0.02877877877877833 	299.9999999999831 	0.999999999999317 	101324.9999999946
0.03128128128128083 	299.9999999999826 	0.9999999999993303 	101324.9999999946
0.03378378378378333 	299.9999999999566 	0.9999999999986937 	101324.9999999951
0.03628628628628584 	299.9999999999797 	0.9999999999983119 	101324.9999999958
0.03878878878878834 	300.0000000000005 	0.9999999999978453 	101324.9999999952
0.04129129129129084 	299.9999999999683 	0.9999999999981178 	101324.9999999949
0.04379379379379333 	299.9999999999736 	0.9999999999991683 	101324.9999999952
0.04629629629629585 	299.9999999999646 	0.9999999999983663 	101324.9999999949
0.04879879879879834 	299.9999999999539 	0.9999999999967452 	101324.9999999943
0.05130130130130085 	300.0000000000048 	0.9999999999961895 	101324.9999999942
0.05380380380380335 	300.0000000000113 	0.9999999999971956 	101324.9999999939
0.05630630630630584 	299.999999999979 	0.9999999999977804 	101324.9999999942
0.05880880880880836 	299.9999999999753 	0.9999999999969693 	101324.9999999946
0.06131131131131085 	299.9999999999803 	0.9999999999953226 	101324.999999995
0.06381381381381336 	299.9999999999865 	0.9999999999950052 	101324.9999999947
0.06631631631631586 	299.9999999999573 	0.9999999999958462 	101324.9999999941
0.06881881881881835 	299.9999999999771 	0.999999999997653 	101324.9999999945
0.07132132132132088 	299.9999999999934 	0.9999999999971398 	101324.9999999948
0.07382382382382337 	299.9999999999583 	0.9999999999961522 	101324.9999999951
0.07632632632632587 	299.9999999999786 	0.9999999999957723 	101324.9999999949
0.07882882882882837 	299.999999999978 	0.9999999999966149 	101324.9999999953
0.08133133133133086 	299.9999999999815 	0.9999999999966533 	101324.9999999957
0.08383383383383337 	299.9999999999899 	0.9999999999963217 	101324.9999999951
0.08633633633633589 	299.9999999999554 	0.9999999999960811 	101324.9999999947
0.08883883883883838 	299.9999999999913 	0.9999999999954523 	101324.9999999948
0.09134134134134086 	299.9999999999898 	0.9999999999945118 	101324.9999999952
0.09384384384384339 	299.999999999951 	0.9999999999943774 	101324.9999999951
0.09634634634634588 	299.9999999999781 	0.9999999999950294 	101324.9999999947
0.09884884884884838 	299.9999999999846 	0.999999999995219 	101324.999999995
0.1013513513513509 	300.0000000000088 	0.9999999999957012 	101324.999999995
0.1038538538538534 	299.9999999999925 	0.9999999999940716 	101324.9999999948
0.1063563563563559 	299.9999999999902 	0.9999999999928523 	101324.9999999943
0.1088588588588584 	300.0000000000159 	0.9999999999930493 	101324.9999999947
0.1113613613613609 	299.9999999999775 	0.9999999999934915 	101324.9999999948
0.1138638638638634 	299.9999999999623 	0.9999999999935386 	101324.9999999947
0.1163663663663659 	299.9999999999666 	0.9999999999945948 	101324.9999999946
0.1188688688688684 	299.999999999981 	0.9999999999953821 	101324.9999999947
0.1213713713713709 	300.0000000000015 	0.9999999999961198 	101324.9999999949
0.1238738738738734 	299.9999999999669 	0.9999999999962735 	101324.9999999955
0.1263763763763759 	299.9999999999892 	0.9999999999961694 	101324.9999999956
0.1288788788788784 	299.9999999999883 	0.9999999999958299 	101324.9999999953
0.1313813813813809 	299.9999999999847 	0.999999999995005 	101324.9999999946
0.1338838838838834 	299.9999999999887 	0.9999999999943765 	101324.9999999943
0.1363863863863859 	299.9999999999986 	0.9999999999955048 	101324.999999994
0.1388888888888884 	300.0000000000148 	0.9999999999960912 	101324.9999999942
0.1413913913913909 	299.9999999999974 	0.9999999999958978 	101324.9999999947
0.1438938938938934 	299.999999999996 	0.9999999999953822 	101324.9999999957
0.1463963963963959 	299.9999999999736 	0.9999999999948522 	101324.9999999956
0.1488988988988985 	299.9999999999633 	0.9999999999955533 	101324.9999999956
0.1514014014014009 	299.9999999999822 	0.9999999999955268 	101324.9999999954
0.1539039039039035 	299.9999999999791 	0.9999999999961577 	101324.9999999956
0.1564064064064059 	299.9999999999676 	1.000000000000249 	101324.9999999955
0.1589089089089084 	299.9999999999837 	0.9999999999929156 	101324.9999999949
0.1614114114114109 	299.9999999999814 	0.9999999999943613 	101324.9999999951
0.1639139139139134 	299.9999999999589 	0.9999999999944729 	101324.9999999946
0.166416416416416 	299.9999999999857 	0.9999999999939121 	101324.9999999946
0.1689189189189185 	300.0000000000142 	0.999999999994031 	101324.9999999947
0.1714214214214209 	300.0000000000024 	0.9999999999938158 	101324.9999999948
0.1739239239239235 	299.9999999999842 	0.9999999999945119 	101324.999999995
0.1764264264264259 	299.999999999992 	0.9999999999960759 	101324.9999999955
0.1789289289289284 	300.0000000000057 	0.9999999999999761 	101324.9999999955
0.181431431431431 	299.9999999999879 	0.9999999999927993 	101324.9999999959
0.1839339339339334 	299.9999999999878 	0.9999999999949555 	101324.9999999956
0.186436436436436 	299.99999999997 	0.999999999996019 	101324.9999999952
0.1889389389389385 	299.999999999987 	0.9999999999965949 	101324.9999999954
0.191441441441441 	299.9999999999857 	0.9999999999962537 	101324.9999999953
0.1939439439439434 	299.999999999969 	0.999999999995532 	101324.9999999951
0.196446446446446 	299.9999999999661 	0.9999999999977179 	101324.9999999955
0.1989489489489485 	299.999999999982 	0.9999999999909918 	101324.9999999958
0.2014514514514509 	299.9999999999956 	0.9999999999937811 	101324.999999996
0.2039539539539535 	299.9999999999934 	0.9999999999951438 	101324.9999999956
0.2064564564564559 	299.9999999999736 	0.9999999999953564 	101324.9999999951
0.2089589589589585 	299.9999999999901 	0.9999999999955695 	101324.9999999946
0.211461461461461 	299.9999999999703 	0.9999999999960532 	101324.9999999947
0.2139639639639635 	299.9999999999892 	0.9999999999959147 	101324.999999995
0.2164664664664659 	300.0000000000038 	0.9999999999954682 	101324.9999999951
0.2189689689689684 	300.0000000000016 	0.9999999999983971 	101324.999999995
0.221471471471471 	299.9999999999993 	0.9999999999927243 	101324.9999999943
0.2239739739739735 	299.9999999999784 	0.9999999999945365 	101324.9999999946
0.226476476476476 	299.9999999999893 	0.9999999999952162 	101324.9999999945
0.2289789789789785 	299.9999999999987 	0.9999999999947232 	101324.9999999948
0.231481481481481 	299.9999999999913 	0.9999999999946733 	101324.9999999952
0.2339839839839835 	299.9999999999859 	0.9999999999947188 	101324.9999999951
0.236486486486486 	300.0000000000058 	0.9999999999951739 	101324.9999999942
0.2389889889889885 	299.9999999999998 	0.9999999999953418 	101324.9999999944
0.241491491491491 	299.9999999999638 	0.9999999999976976 	101324.9999999951
0.2439939939939935 	299.999999999987 	0.9999999999912526 	101324.9999999953
0.246496496496496 	299.9999999999956 	0.9999999999945759 	101324.9999999949
0.2489989989989985 	300.0000000000242 	0.9999999999965969 	101324.9999999947
0.251501501501501 	300.000000000022 	0.9999999999970898 	101324.999999995
0.2540040040040035 	300.0000000000019 	0.9999999999969585 	101324.9999999952
0.256506506506506 	300.0000000000147 	0.9999999999960689 	101324.9999999953
0.2590090090090086 	299.9999999999633 	0.9999999999978793 	101324.9999999953
0.261511511511511 	299.9999999999933 	0.9999999999918774 	101324.9999999955
0.2640140140140135 	299.9999999999918 	0.9999999999952411 	101324.9999999958
0.2665165165165161 	299.9999999999691 	0.9999999999959602 	101324.9999999951
0.2690190190190185 	299.9999999999999 	0.9999999999953506 	101324.9999999953
0.271521521521521 	300.0000000000186 	0.999999999994779 	101324.9999999958
0.2740240240240235 	300.0000000000197 	0.9999999999954559 	101324.9999999955
0.276526526526526 	300.0000000000113 	0.9999999999971126 	101324.9999999958
0.2790290290290286 	299.9999999999732 	0.9999999999978108 	101324.9999999954
0.281531531531531 	299.9999999999712 	1.000000000000373 	101324.9999999954
0.2840340340340335 	299.9999999999789 	0.999999999994888 	101324.9999999955
0.2865365365365361 	299.9999999999881 	0.9999999999979656 	101324.9999999955
0.2890390390390385 	300.0000000000118 	0.9999999999987285 	101324.9999999952
0.291541541541541 	300.0000000000143 	0.9999999999976429 	101324.9999999948
0.2940440440440436 	300.0000000000144 	0.999999999997352 	101324.9999999952
0.296546546546546 	300.0000000000106 	0.9999999999971001 	101324.9999999953
0.2990490490490486 	299.9999999999825 	0.9999999999963576 	101324.9999999952
0.3015515515515511 	299.9999999999978 	0.9999999999979287 	101324.9999999952
0.3040540540540535 	299.9999999999964 	1.000000000003974 	101324.9999999956
0.3065565565565562 	300.0000000000016 	0.99999999999204 	101324.9999999958
0.3090590590590585 	299.9999999999973 	0.9999999999977305 	101324.9999999956
0.3115615615615611 	299.9999999999659 	1.000000000000469 	101324.9999999953
0.3140640640640635 	299.9999999999996 	0.9999999999998687 	101324.9999999953
0.316566566566566 	300.0000000000014 	0.9999999999990925 	101324.9999999956
0.3190690690690687 	299.9999999999634 	0.9999999999989375 	101324.9999999954
0.3215715715715711 	299.9999999999927 	0.9999999999994311 	101324.9999999953
0.3240740740740735 	299.9999999999911 	0.9999999999996978 	101324.9999999953
0.326576576576576 	299.9999999999723 	0.9999999999992328 	101324.9999999954
0.3290790790790786 	300.000000000014 	0.9999999999990237 	101324.9999999956
0.3315815815815811 	300.000000000016 	0.9999999999991577 	101324.9999999955
0.3340840840840836 	300.0000000000079 	0.999999999999716 	101324.9999999957
0.3365865865865861 	300.0000000000182 	0.9999999999996607 	101324.9999999957
0.3390890890890886 	300.0000000000171 	0.9999999999993863 	101324.9999999953
0.3415915915915911 	299.9999999999968 	0.9999999999997673 	101324.9999999954
0.3440940940940935 	299.9999999999671 	1.000000000001474 	101324.9999999955
0.3465965965965962 	300.0000000000059 	0.9999999999959256 	101324.9999999959
0.3490990990990985 	300.0000000000075 	0.9999999999987839 	101324.9999999958
0.3516016016016011 	300.0000000000132 	1.000000000000025 	101324.9999999954
0.3541041041041035 	300.0000000000056 	0.9999999999989992 	101324.9999999955
0.3566066066066061 	299.9999999999662 	0.9999999999979881 	101324.9999999955
0.3591091091091085 	299.9999999999804 	0.9999999999985671 	101324.9999999954
0.3616116116116112 	299.9999999999833 	0.9999999999995773 	101324.9999999958
0.3641141141141137 	299.9999999999619 	1.000000000000896 	101324.9999999963
0.3666166166166161 	299.9999999999465 	1.000000000006444 	101324.9999999961
0.3691191191191185 	299.9999999999986 	0.9999999999958398 	101324.9999999958
0.371621621621621 	300.0000000000022 	0.9999999999996767 	101324.9999999958
0.3741241241241237 	300.0000000000144 	1.000000000000162 	101324.9999999957
0.3766266266266261 	300.000000000003 	0.9999999999996735 	101324.9999999955
0.3791291291291286 	299.99999999999 	1.000000000000044 	101324.9999999957
0.3816316316316311 	299.999999999979 	1.000000000000852 	101324.999999995
0.3841341341341336 	299.9999999999967 	1.000000000002083 	101324.9999999953
0.3866366366366362 	299.9999999999923 	1.000000000002092 	101324.9999999956
0.3891391391391387 	299.9999999999733 	1.000000000001049 	101324.9999999957
0.391641641641641 	299.9999999999996 	0.9999999999998661 	101324.9999999962
0.3941441441441436 	299.999999999996 	0.9999999999995526 	101324.9999999965
0.3966466466466462 	299.9999999999941 	0.9999999999999437 	101324.9999999962
0.3991491491491486 	299.9999999999815 	1.000000000000091 	101324.9999999958
0.4016516516516512 	299.99999999997 	1.000000000000044 	101324.9999999958
0.4041541541541536 	299.9999999999825 	0.9999999999999416 	101324.9999999957
0.4066566566566561 	299.999999999984 	1.000000000001542 	101324.9999999961
0.4091591591591587 	300.0000000000065 	0.9999999999961247 	101324.9999999967
0.4116616616616612 	300.0000000000097 	0.9999999999995746 	101324.9999999962
0.4141641641641635 	300.0000000000197 	1.000000000002158 	101324.9999999952
0.4166666666666662 	300.0000000000059 	1.000000000002742 	101324.9999999947
0.4191691691691687 	299.9999999999683 	1.000000000002806 	101324.9999999948
0.421671671671671 	299.9999999999956 	1.00000000000271 	101324.9999999956
0.4241741741741737 	299.999999999982 	1.000000000002569 	101324.999999996
0.4266766766766761 	299.9999999999716 	1.000000000002939 	101324.999999996
0.4291791791791785 	299.9999999999953 	1.000000000006788 	101324.9999999963
0.4316816816816812 	299.9999999999933 	0.9999999999961867 	101324.9999999964
0.4341841841841836 	300.000000000003 	1.000000000000931 	101324.999999996
0.4366866866866862 	299.9999999999827 	1.000000000001968 	101324.9999999957
0.4391891891891885 	300.0000000000011 	1.000000000001474 	101324.999999996
0.4416916916916913 	300.0000000000047 	1.000000000002103 	101324.9999999964
0.4441941941941936 	299.9999999999945 	1.000000000002839 	101324.9999999963
0.4466966966966961 	299.9999999999561 	1.000000000002779 	101324.9999999961
0.4491991991991987 	299.9999999999922 	1.000000000002116 	101324.9999999959
0.4517017017017012 	299.9999999999799 	1.000000000001994 	101324.9999999958
0.4542042042042035 	299.9999999999964 	1.000000000003027 	101324.9999999956
0.4567067067067062 	299.9999999999972 	1.000000000003185 	101324.9999999956
0.4592092092092087 	299.9999999999559 	1.000000000003084 	101324.9999999958
0.4617117117117112 	299.9999999999887 	1.000000000002894 	101324.9999999955
0.4642142142142137 	299.9999999999756 	1.0000000000019 	101324.9999999956
0.4667167167167162 	299.9999999999931 	1.000000000000986 	101324.999999996
0.4692192192192187 	299.9999999999752 	1.000000000001051 	101324.9999999963
0.4717217217217212 	300.0000000000028 	1.000000000001766 	101324.9999999967
0.4742242242242236 	299.9999999999818 	1.000000000002276 	101324.9999999964
0.4767267267267262 	299.9999999999786 	1.000000000001875 	101324.9999999961
0.4792292292292287 	299.9999999999996 	1.000000000002199 	101324.9999999958
0.4817317317317312 	300.0000000000083 	1.000000000003475 	101324.999999996
0.4842342342342336 	300.0000000000037 	1.00000000000353 	101324.9999999954
0.4867367367367362 	299.9999999999968 	1.000000000003244 	101324.9999999955
0.4892392392392387 	300.0000000000009 	1.000000000003096 	101324.9999999953
0.4917417417417412 	300.0000000000151 	1.000000000003013 	101324.9999999953
0.4942442442442437 	299.9999999999821 	1.000000000002797 	101324.9999999955
0.4967467467467462 	299.9999999999629 	1.000000000003492 	101324.9999999957
0.4992492492492487 	299.9999999999513 	0.9999999999980543 	101324.9999999958
0.5017517517517511 	299.9999999999647 	1.000000000001064 	101324.9999999959
0.5042542542542537 	299.9999999999959 	1.000000000003122 	101324.999999996
0.5067567567567562 	299.9999999999869 	1.000000000003243 	101324.999999996
0.5092592592592589 	299.999999999979 	1.0000000000025 	101324.9999999964
0.5117617617617611 	299.9999999999911 	1.000000000001556 	101324.9999999964
0.5142642642642637 	300.0000000000074 	1.000000000001501 	101324.9999999959
0.5167667667667663 	300.0000000000001 	1.000000000003201 	101324.9999999957
0.5192692692692688 	299.9999999999625 	1.000000000006596 	101324.9999999958
0.5217717717717714 	299.999999999981 	0.9999999999962225 	101324.9999999963
0.5242742742742736 	299.9999999999807 	1.00000000000058 	101324.9999999964
0.5267767767767763 	299.9999999999724 	1.000000000001069 	101324.9999999959
0.5292792792792789 	299.999999999977 	1.000000000001066 	101324.9999999953
0.5317817817817813 	299.9999999999618 	1.000000000001658 	101324.9999999952
0.5342842842842837 	299.9999999999912 	1.000000000002386 	101324.9999999955
0.5367867867867864 	299.9999999999887 	1.000000000003295 	101324.9999999956
0.5392892892892888 	299.9999999999656 	1.000000000004085 	101324.9999999957
0.5417917917917912 	299.9999999999796 	1.000000000003577 	101324.9999999957
0.5442942942942938 	299.9999999999753 	1.000000000002444 	101324.9999999956
0.5467967967967964 	299.9999999999861 	1.000000000001978 	101324.999999996
0.5492992992992988 	299.9999999999831 	1.000000000002255 	101324.9999999958
0.5518018018018012 	299.9999999999776 	1.000000000002903 	101324.9999999955
0.5543043043043039 	299.9999999999965 	1.000000000002631 	101324.9999999959
0.5568068068068063 	299.9999999999897 	1.000000000002499 	101324.9999999965
0.5593093093093087 	299.9999999999655 	1.000000000003182 	101324.9999999971
0.5618118118118114 	299.9999999999643 	0.9999999999981112 	101324.9999999967
0.5643143143143137 	299.9999999999582 	1.000000000000599 	101324.999999996
0.5668168168168163 	299.9999999999837 	1.000000000001447 	101324.9999999954
0.5693193193193188 	300.0000000000015 	1.000000000001254 	101324.9999999953
0.5718218218218213 	300.0000000000125 	1.00000000000168 	101324.9999999957
0.5743243243243239 	300.0000000000122 	1.00000000000223 	101324.9999999961
0.5768268268268262 	300.0000000000036 	1.000000000002027 	101324.9999999964
0.5793293293293288 	299.9999999999821 	1.000000000003531 	101324.9999999965
0.5818318318318314 	299.9999999999769 	1.000000000006155 	101324.9999999963
0.5843343343343338 	300.0000000000055 	0.9999999999956224 	101324.999999996
0.5868368368368363 	299.9999999999947 	0.9999999999995397 	101324.9999999958
0.5893393393393387 	299.9999999999638 	1.000000000001543 	101324.9999999956
0.5918418418418413 	299.9999999999816 	1.000000000002337 	101324.9999999953
0.5943443443443439 	299.9999999999983 	1.000000000003529 	101324.9999999954
0.5968468468468463 	300.0000000000049 	1.000000000004099 	101324.9999999951
0.5993493493493487 	300.0000000000207 	1.000000000003499 	101324.9999999949
0.6018518518518514 	300.0000000000101 	1.000000000002711 	101324.9999999952
0.6043543543543537 	300.0000000000081 	1.00000000000264 	101324.9999999955
0.6068568568568564 	299.9999999999977 	1.00000000000349 	101324.9999999957
0.6093593593593587 	299.9999999999573 	1.000000000004195 	101324.9999999955
0.6118618618618614 	299.999999999972 	1.00000000000364 	101324.9999999955
0.6143643643643638 	300.0000000000045 	1.000000000002229 	101324.9999999956
0.6168668668668662 	300.0000000000002 	1.00000000000222 	101324.9999999956
0.6193693693693688 	299.9999999999907 	1.000000000003255 	101324.9999999952
0.6218718718718714 	300.0000000000003 	1.000000000004563 	101324.9999999956
0.6243743743743737 	299.9999999999918 	1.000000000000164 	101324.9999999958
0.6268768768768762 	299.9999999999825 	1.000000000002579 	101324.999999996
0.629379379379379 	299.9999999999922 	1.000000000003728 	101324.999999996
0.6318818818818812 	300.0000000000013 	1.000000000003131 	101324.9999999957
0.6343843843843838 	300.0000000000112 	1.00000000000247 	101324.9999999955
0.6368868868868864 	300.0000000000035 	1.000000000002371 	101324.9999999955
0.6393893893893888 	299.9999999999728 	1.000000000001444 	101324.9999999954
0.6418918918918912 	299.9999999999861 	1.000000000001658 	101324.9999999953
0.6443943943943939 	299.9999999999812 	1.000000000003854 	101324.9999999952
0.6468968968968963 	299.9999999999877 	0.9999999999961544 	101324.9999999955
0.6493993993993988 	299.9999999999855 	1.000000000001703 	101324.9999999956
0.6519019019019012 	300.0000000000014 	1.000000000003308 	101324.9999999958
0.6544044044044038 	299.9999999999748 	1.000000000002182 	101324.9999999962
0.6569069069069065 	299.9999999999675 	1.000000000001698 	101324.999999996
0.6594094094094087 	299.9999999999843 	1.000000000001169 	101324.9999999957
0.6619119119119113 	299.9999999999973 	1.000000000001294 	101324.9999999959
0.664414414414414 	300.000000000001 	1.000000000001507 	101324.999999996
0.6669169169169162 	299.9999999999953 	1.000000000002098 	101324.9999999956
0.6694194194194188 	299.9999999999877 	1.000000000002255 	101324.9999999954
0.6719219219219214 	299.9999999999739 	1.000000000001443 	101324.9999999955
0.674424424424424 	299.9999999999876 	1.000000000000438 	101324.9999999955
0.6769269269269262 	299.9999999999759 	1.000000000000342 	101324.9999999954
0.679429429429429 	300.0000000000062 	1.000000000000423 	101324.9999999952
0.6819319319319311 	300.0000000000173 	1.000000000001775 	101324.9999999949
0.6844344344344341 	300.0000000000183 	1.000000000003982 	101324.9999999951
0.686936936936936 	300.0000000000167 	0.9999999999999597 	101324.9999999952
0.6894394394394392 	300.0000000000131 	1.000000000002 	101324.9999999952
0.6919419419419413 	300.000000000004 	1.000000000002474 	101324.9999999956
0.694444444444444 	299.9999999999726 	1.000000000001993 	101324.9999999958
0.6969469469469463 	299.999999999958 	1.000000000001698 	101324.9999999956
0.6994494494494489 	299.9999999999716 	1.000000000001091 	101324.9999999954
0.7019519519519515 	299.9999999999794 	1.000000000000909 	101324.9999999953
0.7044544544544538 	299.9999999999709 	1.000000000002851 	101324.9999999956
0.7069569569569564 	300.0000000000028 	1.000000000004418 	101324.9999999958
0.7094594594594589 	299.9999999999885 	0.9999999999956116 	101324.9999999955
0.7119619619619615 	299.9999999999735 	1.000000000000137 	101324.9999999949
0.7144644644644638 	299.9999999999906 	1.000000000001465 	101324.9999999947
0.7169669669669665 	299.9999999999817 	1.000000000001549 	101324.999999995
0.7194694694694688 	300.0000000000134 	1.000000000001767 	101324.9999999953
0.7219719719719715 	300.0000000000074 	1.000000000001565 	101324.9999999952
0.7244744744744737 	299.9999999999963 	1.000000000001368 	101324.999999995
0.7269769769769764 	300.0000000000053 	1.000000000003046 	101324.999999995
0.7294794794794791 	300.0000000000015 	1.000000000003847 	101324.9999999948
0.7319819819819813 	299.9999999999862 	0.999999999994313 	101324.9999999947
0.7344844844844839 	299.9999999999528 	0.999999999998252 	101324.9999999946
0.7369869869869864 	299.9999999999677 	1.000000000000306 	101324.9999999948
0.739489489489489 	299.9999999999842 	1.000000000000799 	101324.9999999948
0.7419919919919914 	299.9999999999781 	1.000000000000736 	101324.9999999953
0.7444944944944939 	299.9999999999748 	1.000000000001524 	101324.9999999956
0.7469969969969963 	299.9999999999902 	1.000000000001765 	101324.9999999956
0.7494994994994989 	299.999999999965 	0.9999999999988241 	101324.9999999953
0.7520020020020015 	299.9999999999723 	1.000000000002037 	101324.9999999951
0.7545045045045039 	299.9999999999762 	0.9999999999947617 	101324.9999999949
0.7570070070070062 	299.9999999999781 	0.9999999999994976 	101324.9999999951
0.7595095095095092 	299.9999999999814 	1.000000000001015 	101324.9999999954
0.7620120120120112 	299.9999999999912 	1.000000000000499 	101324.999999995
0.7645145145145138 	299.9999999999895 	1.000000000000519 	101324.9999999947
0.7670170170170165 	299.9999999999708 	1.000000000002031 	101324.9999999945
0.7695195195195191 	299.9999999999584 	1.000000000002873 	101324.9999999948
0.7720220220220213 	299.9999999999747 	0.9999999999949751 	101324.9999999951
0.7745245245245239 	299.9999999999646 	0.9999999999988144 	101324.9999999953
0.7770270270270263 	299.9999999999652 	0.9999999999993704 	101324.9999999955
0.779529529529529 	299.9999999999797 	0.9999999999990085 	101324.9999999955
0.7820320320320313 	299.9999999999755 	0.9999999999995197 	101324.9999999952
0.784534534534534 	299.9999999999981 	0.99999999999967 	101324.9999999952
0.7870370370370364 	299.9999999999903 	0.9999999999994309 	101324.9999999954
0.7895395395395389 	299.9999999999841 	0.9999999999994477 	101324.9999999956
0.7920420420420413 	299.9999999999981 	0.9999999999996914 	101324.9999999956
0.794544544544544 	299.9999999999935 	1.000000000002549 	101324.999999996
0.7970470470470463 	300.0000000000057 	1.000000000003925 	101324.9999999963
0.799549549549549 	300.0000000000061 	0.9999999999952149 	101324.999999996
0.8020520520520515 	299.999999999991 	0.9999999999988379 	101324.9999999959
0.8045545545545539 	299.999999999966 	1.000000000000304 	101324.9999999959
0.8070570570570563 	299.9999999999785 	0.9999999999994951 	101324.9999999955
0.8095595595595589 	299.9999999999745 	0.9999999999984596 	101324.9999999949
0.8120620620620614 	299.9999999999853 	0.9999999999980076 	101324.9999999948
0.8145645645645638 	300.0000000000052 	0.999999999997732 	101324.999999995
0.8170670670670666 	300.0000000000194 	1.000000000000201 	101324.9999999953
0.8195695695695689 	300.0000000000016 	1.000000000001632 	101324.9999999955
0.8220720720720714 	299.9999999999653 	0.9999999999940429 	101324.9999999955
0.8245745745745739 	299.9999999999798 	0.9999999999979069 	101324.9999999955
0.8270770770770765 	299.9999999999857 	0.999999999999553 	101324.999999996
0.8295795795795788 	299.9999999999881 	0.999999999999464 	101324.9999999961
0.8320820820820815 	300.000000000007 	0.9999999999993043 	101324.9999999958
0.834584584584584 	300.0000000000032 	1.000000000000216 	101324.9999999959
0.8370870870870865 	299.9999999999766 	1.000000000000297 	101324.9999999956
0.8395895895895891 	299.9999999999627 	0.9999999999963654 	101324.9999999952
0.8420920920920915 	299.9999999999908 	0.9999999999985084 	101324.9999999952
0.844594594594594 	299.9999999999848 	0.9999999999997085 	101324.9999999953
0.8470970970970964 	299.9999999999791 	0.9999999999997076 	101324.9999999952
0.8495995995995991 	300.0000000000061 	0.999999999999414 	101324.9999999951
0.8521021021021015 	299.9999999999944 	0.9999999999991291 	101324.9999999949
0.8546046046046039 	299.9999999999794 	0.9999999999986178 	101324.9999999949
0.8571071071071066 	299.9999999999963 	1.000000000001206 	101324.9999999952
0.8596096096096089 	299.999999999993 	1.000000000001949 	101324.9999999952
0.8621121121121116 	299.9999999999845 	0.9999999999944242 	101324.9999999952
0.8646146146146139 	300.0000000000086 	0.9999999999988559 	101324.9999999954
0.8671171171171166 	299.9999999999925 	1.000000000000619 	101324.9999999957
0.8696196196196189 	299.9999999999679 	1.000000000000142 	101324.9999999958
0.8721221221221216 	299.9999999999898 	0.9999999999992333 	101324.9999999957
0.874624624624624 	300.0000000000055 	0.9999999999987693 	101324.9999999957
0.8771271271271264 	299.9999999999999 	0.9999999999989683 	101324.9999999956
0.879629629629629 	299.9999999999951 	1.000000000001774 	101324.9999999956
0.8821321321321317 	299.999999999989 	1.000000000002018 	101324.9999999958
0.8846346346346339 	299.9999999999736 	0.999999999994345 	101324.9999999959
0.8871371371371364 	299.9999999999786 	0.9999999999981175 	101324.999999996
0.8896396396396391 	299.9999999999816 	0.9999999999990948 	101324.9999999957
0.8921421421421414 	299.9999999999823 	0.9999999999988899 	101324.9999999954
0.8946446446446441 	299.9999999999884 	0.9999999999994251 	101324.9999999956
0.8971471471471464 	299.9999999999951 	1.000000000001321 	101324.9999999957
0.8996496496496489 	299.9999999999987 	1.000000000000992 	101324.9999999955
0.9021521521521517 	299.9999999999982 	0.9999999999958925 	101324.9999999959
0.9046546546546541 	300.0000000000011 	0.9999999999967935 	101324.999999996
0.9071571571571564 	299.9999999999849 	0.9999999999980309 	101324.9999999955
0.9096596596596589 	299.9999999999742 	0.9999999999987974 	101324.9999999953
0.9121621621621616 	299.9999999999915 	0.9999999999986968 	101324.9999999953
0.9146646646646639 	299.9999999999831 	0.9999999999989546 	101324.9999999951
0.9171671671671666 	299.999999999974 	0.9999999999989581 	101324.9999999951
0.9196696696696689 	299.9999999999903 	1.000000000001815 	101324.9999999957
0.9221721721721714 	299.9999999999839 	1.000000000001084 	101324.9999999961
0.9246746746746741 	299.9999999999673 	0.9999999999939307 	101324.9999999959
0.9271771771771765 	299.9999999999831 	0.9999999999985595 	101324.9999999958
0.9296796796796791 	299.9999999999902 	0.9999999999993718 	101324.9999999959
0.9321821821821816 	299.9999999999811 	0.9999999999991075 	101324.9999999959
0.9346846846846838 	299.9999999999795 	0.99999999999942 	101324.9999999955
0.9371871871871866 	300.0000000000042 	0.9999999999995427 	101324.9999999954
0.9396896896896891 	300.0000000000009 	0.9999999999995991 	101324.9999999955
0.9421921921921914 	299.9999999999956 	1.000000000002005 	101324.9999999955
0.9446946946946939 	299.9999999999958 	1.000000000000727 	101324.9999999955
0.9471971971971965 	299.9999999999814 	0.9999999999933392 	101324.9999999952
0.9496996996996991 	299.9999999999828 	0.9999999999975806 	101324.9999999951
0.9522022022022016 	299.9999999999949 	0.999999999999013 	101324.9999999951
0.9547047047047038 	300.0000000000011 	0.9999999999990741 	101324.9999999949
0.9572072072072064 	299.9999999999897 	0.9999999999985701 	101324.9999999948
0.9597097097097093 	299.9999999999795 	1.00000000000036 	101324.9999999947
0.9622122122122114 	299.9999999999787 	1.000000000000993 	101324.9999999942
0.964714714714714 	299.9999999999685 	0.9999999999979099 	101324.9999999942
0.9672172172172167 	299.9999999999661 	0.9999999999996567 	101324.9999999951
0.969719719719719 	299.999999999984 	1.000000000000009 	101324.9999999957
0.9722222222222214 	299.9999999999908 	0.999999999999964 	101324.9999999954
0.9747247247247239 	299.9999999999877 	1.000000000000287 	101324.9999999948
0.9772272272272267 	299.9999999999993 	1.000000000000523 	101324.9999999945
0.9797297297297292 	299.9999999999899 	1.000000000000098 	101324.9999999945
0.9822322322322313 	299.9999999999843 	1.000000000002483 	101324.9999999948
0.9847347347347344 	299.9999999999812 	1.000000000000934 	101324.9999999951
0.9872372372372363 	299.9999999999616 	0.9999999999941243 	101324.9999999948
0.9897397397397389 	299.9999999999656 	0.9999999999986741 	101324.9999999945
0.9922422422422417 	299.9999999999678 	1.000000000000037 	101324.9999999945
0.9947447447447441 	299.9999999999892 	0.9999999999994171 	101324.9999999947
0.9972472472472468 	299.999999999992 	0.9999999999994563 	101324.999999995
0.999749749749749 	299.9999999999874 	0.999999999999502 	101324.9999999948
1.002252252252252 	299.9999999999892 	0.9999999999990722 	101324.9999999946
1.004754754754754 	300.0000000000015 	1.000000000001876 	101324.9999999944
1.007257257257256 	299.9999999999956 	1.000000000001376 	101324.9999999942
1.009759759759759 	299.9999999999885 	0.9999999999947782 	101324.9999999943
1.012262262262261 	299.9999999999899 	0.9999999999979985 	101324.9999999943
1.014764764764764 	299.9999999999771 	0.9999999999990602 	101324.9999999944
1.017267267267267 	299.999999999969 	0.9999999999993122 	101324.9999999946
1.019769769769769 	299.9999999999887 	0.9999999999994311 	101324.9999999949
1.022272272272272 	299.9999999999989 	1.000000000001038 	101324.999999995
1.024774774774774 	299.9999999999985 	1.000000000000838 	101324.999999995
1.027277277277277 	299.9999999999959 	0.999999999997666 	101324.9999999948
1.029779779779779 	300.0000000000068 	0.9999999999992204 	101324.9999999945
1.032282282282282 	300.000000000007 	0.9999999999999305 	101324.9999999944
1.034784784784784 	300.0000000000069 	1.000000000000727 	101324.9999999942
1.037287287287286 	300 	1.000000000001543 	101324.9999999946
1.039789789789789 	299.9999999999956 	1.000000000001923 	101324.999999995
1.042292292292291 	300.0000000000086 	1.000000000001487 	101324.9999999947
1.044794794794794 	300.0000000000201 	1.000000000004327 	101324.9999999943
1.047297297297296 	300.0000000000178 	1.000000000002827 	101324.9999999944
1.049799799799799 	300.0000000000072 	0.9999999999962645 	101324.9999999942
1.052302302302302 	299.9999999999951 	0.9999999999997213 	101324.9999999941
1.054804804804804 	299.99999999998 	1.000000000000872 	101324.9999999945
1.057307307307306 	299.9999999999688 	1.000000000001099 	101324.9999999946
1.059809809809809 	299.999999999981 	1.000000000001804 	101324.9999999945
1.062312312312312 	299.999999999987 	1.00000000000245 	101324.9999999945
1.064814814814814 	299.9999999999874 	1.000000000002452 	101324.9999999945
1.067317317317317 	299.9999999999768 	1.00000000000564 	101324.9999999945
1.069819819819819 	299.9999999999718 	1.000000000003848 	101324.9999999946
1.072322322322321 	299.9999999999974 	0.9999999999980936 	101324.9999999946
1.074824824824824 	300.0000000000153 	1.000000000002472 	101324.9999999944
1.077327327327327 	300.0000000000172 	1.000000000003136 	101324.9999999944
1.079829829829829 	300.0000000000166 	1.00000000000278 	101324.9999999941
1.082332332332332 	300.0000000000016 	1.000000000003256 	101324.999999994
1.084834834834834 	299.9999999999824 	1.000000000006439 	101324.9999999941
1.087337337337337 	299.9999999999656 	1.000000000004143 	101324.9999999944
1.089839839839839 	299.9999999999611 	0.9999999999983035 	101324.9999999946
1.092342342342342 	299.9999999999755 	1.000000000001913 	101324.9999999946
1.094844844844844 	299.9999999999758 	1.000000000006064 	101324.9999999945
1.097347347347347 	299.9999999999646 	1.000000000004218 	101324.9999999937
1.099849849849849 	299.9999999999559 	0.9999999999983378 	101324.9999999938
1.102352352352352 	299.9999999999767 	1.000000000001703 	101324.9999999942
1.104854854854854 	299.999999999996 	1.000000000002581 	101324.9999999942
1.107357357357357 	299.9999999999853 	1.000000000002726 	101324.9999999939
1.109859859859859 	299.999999999978 	1.000000000003195 	101324.999999994
1.112362362362362 	300.0000000000005 	1.000000000007367 	101324.9999999942
1.114864864864865 	300.0000000000034 	1.000000000006119 	101324.9999999943
1.117367367367367 	299.9999999999806 	0.9999999999999685 	101324.9999999944
1.119869869869869 	299.9999999999645 	1.000000000003059 	101324.9999999944
1.122372372372372 	299.9999999999823 	1.000000000004168 	101324.9999999942
1.124874874874874 	299.9999999999861 	1.000000000003966 	101324.9999999941
1.127377377377377 	299.9999999999829 	1.00000000000388 	101324.9999999942
1.129879879879879 	299.9999999999951 	1.000000000003296 	101324.9999999944
1.132382382382382 	300.0000000000136 	1.000000000002845 	101324.9999999941
1.134884884884884 	300.0000000000084 	1.000000000007168 	101324.9999999939
1.137387387387387 	300.0000000000032 	1.000000000005912 	101324.9999999942
1.139889889889889 	299.9999999999789 	1.000000000000483 	101324.9999999941
1.142392392392392 	299.9999999999703 	1.000000000003733 	101324.9999999937
1.144894894894894 	299.999999999997 	1.00000000000466 	101324.9999999937
1.147397397397397 	299.9999999999994 	1.000000000004565 	101324.999999994
1.149899899899899 	299.999999999979 	1.000000000004221 	101324.9999999942
1.152402402402402 	299.9999999999696 	1.00000000000391 	101324.9999999944
1.154904904904904 	299.9999999999836 	1.000000000004154 	101324.9999999945
1.157407407407407 	299.9999999999843 	1.000000000008464 	101324.9999999944
1.159909909909909 	299.9999999999684 	1.000000000006351 	101324.9999999943
1.162412412412412 	299.9999999999616 	1.000000000001058 	101324.9999999944
1.164914914914914 	299.9999999999787 	1.000000000004769 	101324.9999999942
1.167417417417417 	299.9999999999808 	1.000000000005234 	101324.9999999936
1.169919919919919 	299.9999999999963 	1.000000000004462 	101324.9999999937
1.172422422422422 	300.0000000000136 	1.000000000004146 	101324.999999994
1.174924924924925 	300.0000000000015 	1.000000000007607 	101324.9999999938
1.177427427427427 	299.9999999999856 	1.000000000004949 	101324.9999999938
1.179929929929929 	299.9999999999968 	0.9999999999999856 	101324.9999999938
1.182432432432432 	300.0000000000146 	1.000000000004303 	101324.9999999936
1.184934934934934 	300.0000000000035 	1.000000000005834 	101324.9999999936
1.187437437437437 	299.9999999999901 	1.000000000005894 	101324.9999999939
1.189939939939939 	299.999999999986 	1.000000000006062 	101324.9999999941
1.192442442442442 	299.9999999999699 	1.00000000000565 	101324.9999999939
1.194944944944944 	299.9999999999661 	1.000000000004774 	101324.9999999938
1.197447447447447 	299.9999999999927 	1.000000000008494 	101324.999999994
1.199949949949949 	300.0000000000064 	1.000000000006318 	101324.9999999939
1.202452452452452 	299.9999999999821 	1.000000000001803 	101324.9999999934
1.204954954954955 	299.9999999999724 	1.000000000005459 	101324.9999999933
1.207457457457457 	299.9999999999833 	1.000000000005678 	101324.9999999936
1.20995995995996 	299.9999999999856 	1.000000000005061 	101324.9999999935
1.212462462462462 	299.9999999999902 	1.00000000000473 	101324.999999993
1.214964964964964 	299.9999999999895 	1.000000000004687 	101324.9999999931
1.217467467467467 	299.9999999999941 	1.000000000005837 	101324.9999999934
1.219969969969969 	299.999999999982 	1.000000000010601 	101324.9999999935
1.222472472472472 	299.9999999999931 	1.000000000007659 	101324.9999999938
1.224974974974975 	300.0000000000144 	1.000000000002867 	101324.9999999939
1.227477477477477 	299.9999999999961 	1.000000000006226 	101324.9999999937
1.229979979979979 	299.9999999999878 	1.000000000006974 	101324.9999999937
1.232482482482482 	299.9999999999776 	1.000000000006974 	101324.9999999937
1.234984984984984 	299.9999999999746 	1.000000000006287 	101324.9999999936
1.237487487487487 	299.9999999999851 	1.000000000009052 	101324.9999999933
1.239989989989989 	299.9999999999893 	1.000000000005178 	101324.9999999928
1.242492492492492 	300.0000000000013 	1.000000000000454 	101324.9999999926
1.244994994994994 	299.9999999999906 	1.000000000004899 	101324.999999993
1.247497497497497 	299.9999999999923 	1.000000000006761 	101324.9999999935
1.249999999999999 	299.9999999999337 	1.000000000007242 	101324.9999999938
