-1.25 	300 	0.07300476413979529 	101354.3892626146
-1.247497497497497 	300.0286039172196 	0.08138488543935621 	101359.9657434992
-1.244994994994995 	300.0333358464015 	0.09649103706949225 	101364.4087501601
-1.242492492492492 	300.0366413676529 	0.106588152006722 	101368.320887368
-1.23998998998999 	300.0392824280057 	0.1134195851419013 	101371.4466092923
-1.237487487487487 	300.0411428234652 	0.11894342014216 	101373.6466419023
-1.234984984984985 	300.0422192998695 	0.1220907955464026 	101374.9197908114
-1.232482482482482 	300.042607049616 	0.1231530323542546 	101375.3783708329
-1.22997997997998 	300.0422261294243 	0.122009447545903 	101374.9279003458
-1.227477477477477 	300.0410098578494 	0.1185324455577617 	101373.4896490887
-1.224974974974975 	300.0390086413929 	0.1127627131418747 	101371.1231542663
-1.222472472472472 	300.0362777165342 	0.1048569810353426 	101367.8937414331
-1.21996996996997 	300.0328580746501 	0.09494983708859994 	101363.8499825837
-1.217467467467467 	300.0288313782022 	0.08332811700046112 	101359.0884822378
-1.214964964964965 	300.0243181191012 	0.07027710036116881 	101353.7518005905
-1.212462462462462 	300.0193918439202 	0.05601959919941484 	101347.9269642721
-1.20995995995996 	300.0141182649398 	0.04078765259593525 	101341.6917408628
-1.207457457457457 	300.0086045384521 	0.02482334669370485 	101335.1728646925
-1.204954954954955 	300.0029330072773 	0.008445606676676083 	101328.4677068921
-1.202452452452452 	299.9971836155855 	0.008630630049391954 	101321.6708093749
-1.19994994994995 	299.9914744153959 	0.02467553607410749 	101314.9217628221
-1.197447447447447 	299.9859222375273 	0.04073455083728782 	101308.3586139272
-1.194944944944945 	299.9806098320149 	0.05611646998722195 	101302.0791769259
-1.192442442442442 	299.9756096983381 	0.07055095942489609 	101296.169125719
-1.18993993993994 	299.9710562310422 	0.08368483127191709 	101290.7871836502
-1.187437437437437 	299.9670776731812 	0.09522094546863159 	101286.0849311235
-1.184934934934935 	299.9637303994037 	0.1048882840665991 	101282.1288841374
-1.182432432432432 	299.9610542253945 	0.1125865825566495 	101278.9660505805
-1.17992992992993 	299.9590912538036 	0.118248992254314 	101276.6461403191
-1.177427427427427 	299.9578503558957 	0.1218181887261565 	101275.1795328068
-1.174924924924925 	299.9573737284921 	0.1231961816605799 	101274.6162279131
-1.172422422422422 	299.9577158998136 	0.1222162041073739 	101275.0205596932
-1.16991991991992 	299.9588715560553 	0.1188675318854137 	101276.3862088843
-1.167417417417417 	299.9608082455339 	0.1132452352097165 	101278.6749236128
-1.164914914914915 	299.963491718781 	0.1055414734941185 	101281.846220622
-1.162412412412412 	299.9668313049855 	0.09593507804663406 	101285.7930545947
-1.15990990990991 	299.9707456264435 	0.08457371325526188 	101290.419275134
-1.157407407407407 	299.9751746972848 	0.07172296007782704 	101295.6540518216
-1.154904904904904 	299.9800522273995 	0.05756707022149872 	101301.4191289764
-1.152402402402403 	299.9853071634843 	0.04238174028290161 	101307.6305313559
-1.1498998998999 	299.9908373477922 	0.02650217660694983 	101314.1676113162
-1.147397397397397 	299.9964790730229 	0.01016017290188836 	101320.8368614084
-1.144894894894895 	300.0021428273942 	0.008667281327769706 	101327.5324658281
-1.142392392392392 	300.0078019318494 	0.02263920432739028 	101334.2229188748
-1.13988988988989 	300.0133698931354 	0.03872029999732136 	101340.8059115323
-1.137387387387387 	300.0187268553111 	0.05417284156811133 	101347.1397584984
-1.134884884884885 	300.0237394733936 	0.06864357635808971 	101353.066735202
-1.132382382382382 	300.0282926614045 	0.08181278830971843 	101358.4506973439
-1.12987987987988 	300.032308373498 	0.09342565208430194 	101363.1993121253
-1.127377377377377 	300.0357335777173 	0.103351299533694 	101367.2497619502
-1.124874874874875 	300.0385239786771 	0.1114227769962249 	101370.5496388645
-1.122372372372372 	300.0406284099358 	0.1174860604840835 	101373.0383721141
-1.11986986986987 	300.0419887475639 	0.1214033737737474 	101374.6471843224
-1.117367367367367 	300.0425601540384 	0.1230262636082979 	101375.3229958881
-1.114864864864865 	300.0423174131084 	0.122312247311151 	101375.0359425656
-1.112362362362362 	300.0412652277047 	0.1192733281573338 	101373.7917265472
-1.10985985985986 	300.0394446193591 	0.1140030186693256 	101371.6388054951
-1.107357357357357 	300.0369031807127 	0.1066492181238016 	101368.6334553589
-1.104854854854855 	300.0336819565279 	0.09733805892308944 	101364.8242944066
-1.102352352352353 	300.0298373204694 	0.08623959642361992 	101360.2780374552
-1.09984984984985 	300.0254393521083 	0.07353051556467462 	101355.0776450563
-1.097347347347347 	300.0205750871893 	0.05946677127824922 	101349.3260732363
-1.094844844844845 	300.0153538724755 	0.04436171368467348 	101343.15270454
-1.092342342342342 	300.0098751428198 	0.02850330615801696 	101336.6751353182
-1.08983983983984 	300.0042310183119 	0.01220317112613429 	101330.002306459
-1.087337337337337 	299.9985150437406 	0.008731093861387077 	101323.2448566604
-1.084834834834835 	299.9927945884914 	0.02090864991145029 	101316.4824163099
-1.082332332332332 	299.9871686107708 	0.03715701561927935 	101309.8319734621
-1.07982982982983 	299.9817704215309 	0.05274642990707849 	101303.4510811292
-1.077327327327327 	299.9767145919433 	0.06732687363261884 	101297.475114749
-1.074824824824825 	299.972109618166 	0.08063414011241268 	101292.0322667577
-1.072322322322323 	299.9680348219359 	0.09245923190009456 	101287.2162306927
-1.06981981981982 	299.9645364229276 	0.1025688562950581 	101283.081552429
-1.067317317317317 	299.9616728724117 	0.1108093921776294 	101279.6972656017
-1.064814814814815 	299.9595135011356 	0.117031913236207 	101277.1452238005
-1.062312312312312 	299.9581100357805 	0.1210802012686034 	101275.4864898523
-1.05980980980981 	299.9575088281067 	0.1228476604737712 	101274.7759473905
-1.057307307307307 	299.9577165058555 	0.122264398664144 	101275.0213533175
-1.054804804804805 	299.9587013098885 	0.1193660540645129 	101276.1851004484
-1.052302302302302 	299.9604477546091 	0.1142868860476423 	101278.2489629678
-1.0497997997998 	299.9629311616365 	0.1071584208104718 	101281.1838214947
-1.047297297297297 	299.9660859823599 	0.09805968058136025 	101284.9122594918
-1.044794794794795 	299.9698604470264 	0.08711430260351707 	101289.3731543801
-1.042292292292292 	299.9741828124097 	0.07458191146587602 	101294.481775507
-1.03978978978979 	299.978958864833 	0.06073388255153206 	101300.1268401371
-1.037287287287287 	299.9841204900026 	0.04587237106847775 	101306.2279076733
-1.034784784784785 	299.9895684435864 	0.03021548703069553 	101312.6677049802
-1.032282282282283 	299.9951623939853 	0.01397330170571065 	101319.2804007044
-1.02977977977978 	300.0008149166871 	0.008387426595014649 	101325.9626612624
-1.027277277277277 	300.0064787730764 	0.01882126164803075 	101332.6586295908
-1.024774774774775 	300.0120560189029 	0.03492313174618608 	101339.2525431501
-1.022272272272272 	300.0174150844349 	0.05041228072844539 	101345.5887935525
-1.01976976976977 	300.0224519156546 	0.06495966858853588 	101351.5443224702
-1.017267267267267 	300.0270920220969 	0.078354778012982 	101357.0310109269
-1.014764764764765 	300.0312564824663 	0.0903533836712023 	101361.9554479059
-1.012262262262262 	300.0348618431917 	0.1007854892210409 	101366.2189185123
-1.00975975975976 	300.0378360282714 	0.1094081536746775 	101369.7361110985
-1.007257257257257 	300.0401100610776 	0.1159864674152746 	101372.4253970294
-1.004754754754755 	300.0416340354158 	0.1203966057356283 	101374.2277260771
-1.002252252252252 	300.0423790807947 	0.1225150104336712 	101375.1088796353
-0.9997497497497498 	300.0423266907772 	0.1223601436986695 	101375.0469420721
-0.9972472472472473 	300.0414861425326 	0.1199471444669713 	101374.052992524
-0.9947447447447449 	300.039887371876 	0.1152790508422735 	101372.1624177812
-0.9922422422422421 	300.0375455516154 	0.1084755184445911 	101369.3931270145
-0.9897397397397399 	300.0344936734414 	0.09964381429505767 	101365.7841877544
-0.9872372372372376 	300.0307912441661 	0.08895024127128005 	101361.4060795954
-0.9847347347347346 	300.0265118770735 	0.07662651510873877 	101356.3458785956
-0.9822322322322323 	300.0217514519587 	0.06287691810740637 	101350.7170533758
-0.9797297297297296 	300.0166087007914 	0.04798089663733664 	101344.6363934034
-0.9772272272272275 	300.0111572591326 	0.03222681541267006 	101338.1910047788
-0.9747247247247248 	300.0055073493115 	0.01590994799176876 	101331.5112905534
-0.9722222222222224 	299.9997808398666 	0.008052084655110356 	101324.7413022729
-0.9697197197197196 	299.9940634324581 	0.0172527765823897 	101317.9824076698
-0.9672172172172175 	299.9884524329907 	0.03349111748732228 	101311.3495967546
-0.9647147147147147 	299.9830414589421 	0.04911918818408233 	101304.953504852
-0.9622122122122124 	299.9779157091679 	0.06389288066600503 	101298.8948621157
-0.9597097097097099 	299.9731895746069 	0.07753856242421804 	101293.3087510599
-0.9572072072072073 	299.9689623144077 	0.08980787730074878 	101288.3124878484
-0.9547047047047047 	299.9653037098427 	0.1003548590910282 	101283.9884406572
-0.9522022022022023 	299.9622964134727 	0.1089937236955976 	101280.434220621
-0.9496996996996998 	299.9599998719946 	0.1156223914032734 	101277.7200963085
-0.9471971971971973 	299.9584536161222 	0.1200845234259463 	101275.8926030198
-0.9446946946946947 	299.957695581294 	0.1223398301715488 	101274.996707847
-0.9421921921921923 	299.9577265133651 	0.1222709058563259 	101275.0332522675
-0.93968968968969 	299.9585258580435 	0.1198802075041722 	101275.9778059741
-0.9371871871871872 	299.960103610547 	0.1153217568593515 	101277.8423208266
-0.9346846846846848 	299.9624242091284 	0.108648037486194 	101280.5847649265
-0.9321821821821823 	299.9654233820071 	0.09999678554060812 	101284.1292233946
-0.9296796796796799 	299.969044521454 	0.08949324832931861 	101288.4088944878
-0.9271771771771771 	299.9732235377813 	0.07734273404610879 	101293.3480240879
-0.9246746746746748 	299.9778850187417 	0.06383052531186927 	101298.8576305028
-0.9221721721721724 	299.982978870906 	0.04917994698229469 	101304.8785422361
-0.9196696696696698 	299.988374806651 	0.03366572668507752 	101311.2567724752
-0.9171671671671672 	299.9939363036496 	0.01754516112923707 	101317.8310565045
-0.9146646646646649 	299.9995546759523 	0.00723448373475573 	101324.4728483028
-0.9121621621621623 	300.0051694245636 	0.01498412887904401 	101331.1107012598
-0.9096596596596597 	300.0107118882059 	0.03102726018528482 	101337.6634295009
-0.9071571571571573 	300.0160842962438 	0.04655340924652886 	101344.0153598765
-0.9046546546546547 	300.0211869151327 	0.06128141328321441 	101350.0486238309
-0.9021521521521524 	300.0259258758072 	0.07498990774564353 	101355.6521214978
-0.8996496496496498 	300.0302080259252 	0.08733811696515326 	101360.7156820426
-0.8971471471471473 	300.0339486604194 	0.09817082129866087 	101365.1390927761
-0.894644644644645 	300.0370756044114 	0.1072056558618924 	101368.836884522
-0.892142142142142 	300.0395234930638 	0.1142558229708907 	101371.7317667481
-0.8896396396396397 	300.0412362696244 	0.1192126137094151 	101373.757351104
-0.8871371371371374 	300.0421762364043 	0.1219031572879423 	101374.8690252165
-0.8846346346346349 	300.0423229341824 	0.1223400442814714 	101375.0425450476
-0.8821321321321324 	300.0416796814388 	0.1204814145257865 	101374.281878233
-0.8796296296296297 	300.040266371154 	0.1163689995304659 	101372.6106366465
-0.8771271271271271 	300.0381071773234 	0.1101301150417301 	101370.0573101899
-0.8746246246246248 	300.0352359372279 	0.1018241397541564 	101366.6619658218
-0.8721221221221224 	300.031705504091 	0.09162955835894204 	101362.4872270284
-0.8696196196196196 	300.0275770775831 	0.07970078631800213 	101357.605455889
-0.8671171171171175 	300.0229297311745 	0.06624897039569379 	101352.1102978118
-0.8646146146146148 	300.0178564693285 	0.05158918875137347 	101346.1117453441
-0.8621121121121121 	300.0124572548119 	0.03597522984924853 	101339.7280406047
-0.8596096096096097 	300.006846241151 	0.01976758220320681 	101333.0942399787
-0.857107107107107 	300.0011435462795 	0.006444193615117706 	101326.3523176628
-0.8546046046046049 	299.9954240490956 	0.01332163464666348 	101319.5908870169
-0.8521021021021022 	299.9897704317412 	0.02963678152449114 	101312.9076296053
-0.8495995995995997 	299.984284410935 	0.04548168615925733 	101306.4227665898
-0.8470970970970974 	299.9790768714735 	0.0605226802883542 	101300.267386175
-0.8445945945945946 	299.9742573699144 	0.07445109911806386 	101294.5708508853
-0.8420920920920922 	299.9699182274477 	0.08702830876460091 	101289.4423225686
-0.8395895895895897 	299.9661361402473 	0.09791478981243762 	101284.9722997743
-0.8370870870870872 	299.9629921078234 	0.1069912489230398 	101281.256477498
-0.8345845845845846 	299.9605461493575 	0.1140640506206536 	101278.3657533057
-0.8320820820820823 	299.9588444156686 	0.1189833603034896 	101276.3545000275
-0.8295795795795798 	299.9579140137977 	0.1217048021734475 	101275.2548965848
-0.8270770770770772 	299.9577639152147 	0.1221146660417582 	101275.0774913498
-0.8245745745745746 	299.9583899480076 	0.1202712889171522 	101275.8172562891
-0.8220720720720721 	299.9597901619993 	0.1162265332272016 	101277.4719549097
-0.8195695695695699 	299.9619304205396 	0.1100544855542622 	101280.0012411484
-0.817067067067067 	299.9647692522041 	0.1018596233597296 	101283.3561984205
-0.8145645645645651 	299.9682528722068 	0.09175572876838606 	101287.4732996737
-0.8120620620620621 	299.9723166002041 	0.07998363666424729 	101292.2761482363
-0.8095595595595597 	299.9768782339204 	0.06678842470928407 	101297.6677017366
-0.8070570570570572 	299.9818565688084 	0.05245607333962293 	101303.5519988213
-0.8045545545545546 	299.9871302292011 	0.03723424965843408 	101309.7856478604
-0.8020520520520523 	299.9926000763465 	0.02137796582109232 	101316.2515043873
-0.7995495495495494 	299.9981688101326 	0.005243808719508641 	101322.8345514756
-0.7970470470470474 	300.003768400727 	0.0109959978438612 	101329.4544040481
-0.7945445445445446 	300.0093296394245 	0.02701870302174424 	101336.0292326465
-0.7920420420420423 	300.0147435371925 	0.04265838125248507 	101342.4301587205
-0.7895395395395397 	300.0199038942354 	0.05758472010851543 	101348.5316161839
-0.7870370370370371 	300.0247240524428 	0.0715196735925856 	101354.2310662307
-0.7845345345345348 	300.0291189639705 	0.08420161963140224 	101359.4279138403
-0.7820320320320323 	300.032999950164 	0.09541539690441803 	101364.0172421712
-0.7795295295295296 	300.0362806196447 	0.1048752029883599 	101367.8968041565
-0.7770270270270272 	300.0388835973526 	0.1124056150771684 	101370.9750577219
-0.7745245245245247 	300.0407628396534 	0.1178555380682337 	101373.1975005055
-0.7720220220220222 	300.0418912779434 	0.121093407164553 	101374.5320622353
-0.7695195195195199 	300.0422456079497 	0.1221115698892626 	101374.9511348073
-0.767017017017017 	300.0418167181703 	0.1208678993946385 	101374.4439558957
-0.7645145145145147 	300.0406115701508 	0.1173809922138311 	101373.0188732893
-0.7620120120120122 	300.0386461007661 	0.1116946368112991 	101370.6946481104
-0.7595095095095097 	300.0359524074472 	0.103887263135151 	101367.50925756
-0.7570070070070072 	300.0325730947584 	0.09410154705274257 	101363.5131767466
-0.7545045045045048 	300.0285539208326 	0.08248973493251521 	101358.760587339
-0.7520020020020022 	300.0239754821244 	0.06927957470370094 	101353.3468506585
-0.7494994994994997 	300.0189486230821 	0.05475100793973181 	101347.4031071029
-0.7469969969969972 	300.0135944969621 	0.03927601895211062 	101341.0726682203
-0.7444944944944945 	300.0080423049276 	0.02323581997430424 	101334.5083258284
-0.7419919919919924 	300.0024038641324 	0.006910199807210525 	101327.8423281881
-0.7394894894894897 	299.9967327072079 	0.01072579554831994 	101321.1379546862
-0.7369869869869872 	299.991073121649 	0.02587744569555817 	101314.4475681702
-0.7344844844844846 	299.9855164070997 	0.04192602596470902 	101307.8790978813
-0.7319819819819822 	299.9801976126333 	0.05727974050414279 	101301.5921273461
-0.7294794794794797 	299.9752636931518 	0.0715285868055488 	101295.7603323378
-0.7269769769769773 	299.9708323415411 	0.08433853045066758 	101290.5227553903
-0.7244744744744747 	299.966974122475 	0.09549944952515169 	101285.9627213852
-0.721971971971972 	299.9637277307691 	0.1048893461631052 	101282.1259232773
-0.7194694694694695 	299.9611266571372 	0.1124036888061073 	101279.051850197
-0.7169669669669674 	299.9592185224578 	0.1179029878355059 	101276.7967025673
-0.7144644644644647 	299.958067095688 	0.1212102834845209 	101275.4358473177
-0.711961961961962 	299.9577312106073 	0.122168154530041 	101275.0388788502
-0.7094594594594597 	299.9582320421371 	0.1207232105084803 	101275.6307072125
-0.7069569569569573 	299.9595345116236 	0.1169729357305911 	101277.1698726084
-0.7044544544544545 	299.9615599430404 	0.1111322654943879 	101279.5634634811
-0.7019519519519523 	299.9642199738316 	0.1034435618908612 	101282.7071055157
-0.6994494494494495 	299.967450734781 	0.09408697808005037 	101286.5253343085
-0.6969469469469471 	299.9712268162006 	0.08314134981078419 	101290.9881919695
-0.6944444444444446 	299.9755458302387 	0.07062556640245421 	101296.0929104057
-0.6919419419419421 	299.9803946223819 	0.05659395078497149 	101301.8240052058
-0.6894394394394396 	299.9857076796333 	0.0412457657040089 	101308.1041411991
-0.6869369369369374 	299.9913458321896 	0.02498106250291914 	101314.768860628
-0.6844344344344344 	299.9971105717138 	0.008357567389262504 	101321.5835631501
-0.6819319319319321 	300.0027907538695 	0.01010682729651772 	101328.2986564872
-0.6794294294294296 	300.0082230483362 	0.02374454728853586 	101334.7209932568
-0.6769269269269272 	300.0133368047916 	0.03856572732186819 	101340.7670150195
-0.6744244244244245 	300.0181536764572 	0.05254470400023863 	101346.4622586647
-0.6719219219219222 	300.0227410616955 	0.06585154495650417 	101351.8863698354
-0.6694194194194195 	300.0271458321094 	0.07860190728990876 	101357.09476776
-0.6669169169169172 	300.0313410964663 	0.09070986862067498 	101362.0556111479
-0.6644144144144146 	300.0352056650144 	0.1018289334531053 	101366.625588865
-0.661911911911912 	300.0385386823339 	0.1113907945255563 	101370.5671447363
-0.6594094094094097 	300.0410999052121 	0.1187175421008948 	101373.5960950936
-0.656906906906907 	300.0426619420213 	0.1231689219677629 	101375.4434792018
-0.6544044044044046 	300.0430611166562 	0.1242855375163499 	101375.9155871841
-0.6519019019019021 	300.0422350301662 	0.1218957965374886 	101374.9387092246
-0.6493993993993996 	300.0402407635247 	0.1161662086602651 	101372.5804874217
-0.6468968968968971 	300.0372501000628 	0.1075858011098354 	101369.043920569
-0.6443943943943946 	300.0335216808174 	0.09688914099866847 	101364.6349638361
-0.6418918918918921 	300.0293590614972 	0.08493743725621876 	101359.7126826151
-0.6393893893893897 	300.0250631907413 	0.07258545560798042 	101354.6329860409
-0.6368868868868871 	300.0208905700392 	0.06056618534158124 	101349.699182694
-0.6343843843843846 	300.017028894222 	0.04942271080008048 	101345.1331859131
-0.6318818818818821 	300.0135943379562 	0.03949566565489075 	101341.0723221308
-0.6293793793793795 	300.01064132757 	0.03094780443815254 	101337.5809004765
-0.6268768768768773 	300.0081764164668 	0.02380298262175269 	101334.6666287287
-0.6243743743743745 	300.0061726512853 	0.01798714697012558 	101332.2975339429
-0.6218718718718721 	300.004582249407 	0.01336548141553581 	101330.4172143495
-0.6193693693693696 	300.0033473032601 	0.009772835101433326 	101328.957279618
-0.6168668668668671 	300.0024078168656 	0.00703654186219063 	101327.8466066957
-0.6143643643643645 	300.0017065768336 	0.004991861846236438 	101327.0175728219
-0.6118618618618621 	300.0011924383993 	0.003491145109543652 	101326.4097396986
-0.6093593593593596 	300.0008218072438 	0.002408196101746116 	101325.9715670404
-0.6068568568568571 	300.0005588896275 	0.001639203553315799 	101325.6607373756
-0.6043543543543546 	300.0003752205687 	0.001101472675472502 	101325.443598061
-0.6018518518518521 	300.0002487828755 	0.0007309426142901701 	101325.2941194296
-0.5993493493493496 	300.0001629611198 	0.0004792016261160824 	101325.1926582474
-0.5968468468468471 	300.0001054928553 	0.0003104735727602528 	101325.1247173911
-0.5943443443443446 	300.0000675108894 	0.0001988559559926995 	101325.0798138044
-0.591841841841842 	300.0000427231416 	0.0001259469832290801 	101325.0505089132
-0.5893393393393397 	300.0000267430491 	7.890272664291557e-05 	101325.0316167163
-0.5868368368368371 	300.0000165627127 	4.89062247130633e-05 	101325.0195810936
-0.5843343343343346 	300.0000101514944 	2.999926817881712e-05 	101325.0120014815
-0.5818318318318321 	300.0000061589632 	1.821511525776386e-05 	101325.0072813322
-0.5793293293293297 	300.0000036995812 	1.095022855312013e-05 	101325.0043738083
-0.5768268268268271 	300.0000022007268 	6.51889852274787e-06 	101325.0026017852
-0.5743243243243245 	300.0000012966842 	3.843891375515261e-06 	101325.0015329617
-0.5718218218218221 	300.000000756881 	2.245406402650581e-06 	101325.0008947886
-0.5693193193193196 	300.0000004377823 	1.2996432089097e-06 	101325.0005175069
-0.5668168168168171 	300.0000002508829 	7.454752857398536e-07 	101325.0002966141
-0.5643143143143147 	300.0000001424835 	4.238306405247192e-07 	101325.0001685066
-0.5618118118118121 	300.0000000802913 	2.388763020754627e-07 	101325.0000948981
-0.5593093093093094 	300.0000000448626 	1.334860255164097e-07 	101325.0000529874
-0.5568068068068072 	300.0000000248382 	7.397041341569329e-08 	101325.0000293372
-0.5543043043043046 	300.0000000136463 	4.065268914831281e-08 	101325.0000161078
-0.551801801801802 	300.0000000073725 	2.216302110174721e-08 	101325.000008771
-0.5492992992992995 	300.0000000040055 	1.198563268447973e-08 	101325.0000047363
-0.5467967967967969 	300.0000000021641 	6.432880743974201e-09 	101325.0000025358
-0.5442942942942947 	300.0000000011503 	3.425168915946675e-09 	101325.0000013455
-0.5417917917917919 	300.0000000005627 	1.812395775023524e-09 	101325.0000007068
-0.5392892892892895 	300.0000000002398 	9.500386375293425e-10 	101325.0000003663
-0.536786786786787 	300.0000000001186 	4.976334446155707e-10 	101325.0000001865
-0.5342842842842846 	300.000000000046 	2.564001007425248e-10 	101325.0000000922
-0.531781781781782 	299.9999999999733 	1.353800392173481e-10 	101325.0000000433
-0.5292792792792794 	299.9999999999463 	6.689732415677014e-11 	101325.0000000177
-0.526776776776777 	299.9999999999183 	3.790130898725521e-11 	101325.0000000047
-0.5242742742742745 	299.9999999999812 	1.483385517889839e-11 	101324.999999998
-0.521771771771772 	300.0000000000152 	1.292652698355239e-11 	101324.9999999949
-0.5192692692692695 	299.99999999996 	3.604391950699296e-12 	101324.9999999931
-0.516766766766767 	300.0000000000052 	7.697315552247194e-12 	101324.9999999922
-0.5142642642642645 	299.9999999999716 	3.504584841714388e-12 	101324.9999999918
-0.511761761761762 	299.9999999999498 	6.183461378870997e-12 	101324.9999999916
-0.5092592592592596 	299.9999999999667 	3.008824185508075e-12 	101324.9999999917
-0.506756756756757 	299.9999999999368 	5.434510369384815e-12 	101324.9999999917
-0.5042542542542544 	299.999999999995 	1.920717722758277e-12 	101324.9999999917
-0.5017517517517521 	300.0000000000283 	4.946929196562072e-12 	101324.9999999916
-0.4992492492492494 	300.0000000000319 	1.807001167368223e-12 	101324.9999999915
-0.496746746746747 	299.9999999999868 	5.016577021703519e-12 	101324.9999999914
-0.4942442442442445 	299.9999999999426 	2.369919572563358e-12 	101324.9999999913
-0.4917417417417421 	299.9999999999364 	4.457318990093895e-12 	101324.9999999913
-0.4892392392392395 	299.9999999999534 	2.055302079700003e-12 	101324.9999999913
-0.486736736736737 	299.9999999999566 	4.587469491264318e-12 	101324.9999999911
-0.4842342342342345 	299.9999999999222 	1.406682019892529e-12 	101324.999999991
-0.481731731731732 	300.0000000000326 	4.396309893917588e-12 	101324.9999999907
-0.4792292292292296 	300.0000000000178 	1.75474194979404e-12 	101324.9999999906
-0.4767267267267268 	299.9999999999526 	6.326147898870042e-12 	101324.9999999909
-0.4742242242242246 	299.999999999997 	1.548411900339604e-12 	101324.9999999913
-0.471721721721722 	299.9999999999566 	5.582494500812034e-12 	101324.9999999916
-0.4692192192192195 	299.9999999999762 	2.1956444233064e-12 	101324.9999999916
-0.4667167167167169 	299.999999999909 	5.619236096847591e-12 	101324.9999999915
-0.4642142142142145 	299.9999999999941 	3.116701386992345e-12 	101324.9999999913
-0.461711711711712 	300.0000000000156 	5.431170812070857e-12 	101324.9999999915
-0.4592092092092094 	300.0000000000115 	3.066125491830603e-12 	101324.9999999915
-0.456706706706707 	300.0000000000513 	5.156954600662134e-12 	101324.9999999914
-0.4542042042042045 	299.9999999999404 	3.468263748255929e-12 	101324.9999999911
-0.451701701701702 	299.999999999952 	4.706181006168973e-12 	101324.999999991
-0.4491991991991995 	299.9999999999561 	2.387317926628382e-12 	101324.9999999909
-0.4466966966966969 	299.9999999999501 	3.854788326061205e-12 	101324.9999999908
-0.4441941941941945 	299.9999999999932 	8.993380317636412e-13 	101324.9999999906
-0.441691691691692 	299.9999999999544 	3.355051611573484e-12 	101324.9999999906
-0.4391891891891895 	299.9999999999891 	1.984505801936901e-12 	101324.9999999905
-0.436686686686687 	299.9999999999684 	4.722387274230616e-12 	101324.9999999905
-0.4341841841841846 	299.9999999999989 	2.845104854222145e-12 	101324.9999999904
-0.431681681681682 	299.9999999999467 	4.395560778823233e-12 	101324.9999999904
-0.4291791791791794 	299.999999999932 	1.7597693319667e-12 	101324.9999999907
-0.426676676676677 	299.9999999999113 	3.670801673229993e-12 	101324.9999999908
-0.4241741741741744 	299.9999999999669 	9.999689048611761e-13 	101324.9999999911
-0.421671671671672 	300.0000000000072 	4.267370460143943e-12 	101324.9999999913
-0.4191691691691694 	300.0000000000474 	2.279857861876844e-12 	101324.9999999915
-0.4166666666666669 	300.0000000000549 	4.11724165946646e-12 	101324.9999999916
-0.4141641641641645 	299.9999999999371 	2.73397234964547e-12 	101324.9999999919
-0.411661661661662 	300.000000000002 	3.865456706196984e-12 	101324.9999999917
-0.4091591591591594 	300.0000000000041 	2.499124109855606e-12 	101324.9999999918
-0.406656656656657 	299.9999999999451 	3.127128617950454e-12 	101324.9999999918
-0.4041541541541545 	300.0000000000203 	9.79140593791776e-13 	101324.9999999917
-0.401651651651652 	299.999999999928 	3.629433486697428e-12 	101324.9999999916
-0.3991491491491494 	300.0000000000045 	1.326021827494399e-12 	101324.9999999914
-0.396646646646647 	299.9999999999562 	4.611068104784494e-12 	101324.9999999912
-0.3941441441441444 	299.9999999999827 	2.281413600563671e-12 	101324.9999999913
-0.3916416416416419 	299.9999999999368 	4.183041764346041e-12 	101324.9999999915
-0.3891391391391395 	299.999999999959 	1.139959960355718e-12 	101324.9999999916
-0.3866366366366368 	299.9999999999575 	3.319527886262102e-12 	101324.9999999916
-0.3841341341341344 	299.9999999999952 	1.802808459659772e-12 	101324.9999999916
-0.381631631631632 	299.999999999948 	3.102137326636679e-12 	101324.9999999915
-0.3791291291291294 	300.0000000000031 	2.218269936687738e-12 	101324.9999999915
-0.3766266266266269 	300.0000000000193 	1.915063315646568e-12 	101324.9999999914
-0.3741241241241244 	300.0000000000217 	2.723996022471597e-12 	101324.9999999912
-0.371621621621622 	300.0000000000144 	9.887982519539684e-13 	101324.999999991
-0.3691191191191194 	300.0000000000045 	3.33653553555556e-12 	101324.9999999913
-0.366616616616617 	300.0000000000073 	1.340578438084359e-12 	101324.9999999911
-0.3641141141141143 	299.9999999999645 	2.613832792319534e-12 	101324.9999999909
-0.3616116116116119 	299.9999999999475 	1.35447280395603e-12 	101324.9999999911
-0.3591091091091095 	299.9999999999839 	1.347783041292005e-12 	101324.999999991
-0.356606606606607 	299.999999999975 	8.373508560705646e-13 	101324.9999999913
-0.3541041041041044 	299.9999999999909 	1.519890112869152e-12 	101324.9999999914
-0.3516016016016019 	300.0000000000057 	2.865576425789755e-12 	101324.9999999913
-0.3490990990990994 	299.9999999999912 	1.820605976054819e-12 	101324.9999999911
-0.346596596596597 	300.0000000000397 	4.516948070849462e-12 	101324.999999991
-0.3440940940940944 	300.0000000000476 	2.656696842773479e-12 	101324.999999991
-0.3415915915915919 	300.0000000000184 	5.761725718401988e-12 	101324.9999999911
-0.3390890890890895 	299.9999999999808 	4.300937189388784e-12 	101324.999999991
-0.3365865865865869 	300.0000000000153 	6.15215639080444e-12 	101324.9999999912
-0.3340840840840844 	299.9999999999998 	5.297903720314664e-12 	101324.9999999912
-0.3315815815815819 	300.0000000000196 	5.680329249871952e-12 	101324.9999999912
-0.3290790790790794 	300.0000000000103 	3.861550953963475e-12 	101324.9999999914
-0.3265765765765769 	299.9999999999264 	4.114667230812205e-12 	101324.9999999915
-0.3240740740740744 	299.9999999999947 	1.843794281007047e-12 	101324.9999999915
-0.3215715715715718 	300.0000000000064 	3.516878385370708e-12 	101324.9999999913
-0.3190690690690695 	299.9999999999349 	1.893585993835105e-12 	101324.9999999915
-0.3165665665665668 	299.9999999999921 	4.379721089437533e-12 	101324.9999999916
-0.3140640640640644 	300.0000000000061 	2.376750019966484e-12 	101324.9999999917
-0.311561561561562 	299.999999999931 	6.030352296044706e-12 	101324.9999999918
-0.3090590590590593 	299.9999999999948 	1.586666334268429e-12 	101324.9999999918
-0.3065565565565568 	300.000000000006 	6.972873223426137e-12 	101324.9999999917
-0.3040540540540545 	300.0000000000005 	1.419485604249238e-12 	101324.9999999917
-0.3015515515515518 	300.000000000031 	6.255183986897646e-12 	101324.9999999919
-0.2990490490490494 	299.9999999999469 	2.230614695435747e-12 	101324.9999999918
-0.2965465465465469 	299.9999999999845 	4.098434949386142e-12 	101324.9999999914
-0.2940440440440444 	299.9999999999994 	2.678124292543579e-12 	101324.9999999915
-0.2915415415415418 	300.0000000000039 	3.307824629765752e-12 	101324.9999999916
-0.2890390390390395 	300.0000000000045 	4.031381353540782e-12 	101324.9999999917
-0.2865365365365368 	299.9999999999816 	2.639541829942668e-12 	101324.9999999916
-0.2840340340340343 	299.9999999999973 	4.396175390006182e-12 	101324.9999999917
-0.2815315315315318 	299.9999999999312 	1.536529690978631e-12 	101324.9999999915
-0.2790290290290295 	299.9999999999638 	3.453194287194943e-12 	101324.9999999917
-0.2765265265265269 	300.000000000007 	2.19099586983727e-12 	101324.9999999919
-0.2740240240240244 	300.0000000000256 	3.184713974880966e-12 	101324.999999992
-0.2715215215215219 	300.0000000000155 	3.207443923656353e-12 	101324.999999992
-0.2690190190190194 	299.9999999999435 	3.123852454902515e-12 	101324.9999999919
-0.2665165165165169 	299.9999999999985 	3.7127087402549e-12 	101324.9999999919
-0.2640140140140144 	299.999999999971 	2.50515001545316e-12 	101324.9999999917
-0.2615115115115119 	300.0000000000034 	3.956560757429916e-12 	101324.9999999917
-0.2590090090090094 	299.9999999999333 	1.961835902223203e-12 	101324.9999999917
-0.2565065065065068 	299.9999999999909 	3.053694273003332e-12 	101324.9999999919
-0.2540040040040044 	299.999999999993 	3.180346738044905e-12 	101324.9999999917
-0.2515015015015019 	300.0000000000349 	2.808107875288613e-12 	101324.9999999918
-0.2489989989989994 	300.00000000004 	5.002762740038316e-12 	101324.9999999916
-0.2464964964964968 	299.9999999999884 	2.290050434711949e-12 	101324.9999999914
-0.2439939939939944 	299.9999999999936 	5.820911335028367e-12 	101324.9999999912
-0.2414914914914919 	299.9999999999686 	1.459424255071308e-12 	101324.9999999911
-0.2389889889889893 	299.9999999999995 	5.323750698643731e-12 	101324.999999991
-0.2364864864864869 	300.0000000000189 	8.999238828839772e-13 	101324.999999991
-0.2339839839839843 	299.9999999999358 	4.782507489505672e-12 	101324.9999999909
-0.2314814814814819 	299.9999999999806 	8.725995916904131e-13 	101324.9999999912
-0.2289789789789792 	299.9999999999162 	4.379007094310551e-12 	101324.9999999913
-0.2264764764764769 	299.9999999999492 	1.766255720588501e-12 	101324.9999999912
-0.2239739739739743 	299.9999999999609 	3.120546431886069e-12 	101324.9999999912
-0.2214714714714718 	299.99999999994 	2.172521788968139e-12 	101324.9999999913
-0.2189689689689693 	299.9999999999678 	1.468783062299255e-12 	101324.9999999912
-0.2164664664664669 	299.9999999999857 	2.3863579205556e-12 	101324.9999999912
-0.2139639639639643 	299.9999999999353 	3.350371579320012e-13 	101324.9999999912
-0.2114614614614618 	299.9999999999695 	1.203939297042101e-12 	101324.999999991
-0.2089589589589593 	299.9999999999873 	1.424388588517788e-12 	101324.9999999911
-0.2064564564564568 	299.9999999999865 	1.217762450467962e-12 	101324.9999999913
-0.2039539539539543 	299.9999999999135 	1.867676178314522e-12 	101324.9999999915
-0.2014514514514518 	299.9999999999469 	1.88556489327748e-13 	101324.9999999916
-0.1989489489489494 	299.9999999999706 	3.250600894589567e-12 	101324.9999999919
-0.1964464464464468 	299.9999999999946 	5.530287377473428e-13 	101324.9999999919
-0.1939439439439443 	299.9999999999848 	3.553977973432562e-12 	101324.9999999921
-0.1914414414414418 	299.9999999999208 	9.068482628489232e-13 	101324.999999992
-0.1889389389389393 	300.0000000000069 	2.487475208979775e-12 	101324.9999999919
-0.1864364364364368 	300.0000000000391 	1.727152876693135e-12 	101324.999999992
-0.1839339339339343 	299.9999999999755 	2.970840040150984e-12 	101324.9999999919
-0.1814314314314318 	299.9999999999941 	2.700959871576862e-12 	101324.9999999922
-0.1789289289289293 	299.9999999999043 	4.162183124028933e-12 	101324.999999992
-0.1764264264264268 	299.9999999999798 	2.336823965978076e-12 	101324.999999992
-0.1739239239239243 	299.9999999999026 	5.240228613541142e-12 	101324.999999992
-0.1714214214214218 	299.9999999999865 	1.805450380488307e-12 	101324.999999992
-0.1689189189189193 	299.9999999999529 	6.098629203581937e-12 	101324.9999999921
-0.1664164164164168 	299.9999999999985 	6.586717548392272e-13 	101324.999999992
-0.1639139139139143 	299.9999999999845 	6.935298090133406e-12 	101324.9999999921
-0.1614114114114118 	300.0000000000227 	1.624418222986304e-12 	101324.9999999919
-0.1589089089089093 	299.9999999999953 	9.169885162201034e-12 	101324.9999999919
-0.1564064064064068 	299.9999999999847 	2.756397118635734e-12 	101324.9999999919
-0.1539039039039043 	299.9999999999903 	8.932119900028663e-12 	101324.9999999917
-0.1514014014014018 	300.0000000000223 	3.453486205919352e-12 	101324.9999999919
-0.1488988988988993 	299.9999999999848 	7.117182855121791e-12 	101324.9999999916
-0.1463963963963968 	300.0000000000013 	3.037168362969403e-12 	101324.9999999914
-0.1438938938938943 	299.9999999999565 	5.386336142449383e-12 	101324.9999999913
-0.1413913913913918 	299.9999999999299 	1.9632994398654e-12 	101324.9999999913
-0.1388888888888893 	299.9999999999774 	3.343167874137317e-12 	101324.9999999913
-0.1363863863863868 	299.9999999998935 	5.393475358969177e-13 	101324.9999999914
-0.1338838838838843 	299.9999999999191 	2.743675547096294e-12 	101324.9999999913
-0.1313813813813818 	299.9999999999968 	1.016134143765641e-12 	101324.9999999913
-0.1288788788788793 	299.9999999999602 	3.813624721945533e-12 	101324.9999999912
-0.1263763763763768 	299.9999999999696 	1.894018798678882e-12 	101324.9999999912
-0.1238738738738743 	299.9999999999293 	4.510864972842525e-12 	101324.9999999912
-0.1213713713713717 	299.999999999984 	1.032409126289242e-12 	101324.9999999915
-0.1188688688688693 	300.0000000000053 	4.893360144004053e-12 	101324.9999999918
-0.1163663663663668 	299.9999999999096 	6.227578738678155e-13 	101324.999999992
-0.1138638638638643 	299.9999999999891 	5.14583964782775e-12 	101324.9999999921
-0.1113613613613618 	299.9999999999851 	7.917191911831369e-13 	101324.9999999925
-0.1088588588588592 	299.9999999999762 	5.373421674852696e-12 	101324.9999999924
-0.1063563563563568 	299.9999999999594 	7.031286140649857e-13 	101324.9999999922
-0.1038538538538543 	299.9999999999746 	4.350302077819107e-12 	101324.999999992
-0.1013513513513517 	300.0000000000101 	1.070202224840081e-12 	101324.9999999918
-0.09884884884884926 	299.9999999999511 	4.162595164382195e-12 	101324.9999999916
-0.09634634634634676 	299.9999999998971 	1.419222768500445e-12 	101324.9999999916
-0.09384384384384425 	299.99999999993 	3.047439210687986e-12 	101324.9999999916
-0.09134134134134177 	300.0000000000215 	1.637483798193552e-12 	101324.9999999914
-0.08883883883883925 	300.0000000000075 	3.277648517016902e-12 	101324.9999999913
-0.08633633633633674 	299.9999999999495 	2.901218081853389e-12 	101324.9999999909
-0.08383383383383426 	300.0000000000098 	3.135713291075186e-12 	101324.9999999911
-0.08133133133133173 	299.99999999997 	3.719807072748895e-12 	101324.9999999913
-0.07882882882882926 	299.9999999998863 	3.737873536296472e-12 	101324.9999999914
-0.07632632632632676 	299.9999999999657 	4.135505526184369e-12 	101324.9999999911
-0.07382382382382424 	299.9999999999016 	4.489823122489883e-12 	101324.9999999912
-0.07132132132132173 	300.0000000000111 	4.091862432555636e-12 	101324.9999999911
-0.06881881881881925 	299.9999999999641 	3.949550042364715e-12 	101324.999999991
-0.06631631631631671 	299.9999999998972 	3.438969788641825e-12 	101324.999999991
-0.06381381381381425 	299.9999999999554 	3.144093084338268e-12 	101324.9999999908
-0.06131131131131173 	299.9999999999557 	2.736864166648672e-12 	101324.9999999909
-0.05880880880880923 	299.9999999999253 	2.296056618071468e-12 	101324.9999999913
-0.05630630630630672 	299.9999999999681 	1.763560181789591e-12 	101324.9999999912
-0.05380380380380424 	300.0000000000124 	1.831395583220062e-12 	101324.9999999913
-0.05130130130130173 	300.0000000000123 	2.179611458453054e-12 	101324.9999999913
-0.04879879879879922 	299.9999999999492 	2.327945247662945e-12 	101324.9999999917
-0.04629629629629672 	299.9999999999393 	1.52285157049513e-12 	101324.9999999918
-0.04379379379379422 	299.9999999999216 	8.020959849109058e-13 	101324.9999999916
-0.04129129129129173 	299.9999999999801 	8.942837144037559e-14 	101324.9999999915
-0.03878878878878922 	299.9999999999823 	1.1443867531439e-12 	101324.9999999914
-0.03628628628628671 	299.9999999999808 	1.093075727093917e-12 	101324.9999999914
-0.03378378378378422 	299.99999999993 	1.152802828286198e-12 	101324.9999999914
-0.03128128128128172 	299.9999999999673 	1.969811164464019e-13 	101324.9999999914
-0.02877877877877922 	299.9999999999666 	2.877784799756487e-13 	101324.9999999916
-0.0262762762762767 	299.9999999999047 	1.607762349139759e-13 	101324.9999999916
-0.02377377377377422 	300.0000000000172 	2.4941185878717e-13 	101324.9999999918
-0.0212712712712717 	299.9999999999093 	7.583494324969936e-13 	101324.9999999918
-0.01876876876876921 	299.9999999999718 	2.414883722705055e-13 	101324.9999999919
-0.01626626626626671 	300.0000000000131 	9.885406083246977e-13 	101324.9999999918
-0.0137637637637642 	299.9999999999657 	3.869998815080149e-13 	101324.9999999917
-0.0112612612612617 	300.0000000000136 	6.299046524021727e-13 	101324.9999999919
-0.008758758758759198 	299.9999999999972 	1.471623097334941e-13 	101324.9999999917
-0.006256256256256697 	299.999999999894 	4.019539923203494e-13 	101324.9999999915
-0.003753753753754195 	299.9999999999566 	4.300245971720232e-13 	101324.9999999916
-0.001251251251251693 	299.9999999999282 	6.090319959487997e-13 	101324.9999999913
0.00125125125125081 	299.999999999958 	1.26411385728768e-12 	101324.9999999915
0.003753753753753312 	299.9999999999646 	4.545990031512152e-13 	101324.9999999915
0.006256256256255817 	299.9999999998934 	1.181646016771679e-12 	101324.9999999917
0.008758758758758317 	299.9999999999911 	6.590157589613656e-13 	101324.999999992
0.01126126126126082 	300.0000000000087 	5.289318635716058e-13 	101324.999999992
0.01376376376376332 	299.9999999999712 	2.662129954136479e-13 	101324.9999999918
0.01626626626626582 	300.0000000000077 	7.771558748371519e-13 	101324.9999999919
0.01876876876876833 	299.9999999999554 	6.065038984118831e-13 	101324.9999999919
0.02127127127127083 	299.9999999999698 	9.156091729779121e-13 	101324.9999999918
0.02377377377377332 	299.9999999999956 	7.145606749194688e-13 	101324.999999992
0.02627627627627583 	299.9999999999109 	6.835956467328587e-13 	101324.9999999923
0.02877877877877833 	300.000000000004 	1.684490984771168e-12 	101324.9999999923
0.03128128128128083 	299.9999999999462 	1.548222608264034e-12 	101324.9999999923
0.03378378378378333 	299.9999999999088 	2.044728801231385e-12 	101324.9999999925
0.03628628628628584 	299.9999999999739 	1.181807836562801e-12 	101324.9999999924
0.03878878878878834 	299.9999999999818 	1.057390345887716e-12 	101324.9999999923
0.04129129129129084 	299.9999999999788 	8.91231679838309e-13 	101324.9999999922
0.04379379379379333 	299.9999999999446 	1.192217499735319e-12 	101324.9999999922
0.04629629629629585 	299.9999999998955 	1.134856146667326e-12 	101324.999999992
0.04879879879879834 	299.9999999999557 	1.61205971719878e-12 	101324.9999999921
0.05130130130130085 	300.0000000000152 	2.226829803340161e-12 	101324.9999999921
0.05380380380380335 	300.0000000000143 	2.724197948903296e-12 	101324.9999999917
0.05630630630630584 	299.9999999999886 	3.177603363516605e-12 	101324.9999999917
0.05880880880880836 	299.9999999999254 	3.295647595307044e-12 	101324.9999999915
0.06131131131131085 	299.9999999999708 	3.52623675141311e-12 	101324.9999999914
0.06381381381381336 	299.9999999999679 	3.181940109472711e-12 	101324.9999999912
0.06631631631631586 	299.9999999998952 	2.756771213342436e-12 	101324.9999999911
0.06881881881881835 	299.9999999999488 	3.157119195525846e-12 	101324.999999991
0.07132132132132088 	299.9999999999862 	2.673386379527983e-12 	101324.999999991
0.07382382382382337 	299.9999999999084 	3.088951624131762e-12 	101324.9999999912
0.07632632632632587 	299.9999999999725 	3.109217533425401e-12 	101324.999999991
0.07882882882882837 	299.9999999999402 	2.744867854268453e-12 	101324.999999991
0.08133133133133086 	299.9999999999837 	2.475822993686863e-12 	101324.9999999913
0.08383383383383337 	299.9999999999842 	2.151358468531653e-12 	101324.9999999915
0.08633633633633589 	299.9999999999124 	2.81709289436505e-12 	101324.9999999912
0.08883883883883838 	300.0000000000117 	3.596895410331647e-12 	101324.9999999911
0.09134134134134086 	299.9999999999939 	2.207822474671117e-12 	101324.9999999911
0.09384384384384339 	299.9999999999025 	3.199313699853937e-12 	101324.9999999912
0.09634634634634588 	299.9999999999676 	3.296123419430266e-12 	101324.9999999913
0.09884884884884838 	299.9999999999724 	3.343406775255946e-12 	101324.9999999913
0.1013513513513509 	300.0000000000146 	2.99348521927872e-12 	101324.9999999914
0.1038538538538534 	299.9999999999537 	2.960145459141167e-12 	101324.9999999916
0.1063563563563559 	300.0000000000161 	3.306879147270249e-12 	101324.9999999916
0.1088588588588584 	300.0000000000236 	2.67196362106739e-12 	101324.9999999916
0.1113613613613609 	299.9999999999189 	2.843350319011239e-12 	101324.9999999914
0.1138638638638634 	299.9999999999483 	2.566515031954523e-12 	101324.9999999916
0.1163663663663659 	299.9999999999471 	3.081951342332565e-12 	101324.9999999915
0.1188688688688684 	299.999999999973 	2.735895005857204e-12 	101324.9999999915
0.1213713713713709 	299.9999999999914 	2.142489841030172e-12 	101324.9999999916
0.1238738738738734 	299.9999999999308 	2.479313006757665e-12 	101324.9999999917
0.1263763763763759 	299.9999999999867 	2.536254527819185e-12 	101324.9999999916
0.1288788788788784 	299.9999999999908 	2.758437466108392e-12 	101324.9999999915
0.1313813813813809 	299.9999999999895 	2.986702111895567e-12 	101324.9999999913
0.1338838838838834 	299.9999999999764 	2.586878575542407e-12 	101324.9999999911
0.1363863863863859 	300.0000000000269 	2.07588358183673e-12 	101324.9999999909
0.1388888888888884 	300.0000000000434 	1.993484800243869e-12 	101324.9999999909
0.1413913913913909 	299.9999999999996 	1.245799472946639e-12 	101324.9999999909
0.1438938938938934 	299.9999999999901 	1.496431274398172e-12 	101324.999999991
0.1463963963963959 	299.9999999999625 	2.373534185394774e-13 	101324.9999999912
0.1488988988988985 	299.999999999917 	1.298462634927845e-12 	101324.9999999913
0.1514014014014009 	299.9999999999731 	3.912280896361373e-13 	101324.9999999915
0.1539039039039035 	299.9999999999644 	2.285517491456532e-12 	101324.9999999914
0.1564064064064059 	299.9999999999417 	6.133488501744057e-13 	101324.9999999915
0.1589089089089084 	299.9999999999804 	2.628904988493245e-12 	101324.9999999916
0.1614114114114109 	299.9999999999763 	6.129650549533353e-13 	101324.9999999917
0.1639139139139134 	299.999999999916 	3.285348178651369e-12 	101324.9999999915
0.166416416416416 	300.0000000000044 	2.761399469243228e-12 	101324.9999999915
0.1689189189189185 	300.0000000000266 	2.788953179260993e-12 	101324.9999999915
0.1714214214214209 	299.9999999999948 	2.946706639312283e-12 	101324.9999999918
0.1739239239239235 	299.9999999999849 	1.061489118054585e-12 	101324.9999999916
0.1764264264264259 	299.9999999999681 	3.06998624945813e-12 	101324.9999999917
0.1789289289289284 	300.0000000000055 	1.302906969263997e-12 	101324.9999999918
0.181431431431431 	299.999999999967 	4.175492038209607e-12 	101324.9999999918
0.1839339339339334 	299.9999999999697 	2.499380815640959e-12 	101324.9999999916
0.186436436436436 	299.9999999999291 	3.828246881867194e-12 	101324.9999999918
0.1889389389389385 	299.9999999999853 	3.833331304311671e-12 	101324.9999999919
0.191441441441441 	299.9999999999799 	3.127305440330457e-12 	101324.9999999919
0.1939439439439434 	299.9999999999238 	4.114773257488346e-12 	101324.999999992
0.196446446446446 	299.9999999999513 	1.928881251040028e-12 	101324.9999999921
0.1989489489489485 	299.9999999999643 	4.066854087695587e-12 	101324.999999992
0.2014514514514509 	299.9999999999844 	2.122820159894383e-12 	101324.9999999919
0.2039539539539535 	299.9999999999955 	3.151001570912457e-12 	101324.999999992
0.2064564564564559 	299.999999999961 	2.140091018861651e-12 	101324.9999999919
0.2089589589589585 	299.9999999999835 	2.798448896864604e-12 	101324.9999999917
0.211461461461461 	299.9999999999353 	3.58865773836609e-12 	101324.9999999918
0.2139639639639635 	299.9999999999829 	3.475584409193651e-12 	101324.9999999918
0.2164664664664659 	299.9999999999945 	4.343138000992501e-12 	101324.9999999917
0.2189689689689684 	299.9999999999942 	1.980254559427272e-12 	101324.9999999919
0.221471471471471 	299.9999999999933 	4.33682714048777e-12 	101324.9999999917
0.2239739739739735 	299.9999999999598 	1.710083556693822e-12 	101324.9999999916
0.226476476476476 	299.9999999999784 	3.091612652475416e-12 	101324.9999999917
0.2289789789789785 	299.9999999999915 	2.272005542403543e-12 	101324.9999999918
0.231481481481481 	299.9999999999897 	2.145334806468204e-12 	101324.9999999918
0.2339839839839835 	299.9999999999875 	2.327553400538703e-12 	101324.9999999917
0.236486486486486 	300.0000000000198 	8.492973708784041e-13 	101324.9999999917
0.2389889889889885 	300.0000000000029 	2.086819083261621e-12 	101324.9999999913
0.241491491491491 	299.999999999928 	5.672721882729918e-13 	101324.9999999915
0.2439939939939935 	299.99999999998 	3.070731402043642e-12 	101324.9999999914
0.246496496496496 	299.999999999992 	5.157113477285101e-13 	101324.9999999911
0.2489989989989985 	300.0000000000354 	2.519900381679578e-12 	101324.9999999912
0.251501501501501 	300.000000000029 	1.559230101519573e-12 	101324.9999999913
0.2540040040040035 	299.9999999999879 	1.880227356501411e-12 	101324.9999999914
0.256506506506506 	300.0000000000251 	2.393778063033988e-12 	101324.9999999918
0.2590090090090086 	299.9999999999116 	1.113411734634395e-12 	101324.9999999918
0.261511511511511 	299.9999999999965 	3.856267076575991e-12 	101324.9999999917
0.2640140140140135 	299.9999999999901 	1.427196008265349e-12 	101324.9999999915
0.2665165165165161 	299.9999999999335 	3.040188392115149e-12 	101324.9999999913
0.2690190190190185 	300.0000000000022 	1.702791746445477e-12 	101324.9999999909
0.271521521521521 	300.0000000000061 	1.767710764350818e-12 	101324.9999999909
0.2740240240240235 	300.0000000000134 	1.795513125275669e-12 	101324.999999991
0.276526526526526 	300.000000000005 	7.910183175883425e-13 	101324.9999999909
0.2790290290290286 	299.9999999999434 	2.240197391129104e-12 	101324.9999999907
0.281531531531531 	299.9999999999309 	6.780580472347061e-13 	101324.9999999908
0.2840340340340335 	299.9999999999779 	2.541992574687804e-12 	101324.9999999909
0.2865365365365361 	299.999999999959 	6.213870723810973e-13 	101324.9999999909
0.2890390390390385 	299.9999999999975 	1.404282440125238e-12 	101324.999999991
0.291541541541541 	299.9999999999976 	8.032389577509314e-13 	101324.999999991
0.2940440440440436 	299.9999999999874 	4.605481385235299e-13 	101324.9999999912
0.296546546546546 	299.9999999999923 	2.172419799193418e-12 	101324.9999999913
0.2990490490490486 	299.9999999999403 	8.588849396508675e-13 	101324.9999999915
0.3015515515515511 	300.0000000000344 	4.703128942186667e-12 	101324.9999999915
0.3040540540540535 	300.0000000000002 	1.653528398514053e-12 	101324.9999999917
0.3065565565565562 	299.9999999999964 	5.117956885169581e-12 	101324.9999999917
0.3090590590590585 	299.9999999999909 	1.401538812694931e-12 	101324.9999999916
0.3115615615615611 	299.9999999999432 	4.388907114250452e-12 	101324.9999999915
0.3140640640640635 	300.0000000000094 	8.72594116347901e-13 	101324.9999999913
0.316566566566566 	299.9999999999959 	3.411745855419265e-12 	101324.9999999912
0.3190690690690687 	299.9999999999579 	1.345926573057714e-12 	101324.9999999913
0.3215715715715711 	300.0000000000154 	3.742192046212145e-12 	101324.9999999913
0.3240740740740735 	300.0000000000005 	1.524901360305811e-12 	101324.9999999912
0.326576576576576 	299.9999999999143 	2.903816750909204e-12 	101324.9999999911
0.3290790790790786 	300.000000000007 	1.405184199124287e-12 	101324.9999999912
0.3315815815815811 	300.0000000000246 	1.800360912354827e-12 	101324.9999999912
0.3340840840840836 	299.9999999999901 	6.443110665298969e-13 	101324.9999999913
0.3365865865865861 	300.0000000000466 	1.696473099679823e-12 	101324.9999999912
0.3390890890890886 	300.0000000000451 	4.961654735987467e-13 	101324.9999999911
0.3415915915915911 	299.9999999999987 	1.816978255262917e-12 	101324.999999991
0.3440940940940935 	299.9999999999515 	5.785010721018713e-13 	101324.999999991
0.3465965965965962 	300.0000000000291 	2.498151224365429e-12 	101324.9999999909
0.3490990990990985 	300.0000000000231 	5.475479677575202e-13 	101324.9999999909
0.3516016016016011 	299.9999999999878 	1.186078200936338e-12 	101324.9999999909
0.3541041041041035 	300.000000000004 	1.096602861304895e-12 	101324.9999999908
0.3566066066066061 	299.9999999999562 	7.612265317612245e-13 	101324.9999999911
0.3591091091091085 	299.9999999999252 	1.899940702346994e-12 	101324.9999999913
0.3616116116116112 	299.9999999999467 	9.873675963145993e-13 	101324.9999999914
0.3641141141141137 	299.99999999994 	2.7018563408645e-12 	101324.9999999914
0.3666166166166161 	299.9999999999334 	1.921370044946348e-12 	101324.9999999915
0.3691191191191185 	300.0000000000373 	4.122084682134808e-12 	101324.9999999913
0.371621621621621 	300.0000000000105 	1.220498180574395e-12 	101324.999999991
0.3741241241241237 	300.0000000000433 	3.421232954713053e-12 	101324.999999991
0.3766266266266261 	300.0000000000267 	4.074691714763325e-13 	101324.9999999906
0.3791291291291286 	299.9999999999829 	2.377447391091964e-12 	101324.9999999904
0.3816316316316311 	299.9999999999249 	1.059462900696387e-12 	101324.9999999901
0.3841341341341336 	300.0000000000104 	1.284386456900774e-12 	101324.9999999899
0.3866366366366362 	299.9999999999968 	1.108935194814291e-12 	101324.9999999902
0.3891391391391387 	299.9999999999584 	1.069433465101599e-12 	101324.9999999903
0.391641641641641 	299.9999999999921 	2.575020603489925e-13 	101324.9999999905
0.3941441441441436 	300.0000000000069 	1.11161051815795e-12 	101324.9999999905
0.3966466466466462 	299.9999999999982 	3.709224378700166e-13 	101324.9999999906
0.3991491491491486 	299.9999999999484 	1.305948011251907e-12 	101324.9999999906
0.4016516516516512 	299.9999999999218 	5.080954944323954e-13 	101324.9999999907
0.4041541541541536 	299.9999999999541 	1.531345495659765e-12 	101324.9999999907
0.4066566566566561 	299.9999999999517 	1.071866082787986e-12 	101324.9999999909
0.4091591591591587 	299.999999999997 	1.220123637884868e-12 	101324.9999999912
0.4116616616616612 	300.0000000000056 	2.741439625618601e-13 	101324.9999999911
0.4141641641641635 	300.0000000000387 	9.148041008954243e-13 	101324.9999999911
0.4166666666666662 	299.9999999999938 	9.383076715754548e-13 	101324.9999999913
0.4191691691691687 	299.9999999999439 	6.749801225133762e-13 	101324.9999999913
0.421671671671671 	300.0000000000071 	2.412526043357601e-12 	101324.9999999911
0.4241741741741737 	299.9999999999779 	2.02938012309451e-12 	101324.9999999907
0.4266766766766761 	299.9999999999547 	2.757991257963229e-12 	101324.9999999905
0.4291791791791785 	300.0000000000181 	2.932797822240202e-12 	101324.9999999906
0.4316816816816812 	300.0000000000079 	3.177654663512638e-12 	101324.9999999904
0.4341841841841836 	299.9999999999824 	2.583790280035199e-12 	101324.9999999904
0.4366866866866862 	299.9999999999238 	2.057668582615658e-12 	101324.9999999906
0.4391891891891885 	299.9999999999881 	2.059794376934551e-12 	101324.9999999907
0.4416916916916913 	299.9999999999815 	9.101174289971222e-13 	101324.9999999908
0.4441941941941936 	299.9999999999878 	2.457513959743124e-12 	101324.999999991
0.4466966966966961 	299.9999999999237 	1.5628634027327e-12 	101324.9999999911
0.4491991991991987 	299.9999999999852 	2.019257455614517e-12 	101324.9999999911
0.4517017017017012 	299.9999999999825 	1.795013978335759e-12 	101324.9999999911
0.4542042042042035 	299.9999999999833 	1.656361134292319e-12 	101324.9999999911
0.4567067067067062 	299.9999999999971 	1.813120264127769e-12 	101324.9999999912
0.4592092092092087 	299.999999999935 	1.30957850017926e-12 	101324.9999999912
0.4617117117117112 	300.0000000000155 	1.199753264875534e-12 	101324.9999999913
0.4642142142142137 	299.9999999999679 	1.121328581952318e-12 	101324.9999999912
0.4667167167167162 	299.9999999999926 	1.06921740506081e-12 	101324.9999999913
0.4692192192192187 	299.9999999999617 	1.086068712971403e-12 	101324.9999999914
0.4717217217217212 	300.0000000000115 	1.045635944976135e-12 	101324.9999999911
0.4742242242242236 	299.999999999959 	1.329538380768794e-12 	101324.9999999911
0.4767267267267262 	299.9999999999806 	9.122493795319553e-13 	101324.9999999911
0.4792292292292287 	300.0000000000132 	7.879976602122964e-13 	101324.9999999909
0.4817317317317312 	300.0000000000255 	1.068949844316779e-12 	101324.9999999909
0.4842342342342336 	299.9999999999845 	1.038631063678212e-12 	101324.9999999908
0.4867367367367362 	299.9999999999543 	1.480972736334224e-12 	101324.9999999906
0.4892392392392387 	300.0000000000245 	6.459612164732937e-13 	101324.9999999904
0.4917417417417412 	300.0000000000032 	1.937675527693862e-12 	101324.9999999903
0.4942442442442437 	299.999999999912 	9.770861067810813e-13 	101324.99999999
0.4967467467467462 	299.9999999999307 	2.273567603376032e-12 	101324.9999999898
0.4992492492492487 	299.9999999999265 	6.830950763486143e-13 	101324.9999999896
0.5017517517517511 	299.9999999999559 	2.087161762580993e-12 	101324.9999999894
0.5042542542542537 	299.9999999999654 	2.301727334684512e-12 	101324.9999999894
0.5067567567567562 	299.9999999999523 	4.164987869644978e-12 	101324.9999999889
0.5092592592592589 	299.9999999999724 	7.769535284550203e-12 	101324.9999999878
0.5117617617617611 	299.9999999999556 	1.423630638172954e-11 	101324.9999999851
0.5142642642642637 	299.9999999999761 	3.000182262535809e-11 	101324.9999999797
0.5167667667667663 	299.9999999999535 	5.742057579836996e-11 	101324.9999999681
0.5192692692692688 	299.9999999998887 	1.191318827803651e-10 	101324.9999999451
0.5217717717717714 	299.9999999998673 	2.314988268840768e-10 	101324.9999998992
0.5242742742742736 	299.9999999997922 	4.644671711982341e-10 	101324.9999998089
0.5267767767767763 	299.9999999996631 	9.085198194663969e-10 	101324.9999996325
0.5292792792792789 	299.9999999993556 	1.778880274031439e-09 	101324.9999992902
0.5317817817817813 	299.999999998769 	3.444197570263109e-09 	101324.9999986318
0.5342842842842837 	299.9999999978073 	6.627734998516022e-09 	101324.9999973751
0.5367867867867864 	299.9999999957804 	1.264851469053813e-08 	101324.9999949948
0.5392892892892888 	299.9999999919548 	2.395525753339142e-08 	101324.9999905222
0.5417917917917912 	299.9999999849456 	4.501015677697678e-08 	101324.9999821859
0.5442942942942938 	299.9999999718883 	8.390815975371522e-08 	101324.9999667745
0.5467967967967964 	299.9999999479596 	1.551670463756545e-07 	101324.9999385198
0.5492992992992988 	299.999999904506 	2.846149669873474e-07 	101324.999887155
0.5518018018018012 	299.9999998261953 	5.177423209118501e-07 	101324.9997945791
0.5543043043043039 	299.9999996863779 	9.339213338804054e-07 	101324.9996291867
0.5568068068068063 	299.9999994386425 	1.670252869500051e-06 	101324.9993363361
0.5593093093093087 	299.999999003951 	2.961170369930346e-06 	101324.9988225154
0.5618118118118114 	299.9999982485238 	5.203355274039658e-06 	101324.9979293548
0.5643143143143137 	299.9999969477281 	9.060858112784077e-06 	101324.9963915101
0.5668168168168163 	299.999994729766 	1.563303599989869e-05 	101324.9937692955
0.5693193193193188 	299.9999909853151 	2.671924616188331e-05 	101324.9893424051
0.5718218218218213 	299.9999847279109 	4.522995346371442e-05 	101324.9819446497
0.5743243243243239 	299.9999743799285 	7.581561029641729e-05 	101324.9697108659
0.5768268268268262 	299.9999574499089 	0.0001258131506827231 	101324.9496955404
0.5793293293293288 	299.999930054708 	0.0002066460329160339 	101324.9173079657
0.5818318318318314 	299.9998862250977 	0.0003358569810884014 	101324.8654910469
0.5843343343343338 	299.9998169158665 	0.0005400001330635897 	101324.7835512318
0.5868368368368363 	299.9997086263061 	0.0008586655689755943 	101324.6555278359
0.5893393393393387 	299.9995415250323 	0.001349942230855048 	101324.4579757938
0.5918418418418413 	299.9992869698926 	0.002097627670573623 	101324.1570340043
0.5943443443443439 	299.9989043336176 	0.003220436731255849 	101323.7046729083
0.5968468468468463 	299.9983370953522 	0.004883310645418214 	101323.0340747194
0.5993493493493487 	299.9975082581167 	0.007310636048247257 	101322.0542167202
0.6018518518518514 	299.9963153148352 	0.01080070125117665 	101320.6439230527
0.6043543543543537 	299.9946252343468 	0.01574000183542688 	101318.6459413253
0.6068568568568564 	299.9922702686224 	0.02261504396433919 	101315.8619943391
0.6093593593593587 	299.9890457954684 	0.0320181125683494 	101312.0502426022
0.6118618618618614 	299.9847118600102 	0.04464218357358436 	101306.9271267404
0.6143643643643638 	299.9790004937763 	0.06125898988263588 	101300.1760487015
0.6168668668668662 	299.9716311455211 	0.08267355618305797 	101291.4656502128
0.6193693693693688 	299.9623364814081 	0.1096487927082739 	101280.4803570056
0.6218718718718714 	299.9508999716534 	0.1427955173877858 	101266.9651364797
0.6243743743743737 	299.9372064074323 	0.1824271081871569 	101250.784853478
0.6268768768768762 	299.9213044069008 	0.2283846106971603 	101231.9960656891
0.629379379379379 	299.9034690295395 	0.2798462572209565 	101210.9254869146
0.6318818818818812 	299.8842667669306 	0.3351503716684729 	101188.2445830207
0.6343843843843838 	299.8645986531022 	0.3916975590777534 	101165.0173580192
0.6368868868868864 	299.8456719865744 	0.4460448048855493 	101142.6695175195
0.6393893893893888 	299.8288702155174 	0.4942682469891248 	101122.8338186471
0.6418918918918912 	299.8155433202979 	0.5325460833781881 	101107.1026534321
0.6443943943943939 	299.806767882677 	0.5578340643512323 	101096.745250823
0.6468968968968963 	299.8031240322095 	0.5684999323972574 	101092.4443932234
0.6493993993993988 	299.8045290689689 	0.5647935141513535 	101094.1016065011
0.6519019019019012 	299.810165685438 	0.5490399047395682 	101100.7559603522
0.6544044044044038 	299.8185497295103 	0.5254842248895388 	101110.6533817249
0.6569069069069065 	299.8277003493752 	0.4997529303437797 	101121.455209497
0.6594094094094087 	299.8354812878258 	0.4778391666564854 	101130.6407868045
0.6619119119119113 	299.8401327610221 	0.4646340874628183 	101136.1320877422
0.664414414414414 	299.8408151415265 	0.4624857903704903 	101136.9380829369
0.6669169169169162 	299.8378665405427 	0.4704867657443433 	101133.4571862259
0.6694194194194188 	299.8326699262141 	0.4847989235019174 	101127.3206796163
0.6719219219219214 	299.8272199023376 	0.4998608801313172 	101120.8867425758
0.674424424424424 	299.8234956643872 	0.5102157299479834 	101116.4906421443
0.6769269269269262 	299.8227212999213 	0.5124922067190844 	101115.5760643192
0.679429429429429 	299.8248909494746 	0.506667672583942 	101118.13697476
0.6819319319319311 	299.8288268913611 	0.4959471782740624 	101122.7847015606
0.6844344344344341 	299.8327077502506 	0.4853281486037669 	101127.366047919
0.686936936936936 	299.8348484224317 	0.4793957362737182 	101129.8932722346
0.6894394394394392 	299.8344912971404 	0.4802209067383072 	101129.4721615458
0.6919419419419413 	299.8321493692734 	0.4864512309775948 	101126.7068615923
0.694444444444444 	299.8292840000868 	0.4941457053057722 	101123.3237039036
0.6969469469469463 	299.8275200189786 	0.4989277750172112 	101121.2412785944
0.6994494494494489 	299.827758304146 	0.4983679947278364 	101121.5222262617
0.7019519519519515 	299.8296911716532 	0.493251455134709 	101123.8042888358
0.7044544544544538 	299.8320556282306 	0.4869356389829497 	101126.5960742949
0.7069569569569564 	299.8334321675752 	0.4832023275718882 	101128.2212762896
0.7094594594594589 	299.8331299373187 	0.4838987482572176 	101127.8647017354
0.7119619619619615 	299.8315999101084 	0.4878653465556979 	101126.0580050856
0.7144644644644638 	299.8300654020867 	0.4918877788988709 	101124.2462901595
0.7169669669669665 	299.8296493576051 	0.4930113693588574 	101123.7549405597
0.7194694694694688 	299.8305870169586 	0.4905933146826009 	101124.8616540793
0.7219719719719715 	299.8321121903521 	0.4866053137853168 	101126.6628279628
0.7244744744744737 	299.8330949514695 	0.4839905708254347 	101127.8230475134
0.7269769769769764 	299.8329181572446 	0.4843643307778283 	101127.6144161186
0.7294794794794791 	299.8319314837883 	0.4868511189081633 	101126.4494985342
0.7319819819819813 	299.8311018286316 	0.4889708617572061 	101125.4698316053
0.7344844844844839 	299.8311762179511 	0.4887947865952192 	101125.5573419236
0.7369869869869864 	299.8320659220461 	0.4865207941584387 	101126.6079086963
0.739489489489489 	299.8329884247693 	0.4841303964425885 	101127.697182343
0.7419919919919914 	299.8332084269914 	0.4835012744457747 	101127.9569846818
0.7444944944944939 	299.8326968145466 	0.4847301305829647 	101127.3530932593
0.7469969969969963 	299.8321035252221 	0.4861949303448539 	101126.6522840009
0.7494994994994989 	299.8320888714352 	0.4862268656849898 	101126.6348929857
0.7520020020020015 	299.8326883761841 	0.4847138903867603 	101127.3428521681
0.7545045045045039 	299.8333306486633 	0.4830683855208994 	101128.1010973232
0.7570070070070062 	299.8334611101894 	0.482677965122 	101128.2551363463
0.7595095095095092 	299.8331064155565 	0.4834970315580313 	101127.8366346489
0.7620120120120112 	299.8327967521008 	0.484229966004304 	101127.4707736837
0.7645145145145138 	299.8329563324951 	0.4838215182030586 	101127.6588667905
0.7670170170170165 	299.8334549332051 	0.4825690174905775 	101128.2477877733
0.7695195195195191 	299.8338042672717 	0.4816606507456371 	101128.6603436386
0.7720220220220213 	299.8337372886128 	0.4817596015521468 	101128.5812443241
0.7745245245245239 	299.8334920333577 	0.4823056714434905 	101128.2915828651
0.7770270270270263 	299.8334861657845 	0.482290183294421 	101128.2845780202
0.779529529529529 	299.8338063292832 	0.4814883777650639 	101128.6625912307
0.7820320320320313 	299.8341380036811 	0.4806426365637709 	101129.0541614267
0.784534534534534 	299.8341896074153 	0.4804559988971206 	101129.1151909249
0.7870370370370364 	299.834051170538 	0.4807300556042633 	101128.9518034136
0.7895395395395389 	299.8340412026155 	0.4807147101764249 	101128.9397634388
0.7920420420420413 	299.8342745970938 	0.4801253319508922 	101129.2153377492
0.794544544544544 	299.8345365190914 	0.4794560602268857 	101129.5248373331
0.7970470470470463 	299.8346016040858 	0.4792408029160572 	101129.6014413447
0.799549549549549 	299.834535078094 	0.4793388086117307 	101129.5228481387
0.8020520520520515 	299.8345725659657 	0.4792056964365358 	101129.5673174235
0.8045545545545539 	299.8347765651267 	0.478687631240973 	101129.8079631091
0.8070570570570563 	299.8349686901039 	0.4781865175601608 	101130.0347860853
0.8095595595595589 	299.8350108212627 	0.4780251130655652 	101130.0846835162
0.8120620620620614 	299.8349980616424 	0.4779967334517894 	101130.0695117994
0.8145645645645638 	299.8350923573744 	0.4777316445332122 	101130.1807559675
0.8170670670670666 	299.835276145772 	0.477259734840471 	101130.3978609804
0.8195695695695689 	299.8354009194717 	0.4769139005497125 	101130.5451059245
0.8220720720720714 	299.8354272281412 	0.4767897014013158 	101130.5761485907
0.8245745745745739 	299.8354718194597 	0.4766315272908067 	101130.6288014706
0.8270770770770765 	299.8356068264295 	0.4762739417173582 	101130.7881414543
0.8295795795795788 	299.8357521830027 	0.4758876241938887 	101130.9598261328
0.8320820820820815 	299.8358226911332 	0.4756635044726562 	101131.043080196
0.834584584584584 	299.8358654266882 	0.4755045831810045 	101131.0934856274
0.8370870870870865 	299.8359658630058 	0.4752232689944528 	101131.2120427069
0.8395895895895891 	299.8361019869365 	0.4748614049017928 	101131.3728118561
0.8420920920920915 	299.8361955314359 	0.4745882117287108 	101131.4832032057
0.844594594594594 	299.8362512347211 	0.4743983944923031 	101131.5489413519
0.8470970970970964 	299.8363376522623 	0.4741463617206707 	101131.6509285497
0.8495995995995991 	299.8364600090576 	0.4738162810953647 	101131.7954592053
0.8521021021021015 	299.8365599783406 	0.4735304750725469 	101131.913581438
0.8546046046046039 	299.8366275596276 	0.4733146162556865 	101131.9931075877
0.8571071071071066 	299.8367115645406 	0.4730666202714692 	101132.0923404504
0.8596096096096089 	299.8368238349427 	0.4727586192921213 	101132.2251299222
0.8621121121121116 	299.8369230210204 	0.4724761953969092 	101132.3420098945
0.8646146146146139 	299.8369978328088 	0.4722445532416188 	101132.430219497
0.8671171171171166 	299.8370839121991 	0.4719912154491878 	101132.5321050968
0.8696196196196189 	299.8371903635356 	0.4716964648476513 	101132.657662758
0.8721221221221216 	299.8372858671329 	0.471422281580181 	101132.7703146703
0.874624624624624 	299.8373648938327 	0.4711815157318331 	101132.8637904728
0.8771271271271264 	299.8374547214084 	0.4709209528258209 	101132.9697615241
0.879629629629629 	299.8375569800733 	0.4706350280036361 	101133.0903695263
0.8821321321321317 	299.8376483600391 	0.4703691519288026 	101133.1984109703
0.8846346346346339 	299.8377309530368 	0.4701217726857917 	101133.2958729943
0.8871371371371364 	299.8378238890508 	0.4698549795178566 	101133.4055567712
0.8896396396396391 	299.8379222161497 	0.4695767592167613 	101133.5217007037
0.8921421421421414 	299.8380107667247 	0.4693173487949159 	101133.6261047657
0.8946446446446441 	299.8380966685539 	0.4690635570230923 	101133.7276061292
0.8971471471471464 	299.8381914199055 	0.4687931527239086 	101133.839524453
0.8996496496496489 	299.8382859359863 	0.4685227780206589 	101133.9509748221
0.9021521521521517 	299.8383728733682 	0.4682665007597312 	101134.0536903665
0.9046546546546541 	299.8384622877398 	0.4680063698020809 	101134.1593024373
0.9071571571571564 	299.8385571350776 	0.4677361909240839 	101134.271152745
0.9096596596596589 	299.8386478251597 	0.467472944853518 	101134.3783041217
0.9121621621621616 	299.838735449478 	0.4672158310526512 	101134.4817670317
0.9146646646646639 	299.8388275756465 	0.4669510279243563 	101134.5903967801
0.9171671671671666 	299.8389202510637 	0.466684649459863 	101134.699919143
0.9196696696696689 	299.8390088598883 	0.46642569934793 	101134.8046098748
0.9221721721721714 	299.8390987929816 	0.46616521951059 	101134.9104938898
0.9246746746746741 	299.8391911538753 	0.4658996633778498 	101135.0197053514
0.9271771771771765 	299.8392812161362 	0.4656381255328632 	101135.1261874196
0.9296796796796791 	299.8393702317718 	0.4653792638557454 	101135.2310576255
0.9321821821821816 	299.8394615360966 	0.4651161661175969 	101135.3388577543
0.9346846846846838 	299.8395524218686 	0.4648534662415648 	101135.4463085076
0.9371871871871866 	299.8396414819587 	0.4645944715924175 	101135.5513465785
0.9396896896896891 	299.8397317432275 	0.4643335124921449 	101135.6578617669
0.9421921921921914 	299.8398227655965 	0.4640710280761408 	101135.7653674105
0.9446946946946939 	299.8399121664519 	0.4638114550820664 	101135.8708872429
0.9471971971971965 	299.8400016895854 	0.4635517717471617 	101135.9766364276
0.9496996996996991 	299.8400923983097 	0.4632902228028964 	101136.0837310353
0.9522022022022016 	299.8401821727418 	0.4630304161237812 	101136.1895939521
0.9547047047047038 	299.8402713397056 	0.4627713967970804 	101136.294987931
0.9572072072072064 	299.8403616045746 	0.4625107970807208 	101136.4015589679
0.9597097097097093 	299.8404514701597 	0.4622510089675134 	101136.5075315446
0.9622122122122114 	299.8405405733434 	0.4619923501234693 	101136.6127889263
0.964714714714714 	299.8406303807442 	0.4617326851832371 	101136.7188963315
0.9672172172172167 	299.8407202083591 	0.4614733361185012 	101136.8247877941
0.969719719719719 	299.8408092548032 	0.4612150386912526 	101136.929969588
0.9722222222222214 	299.8408987409497 	0.4609560811148656 	101137.0357210036
0.9747247247247239 	299.8409884416154 	0.4606972056070675 	101137.1414388535
0.9772272272272267 	299.8410774409172 	0.4604392234346377 	101137.2465400146
0.9797297297297292 	299.8411666320092 	0.4601808160715297 	101137.3520082114
0.9822322322322313 	299.841256089013 	0.4599224670048928 	101137.4574975426
0.9847347347347344 	299.8413450927848 	0.4596649417140421 	101137.5624865446
0.9872372372372363 	299.8414340941407 	0.4594071348107263 	101137.6677277509
0.9897397397397389 	299.8415233217522 	0.4591492577547545 	101137.7729881256
0.9922422422422417 	299.8416121998929 	0.4588920762079349 	101137.8778513118
0.9947447447447441 	299.8417011044605 	0.4586348753371184 	101137.9828934917
0.9972472472472468 	299.8417901176213 	0.4583776687272802 	101138.0879156166
0.999749749749749 	299.8418787803347 	0.4581208792210638 	101138.1926251956
1.002252252252252 	299.8419674859952 	0.4578640656368393 	101138.297474145
1.004754754754754 	299.8420564106755 	0.457607399949603 	101138.4022657753
1.007257257257256 	299.8421449940439 	0.4573511000886309 	101138.5068249674
1.009759759759759 	299.8422334517978 	0.4570948274951031 	101138.6114905457
1.012262262262261 	299.8423221609075 	0.4568387505349359 	101138.716054349
1.014764764764764 	299.8424107029124 	0.4565828752104186 	101138.8204535728
1.017267267267267 	299.8424990325263 	0.4563270378012376 	101138.9249333415
1.019769769769769 	299.8425874520792 	0.4560714724231486 	101139.0292875863
1.022272272272272 	299.8426758660042 	0.4558161220580494 	101139.1335374218
1.024774774774774 	299.8427640437801 	0.4555608944428406 	101139.2378221445
1.027277277277277 	299.8428522601829 	0.4553058785028348 	101139.3419586695
1.029779779779779 	299.8429405477094 	0.4550509161683477 	101139.4460373743
1.032282282282282 	299.8430286481218 	0.4547960473875509 	101139.5501138973
1.034784784784784 	299.8431166597351 	0.4545415537085105 	101139.6540611268
1.037287287287286 	299.8432047511762 	0.4542872721552592 	101139.7579905865
1.039789789789789 	299.8432927256224 	0.4540330030185044 	101139.8618722922
1.042292292292291 	299.8433805621302 	0.453778908668089 	101139.9656403948
1.044794794794794 	299.8434685255672 	0.4535251131575799 	101140.0693917623
1.047297297297296 	299.8435563659355 	0.4532715277824487 	101140.1730611872
1.049799799799799 	299.8436439938885 	0.4530179757464883 	101140.2766533357
1.052302302302302 	299.8437318308642 	0.4527645353391327 	101140.3802167353
1.054804804804804 	299.8438195429695 	0.452511351571923 	101140.4836870449
1.057307307307306 	299.8439069401678 	0.4522583613282426 	101140.587113564
1.059809809809809 	299.8439945927147 	0.4520055225022538 	101140.6904921468
1.062312312312312 	299.8440822062275 	0.4517529019763191 	101140.7937862314
1.064814814814814 	299.8441695587164 	0.4515004980333761 	101140.8970375857
1.067317317317317 	299.8442569368276 	0.4512482176494473 	101141.0002103206
1.069819819819819 	299.8443443418419 	0.4509960688618895 	101141.1033169777
1.072322322322321 	299.8444316105101 	0.4507441476956652 	101141.2063786309
1.074824824824824 	299.8445187866691 	0.4504923885788903 	101141.3093681011
1.077327327327327 	299.8446060656044 	0.4502407773823029 	101141.4123122138
1.079829829829829 	299.8446932597356 	0.4499895248236084 	101141.5151946062
1.082332332332332 	299.8447802302022 	0.4497385599662221 	101141.6180114633
1.084834834834834 	299.8448673839053 	0.4494876402949002 	101141.7207755879
1.087337337337337 	299.8449544671575 	0.4492367172754662 	101141.8234630121
1.089839839839839 	299.8450412289862 	0.4489860324213912 	101141.9260889086
1.092342342342342 	299.845128126399 	0.4487357744334969 	101142.0286520475
1.094844844844844 	299.8452150268115 	0.4484856489179428 	101142.1311574901
1.097347347347347 	299.845301764107 	0.4482355624876011 	101142.2336169498
1.099849849849849 	299.8453883774366 	0.4479857633634065 	101142.3360146891
1.102352352352352 	299.8454752015633 	0.4477362506039873 	101142.4383561183
1.104854854854854 	299.8455619502193 	0.4474869319177114 	101142.5406299411
1.107357357357357 	299.8456483656824 	0.447237735353553 	101142.642834411
1.109859859859859 	299.8457349016874 	0.4469887167384151 	101142.7449790276
1.112362362362362 	299.8458214867019 	0.4467400063356353 	101142.8470656551
1.114864864864865 	299.8459079016528 	0.4464914524103086 	101142.9491057001
1.117367367367367 	299.8459942181635 	0.4462430434075333 	101143.0510882995
1.119869869869869 	299.846080608662 	0.4459950173643833 	101143.1530064196
1.122372372372372 	299.8461669218295 	0.4457472716359134 	101143.2548557189
1.124874874874874 	299.846253032206 	0.4454995958343522 	101143.3566382259
1.127377377377377 	299.8463392887204 	0.4452519934193205 	101143.4583678179
1.129879879879879 	299.8464255142113 	0.4450045866365193 	101143.5600473034
1.132382382382382 	299.8465115262196 	0.4447576061679056 	101143.6616768926
1.134884884884884 	299.8465974829655 	0.4445109952446896 	101143.7632452451
1.137387387387387 	299.8466834818186 	0.4442644309680708 	101143.8647476701
1.139889889889889 	299.8467694827497 	0.4440180224398275 	101143.966186123
1.142392392392392 	299.8468554019156 	0.4437719534614583 	101144.0675652963
1.144894894894894 	299.846941252134 	0.4435261719873482 	101144.1688921488
1.147397397397397 	299.847027048129 	0.443280625283036 	101144.270164955
1.149899899899899 	299.8471127905186 	0.4430351736249521 	101144.3713820621
1.152402402402402 	299.8471984414454 	0.4427900311151273 	101144.4725387317
1.154904904904904 	299.847284152015 	0.4425454081275566 	101144.5736367426
1.157407407407407 	299.8473698132067 	0.4423010294770678 	101144.6746795631
1.159909909909909 	299.8474553190007 	0.4420567178679613 	101144.7756695961
1.162412412412412 	299.8475408238276 	0.4418125759857424 	101144.8766058446
1.164914914914914 	299.8476262806591 	0.441568738221504 	101144.9774837022
1.167417417417417 	299.8477116994754 	0.4413252954721919 	101145.078302678
1.169919919919919 	299.8477970200595 	0.4410822957508426 	101145.1790642237
1.172422422422422 	299.8478823602792 	0.4408395311999747 	101145.2797717596
1.174924924924925 	299.8479677529562 	0.4405969169281329 	101145.3804259136
1.177427427427427 	299.8480530539354 	0.4403546569885898 	101145.4810282889
1.179929929929929 	299.8481382047877 	0.4401126479007674 	101145.5815794421
1.182432432432432 	299.8482233177082 	0.439871000236064 	101145.6820795786
1.184934934934934 	299.8483084662123 	0.4396298892661909 	101145.7825282872
1.187437437437437 	299.8483936566103 	0.439388945103035 	101145.8829250894
1.189939939939939 	299.8484786439923 	0.4391481610662884 	101145.9832698516
1.192442442442442 	299.8485634254016 	0.4389077928442923 	101146.0835620258
1.194944944944944 	299.8486484409914 	0.4386677528568553 	101146.1838010886
1.197447447447447 	299.848733519009 	0.4384281017946548 	101146.2839880635
1.199949949949949 	299.8488185336404 	0.4381889869034628 	101146.3841281683
1.202452452452452 	299.8489033260541 	0.4379500820625338 	101146.4842267361
1.204954954954955 	299.8489879719201 	0.4377114508064002 	101146.5842856139
1.207457457457457 	299.8490727492064 	0.4374733468604648 	101146.6843015656
1.20995995995996 	299.8491576149028 	0.4372356797152466 	101146.784270286
1.212462462462462 	299.8492424212556 	0.4369977276516471 	101146.8841888995
1.214964964964964 	299.8493272700022 	0.4367613697918602 	101146.9840596211
1.217467467467467 	299.8494119910504 	0.4365227755597354 	101147.0838859061
1.219969969969969 	299.849496460787 	0.4362903296129663 	101147.1836775864
1.222472472472472 	299.8495810740393 	0.4360421951047553 	101147.2834277215
1.224974974974975 	299.8496657764533 	0.4358373791605231 	101147.3831700556
1.227477477477477 	299.8497504618808 	0.4354995056109583 	101147.4828037059
1.229979979979979 	299.8498354332808 	0.4355462832222076 	101147.5827481512
1.232482482482482 	299.8499195995561 	0.4342248796926849 	101147.6814646118
1.234984984984984 	299.8500043213675 	0.4356009983641019 	101147.7819405767
1.237487487487487 	299.8500909903771 	0.4333839294133528 	101147.8810036586
1.239989989989989 	299.8501693852963 	0.4347409187100658 	101147.978104351
1.242492492492492 	299.8502625448335 	0.4351449880085226 	101148.0818695468
1.244994994994994 	299.8484044955945 	0.4318078077052908 	101148.176636691
1.247497497497497 	299.2209491292019 	0.4343241067900707 	101148.2773940746
1.249999999999999 	302.0345547015162 	0.4334197124654863 	101148.3781718026
