-1.25 	300 	0.01536023231865919 	101331.2666616782
-1.247497497497497 	300.0048503962467 	0.01667596919060277 	101331.9398372649
-1.244994994994995 	300.0064179849322 	0.01880480710941079 	101332.6058954766
-1.242492492492492 	300.0070018338789 	0.0203283255170053 	101333.2773293279
-1.23998998998999 	300.0075665554106 	0.02188343827335142 	101333.9457336449
-1.237487487487487 	300.0081303949095 	0.0235368661864768 	101334.6123699281
-1.234984984984985 	300.0086927954811 	0.02516123879856589 	101335.2772871706
-1.232482482482482 	300.0092535867817 	0.0267878155901782 	101335.9403043408
-1.22997997997998 	300.00981267283 	0.02840719871718516 	101336.6013085307
-1.227477477477477 	300.0103699476117 	0.03002220390291886 	101337.2601742407
-1.224974974974975 	300.0109253088536 	0.0316312511951794 	101337.9167805012
-1.222472472472472 	300.0114786534131 	0.03323459599680079 	101338.5710054498
-1.21996996996997 	300.0120298792459 	0.03483170616608251 	101339.2227283888
-1.217467467467467 	300.0125788847046 	0.03642239396467271 	101339.871828949
-1.214964964964965 	300.0131255684701 	0.03800632484695706 	101340.5181874325
-1.212462462462462 	300.0136698297287 	0.0395832289974658 	101341.1616846124
-1.20995995995996 	300.0142115681596 	0.04115280699231406 	101341.8022018633
-1.207457457457457 	300.0147506840681 	0.04271477385474312 	101342.4396211603
-1.204954954954955 	300.0152870781701 	0.04426884064777986 	101343.073825096
-1.202452452452452 	300.0158206516654 	0.04581472500229042 	101343.704696926
-1.19994994994995 	300.0163513065388 	0.04735214434126797 	101344.332120565
-1.197447447447447 	300.016878944992 	0.04888081545307779 	101344.9559805118
-1.194944944944945 	300.0174034700124 	0.05040045602613275 	101345.5761619447
-1.192442442442442 	300.0179247852683 	0.05191078831797665 	101346.1925507693
-1.18993993993994 	300.0184427947802 	0.05341153772594417 	101346.8050336191
-1.187437437437437 	300.0189574034293 	0.05490242815623532 	101347.4134979014
-1.184934934934935 	300.019468516712 	0.05638318375734289 	101348.0178317714
-1.182432432432432 	300.0199760407512 	0.05785353344284482 	101348.6179240925
-1.17992992992993 	300.0204798819337 	0.05931320984845736 	101349.2136644376
-1.177427427427427 	300.0209799472397 	0.06076194463877188 	101349.8049433093
-1.174924924924925 	300.0214761454665 	0.06219946980242161 	101350.391652155
-1.172422422422422 	300.0219683866784 	0.06362552241630375 	101350.9736832793
-1.16991991991992 	300.0224565804601 	0.06503984313715754 	101351.5509297134
-1.167417417417417 	300.0229406351876 	0.06644217174689414 	101352.1232852768
-1.164914914914915 	300.0234204601186 	0.06783224924294935 	101352.6906447064
-1.162412412412412 	300.0238959684713 	0.0692098213851912 	101353.2529037853
-1.15990990990991 	300.024367076498 	0.07057463642583534 	101353.809959351
-1.157407407407407 	300.0248336996356 	0.07192644237076377 	101354.3617091253
-1.154904904904904 	300.0252957497568 	0.07326499039905512 	101354.9080516151
-1.152402402402403 	300.0257531371229 	0.07459003701058389 	101355.4488859579
-1.1498998998999 	300.0262057750574 	0.07590133981086791 	101355.9841123932
-1.147397397397397 	300.0266535819972 	0.07719865607913436 	101356.5136326738
-1.144894894894895 	300.0270964806272 	0.0784817467471611 	101357.037350219
-1.142392392392392 	300.0275343944153 	0.07975037675922184 	101357.5551696339
-1.13988988988989 	300.027967244573 	0.08100431271826899 	101358.066995791
-1.137387387387387 	300.0283949495935 	0.08224332614959058 	101358.5727337241
-1.134884884884885 	300.0288174270579 	0.08346719401118136 	101359.0722892006
-1.132382382382382 	300.0292345967153 	0.08467569339750876 	101359.5655700627
-1.12987987987988 	300.0296463812224 	0.08586859977243161 	101360.052486749
-1.127377377377377 	300.0300527061435 	0.08704569050869099 	101360.5329519156
-1.124874874874875 	300.0304534988043 	0.0882067461880984 	101361.0068794744
-1.122372372372372 	300.0308486868647 	0.08935155023867043 	101361.4741834256
-1.11986986986987 	300.0312381982069 	0.09047989349294862 	101361.9347777395
-1.117367367367367 	300.0316219605229 	0.09159157387889752 	101362.3885764129
-1.114864864864865 	300.0319999023744 	0.09268639126557719 	101362.8354944703
-1.112362362362362 	300.0323719536482 	0.09376414766611271 	101363.2754486162
-1.10985985985986 	300.0327380453976 	0.09482464824201206 	101363.7083571739
-1.107357357357357 	300.0330981105955 	0.09586769928414962 	101364.1341405214
-1.104854854854855 	300.033452083252 	0.09689310822917432 	101364.5527206267
-1.102352352352353 	300.033799898932 	0.09790068678832695 	101364.9640211822
-1.09984984984985 	300.0341414945166 	0.09889025010615204 	101365.3679673087
-1.097347347347347 	300.0344768073595 	0.09986161503566167 	101365.7644850347
-1.094844844844845 	300.0348057762117 	0.1008146030919344 	101366.1535018425
-1.092342342342342 	300.0351283406536 	0.1017490398484181 	101366.5349461741
-1.08983983983984 	300.0354444416699 	0.1026647530353425 	101366.9087481412
-1.087337337337337 	300.0357540216919 	0.1035615750695828 	101367.2748396814
-1.084834834834835 	300.0360570238522 	0.104439342412939 	101367.6331534802
-1.082332332332332 	300.0363533926885 	0.1052978930678568 	101367.9836237444
-1.07982982982983 	300.03664307345 	0.1061370683397991 	101368.3261858471
-1.077327327327327 	300.036926012897 	0.1069567151546352 	101368.6607767627
-1.074824824824825 	300.0372021596582 	0.1077566839369531 	101368.9873356301
-1.072322322322323 	300.0374714629237 	0.1085368275601853 	101369.3058023233
-1.06981981981982 	300.0377338735291 	0.1092970037299584 	101369.6161185923
-1.067317317317317 	300.0379893434127 	0.1100370732265227 	101369.9182277223
-1.064814814814815 	300.038237825251 	0.1107568989375806 	101370.2120734963
-1.062312312312312 	300.0384792734357 	0.1114563489290817 	101370.4976019633
-1.05980980980981 	300.0387136432295 	0.1121352942162571 	101370.7747603139
-1.057307307307307 	300.0389408915308 	0.1127936091955003 	101371.0434973617
-1.054804804804805 	300.0391609775621 	0.1134311751131929 	101371.3037648362
-1.052302302302302 	300.0393738606489 	0.1140478758719714 	101371.5555146523
-1.0497997997998 	300.0395795015293 	0.1146435977233728 	101371.7987004931
-1.047297297297297 	300.0397778634416 	0.1152182322837677 	101372.0332785923
-1.044794794794795 	300.0399689095213 	0.1157716741332596 	101372.2592051705
-1.042292292292292 	300.0401526046092 	0.1163038217949645 	101372.4764390625
-1.03978978978979 	300.0403289152318 	0.1168145777106596 	101372.6849407361
-1.037287287287287 	300.0404978080676 	0.1173038462119238 	101372.8846701788
-1.034784784784785 	300.0406592527424 	0.117771537271343 	101373.0755911757
-1.032282282282283 	300.0408132193994 	0.1182175657336614 	101373.2576691889
-1.02977977977978 	300.040959678261 	0.1186418489623926 	101373.4308694897
-1.027277277277277 	300.0410986044929 	0.1190443097842182 	101373.5951614643
-1.024774774774775 	300.0412299730339 	0.1194248736456873 	101373.7505147565
-1.022272272272272 	300.0413537566479 	0.1197834682410615 	101373.8968985068
-1.01976976976977 	300.0414699327107 	0.12012002865713 	101374.0342872311
-1.017267267267267 	300.0415784813995 	0.1204344931888721 	101374.1626559483
-1.014764764764765 	300.0416793832825 	0.1207268028714518 	101374.2819792731
-1.012262262262262 	300.0417726205471 	0.1209969066614627 	101374.3922375395
-1.00975975975976 	300.0418581731473 	0.1212447547248679 	101374.493410572
-1.007257257257257 	300.0419360228349 	0.1214702977143656 	101374.58547665
-1.004754754754755 	300.0420061607162 	0.1216734954177272 	101374.6684205588
-1.002252252252252 	300.0420685764154 	0.1218543101925839 	101374.7422273466
-0.9997497497497498 	300.0421232517101 	0.1220127047433003 	101374.8068800154
-0.9972472472472473 	300.0421701731551 	0.122148652737743 	101374.8623689277
-0.9947447447447449 	300.0422093346772 	0.1222621315206581 	101374.9086856838
-0.9922422422422421 	300.0422407331522 	0.1223531153501048 	101374.9458178546
-0.9897397397397399 	300.0422643685017 	0.1224215890468046 	101374.9737599364
-0.9872372372372376 	300.0422802340086 	0.1224675449596482 	101374.9925102045
-0.9847347347347346 	300.0422883140651 	0.1224909698010677 	101375.0020614847
-0.9822322322322323 	300.0422886039185 	0.122491856186539 	101375.0024109268
-0.9797297297297296 	300.0422811131206 	0.1224702070441054 	101374.9935608776
-0.9772272272272275 	300.0422658522858 	0.1224260219762894 	101374.9755101902
-0.9747247247247248 	300.0422428241992 	0.1223593042006181 	101374.9482595301
-0.9722222222222224 	300.0422120253635 	0.122270072087153 	101374.9118178657
-0.9697197197197196 	300.0421734492788 	0.1221583444167795 	101374.8661930414
-0.9672172172172175 	300.0421270966137 	0.1220241340688692 	101374.8113887749
-0.9647147147147147 	300.0420729872387 	0.121867466110572 	101374.74741551
-0.9622122122122124 	300.0420111502414 	0.121688377223865 	101374.6742897013
-0.9597097097097099 	300.0419416018424 	0.1214868972193949 	101374.5920233312
-0.9572072072072073 	300.041864341667 	0.1212630531228152 	101374.5006258322
-0.9547047047047047 	300.0417793687492 	0.1210168880273604 	101374.4001149673
-0.9522022022022023 	300.0416866917985 	0.1207484558431704 	101374.2905149838
-0.9496996996996998 	300.0415863257882 	0.1204577978720801 	101374.1718422483
-0.9471971971971973 	300.0414782938443 	0.1201449520956353 	101374.0441090081
-0.9446946946946947 	300.0413626371746 	0.1198099882485967 	101373.9073452945
-0.9421921921921923 	300.0412393965547 	0.1194529870758824 	101373.761588725
-0.93968968968969 	300.041108580276 	0.1190739900967791 	101373.6068528841
-0.9371871871871872 	300.0409701868066 	0.1186730439859715 	101373.4431508047
-0.9346846846846848 	300.0408242466186 	0.1182502631088785 	101373.2705356556
-0.9321821821821823 	300.0406707909667 	0.1178057473444013 	101373.0890555145
-0.9296796796796799 	300.0405098153999 	0.1173395134974947 	101372.8987063973
-0.9271771771771771 	300.0403413431017 	0.1168516279984183 	101372.699507723
-0.9246746746746748 	300.0401654627797 	0.1163422731429755 	101372.4915506991
-0.9221721721721724 	300.0399822277177 	0.1158115504513908 	101372.2748841143
-0.9196696696696698 	300.0397916139171 	0.1152594252507006 	101372.049470043
-0.9171671671671672 	300.0395936547518 	0.1146860026935722 	101371.815345388
-0.9146646646646649 	300.0393884720277 	0.1140915657044683 	101371.572657712
-0.9121621621621623 	300.039176093655 	0.1134762004717396 	101371.3214469161
-0.9096596596596597 	300.0389564342752 	0.1128397802662596 	101371.0616194946
-0.9071571571571573 	300.0387295391208 	0.1121824614701093 	101370.7932353499
-0.9046546546546547 	300.0384956005543 	0.1115046807723389 	101370.5165266662
-0.9021521521521524 	300.0382546451082 	0.1108065091928637 	101370.2315275775
-0.8996496496496498 	300.038006513211 	0.1100876549158197 	101369.9380505049
-0.8971471471471473 	300.0377512576983 	0.1093482949400503 	101369.6361581598
-0.894644644644645 	300.0374891886626 	0.1085891157901442 	101369.3262165931
-0.892142142142142 	300.0372203718508 	0.1078102547213862 	101369.0083021683
-0.8896396396396397 	300.0369445215016 	0.1070111368267527 	101368.6820757658
-0.8871371371371374 	300.0366616162287 	0.106191798078944 	101368.3475113713
-0.8846346346346349 	300.0363721257764 	0.1053532969025118 	101368.0051634947
-0.8821321321321324 	300.0360762823839 	0.104496118666272 	101367.6553056317
-0.8796296296296297 	300.0357736507068 	0.1036193280831921 	101367.2974222802
-0.8771271271271271 	300.0354639323974 	0.1027223720150954 	101366.931160685
-0.8746246246246248 	300.0351477049928 	0.1018066086912742 	101366.5572038408
-0.8721221221221224 	300.0348256390298 	0.1008734999523583 	101366.1763441366
-0.8696196196196196 	300.0344973447296 	0.09992213819288698 	101365.7881199743
-0.8671171171171175 	300.0341619418529 	0.09895063949087188 	101365.3914907115
-0.8646146146146148 	300.0338196818784 	0.0979597246424424 	101364.9867546939
-0.8621121121121121 	300.0334718930509 	0.09695242970044224 	101364.5754824418
-0.8596096096096097 	300.0331189799036 	0.09592957065435093 	101364.1581512971
-0.857107107107107 	300.0327595869771 	0.09488802899561288 	101363.7331581174
-0.8546046046046049 	300.0323926196698 	0.09382547037877019 	101363.2992095594
-0.8521021021021022 	300.0320192811512 	0.09274486023225148 	101362.8577296709
-0.8495995995995997 	300.0316417358649 	0.09165117875124634 	101362.411277342
-0.8470970970970974 	300.0312599143713 	0.09054408012867549 	101361.9597686261
-0.8445945945945946 	300.030871213608 	0.08941745824906999 	101361.5001250617
-0.8420920920920922 	300.0304741044815 	0.08826798079633305 	101361.0305406215
-0.8395895895895897 	300.0300708234979 	0.08710118406468753 	101360.5536619767
-0.8370870870870872 	300.029664945952 	0.08592548813389893 	101360.0737156873
-0.8345845845845846 	300.0292565364188 	0.0847407689944898 	101359.5907751278
-0.8320820820820823 	300.0288414452267 	0.08353700173254534 	101359.0999325852
-0.8295795795795798 	300.0284163857111 	0.08230657063056591 	101358.5973044888
-0.8270770770770772 	300.0279836964395 	0.08105550269404818 	101358.0856595782
-0.8245745745745746 	300.0275493602742 	0.07979835737287752 	101357.5720721444
-0.8220720720720721 	300.0271159569911 	0.07854109785010582 	101357.0595883497
-0.8195695695695699 	300.0266789052882 	0.07727222985557998 	101356.5427877197
-0.817067067067067 	300.0262310742972 	0.0759743640938122 	101356.0132403098
-0.8145645645645651 	300.0257711122718 	0.0746446248773743 	101355.4693532865
-0.8120620620620621 	300.0253060062805 	0.07330064310705023 	101354.9193917519
-0.8095595595595597 	300.0248443223182 	0.07196359795382021 	101354.3734816215
-0.8070570570570572 	300.0243869046477 	0.07063518804701222 	101353.8326146353
-0.8045545545545546 	300.0239250558681 	0.06929336327802767 	101353.2865031323
-0.8020520520520523 	300.023448716336 	0.06791301014365253 	101352.7232560399
-0.7995495495495494 	300.0229568273046 	0.06649193745599978 	101352.1416293867
-0.7970470470470474 	300.022459480417 	0.06505605038193495 	101351.5535602677
-0.7945445445445446 	300.0219692245041 	0.06363718708759901 	101350.9738831178
-0.7920420420420423 	300.021489384818 	0.06224347252621532 	101350.4065211165
-0.7895395395395397 	300.021010237117 	0.06084968267377781 	101349.8399700878
-0.7870370370370371 	300.02051676947 	0.05941724845727825 	101349.2564818861
-0.7845345345345348 	300.020001515185 	0.05792726802117716 	101348.6472368476
-0.7820320320320323 	300.0194715728094 	0.05639850495639823 	101348.0206369713
-0.7795295295295296 	300.0189437917239 	0.05487485308683255 	101347.3966062754
-0.7770270270270272 	300.0184318780781 	0.05339188883388683 	101346.7913432959
-0.7745245245245247 	300.0179356159784 	0.05194878397449145 	101346.204582199
-0.7720220220220222 	300.0174404198398 	0.05050706484451462 	101345.6190713215
-0.7695195195195199 	300.0169273736411 	0.04901694974757967 	101345.0124479572
-0.767017017017017 	300.0163864661508 	0.04745224194656044 	101344.3728852036
-0.7645145145145147 	300.0158238828222 	0.04582960079604839 	101343.7077071146
-0.7620120120120122 	300.0152585495459 	0.04419943641626378 	101343.0392949653
-0.7595095095095097 	300.0147104199305 	0.04261492041724264 	101342.3912359618
-0.7570070070070072 	300.0141882406717 	0.04109937998162008 	101341.7738607043
-0.7545045045045048 	300.0136842622734 	0.03963193166936644 	101341.1779963947
-0.7520020020020022 	300.0131784842833 	0.03815863603036362 	101340.5799919368
-0.7494994994994997 	300.0126494192929 	0.0366214538562457 	101339.9544462563
-0.7469969969969972 	300.0120853384317 	0.03498873727311557 	101339.2875022839
-0.7444944944944945 	300.0114903549582 	0.03327180604707404 	101338.5840343777
-0.7419919919919924 	300.0108826510476 	0.03152023578336725 	101337.8655461616
-0.7394894894894897 	300.0102861335051 	0.02979933358150508 	101337.1603021614
-0.7369869869869872 	300.0097199037573 	0.02816150782421801 	101336.4908784952
-0.7344844844844846 	300.0091904428276 	0.02662468025599052 	101335.8649271581
-0.7319819819819822 	300.0086893629356 	0.02516579837139298 	101335.2725216898
-0.7294794794794797 	300.0081968328014 	0.02372993520201115 	101334.6902108039
-0.7269769769769773 	300.0076885395347 	0.02224942450389559 	101334.0892501772
-0.7244744744744747 	300.0071433461824 	0.02066526561630226 	101333.4446556209
-0.721971971971972 	300.00654935864 	0.01894422667165804 	101332.7423738309
-0.7194694694694695 	300.0059070367324 	0.01708766885909332 	101331.9829577937
-0.7169669669669674 	300.0052289338464 	0.01513088299942721 	101331.1812569158
-0.7144644644644647 	300.0045365098151 	0.0131342113834991 	101330.3626464533
-0.711961961961962 	300.0038551385313 	0.01116920269310898 	101329.5571250006
-0.7094594594594597 	300.0032089273918 	0.00930436925419529 	101328.7931901106
-0.7069569569569573 	300.0026170748597 	0.007594821522529547 	101328.0935336279
-0.7044544544544545 	300.0020922844978 	0.006077381451336449 	101327.4731682904
-0.7019519519519523 	300.001640691634 	0.004770129347451171 	101326.9393420977
-0.6994494494494495 	300.001262719088 	0.003674730841772907 	101326.4925505366
-0.6969469469469471 	300.0009544131246 	0.002780195690914641 	101326.1281161067
-0.6944444444444446 	300.0007089047282 	0.002067040926424484 	101325.8379162752
-0.6919419419419421 	300.0005177544131 	0.001511149646653519 	101325.6119727859
-0.6894394394394396 	300.0003720443083 	0.001086925720447658 	101325.4397428696
-0.6869369369369374 	300.0002631709232 	0.0007695957922177959 	101325.3110556004
-0.6844344344344344 	300.0001833484572 	0.0005366845316724165 	101325.2167072897
-0.6819319319319321 	300.0001258702164 	0.0003687899365410946 	101325.1487701236
-0.6794294294294296 	300.0000851869253 	0.0002498273644977547 	101325.1006844217
-0.6769269269269272 	300.0000568607449 	0.0001669119016857403 	101325.0672045622
-0.6744244244244245 	300.0000374469811 	0.0001100259476093901 	101325.0442587778
-0.6719219219219222 	300.0000243415503 	7.158584470608297e-05 	101325.0287692157
-0.6694194194194195 	300.000015622933 	4.598724685630613e-05 	101325.0184645438
-0.6669169169169172 	300.0000099038531 	2.917903654035383e-05 	101325.0117051263
-0.6644144144144146 	300.0000062030578 	1.829213820202391e-05 	101325.0073312376
-0.661911911911912 	300.0000038397349 	1.133305883495972e-05 	101325.0045380698
-0.6594094094094097 	300.0000023497008 	6.941301125729515e-06 	101325.0027770244
-0.656906906906907 	300.0000014218132 	4.203987740316722e-06 	101325.0016804217
-0.6544044044044046 	300.000000850971 	2.518360211542459e-06 	101325.001005764
-0.6519019019019021 	300.0000005039075 	1.492502285521887e-06 	101325.0005955479
-0.6493993993993996 	300.0000002952996 	8.752864084101881e-07 	101325.0003489622
-0.6468968968968971 	300.0000001712829 	5.08067828053333e-07 	101325.0002023832
-0.6443943943943946 	300.0000000983247 	2.919528814656751e-07 	101325.0001161964
-0.6418918918918921 	300.000000055901 	1.661199703634378e-07 	101325.000066057
-0.6393893893893897 	300.0000000314787 	9.360921319559613e-08 	101325.0000371901
-0.6368868868868871 	300.0000000175364 	5.225170355242065e-08 	101325.0000207387
-0.6343843843843846 	300.0000000096903 	2.889521245670686e-08 	101325.0000114561
-0.6318818818818821 	300.0000000052618 	1.583385466691184e-08 	101325.0000062695
-0.6293793793793795 	300.0000000028868 	8.599146693090039e-09 	101325.0000033991
-0.6268768768768773 	300.000000001568 	4.629111314633752e-09 	101325.0000018252
-0.6243743743743745 	300.0000000008083 	2.471687121141407e-09 	101325.0000009701
-0.6218718718718721 	300.0000000004444 	1.307687459336955e-09 	101325.0000005098
-0.6193693693693696 	300.0000000001698 	6.880381912875919e-10 	101325.0000002642
-0.6168668668668671 	300.0000000000997 	3.576800429497201e-10 	101325.000000134
-0.6143643643643645 	300.0000000000756 	1.856243575007317e-10 	101325.0000000657
-0.6118618618618621 	300.000000000021 	9.365424100233507e-11 	101325.0000000303
-0.6093593593593596 	300.0000000000101 	4.780534656285599e-11 	101325.0000000119
-0.6068568568568571 	300.0000000000027 	2.253844385404451e-11 	101325.0000000025
-0.6043543543543546 	299.9999999999644 	1.068694720164626e-11 	101324.999999998
-0.6018518518518521 	299.9999999999691 	3.623274600451909e-12 	101324.9999999957
-0.5993493493493496 	299.9999999999512 	1.979884755036637e-12 	101324.9999999945
-0.5968468468468471 	299.9999999999577 	1.619048053218267e-12 	101324.9999999941
-0.5943443443443446 	299.9999999999951 	1.302274874169583e-12 	101324.9999999938
-0.591841841841842 	299.9999999999596 	2.253847938951237e-12 	101324.9999999937
-0.5893393393393397 	299.9999999999499 	1.268701445296881e-12 	101324.9999999935
-0.5868368368368371 	299.9999999999993 	2.516255223728104e-12 	101324.9999999932
-0.5843343343343346 	300.0000000000139 	2.795875056127639e-12 	101324.9999999931
-0.5818318318318321 	300.0000000000264 	2.464719235487508e-12 	101324.9999999934
-0.5793293293293297 	299.9999999999868 	2.282428086830447e-12 	101324.9999999935
-0.5768268268268271 	300.0000000000038 	2.090265624711122e-12 	101324.9999999934
-0.5743243243243245 	300.0000000000184 	1.324087659373662e-12 	101324.9999999932
-0.5718218218218221 	300.000000000019 	6.586955826487159e-13 	101324.9999999932
-0.5693193193193196 	300.0000000000387 	3.717388987141393e-13 	101324.999999993
-0.5668168168168171 	299.9999999999853 	9.267098770707341e-13 	101324.999999993
-0.5643143143143147 	299.9999999999512 	6.120988731625514e-13 	101324.999999993
-0.5618118118118121 	300.0000000000117 	1.818245143101907e-12 	101324.9999999931
-0.5593093093093094 	300.0000000000316 	1.016902749260966e-12 	101324.9999999933
-0.5568068068068072 	300.0000000000178 	2.507233631766497e-12 	101324.9999999932
-0.5543043043043046 	300.0000000000202 	1.935981410121702e-12 	101324.999999993
-0.551801801801802 	299.9999999999612 	2.800019561727781e-12 	101324.9999999932
-0.5492992992992995 	299.9999999999967 	1.535297095095353e-12 	101324.9999999935
-0.5467967967967969 	300.0000000000119 	2.530786954014043e-12 	101324.9999999935
-0.5442942942942947 	300.0000000000068 	2.149951069239429e-12 	101324.9999999933
-0.5417917917917919 	299.9999999999646 	3.844674553012368e-12 	101324.9999999932
-0.5392892892892895 	299.9999999999374 	2.083702563769995e-12 	101324.9999999932
-0.536786786786787 	299.9999999999565 	4.045615827982345e-12 	101324.9999999932
-0.5342842842842846 	299.9999999999614 	1.662754723854566e-12 	101324.9999999931
-0.531781781781782 	299.9999999999355 	4.530803499496802e-12 	101324.9999999932
-0.5292792792792794 	299.9999999999314 	1.932335561831066e-12 	101324.9999999931
-0.526776776776777 	299.9999999999175 	4.896888233287122e-12 	101324.9999999929
-0.5242742742742745 	299.9999999999783 	3.409691196687525e-12 	101324.9999999927
-0.521771771771772 	300.00000000002 	6.526440131477349e-12 	101324.9999999926
-0.5192692692692695 	299.9999999999642 	3.77628733300015e-12 	101324.9999999926
-0.516766766766767 	300.0000000000024 	6.237987337187578e-12 	101324.9999999928
-0.5142642642642645 	299.9999999999799 	3.82721584602106e-12 	101324.999999993
-0.511761761761762 	299.9999999999592 	5.100762968149766e-12 	101324.9999999931
-0.5092592592592596 	299.9999999999727 	2.698839274915978e-12 	101324.9999999931
-0.506756756756757 	299.9999999999429 	4.99720912757663e-12 	101324.9999999929
-0.5042542542542544 	299.999999999991 	1.971521855815304e-12 	101324.9999999927
-0.5017517517517521 	300.0000000000242 	3.971100455583858e-12 	101324.9999999924
-0.4992492492492494 	300.0000000000304 	1.025680512445221e-12 	101324.9999999924
-0.496746746746747 	299.9999999999884 	3.38881717228448e-12 	101324.9999999925
-0.4942442442442445 	299.9999999999525 	1.119831262100486e-12 	101324.9999999924
-0.4917417417417421 	299.9999999999475 	3.300779751414351e-12 	101324.9999999927
-0.4892392392392395 	299.9999999999606 	1.720283742685742e-12 	101324.999999993
-0.486736736736737 	299.9999999999627 	3.931788519196688e-12 	101324.9999999928
-0.4842342342342345 	299.9999999999322 	1.040493160867957e-12 	101324.9999999927
-0.481731731731732 	300.0000000000279 	2.603819352253531e-12 	101324.9999999928
-0.4792292292292296 	300.000000000018 	1.592315226390453e-12 	101324.9999999929
-0.4767267267267268 	299.9999999999537 	3.941778457456265e-12 	101324.9999999929
-0.4742242242242246 	299.9999999999933 	2.319872433241369e-12 	101324.9999999929
-0.471721721721722 	299.9999999999584 	3.741115338620311e-12 	101324.9999999927
-0.4692192192192195 	299.9999999999735 	1.791802341964228e-12 	101324.9999999927
-0.4667167167167169 	299.9999999999191 	2.682111277362265e-12 	101324.9999999927
-0.4642142142142145 	299.9999999999944 	1.241296074389418e-12 	101324.9999999926
-0.461711711711712 	300.0000000000131 	2.716260361459415e-12 	101324.9999999926
-0.4592092092092094 	300.0000000000103 	7.221077854720467e-13 	101324.9999999925
-0.456706706706707 	300.0000000000458 	2.397720316808868e-12 	101324.9999999924
-0.4542042042042045 	299.9999999999457 	1.277035596274919e-12 	101324.9999999925
-0.451701701701702 	299.9999999999582 	2.300877118176108e-12 	101324.9999999926
-0.4491991991991995 	299.9999999999627 	1.319806147788467e-12 	101324.9999999924
-0.4466966966966969 	299.9999999999534 	3.799553319947318e-12 	101324.9999999924
-0.4441941941941945 	299.999999999994 	2.207596052128442e-12 	101324.9999999922
-0.441691691691692 	299.9999999999621 	5.570532914337607e-12 	101324.9999999926
-0.4391891891891895 	299.999999999986 	2.056349188196622e-12 	101324.9999999929
-0.436686686686687 	299.9999999999702 	6.210545086250963e-12 	101324.999999993
-0.4341841841841846 	299.9999999999984 	1.541793534141054e-12 	101324.9999999931
-0.431681681681682 	299.9999999999586 	4.939679229401237e-12 	101324.9999999929
-0.4291791791791794 	299.9999999999205 	1.279605067056761e-12 	101324.9999999929
-0.426676676676677 	299.999999999926 	3.55309988012757e-12 	101324.999999993
-0.4241741741741744 	299.9999999999696 	1.22748298515547e-12 	101324.9999999928
-0.421671671671672 	300.000000000001 	3.326966866043065e-12 	101324.9999999929
-0.4191691691691694 	300.0000000000385 	2.119003239830525e-12 	101324.9999999927
-0.4166666666666669 	300.0000000000463 	4.248366045786647e-12 	101324.9999999924
-0.4141641641641645 	299.9999999999432 	3.884547333595459e-12 	101324.9999999921
-0.411661661661662 	300.0000000000033 	4.753700685958525e-12 	101324.9999999923
-0.4091591591591594 	300.000000000009 	3.536880917882267e-12 	101324.9999999922
-0.406656656656657 	299.9999999999505 	4.044221953745735e-12 	101324.9999999924
-0.4041541541541545 	300.0000000000117 	2.40849122974369e-12 	101324.9999999927
-0.401651651651652 	299.9999999999317 	4.43296095592883e-12 	101324.999999993
-0.3991491491491494 	300.0000000000036 	1.019452001813194e-12 	101324.9999999929
-0.396646646646647 	299.9999999999607 	4.791908734941496e-12 	101324.9999999931
-0.3941441441441444 	299.9999999999769 	1.467596544193681e-12 	101324.9999999929
-0.3916416416416419 	299.9999999999354 	4.23903934677549e-12 	101324.9999999928
-0.3891391391391395 	299.9999999999606 	8.811036848423453e-13 	101324.9999999926
-0.3866366366366368 	299.99999999996 	3.47562734011675e-12 	101324.9999999923
-0.3841341341341344 	300.0000000000001 	2.301645963036421e-12 	101324.9999999924
-0.381631631631632 	299.9999999999613 	3.220156030686199e-12 	101324.9999999924
-0.3791291291291294 	300.0000000000025 	2.599476755318489e-12 	101324.9999999923
-0.3766266266266269 	300.0000000000176 	2.885970245777027e-12 	101324.9999999925
-0.3741241241241244 	300.0000000000178 	3.590342025954813e-12 	101324.9999999925
-0.371621621621622 	300.0000000000147 	1.326867003635635e-12 	101324.9999999925
-0.3691191191191194 	300.0000000000007 	3.441184231164515e-12 	101324.9999999922
-0.366616616616617 	300.0000000000049 	1.051600101741652e-12 	101324.9999999923
-0.3641141141141143 	299.999999999977 	3.517335144523486e-12 	101324.9999999922
-0.3616116116116119 	299.9999999999524 	2.012809302854833e-12 	101324.9999999922
-0.3591091091091095 	299.9999999999876 	3.019265682762474e-12 	101324.9999999923
-0.356606606606607 	299.9999999999896 	2.12644954803886e-12 	101324.999999992
-0.3541041041041044 	299.9999999999837 	2.05667946448039e-12 	101324.9999999917
-0.3516016016016019 	300.0000000000042 	2.74545159153849e-12 	101324.9999999916
-0.3490990990990994 	299.9999999999841 	1.277932811948912e-12 	101324.9999999918
-0.346596596596597 	300.0000000000332 	3.467392172511469e-12 	101324.9999999919
-0.3440940940940944 	300.000000000041 	1.768853253540571e-12 	101324.999999992
-0.3415915915915919 	300.0000000000177 	4.048176519463997e-12 	101324.9999999919
-0.3390890890890895 	299.9999999999837 	2.441356155773432e-12 	101324.9999999921
-0.3365865865865869 	300.000000000017 	3.541538396468837e-12 	101324.9999999921
-0.3340840840840844 	300.0000000000013 	1.810693854495646e-12 	101324.9999999921
-0.3315815815815819 	300.0000000000218 	2.284692904895232e-12 	101324.9999999919
-0.3290790790790794 	300.0000000000132 	1.624908026932615e-12 	101324.9999999917
-0.3265765765765769 	299.9999999999391 	2.821573972551197e-12 	101324.999999992
-0.3240740740740744 	299.9999999999985 	2.111198815663319e-12 	101324.9999999917
-0.3215715715715718 	300.0000000000061 	4.421434028263774e-12 	101324.9999999913
-0.3190690690690695 	299.9999999999341 	3.02262868503659e-12 	101324.9999999914
-0.3165665665665668 	299.9999999999882 	4.901079216416869e-12 	101324.9999999917
-0.3140640640640644 	299.9999999999979 	2.673553711765328e-12 	101324.9999999919
-0.311561561561562 	299.9999999999348 	5.526527739957245e-12 	101324.9999999922
-0.3090590590590593 	299.9999999999928 	1.117439634131463e-12 	101324.9999999921
-0.3065565565565568 	300.000000000003 	5.95209395220705e-12 	101324.9999999923
-0.3040540540540545 	300.0000000000119 	1.312068769177686e-12 	101324.9999999923
-0.3015515515515518 	300.0000000000251 	5.910135642608801e-12 	101324.9999999924
-0.2990490490490494 	299.9999999999498 	2.282701020782925e-12 	101324.9999999925
-0.2965465465465469 	299.9999999999847 	4.157072038892856e-12 	101324.9999999923
-0.2940440440440444 	299.9999999999969 	2.637437949228876e-12 	101324.9999999923
-0.2915415415415418 	300.0000000000015 	3.355128606777829e-12 	101324.9999999922
-0.2890390390390395 	300.0000000000014 	3.45977388486959e-12 	101324.9999999922
-0.2865365365365368 	299.9999999999781 	2.773133257758888e-12 	101324.9999999919
-0.2840340340340343 	299.9999999999995 	4.134209044195218e-12 	101324.9999999917
-0.2815315315315318 	299.9999999999367 	2.123649294236876e-12 	101324.999999992
-0.2790290290290295 	299.999999999964 	3.650981015528227e-12 	101324.9999999919
-0.2765265265265269 	300.000000000009 	3.178324202264635e-12 	101324.9999999917
-0.2740240240240244 	300.0000000000266 	3.760385841373306e-12 	101324.9999999915
-0.2715215215215219 	300.000000000011 	4.032030227699314e-12 	101324.9999999917
-0.2690190190190194 	299.9999999999489 	3.7627397737474e-12 	101324.9999999921
-0.2665165165165169 	299.999999999996 	4.524742246439843e-12 	101324.9999999922
-0.2640140140140144 	299.9999999999748 	3.256932087295199e-12 	101324.9999999923
-0.2615115115115119 	299.9999999999982 	5.415646243733174e-12 	101324.9999999921
-0.2590090090090094 	299.9999999999449 	3.254757997174036e-12 	101324.9999999922
-0.2565065065065068 	299.9999999999931 	4.672451060829399e-12 	101324.9999999919
-0.2540040040040044 	299.9999999999986 	4.445276228073389e-12 	101324.9999999922
-0.2515015015015019 	300.0000000000328 	3.759502806986135e-12 	101324.9999999923
-0.2489989989989994 	300.0000000000376 	5.155301921635939e-12 	101324.9999999922
-0.2464964964964968 	299.9999999999934 	2.456414031554833e-12 	101324.9999999923
-0.2439939939939944 	299.9999999999983 	5.326175125810833e-12 	101324.9999999924
-0.2414914914914919 	299.9999999999763 	1.23846983171304e-12 	101324.9999999923
-0.2389889889889893 	300.0000000000026 	5.520709669931557e-12 	101324.9999999923
-0.2364864864864869 	300.0000000000198 	2.62425151884886e-12 	101324.9999999924
-0.2339839839839843 	299.9999999999375 	6.834372983193915e-12 	101324.9999999922
-0.2314814814814819 	299.999999999983 	2.513347556765089e-12 	101324.9999999921
-0.2289789789789792 	299.9999999999328 	5.80690685692277e-12 	101324.9999999924
-0.2264764764764769 	299.9999999999538 	3.100533619121852e-12 	101324.9999999925
-0.2239739739739743 	299.9999999999683 	4.780831437764612e-12 	101324.9999999927
-0.2214714714714718 	299.9999999999483 	3.89031571586128e-12 	101324.9999999926
-0.2189689689689693 	299.9999999999778 	3.435030762089753e-12 	101324.9999999927
-0.2164664664664669 	299.9999999999826 	4.452796402357267e-12 	101324.9999999924
-0.2139639639639643 	299.9999999999415 	2.553165114935463e-12 	101324.9999999926
-0.2114614614614618 	299.9999999999782 	3.860324090995758e-12 	101324.9999999927
-0.2089589589589593 	299.999999999993 	3.835178559882699e-12 	101324.9999999925
-0.2064564564564568 	299.9999999999917 	3.853439935788768e-12 	101324.9999999925
-0.2039539539539543 	299.9999999999236 	4.045135161688068e-12 	101324.9999999926
-0.2014514514514518 	299.9999999999558 	1.225700288209122e-12 	101324.9999999921
-0.1989489489489494 	299.9999999999766 	3.834497954669762e-12 	101324.9999999923
-0.1964464464464468 	299.9999999999938 	1.064455113944908e-12 	101324.9999999927
-0.1939439439439443 	299.9999999999873 	4.591348972237917e-12 	101324.9999999929
-0.1914414414414418 	299.9999999999304 	2.445259354092056e-12 	101324.9999999929
-0.1889389389389393 	300.0000000000053 	3.725557553689423e-12 	101324.9999999933
-0.1864364364364368 	300.0000000000318 	2.665031580589389e-12 	101324.999999993
-0.1839339339339343 	299.9999999999783 	3.769635642760664e-12 	101324.9999999928
-0.1814314314314318 	299.9999999999972 	3.074975526560751e-12 	101324.9999999928
-0.1789289289289293 	299.9999999999223 	3.968625101771631e-12 	101324.9999999928
-0.1764264264264268 	299.9999999999809 	2.705736411953523e-12 	101324.9999999929
-0.1739239239239243 	299.9999999999154 	4.387502314878476e-12 	101324.9999999929
-0.1714214214214218 	299.9999999999869 	1.14983722428097e-12 	101324.9999999927
-0.1689189189189193 	299.9999999999636 	4.86267489049753e-12 	101324.9999999926
-0.1664164164164168 	300.0000000000074 	8.079519418433219e-13 	101324.9999999928
-0.1639139139139143 	299.9999999999924 	5.970936170317272e-12 	101324.9999999929
-0.1614114114114118 	300.0000000000287 	1.741846966853423e-12 	101324.9999999928
-0.1589089089089093 	299.9999999999956 	8.250816076921965e-12 	101324.9999999926
-0.1564064064064068 	299.9999999999901 	3.087762240364109e-12 	101324.9999999925
-0.1539039039039043 	299.999999999994 	8.53870047499887e-12 	101324.9999999926
-0.1514014014014018 	300.000000000022 	2.415717686462726e-12 	101324.9999999927
-0.1488988988988993 	299.9999999999978 	7.477645284850907e-12 	101324.9999999926
-0.1463963963963968 	300.0000000000047 	1.402533072187748e-12 	101324.9999999926
-0.1438938938938943 	299.9999999999595 	6.956217716311684e-12 	101324.9999999927
-0.1413913913913918 	299.9999999999389 	1.574220524783553e-12 	101324.9999999928
-0.1388888888888893 	299.9999999999839 	5.434616641866137e-12 	101324.999999993
-0.1363863863863868 	299.9999999999113 	1.884775079297452e-12 	101324.9999999931
-0.1338838838838843 	299.9999999999347 	4.260278767265359e-12 	101324.9999999931
-0.1313813813813818 	299.9999999999911 	2.721330606374999e-12 	101324.9999999931
-0.1288788788788793 	299.9999999999752 	4.684875921260155e-12 	101324.9999999933
-0.1263763763763768 	299.9999999999729 	2.405490786093734e-12 	101324.9999999935
-0.1238738738738743 	299.9999999999372 	4.572410607896087e-12 	101324.9999999937
-0.1213713713713717 	299.9999999999793 	1.200375774603866e-12 	101324.9999999933
-0.1188688688688693 	300.000000000006 	5.238021807691845e-12 	101324.9999999934
-0.1163663663663668 	299.9999999999207 	9.706799273984474e-13 	101324.9999999932
-0.1138638638638643 	299.9999999999948 	5.634738012581882e-12 	101324.9999999931
-0.1113613613613618 	299.9999999999887 	7.058926673695384e-13 	101324.999999993
-0.1088588588588592 	299.9999999999816 	5.585507891434652e-12 	101324.9999999931
-0.1063563563563568 	299.9999999999549 	3.834041423326066e-13 	101324.9999999929
-0.1038538538538543 	299.9999999999798 	4.330053887851496e-12 	101324.999999993
-0.1013513513513517 	300.0000000000162 	1.25689094834569e-12 	101324.9999999929
-0.09884884884884926 	299.9999999999439 	4.720959719025567e-12 	101324.999999993
-0.09634634634634676 	299.9999999999164 	1.920014185588241e-12 	101324.9999999931
-0.09384384384384425 	299.9999999999395 	3.401813254663787e-12 	101324.9999999929
-0.09134134134134177 	300.0000000000204 	1.455869669978388e-12 	101324.9999999931
-0.08883883883883925 	300.000000000005 	2.726818155595809e-12 	101324.9999999932
-0.08633633633633674 	299.9999999999619 	1.40308365186251e-12 	101324.9999999937
-0.08383383383383426 	300.0000000000078 	1.20314492748287e-12 	101324.9999999939
-0.08133133133133173 	299.9999999999718 	8.864687626069754e-13 	101324.9999999939
-0.07882882882882926 	299.9999999999069 	6.075248634663547e-14 	101324.9999999939
-0.07632632632632676 	299.9999999999652 	1.928889539691979e-13 	101324.9999999939
-0.07382382382382424 	299.9999999999126 	1.099844983394675e-13 	101324.9999999937
-0.07132132132132173 	300.0000000000155 	5.714686438161108e-14 	101324.9999999937
-0.06881881881881925 	299.9999999999724 	1.993979621088133e-13 	101324.9999999934
-0.06631631631631671 	299.9999999999144 	1.671917428839839e-13 	101324.9999999933
-0.06381381381381425 	299.9999999999636 	3.35819796480991e-13 	101324.9999999934
-0.06131131131131173 	299.9999999999634 	2.77465680807417e-13 	101324.9999999935
-0.05880880880880923 	299.9999999999281 	1.733734416515783e-13 	101324.9999999933
-0.05630630630630672 	299.9999999999744 	3.219803028537835e-13 	101324.9999999933
-0.05380380380380424 	300.0000000000147 	2.24308181054428e-13 	101324.9999999934
-0.05130130130130173 	300.0000000000101 	1.091944996026447e-12 	101324.9999999935
-0.04879879879879922 	299.9999999999507 	1.739645199582085e-12 	101324.9999999933
-0.04629629629629672 	299.9999999999446 	1.468726016868235e-12 	101324.9999999932
-0.04379379379379422 	299.9999999999274 	1.790840178840739e-12 	101324.9999999932
-0.04129129129129173 	299.9999999999835 	1.203800546332334e-12 	101324.999999993
-0.03878878878878922 	299.9999999999872 	1.983971218047578e-12 	101324.9999999929
-0.03628628628628671 	299.9999999999866 	1.863485326892245e-12 	101324.9999999931
-0.03378378378378422 	299.999999999937 	2.145182795299666e-12 	101324.9999999929
-0.03128128128128172 	299.9999999999682 	9.160637165226034e-14 	101324.9999999928
-0.02877877877877922 	299.9999999999694 	3.816292632234572e-13 	101324.9999999927
-0.0262762762762767 	299.9999999999184 	8.75841936361439e-14 	101324.999999993
-0.02377377377377422 	300.0000000000157 	1.629046698300486e-13 	101324.9999999931
-0.0212712712712717 	299.9999999999181 	3.080562560480425e-13 	101324.9999999928
-0.01876876876876921 	299.9999999999715 	7.063295688016263e-13 	101324.9999999927
-0.01626626626626671 	300.0000000000105 	4.05984205122365e-14 	101324.9999999924
-0.0137637637637642 	299.9999999999733 	1.146495552775071e-13 	101324.9999999928
-0.0112612612612617 	300.0000000000144 	6.427729982387097e-13 	101324.9999999926
-0.008758758758759198 	299.9999999999968 	4.182191637961988e-13 	101324.9999999926
-0.006256256256256697 	299.9999999999022 	5.807482737138887e-13 	101324.9999999927
-0.003753753753754195 	299.9999999999606 	2.022118436240525e-13 	101324.9999999924
-0.001251251251251693 	299.9999999999413 	1.483120148786555e-13 	101324.9999999922
0.00125125125125081 	299.9999999999609 	6.283112726396573e-13 	101324.999999992
0.003753753753753312 	299.9999999999674 	1.070435638195971e-12 	101324.9999999919
0.006256256256255817 	299.9999999999077 	1.874734331531806e-12 	101324.9999999923
0.008758758758758317 	299.9999999999851 	2.084518667120422e-12 	101324.9999999923
0.01126126126126082 	300.0000000000019 	2.366813995563285e-12 	101324.9999999923
0.01376376376376332 	299.9999999999753 	2.113214449598774e-12 	101324.9999999926
0.01626626626626582 	300.0000000000082 	1.729319426914232e-12 	101324.9999999925
0.01876876876876833 	299.9999999999598 	1.463485689072904e-12 	101324.9999999927
0.02127127127127083 	299.9999999999694 	1.892959732504884e-12 	101324.9999999929
0.02377377377377332 	299.9999999999949 	2.130086523062931e-12 	101324.9999999928
0.02627627627627583 	299.9999999999193 	2.09989814887499e-12 	101324.9999999928
0.02877877877877833 	300.0000000000085 	2.382584780693134e-12 	101324.9999999925
0.03128128128128083 	299.9999999999597 	1.881278017791275e-12 	101324.9999999925
0.03378378378378333 	299.9999999999175 	2.319575640571424e-12 	101324.9999999925
0.03628628628628584 	299.9999999999756 	1.763706147281458e-12 	101324.9999999926
0.03878878878878834 	299.999999999986 	1.604767960895152e-12 	101324.9999999925
0.04129129129129084 	299.9999999999819 	1.343242852044557e-12 	101324.9999999924
0.04379379379379333 	299.9999999999552 	1.1455929348375e-12 	101324.9999999926
0.04629629629629585 	299.9999999999046 	2.860483183294386e-13 	101324.9999999923
0.04879879879879834 	299.9999999999661 	6.0403832971668e-13 	101324.999999992
0.05130130130130085 	300.0000000000086 	1.073718916358838e-13 	101324.9999999917
0.05380380380380335 	300.0000000000155 	6.109076075629979e-14 	101324.9999999921
0.05630630630630584 	299.9999999999939 	4.584137837460961e-13 	101324.9999999922
0.05880880880880836 	299.9999999999305 	2.286594560435141e-14 	101324.9999999926
0.06131131131131085 	299.9999999999719 	2.532644202145529e-13 	101324.9999999925
0.06381381381381336 	299.9999999999679 	3.648619115582805e-13 	101324.9999999929
0.06631631631631586 	299.999999999911 	8.66202530426174e-13 	101324.9999999931
0.06881881881881835 	299.9999999999628 	2.39950386238907e-12 	101324.9999999933
0.07132132132132088 	299.9999999999893 	2.231901506582305e-12 	101324.9999999933
0.07382382382382337 	299.9999999999142 	3.030150887307364e-12 	101324.999999993
0.07632632632632587 	299.9999999999744 	3.357135057209522e-12 	101324.999999993
0.07882882882882837 	299.999999999947 	3.022144092751029e-12 	101324.9999999929
0.08133133133133086 	299.9999999999835 	3.544186179386425e-12 	101324.999999993
0.08383383383383337 	299.9999999999881 	3.451340348465184e-12 	101324.9999999926
0.08633633633633589 	299.9999999999201 	4.413131676214839e-12 	101324.9999999927
0.08883883883883838 	300.0000000000053 	5.857925959365544e-12 	101324.9999999925
0.09134134134134086 	299.9999999999831 	5.398814351623172e-12 	101324.9999999927
0.09384384384384339 	299.9999999999122 	5.288666955749798e-12 	101324.9999999927
0.09634634634634588 	299.9999999999691 	4.603823876696854e-12 	101324.9999999926
0.09884884884884838 	299.9999999999799 	3.971802343618517e-12 	101324.9999999925
0.1013513513513509 	300.0000000000154 	4.108157779993515e-12 	101324.9999999922
0.1038538538538534 	299.9999999999625 	4.294450098796269e-12 	101324.9999999923
0.1063563563563559 	300.0000000000024 	4.548900075172844e-12 	101324.9999999924
0.1088588588588584 	300.0000000000223 	3.788442658869336e-12 	101324.9999999922
0.1113613613613609 	299.9999999999366 	3.597159096208564e-12 	101324.9999999921
0.1138638638638634 	299.9999999999506 	2.609858107143322e-12 	101324.9999999921
0.1163663663663659 	299.9999999999578 	2.511184133573831e-12 	101324.9999999921
0.1188688688688684 	299.9999999999833 	2.362486099293457e-12 	101324.9999999923
0.1213713713713709 	300.0000000000053 	1.486945213606782e-12 	101324.9999999925
0.1238738738738734 	299.9999999999371 	1.783430299303192e-12 	101324.9999999927
0.1263763763763759 	299.9999999999865 	1.087449467367668e-12 	101324.9999999928
0.1288788788788784 	299.9999999999875 	1.659773720770404e-12 	101324.9999999929
0.1313813813813809 	299.9999999999829 	2.054037546949048e-12 	101324.9999999927
0.1338838838838834 	299.9999999999771 	2.688346966843756e-12 	101324.9999999923
0.1363863863863859 	300.0000000000123 	2.661349158775613e-12 	101324.9999999923
0.1388888888888884 	300.0000000000322 	2.644589424153556e-12 	101324.9999999922
0.1413913913913909 	300.0000000000057 	1.986131226766805e-12 	101324.9999999924
0.1438938938938934 	299.9999999999946 	2.451383944627881e-12 	101324.9999999924
0.1463963963963959 	299.999999999966 	1.557748568257302e-12 	101324.9999999925
0.1488988988988985 	299.9999999999264 	2.88480196762562e-12 	101324.9999999927
0.1514014014014009 	299.9999999999736 	1.469568419717761e-12 	101324.9999999927
0.1539039039039035 	299.9999999999685 	3.392637430898307e-12 	101324.9999999926
0.1564064064064059 	299.9999999999421 	1.047731356212101e-12 	101324.9999999927
0.1589089089089084 	299.9999999999786 	4.029535859532987e-12 	101324.9999999926
0.1614114114114109 	299.9999999999748 	1.613835744647152e-12 	101324.9999999929
0.1639139139139134 	299.9999999999238 	3.411749764950799e-12 	101324.9999999925
0.166416416416416 	300.0000000000051 	2.524351817158138e-12 	101324.9999999927
0.1689189189189185 	300.0000000000257 	2.360577402358484e-12 	101324.9999999928
0.1714214214214209 	300.0000000000034 	2.739389102076758e-12 	101324.999999993
0.1739239239239235 	299.9999999999899 	1.277118057845013e-12 	101324.9999999929
0.1764264264264259 	299.9999999999761 	3.665362198451381e-12 	101324.9999999926
0.1789289289289284 	300.0000000000058 	1.074933730101195e-12 	101324.9999999923
0.181431431431431 	299.9999999999701 	2.866707660615613e-12 	101324.9999999925
0.1839339339339334 	299.9999999999715 	8.099189526045619e-13 	101324.9999999924
0.186436436436436 	299.9999999999428 	2.06282853408917e-12 	101324.9999999923
0.1889389389389385 	299.9999999999807 	1.31116590093761e-12 	101324.9999999922
0.191441441441441 	299.9999999999766 	1.207893793124173e-12 	101324.9999999922
0.1939439439439434 	299.9999999999347 	2.810525984118338e-12 	101324.9999999921
0.196446446446446 	299.9999999999563 	1.680641636374819e-12 	101324.999999992
0.1989489489489485 	299.9999999999693 	4.627163614703622e-12 	101324.999999992
0.2014514514514509 	299.999999999988 	2.515814723362755e-12 	101324.9999999919
0.2039539539539535 	299.9999999999948 	4.381314559346098e-12 	101324.9999999923
0.2064564564564559 	299.9999999999607 	3.029893831407536e-12 	101324.9999999924
0.2089589589589585 	299.9999999999882 	2.744635076437879e-12 	101324.9999999925
0.211461461461461 	299.9999999999423 	2.541015048290438e-12 	101324.9999999927
0.2139639639639635 	299.9999999999807 	2.371054183911979e-12 	101324.9999999927
0.2164664664664659 	299.9999999999982 	3.664347758530839e-12 	101324.9999999927
0.2189689689689684 	299.9999999999989 	1.753843166491073e-12 	101324.9999999927
0.221471471471471 	299.9999999999948 	4.411212982390972e-12 	101324.9999999928
0.2239739739739735 	299.9999999999654 	3.091786576831963e-12 	101324.9999999927
0.226476476476476 	299.9999999999832 	5.234417980926494e-12 	101324.9999999926
0.2289789789789785 	299.9999999999918 	3.998854491727894e-12 	101324.9999999926
0.231481481481481 	299.9999999999893 	3.590033346297066e-12 	101324.9999999929
0.2339839839839835 	299.9999999999871 	3.680794420714001e-12 	101324.9999999929
0.236486486486486 	300.000000000023 	3.057322003916001e-12 	101324.9999999927
0.2389889889889885 	300.0000000000043 	3.919095680083589e-12 	101324.9999999924
0.241491491491491 	299.999999999933 	2.408445711947324e-12 	101324.9999999924
0.2439939939939935 	299.9999999999814 	5.427258639677021e-12 	101324.9999999926
0.246496496496496 	299.9999999999931 	3.093765194367454e-12 	101324.9999999923
0.2489989989989985 	300.0000000000308 	4.437943511428074e-12 	101324.9999999921
0.251501501501501 	300.0000000000267 	3.829869312408725e-12 	101324.9999999922
0.2540040040040035 	299.9999999999935 	3.370131500725237e-12 	101324.9999999923
0.256506506506506 	300.0000000000217 	3.59840919744718e-12 	101324.9999999924
0.2590090090090086 	299.9999999999342 	1.404187935029603e-12 	101324.9999999927
0.261511511511511 	300 	3.614969419135205e-12 	101324.9999999926
0.2640140140140135 	299.9999999999942 	1.496206844085255e-12 	101324.9999999927
0.2665165165165161 	299.9999999999436 	3.599223358961719e-12 	101324.9999999925
0.2690190190190185 	300.0000000000065 	2.615614757513466e-12 	101324.9999999922
0.271521521521521 	300.0000000000142 	3.028705582105943e-12 	101324.9999999922
0.2740240240240235 	300.0000000000168 	3.150261957557995e-12 	101324.9999999922
0.276526526526526 	300.0000000000083 	2.22102738832945e-12 	101324.9999999921
0.2790290290290286 	299.9999999999548 	3.208678941101024e-12 	101324.9999999924
0.281531531531531 	299.9999999999368 	2.020907124355435e-12 	101324.9999999921
0.2840340340340335 	299.9999999999843 	4.305524047276478e-12 	101324.9999999922
0.2865365365365361 	299.9999999999691 	2.551783553201766e-12 	101324.9999999923
0.2890390390390385 	299.9999999999979 	2.944756414193043e-12 	101324.9999999922
0.291541541541541 	299.9999999999986 	2.198969699211626e-12 	101324.9999999922
0.2940440440440436 	299.9999999999932 	1.584771838508017e-12 	101324.9999999921
0.296546546546546 	299.9999999999952 	2.971187819264046e-12 	101324.9999999922
0.2990490490490486 	299.999999999953 	1.261108866520547e-12 	101324.9999999922
0.3015515515515511 	300.0000000000287 	4.996864297764763e-12 	101324.9999999921
0.3040540540540535 	299.9999999999943 	1.898468898983508e-12 	101324.999999992
0.3065565565565562 	299.9999999999968 	4.615251863521877e-12 	101324.9999999916
0.3090590590590585 	299.9999999999898 	1.357222503029071e-12 	101324.9999999912
0.3115615615615611 	299.9999999999533 	4.050529477401444e-12 	101324.999999991
0.3140640640640635 	300.0000000000066 	1.08827755195343e-12 	101324.9999999909
0.316566566566566 	299.9999999999936 	3.929146916584959e-12 	101324.9999999908
0.3190690690690687 	299.9999999999625 	2.211304978226524e-12 	101324.9999999911
0.3215715715715711 	300.0000000000092 	4.344216087500355e-12 	101324.9999999913
0.3240740740740735 	299.9999999999963 	2.53526554712474e-12 	101324.9999999915
0.326576576576576 	299.9999999999164 	4.140425971712632e-12 	101324.9999999917
0.3290790790790786 	300.0000000000044 	2.963159240808346e-12 	101324.9999999916
0.3315815815815811 	300.0000000000264 	3.510040507117138e-12 	101324.9999999919
0.3340840840840836 	299.9999999999895 	2.833709707890693e-12 	101324.9999999919
0.3365865865865861 	300.0000000000429 	3.587345623860069e-12 	101324.9999999921
0.3390890890890886 	300.0000000000388 	2.205090487348675e-12 	101324.999999992
0.3415915915915911 	299.9999999999991 	2.783001969870317e-12 	101324.999999992
0.3440940940940935 	299.9999999999636 	1.088877529280786e-12 	101324.9999999923
0.3465965965965962 	300.0000000000331 	2.316794446514449e-12 	101324.9999999919
0.3490990990990985 	300.0000000000255 	2.911029277982392e-13 	101324.9999999918
0.3516016016016011 	299.9999999999862 	6.259214767883135e-13 	101324.9999999921
0.3541041041041035 	300.0000000000043 	3.920931257126033e-13 	101324.9999999922
0.3566066066066061 	299.9999999999673 	6.111631409837949e-13 	101324.9999999922
0.3591091091091085 	299.9999999999351 	7.68890725514493e-13 	101324.9999999922
0.3616116116116112 	299.9999999999514 	1.745761657489894e-12 	101324.9999999925
0.3641141141141137 	299.9999999999442 	1.780651892208204e-12 	101324.9999999925
0.3666166166166161 	299.9999999999345 	1.874862642078157e-12 	101324.9999999927
0.3691191191191185 	300.0000000000273 	3.564057984773536e-12 	101324.9999999926
0.371621621621621 	300.000000000012 	1.394198150783617e-12 	101324.9999999925
0.3741241241241237 	300.0000000000368 	3.424225506127907e-12 	101324.9999999925
0.3766266266266261 	300.0000000000241 	4.471249259401698e-13 	101324.9999999924
0.3791291291291286 	299.9999999999889 	2.026578457643684e-12 	101324.999999992
0.3816316316316311 	299.9999999999317 	9.945187541051711e-13 	101324.9999999916
0.3841341341341336 	300.0000000000068 	1.855981375914288e-12 	101324.9999999913
0.3866366366366362 	299.9999999999966 	4.74288084777589e-13 	101324.999999991
0.3891391391391387 	299.9999999999642 	1.454944589246057e-12 	101324.9999999911
0.391641641641641 	299.9999999999916 	4.734513703148302e-13 	101324.9999999912
0.3941441441441436 	300.0000000000013 	1.228989235171692e-12 	101324.9999999916
0.3966466466466462 	299.9999999999937 	5.453672700637058e-13 	101324.9999999919
0.3991491491491486 	299.9999999999536 	1.581497765361486e-12 	101324.9999999919
0.4016516516516512 	299.9999999999296 	8.160502403383066e-13 	101324.999999992
0.4041541541541536 	299.9999999999615 	1.644787159138721e-12 	101324.9999999917
0.4066566566566561 	299.9999999999555 	8.99975167048284e-13 	101324.9999999918
0.4091591591591587 	299.9999999999887 	8.154760572259658e-13 	101324.9999999919
0.4116616616616612 	299.9999999999994 	1.162298515703516e-12 	101324.9999999918
0.4141641641641635 	300.0000000000329 	5.767694392931659e-13 	101324.9999999917
0.4166666666666662 	299.9999999999985 	7.414510099568496e-13 	101324.9999999915
0.4191691691691687 	299.9999999999532 	1.615261865851121e-12 	101324.9999999916
0.421671671671671 	300.0000000000063 	1.323062466630189e-12 	101324.9999999917
0.4241741741741737 	299.9999999999802 	2.678229868876908e-12 	101324.9999999919
0.4266766766766761 	299.9999999999599 	2.431013903166453e-12 	101324.9999999917
0.4291791791791785 	300.0000000000171 	2.681650651058813e-12 	101324.9999999918
0.4316816816816812 	300.0000000000103 	3.28905974449655e-12 	101324.9999999918
0.4341841841841836 	299.9999999999876 	2.406873287033213e-12 	101324.9999999918
0.4366866866866862 	299.9999999999306 	2.288395995610454e-12 	101324.9999999919
0.4391891891891885 	299.9999999999902 	1.293753247868512e-12 	101324.9999999921
0.4416916916916913 	299.9999999999884 	1.082824250572257e-12 	101324.9999999923
0.4441941941941936 	299.9999999999937 	1.804888207348818e-12 	101324.9999999922
0.4466966966966961 	299.9999999999307 	1.23577007631957e-12 	101324.9999999921
0.4491991991991987 	299.9999999999794 	2.15670138008846e-12 	101324.999999992
0.4517017017017012 	299.9999999999796 	2.16092341018471e-12 	101324.9999999918
0.4542042042042035 	299.9999999999927 	1.910005305003708e-12 	101324.9999999917
0.4567067067067062 	299.9999999999971 	2.532396474859153e-12 	101324.9999999918
0.4592092092092087 	299.9999999999403 	1.946909059978397e-12 	101324.9999999921
0.4617117117117112 	300.0000000000184 	1.965534786478533e-12 	101324.9999999923
0.4642142142142137 	299.9999999999682 	1.74140541345542e-12 	101324.9999999925
0.4667167167167162 	299.9999999999938 	1.901820008167532e-12 	101324.9999999924
0.4692192192192187 	299.9999999999645 	2.454887358652431e-12 	101324.9999999924
0.4717217217217212 	300.0000000000103 	2.921763836231931e-12 	101324.9999999924
0.4742242242242236 	299.9999999999637 	3.391656178883083e-12 	101324.9999999921
0.4767267267267262 	299.9999999999782 	3.158958251336022e-12 	101324.9999999919
0.4792292292292287 	300.0000000000146 	3.19780272951093e-12 	101324.9999999921
0.4817317317317312 	300.0000000000274 	2.960351445255939e-12 	101324.9999999922
0.4842342342342336 	299.999999999987 	2.731603209152853e-12 	101324.9999999921
0.4867367367367362 	299.9999999999607 	2.899075325494385e-12 	101324.9999999921
0.4892392392392387 	300.0000000000226 	1.135005576068729e-12 	101324.9999999923
0.4917417417417412 	300.0000000000035 	2.014967173569127e-12 	101324.9999999925
0.4942442442442437 	299.9999999999249 	8.954108405813525e-13 	101324.9999999926
0.4967467467467462 	299.9999999999442 	2.030417990958268e-12 	101324.9999999925
0.4992492492492487 	299.9999999999354 	5.641301558231031e-13 	101324.9999999924
0.5017517517517511 	299.9999999999617 	1.248051777700091e-12 	101324.9999999922
0.5042542542542537 	299.999999999969 	6.199690173106407e-13 	101324.9999999922
0.5067567567567562 	299.9999999999524 	1.159702090533613e-12 	101324.9999999923
0.5092592592592589 	299.9999999999725 	1.613720857897995e-12 	101324.9999999924
0.5117617617617611 	299.9999999999662 	9.102850304488008e-13 	101324.9999999924
0.5142642642642637 	299.9999999999891 	2.387705645238915e-12 	101324.9999999921
0.5167667667667663 	299.9999999999775 	1.601853107326908e-12 	101324.9999999918
0.5192692692692688 	299.999999999936 	3.695242153748631e-12 	101324.9999999919
0.5217717717717714 	299.999999999955 	2.603330813028295e-12 	101324.9999999918
0.5242742742742736 	299.9999999999558 	3.563139013976146e-12 	101324.9999999918
0.5267767767767763 	299.999999999967 	1.854119022306088e-12 	101324.9999999919
0.5292792792792789 	299.9999999999503 	2.706750845827804e-12 	101324.999999992
0.5317817817817813 	299.9999999999268 	8.834203269305405e-13 	101324.9999999922
0.5342842842842837 	300.0000000000167 	1.669076031365122e-12 	101324.9999999924
0.5367867867867864 	300.0000000000036 	9.18377585397834e-13 	101324.9999999923
0.5392892892892888 	299.9999999999666 	1.551186670050905e-12 	101324.9999999923
0.5417917917917912 	300.0000000000006 	5.386379701300799e-13 	101324.9999999922
0.5442942942942938 	299.9999999999857 	1.679972249746441e-12 	101324.9999999924
0.5467967967967964 	299.9999999999652 	1.13307888531695e-12 	101324.9999999924
0.5492992992992988 	299.9999999999563 	1.903093237865418e-12 	101324.9999999921
0.5518018018018012 	299.9999999999505 	8.329245049959268e-13 	101324.9999999921
0.5543043043043039 	300.0000000000161 	1.880820426254673e-12 	101324.9999999922
0.5568068068068063 	299.9999999999912 	1.705036217616143e-12 	101324.9999999919
0.5593093093093087 	299.9999999999244 	2.731946889343812e-12 	101324.9999999917
0.5618118118118114 	299.9999999999696 	1.851711643495991e-12 	101324.9999999918
0.5643143143143137 	299.99999999996 	3.065798909424962e-12 	101324.999999992
0.5668168168168163 	299.9999999999897 	1.7499108613118e-12 	101324.999999992
0.5693193193193188 	300.0000000000256 	1.680810341515208e-12 	101324.9999999921
0.5718218218218213 	300.00000000002 	1.543547801442553e-12 	101324.9999999922
0.5743243243243239 	300.0000000000048 	1.344170926924134e-12 	101324.9999999921
0.5768268268268262 	300.000000000006 	1.806555440536055e-12 	101324.9999999922
0.5793293293293288 	299.9999999999563 	2.332028995988106e-12 	101324.999999992
0.5818318318318314 	299.9999999999343 	2.56109769801159e-12 	101324.9999999919
0.5843343343343338 	299.9999999999846 	3.392596404888679e-12 	101324.9999999916
0.5868368368368363 	299.9999999999805 	1.963230217634716e-12 	101324.9999999916
0.5893393393393387 	299.999999999955 	2.331048729803548e-12 	101324.9999999919
0.5918418418418413 	299.9999999999519 	1.349930362733275e-12 	101324.9999999921
0.5943443443443439 	300.0000000000121 	1.487450849065635e-12 	101324.9999999925
0.5968468468468463 	300.0000000000127 	1.884407157006996e-12 	101324.9999999926
0.5993493493493487 	300.0000000000236 	1.11438510705508e-12 	101324.9999999926
0.6018518518518514 	299.9999999999839 	1.701741854454169e-12 	101324.9999999927
0.6043543543543537 	299.9999999999984 	6.426894699506007e-13 	101324.9999999927
0.6068568568568564 	299.9999999999891 	1.518415227027973e-12 	101324.9999999925
0.6093593593593587 	299.9999999999504 	9.502100296677358e-13 	101324.9999999924
0.6118618618618614 	299.999999999942 	1.678113950025909e-12 	101324.9999999921
0.6143643643643638 	300.0000000000152 	1.02538130237512e-12 	101324.999999992
0.6168668668668662 	299.9999999999949 	1.931112491357077e-12 	101324.9999999918
0.6193693693693688 	299.9999999999679 	1.160412889425623e-12 	101324.9999999919
0.6218718718718714 	299.9999999999745 	3.189843962518732e-12 	101324.9999999919
0.6243743743743737 	299.9999999999509 	1.591353106931182e-12 	101324.9999999922
0.6268768768768762 	299.9999999999434 	2.76854408906498e-12 	101324.9999999923
0.629379379379379 	299.9999999999654 	1.312993592484568e-12 	101324.9999999924
0.6318818818818812 	299.9999999999869 	1.672202773883987e-12 	101324.9999999925
0.6343843843843838 	300.0000000000119 	1.232107841614934e-12 	101324.9999999927
0.6368868868868864 	299.9999999999853 	1.045436087443457e-12 	101324.9999999927
0.6393893893893888 	299.9999999999395 	2.304198748616287e-12 	101324.9999999929
0.6418918918918912 	300.0000000000013 	2.447126248943388e-12 	101324.9999999929
0.6443943943943939 	299.9999999999794 	3.457535654257642e-12 	101324.9999999929
0.6468968968968963 	299.9999999999847 	3.046949923041533e-12 	101324.9999999928
0.6493993993993988 	299.9999999999752 	3.000627588802608e-12 	101324.9999999927
0.6519019019019012 	299.9999999999842 	2.117388505506038e-12 	101324.9999999928
0.6544044044044038 	299.9999999999269 	2.678631788551118e-12 	101324.9999999929
0.6569069069069065 	299.9999999999591 	1.466797769879612e-12 	101324.999999993
0.6594094094094087 	299.9999999999698 	2.670742605676724e-12 	101324.9999999931
0.6619119119119113 	299.9999999999627 	8.556997254123255e-13 	101324.9999999932
0.664414414414414 	300.000000000001 	1.930091986651958e-12 	101324.9999999935
0.6669169169169162 	300.0000000000153 	8.078680222632768e-13 	101324.9999999936
0.6694194194194188 	299.9999999999885 	1.594798164707651e-12 	101324.9999999935
0.6719219219219214 	299.9999999999369 	5.171526484988037e-13 	101324.9999999936
0.674424424424424 	299.9999999999754 	1.381256957622933e-12 	101324.9999999936
0.6769269269269262 	299.9999999999415 	7.622119184784768e-13 	101324.9999999936
0.679429429429429 	300.0000000000051 	1.307614785892423e-12 	101324.9999999936
0.6819319319319311 	299.9999999999859 	9.219939759543827e-13 	101324.9999999937
0.6844344344344341 	299.9999999999946 	1.947870203558048e-12 	101324.9999999936
0.686936936936936 	299.9999999999959 	1.62150368959473e-12 	101324.9999999935
0.6894394394394392 	299.9999999999998 	2.475809833908782e-12 	101324.9999999933
0.6919419419419413 	299.9999999999883 	2.393287108544866e-12 	101324.9999999936
0.694444444444444 	299.9999999999463 	2.382786368424182e-12 	101324.9999999937
0.6969469469469463 	299.999999999945 	2.44691128802766e-12 	101324.9999999935
0.6994494494494489 	299.9999999999372 	1.486111759151144e-12 	101324.9999999933
0.7019519519519515 	299.9999999999897 	2.650397848763906e-12 	101324.9999999933
0.7044544544544538 	299.9999999999641 	1.862208231612164e-12 	101324.9999999936
0.7069569569569564 	299.9999999999934 	4.011723611529646e-12 	101324.9999999937
0.7094594594594589 	299.9999999999729 	2.385837562310742e-12 	101324.9999999939
0.7119619619619615 	299.999999999932 	4.07838191105233e-12 	101324.999999994
0.7144644644644638 	299.9999999999576 	2.148526475026117e-12 	101324.999999994
0.7169669669669665 	299.9999999999367 	2.401557782033882e-12 	101324.9999999939
0.7194694694694688 	299.9999999999889 	8.018535676635725e-13 	101324.9999999938
0.7219719719719715 	299.9999999999837 	1.327483502666458e-12 	101324.9999999939
0.7244744744744737 	300.0000000000032 	1.263404510618008e-12 	101324.999999994
0.7269769769769764 	299.9999999999953 	1.363960369045575e-12 	101324.9999999939
0.7294794794794791 	299.9999999999915 	2.135329666131517e-12 	101324.999999994
0.7319819819819813 	299.9999999999853 	6.782006546416421e-13 	101324.9999999938
0.7344844844844839 	299.9999999999405 	1.327384784726539e-12 	101324.9999999936
0.7369869869869864 	299.9999999999621 	4.959645570608299e-13 	101324.9999999934
0.739489489489489 	299.9999999999507 	8.996412721253538e-13 	101324.9999999934
0.7419919919919914 	299.9999999999394 	1.463726953645803e-12 	101324.9999999935
0.7444944944944939 	299.9999999999801 	1.35748411128526e-12 	101324.9999999936
0.7469969969969963 	299.9999999999789 	2.601240567994387e-12 	101324.9999999937
0.7494994994994989 	299.9999999999552 	2.077192458544708e-12 	101324.9999999938
0.7520020020020015 	299.9999999999802 	2.495766861104868e-12 	101324.9999999938
0.7545045045045039 	299.9999999999802 	1.995902422992513e-12 	101324.9999999937
0.7570070070070062 	299.9999999999559 	1.312411881459378e-12 	101324.9999999936
0.7595095095095092 	299.9999999999402 	1.218484759564408e-12 	101324.9999999937
0.7620120120120112 	300.0000000000015 	5.201059412356517e-13 	101324.9999999937
0.7645145145145138 	299.9999999999894 	8.512403078779243e-13 	101324.9999999936
0.7670170170170165 	299.9999999999465 	1.392463629953372e-12 	101324.9999999935
0.7695195195195191 	299.999999999939 	1.239166465929883e-12 	101324.9999999936
0.7720220220220213 	299.9999999999467 	2.707883475142065e-12 	101324.9999999935
0.7745245245245239 	299.999999999952 	1.654432852085901e-12 	101324.9999999933
0.7770270270270263 	299.9999999999771 	2.293826048064182e-12 	101324.9999999934
0.779529529529529 	299.9999999999825 	1.134661226035634e-12 	101324.9999999935
0.7820320320320313 	299.999999999975 	1.760589239264786e-12 	101324.9999999936
0.784534534534534 	299.9999999999961 	1.602608732163191e-12 	101324.9999999937
0.7870370370370364 	299.9999999999919 	1.204016608175358e-12 	101324.9999999936
0.7895395395395389 	299.9999999999817 	2.198089068626707e-12 	101324.9999999935
0.7920420420420413 	299.9999999999812 	1.732875591763873e-12 	101324.9999999936
0.794544544544544 	299.9999999999855 	2.204230097587077e-12 	101324.9999999936
0.7970470470470463 	300.0000000000049 	2.454027767487608e-12 	101324.9999999936
0.799549549549549 	299.9999999999868 	2.105326126708089e-12 	101324.9999999936
0.8020520520520515 	299.9999999999957 	2.01738626115407e-12 	101324.9999999936
0.8045545545545539 	299.9999999999619 	6.130514801403163e-13 	101324.9999999933
0.8070570570570563 	299.9999999999875 	4.97809358182064e-13 	101324.9999999932
0.8095595595595589 	299.9999999999687 	1.498236998861664e-12 	101324.9999999933
0.8120620620620614 	299.9999999999492 	1.374462845715794e-12 	101324.9999999934
0.8145645645645638 	299.9999999999954 	1.276331810039031e-12 	101324.9999999935
0.8170670670670666 	299.999999999989 	2.275837769582243e-12 	101324.9999999936
0.8195695695695689 	299.9999999999797 	1.71590302932138e-12 	101324.9999999937
0.8220720720720714 	299.9999999999564 	2.202552743705644e-12 	101324.9999999934
0.8245745745745739 	300.0000000000009 	8.115398709725724e-13 	101324.999999993
0.8270770770770765 	299.9999999999822 	1.222548749720384e-12 	101324.9999999929
0.8295795795795788 	299.9999999999559 	1.002777309620472e-12 	101324.999999993
0.8320820820820815 	300.0000000000131 	4.300975587248502e-13 	101324.999999993
0.834584584584584 	300.0000000000039 	4.477320068598314e-13 	101324.9999999929
0.8370870870870865 	299.9999999999764 	6.679124498503176e-13 	101324.999999993
0.8395895895895891 	299.9999999999445 	3.254579566575825e-13 	101324.999999993
0.8420920920920915 	299.9999999999505 	2.50916673199267e-13 	101324.999999993
0.844594594594594 	299.9999999999467 	4.657427459150682e-13 	101324.999999993
0.8470970970970964 	299.9999999999558 	7.11019764919325e-13 	101324.999999993
0.8495995995995991 	299.9999999999856 	7.806118670131947e-13 	101324.9999999932
0.8521021021021015 	299.9999999999808 	1.097123089382475e-12 	101324.9999999932
0.8546046046046039 	299.9999999999796 	1.808036725336141e-12 	101324.9999999932
0.8571071071071066 	299.9999999999948 	2.182287142906175e-12 	101324.9999999931
0.8596096096096089 	299.999999999964 	1.856033523348774e-12 	101324.9999999931
0.8621121121121116 	299.9999999999387 	2.027048440253764e-12 	101324.999999993
0.8646146146146139 	299.9999999999881 	1.304687256689805e-12 	101324.9999999931
0.8671171171171166 	299.9999999999754 	9.24419911848286e-13 	101324.9999999932
0.8696196196196189 	299.9999999999575 	9.91500334032807e-13 	101324.9999999933
0.8721221221221216 	299.999999999977 	6.600299433404834e-13 	101324.9999999933
0.874624624624624 	299.9999999999997 	7.065260747706094e-13 	101324.9999999932
0.8771271271271264 	300.0000000000019 	1.559360291443856e-12 	101324.9999999932
0.879629629629629 	300.000000000007 	1.849796393143193e-12 	101324.999999993
0.8821321321321317 	299.9999999999876 	2.834171410293514e-12 	101324.9999999929
0.8846346346346339 	299.9999999999326 	1.614945299784808e-12 	101324.9999999928
0.8871371371371364 	299.9999999999603 	1.955380187691838e-12 	101324.9999999928
0.8896396396396391 	299.9999999999643 	8.759186462381243e-13 	101324.9999999927
0.8921421421421414 	299.9999999999659 	7.706415419898117e-13 	101324.9999999924
0.8946446446446441 	299.9999999999869 	1.71546181293518e-12 	101324.9999999923
0.8971471471471464 	300.0000000000018 	2.115155387388547e-12 	101324.9999999923
0.8996496496496489 	299.9999999999802 	2.316396330515883e-12 	101324.9999999922
0.9021521521521517 	299.9999999999692 	3.109439488195668e-12 	101324.9999999923
0.9046546546546541 	299.9999999999928 	2.610141152369201e-12 	101324.9999999923
0.9071571571571564 	299.9999999999584 	2.837623725611864e-12 	101324.9999999921
0.9096596596596589 	299.999999999959 	3.079610711162123e-12 	101324.999999992
0.9121621621621616 	300.0000000000047 	3.616190418950189e-12 	101324.999999992
0.9146646646646639 	299.9999999999845 	3.759196252990463e-12 	101324.9999999919
0.9171671671671666 	299.9999999999585 	3.171920433248879e-12 	101324.9999999918
0.9196696696696689 	300.0000000000023 	3.341231127841763e-12 	101324.9999999919
0.9221721721721714 	300.0000000000035 	1.726967184258473e-12 	101324.999999992
0.9246746746746741 	299.9999999999566 	2.524849088525445e-12 	101324.9999999919
0.9271771771771765 	299.9999999999566 	1.180769562347158e-12 	101324.9999999919
0.9296796796796791 	299.9999999999906 	2.062595206183438e-12 	101324.9999999919
0.9321821821821816 	299.9999999999706 	1.096927277783316e-12 	101324.9999999919
0.9346846846846838 	299.9999999999523 	1.646063627211901e-12 	101324.9999999918
0.9371871871871866 	299.9999999999966 	1.202945092597123e-12 	101324.9999999917
0.9396896896896891 	299.9999999999981 	1.347548152640808e-12 	101324.9999999918
0.9421921921921914 	299.9999999999986 	2.048157607643579e-12 	101324.9999999919
0.9446946946946939 	299.9999999999683 	2.080696001726255e-12 	101324.9999999919
0.9471971971971965 	299.9999999999349 	2.963431989254517e-12 	101324.9999999921
0.9496996996996991 	299.9999999999638 	1.595171473171697e-12 	101324.9999999922
0.9522022022022016 	299.9999999999737 	2.000095989444497e-12 	101324.9999999923
0.9547047047047038 	299.9999999999757 	8.425611538981125e-13 	101324.9999999924
0.9572072072072064 	299.9999999999711 	1.307699297680717e-12 	101324.9999999925
0.9597097097097093 	299.9999999999816 	1.066302821971166e-12 	101324.9999999924
0.9622122122122114 	299.999999999975 	6.982209673041264e-13 	101324.9999999925
0.964714714714714 	299.9999999999734 	6.152713911070133e-13 	101324.9999999925
0.9672172172172167 	299.9999999999698 	2.353182580152725e-13 	101324.9999999925
0.969719719719719 	299.9999999999891 	6.644881841464553e-13 	101324.9999999924
0.9722222222222214 	299.9999999999837 	6.69260114317292e-13 	101324.9999999924
0.9747247247247239 	299.9999999999778 	1.052098847395782e-12 	101324.9999999923
0.9772272272272267 	299.9999999999981 	2.090801248103826e-12 	101324.9999999924
0.9797297297297292 	299.9999999999936 	2.102313868364103e-12 	101324.9999999924
0.9822322322322313 	299.9999999999964 	2.750560835299631e-12 	101324.9999999923
0.9847347347347344 	299.9999999999891 	3.147481310936103e-12 	101324.9999999922
0.9872372372372363 	299.9999999999617 	2.039767082154656e-12 	101324.9999999919
0.9897397397397389 	299.9999999999724 	1.836895116022856e-12 	101324.9999999919
0.9922422422422417 	299.9999999999545 	9.000932968830656e-13 	101324.9999999918
0.9947447447447441 	299.9999999999607 	6.511641975538078e-13 	101324.9999999918
0.9972472472472468 	299.9999999999691 	7.32848468991486e-13 	101324.9999999918
0.999749749749749 	299.9999999999681 	1.099771234905644e-12 	101324.9999999917
1.002252252252252 	299.9999999999827 	1.285464716279635e-12 	101324.9999999918
1.004754754754754 	299.9999999999852 	1.948133074222818e-12 	101324.9999999916
1.007257257257256 	299.9999999999687 	2.273232278552128e-12 	101324.9999999914
1.009759759759759 	299.9999999999593 	1.886010486871587e-12 	101324.9999999913
1.012262262262261 	299.9999999999648 	1.38385671942571e-12 	101324.9999999913
1.014764764764764 	299.9999999999382 	1.530803437423281e-12 	101324.9999999916
1.017267267267267 	299.9999999999287 	1.518127252091696e-12 	101324.9999999918
1.019769769769769 	299.9999999999729 	2.719604714642597e-12 	101324.9999999916
1.022272272272272 	299.9999999999806 	2.88874001473095e-12 	101324.9999999915
1.024774774774774 	299.9999999999721 	3.513450971582379e-12 	101324.9999999917
1.027277277277277 	299.9999999999711 	3.762331257127713e-12 	101324.9999999919
1.029779779779779 	299.9999999999968 	2.720287218932204e-12 	101324.9999999919
1.032282282282282 	299.9999999999962 	2.169867667601581e-12 	101324.9999999921
1.034784784784784 	299.9999999999874 	1.033023718641368e-12 	101324.9999999921
1.037287287287286 	299.9999999999653 	6.876496455461949e-13 	101324.999999992
1.039789789789789 	299.9999999999811 	1.317270749141095e-12 	101324.9999999918
1.042292292292291 	300.000000000007 	1.48042229793533e-12 	101324.9999999916
1.044794794794794 	300.0000000000082 	2.014446565243265e-12 	101324.9999999914
1.047297297297296 	300.0000000000273 	2.102358918040756e-12 	101324.9999999913
1.049799799799799 	299.9999999999831 	1.687556942785e-12 	101324.9999999912
1.052302302302302 	299.9999999999603 	1.596846308082799e-12 	101324.9999999912
1.054804804804804 	299.9999999999487 	1.198765152995767e-12 	101324.9999999914
1.057307307307306 	299.999999999928 	9.77595771767691e-13 	101324.9999999914
1.059809809809809 	299.999999999958 	1.865242343940303e-12 	101324.9999999912
1.062312312312312 	299.9999999999561 	1.593779921815903e-12 	101324.9999999913
1.064814814814814 	299.9999999999536 	1.337929809502475e-12 	101324.9999999914
1.067317317317317 	299.9999999999303 	1.326123242106865e-12 	101324.9999999915
1.069819819819819 	299.9999999999312 	1.088204237387099e-12 	101324.9999999916
1.072322322322321 	299.9999999999788 	1.017460643612536e-12 	101324.9999999916
1.074824824824824 	299.9999999999865 	2.355679509388612e-13 	101324.9999999918
1.077327327327327 	300.0000000000048 	1.185423762758813e-13 	101324.9999999919
1.079829829829829 	300.0000000000208 	7.631196789237657e-13 	101324.9999999917
1.082332332332332 	300.0000000000008 	1.387317230935563e-12 	101324.9999999917
1.084834834834834 	299.9999999999806 	2.564146430531316e-12 	101324.9999999917
1.087337337337337 	299.9999999999465 	3.087815384216933e-12 	101324.9999999917
1.089839839839839 	299.9999999999442 	2.873860760055599e-12 	101324.9999999916
1.092342342342342 	299.9999999999706 	3.360826603578051e-12 	101324.9999999917
1.094844844844844 	299.9999999999808 	2.94891236409881e-12 	101324.9999999916
1.097347347347347 	299.9999999999586 	3.340669468351502e-12 	101324.9999999918
1.099849849849849 	299.9999999999493 	2.369726974378511e-12 	101324.9999999921
1.102352352352352 	299.9999999999594 	2.211088524509172e-12 	101324.999999992
1.104854854854854 	299.9999999999743 	1.521167758500026e-12 	101324.9999999919
1.107357357357357 	299.9999999999687 	1.196662486749202e-12 	101324.9999999919
1.109859859859859 	299.9999999999492 	3.37501662876291e-13 	101324.9999999917
1.112362362362362 	300.0000000000034 	1.407697396246667e-12 	101324.9999999913
1.114864864864865 	300.0000000000057 	1.873659942179508e-12 	101324.9999999911
1.117367367367367 	299.9999999999693 	1.732962616918527e-12 	101324.9999999912
1.119869869869869 	299.9999999999402 	2.01701734127389e-12 	101324.9999999914
1.122372372372372 	299.9999999999509 	1.460359556196693e-12 	101324.9999999914
1.124874874874874 	299.999999999949 	1.814744546338786e-12 	101324.9999999915
1.127377377377377 	299.9999999999699 	1.31459967997746e-12 	101324.9999999917
1.129879879879879 	300.0000000000217 	2.045154401579146e-12 	101324.9999999919
1.132382382382382 	300.0000000000203 	2.479839258572238e-12 	101324.9999999918
1.134884884884884 	299.9999999999991 	2.752352962607892e-12 	101324.9999999916
1.137387387387387 	300.0000000000072 	2.462601716571159e-12 	101324.9999999916
1.139889889889889 	299.999999999961 	2.029603394687976e-12 	101324.9999999915
1.142392392392392 	299.9999999999545 	2.311233809907374e-12 	101324.9999999912
1.144894894894894 	299.9999999999952 	1.708535012317913e-12 	101324.9999999909
1.147397397397397 	299.9999999999807 	2.478547346639578e-12 	101324.9999999908
1.149899899899899 	299.9999999999384 	1.754173870337252e-12 	101324.9999999908
1.152402402402402 	299.999999999933 	1.808977120779593e-12 	101324.9999999911
1.154904904904904 	299.9999999999628 	1.796684940847016e-12 	101324.9999999912
1.157407407407407 	299.9999999999681 	2.68570091322481e-12 	101324.9999999912
1.159909909909909 	299.9999999999477 	2.97399784073782e-12 	101324.9999999913
1.162412412412412 	299.9999999999375 	2.380267944193817e-12 	101324.9999999913
1.164914914914914 	299.999999999954 	2.984685571601292e-12 	101324.9999999914
1.167417417417417 	299.9999999999533 	2.210285197078212e-12 	101324.9999999914
1.169919919919919 	299.9999999999897 	2.568023522349405e-12 	101324.9999999912
1.172422422422422 	300.0000000000142 	2.076579933540398e-12 	101324.9999999909
1.174924924924925 	299.9999999999761 	1.979595374269843e-12 	101324.9999999905
1.177427427427427 	299.9999999999519 	1.769702752369475e-12 	101324.9999999905
1.179929929929929 	299.9999999999893 	1.740664096310269e-12 	101324.9999999906
1.182432432432432 	300.0000000000133 	2.50995727209528e-12 	101324.9999999907
1.184934934934934 	300 	2.739895588734061e-12 	101324.9999999909
1.187437437437437 	299.9999999999831 	3.963549347213365e-12 	101324.999999991
1.189939939939939 	299.9999999999688 	3.77345570941919e-12 	101324.999999991
1.192442442442442 	299.9999999999382 	4.03144736694738e-12 	101324.999999991
1.194944944944944 	299.9999999999396 	2.96317150777943e-12 	101324.999999991
1.197447447447447 	299.9999999999822 	3.379616422209512e-12 	101324.9999999909
1.199949949949949 	299.9999999999914 	3.658045746577783e-12 	101324.9999999907
1.202452452452452 	299.999999999953 	3.197446346946927e-12 	101324.9999999908
1.204954954954955 	299.9999999999503 	3.955318417487242e-12 	101324.9999999909
1.207457457457457 	299.9999999999693 	3.625400321924128e-12 	101324.999999991
1.20995995995996 	299.9999999999649 	4.646612564533764e-12 	101324.9999999909
1.212462462462462 	299.9999999999773 	4.116660510728506e-12 	101324.999999991
1.214964964964964 	299.9999999999825 	4.576542327260802e-12 	101324.999999991
1.217467467467467 	299.9999999999926 	4.006520219423288e-12 	101324.9999999911
1.219969969969969 	299.9999999999754 	4.605423161512971e-12 	101324.9999999911
1.222472472472472 	300.0000000000028 	4.24547258967168e-12 	101324.999999991
1.224974974974975 	300.0000000000333 	4.014329474418578e-12 	101324.9999999909
1.227477477477477 	299.999999999993 	4.710947431089301e-12 	101324.9999999909
1.229979979979979 	299.9999999999775 	3.49907112243551e-12 	101324.9999999909
1.232482482482482 	299.9999999999569 	4.153599150691234e-12 	101324.9999999907
1.234984984984984 	299.9999999999579 	3.736427165221059e-12 	101324.9999999909
1.237487487487487 	299.9999999999725 	4.997729488676553e-12 	101324.9999999909
1.239989989989989 	299.9999999999741 	4.898766448986529e-12 	101324.9999999909
1.242492492492492 	299.9999999999994 	4.863448215453642e-12 	101324.9999999909
1.244994994994994 	299.9999999999843 	5.773741336087808e-12 	101324.9999999907
1.247497497497497 	299.9999999999998 	4.959539232898859e-12 	101324.9999999909
1.249999999999999 	300.0000000000308 	5.618120259251104e-12 	101324.999999991
