-1.25 	300 	0.08388754169574891 	101359.2273552964
-1.247497497497497 	300.0284386065501 	0.08274185371424907 	101358.7327490261
-1.244994994994995 	300.0281049398749 	0.08129040139359307 	101358.2287422248
-1.242492492492492 	300.0276729320881 	0.08021872141747918 	101357.7185408251
-1.23998998998999 	300.0272365382632 	0.0788533720124443 	101357.202519099
-1.237487487487487 	300.0267950866727 	0.07759454909149717 	101356.6805223071
-1.234984984984985 	300.0263487207929 	0.0762965717612968 	101356.1527156263
-1.232482482482482 	300.0258974796668 	0.07499255666542615 	101355.6191464072
-1.22997997997998 	300.0254414985068 	0.07367186640549529 	101355.0799742668
-1.227477477477477 	300.024980788638 	0.07233853303063184 	101354.5352127547
-1.224974974974975 	300.0245155214615 	0.07099137343928337 	101353.9850645803
-1.222472472472472 	300.0240456970326 	0.06963120015282069 	101353.4295299152
-1.21996996996997 	300.0235714542046 	0.06825807305182276 	101352.8687729771
-1.217467467467467 	300.0230928997254 	0.0668723398852777 	101352.3029200479
-1.214964964964965 	300.0226099920725 	0.06547414960467708 	101351.7319220804
-1.212462462462462 	300.0221230610168 	0.06406398149217502 	101351.1561691037
-1.20995995995996 	300.0216319072698 	0.06264179365389548 	101350.575425529
-1.207457457457457 	300.0211368186147 	0.06120811709313447 	101349.9900316464
-1.204954954954955 	300.0206379438696 	0.05976318454093301 	101349.4001635276
-1.202452452452452 	300.0201349768977 	0.05830687215598637 	101348.805459243
-1.19994994994995 	300.019628585022 	0.0568401795198048 	101348.2067078367
-1.197447447447447 	300.0191185501114 	0.05536287378015606 	101347.6036515344
-1.194944944944945 	300.0186046154919 	0.05387483958874072 	101346.9959869157
-1.192442442442442 	300.018087729795 	0.05237759966976906 	101346.3848355606
-1.18993993993994 	300.0175674989046 	0.050870594086871 	101345.7697315509
-1.187437437437437 	300.0170434009946 	0.04935308262133273 	101345.1500580322
-1.184934934934935 	300.0165164795188 	0.04782701590221161 	101344.5270486957
-1.182432432432432 	300.0159870226266 	0.04629316081732152 	101343.9010441765
-1.17992992992993 	300.0154542991887 	0.04475015863197933 	101343.2711803845
-1.177427427427427 	300.0149183246684 	0.04319803890388059 	101342.6374761108
-1.174924924924925 	300.0143798862666 	0.04163852484502109 	101342.0008616172
-1.172422422422422 	300.0138390957565 	0.04007151335478302 	101341.3614677024
-1.16991991991992 	300.0132945517292 	0.03849420565849854 	101340.7176374771
-1.167417417417417 	300.012746554668 	0.03690878208526649 	101340.069728734
-1.164914914914915 	300.0121997668291 	0.03532570124838796 	101339.4232558302
-1.162412412412412 	300.011655502276 	0.03374530161279712 	101338.7797704589
-1.15990990990991 	300.0111039752744 	0.03214402080903564 	101338.1276984354
-1.157407407407407 	300.0105366612406 	0.0305051962059722 	101337.4569597045
-1.154904904904904 	300.0099655073353 	0.02886009743097402 	101336.7816831383
-1.152402402402403 	300.0094137681941 	0.02726272330138284 	101336.1293674723
-1.1498998998999 	300.0088827517312 	0.02571230806260218 	101335.5015604046
-1.147397397397397 	300.0083411870245 	0.02413107717159387 	101334.8612882121
-1.144894894894895 	300.0077581425832 	0.02244508272445423 	101334.1719773392
-1.142392392392392 	300.0071423528831 	0.02067889152795394 	101333.4439515239
-1.13988988988989 	300.006539648644 	0.0189481653459778 	101332.7313938095
-1.137387387387387 	300.0059891713098 	0.01735146886948311 	101332.0805797175
-1.134884884884885 	300.0054852933409 	0.01587362489289228 	101331.4848569457
-1.132382382382382 	300.0049806396975 	0.01439062827683057 	101330.8882181159
-1.12987987987988 	300.0044215730353 	0.01276100122131323 	101330.227253521
-1.127377377377377 	300.0037852356802 	0.01092481704531744 	101329.4749430885
-1.124874874874875 	300.0030946874033 	0.008944649209101506 	101328.6585513397
-1.122372372372372 	300.0024059684987 	0.006971734316110241 	101327.8443312079
-1.11986986986987 	300.0017787687586 	0.005170227927633169 	101327.1028475819
-1.117367367367367 	300.0012531173025 	0.003654275515080715 	101326.4814205844
-1.114864864864865 	300.0008433868832 	0.002467628979162005 	101325.997038942
-1.112362362362362 	300.000543706973 	0.001596095315354349 	101325.6427603447
-1.10985985985986 	300.0003365799842 	0.0009913035274855221 	101325.3978978421
-1.107357357357357 	300.000200536745 	0.000592533922222673 	101325.23706997
-1.104854854854855 	300.0001152359733 	0.0003415712474235189 	101325.1362291529
-1.102352352352353 	300.000063986752 	0.0001902519498844614 	101325.075643498
-1.09984984984985 	300.0000343906747 	0.0001025645127686012 	101325.0406557348
-1.097347347347347 	300.0000179188633 	5.359893626187768e-05 	101325.0211831761
-1.094844844844845 	300.0000090637411 	2.719039466373713e-05 	101325.0107148931
-1.092342342342342 	300.0000044564161 	1.340695532899403e-05 	101325.0052682474
-1.08983983983984 	300.000002132309 	6.432909592469642e-06 	101325.0025207648
-1.087337337337337 	300.0000009939542 	3.006857042498352e-06 	101325.0011750345
-1.084834834834835 	300.0000004518165 	1.370485403833159e-06 	101325.0005341315
-1.082332332332332 	300.0000002004659 	6.096610382011579e-07 	101325.0002369843
-1.07982982982983 	300.0000000868965 	2.649236935684402e-07 	101325.0001027141
-1.077327327327327 	300.0000000368279 	1.125429735524369e-07 	101325.0000435231
-1.074824824824825 	300.0000000152662 	4.677285492873734e-08 	101325.0000180428
-1.072322322322323 	300.0000000061971 	1.903135364470276e-08 	101325.0000073226
-1.06981981981982 	300.000000002473 	7.585792147704989e-09 	101325.0000029112
-1.067317317317317 	300.0000000009587 	2.964559570817009e-09 	101325.0000011342
-1.064814814814815 	300.0000000003579 	1.136526047244665e-09 	101325.0000004329
-1.062312312312312 	300.0000000001311 	4.281173693028459e-10 	101325.0000001615
-1.05980980980981 	300.0000000000438 	1.588338747217353e-10 	101325.0000000584
-1.057307307307307 	300.0000000000005 	5.807480496287969e-11 	101325.0000000201
-1.054804804804805 	299.9999999999906 	2.113586900316528e-11 	101325.0000000061
-1.052302302302302 	299.9999999999949 	7.708600681387855e-12 	101325.0000000011
-1.0497997997998 	299.999999999999 	3.118500003786147e-12 	101324.9999999994
-1.047297297297297 	300.000000000009 	1.808078201761953e-12 	101324.9999999988
-1.044794794794795 	300.0000000000039 	1.596249098786466e-12 	101324.9999999988
-1.042292292292292 	300.0000000000011 	1.10974407233554e-12 	101324.9999999988
-1.03978978978979 	299.9999999999953 	6.966087317886623e-13 	101324.9999999987
-1.037287287287287 	299.9999999999926 	7.585684469945761e-13 	101324.9999999986
-1.034784784784785 	299.9999999999975 	1.430945201974638e-12 	101324.9999999987
-1.032282282282283 	299.9999999999989 	1.877126344924024e-12 	101324.9999999988
-1.02977977977978 	299.9999999999989 	1.78537092374761e-12 	101324.9999999989
-1.027277277277277 	299.9999999999851 	1.35732206473214e-12 	101324.9999999988
-1.024774774774775 	299.9999999999844 	1.015889752924697e-12 	101324.9999999987
-1.022272272272272 	299.9999999999906 	1.001824637029573e-12 	101324.9999999988
-1.01976976976977 	299.9999999999901 	1.551501674465705e-12 	101324.9999999987
-1.017267267267267 	299.9999999999825 	1.701270160960413e-12 	101324.9999999986
-1.014764764764765 	299.9999999999848 	1.790636645723422e-12 	101324.9999999986
-1.012262262262262 	299.99999999999 	8.55237397889866e-13 	101324.9999999984
-1.00975975975976 	299.9999999999903 	1.031584517315696e-12 	101324.9999999984
-1.007257257257257 	299.9999999999897 	1.543564183840846e-12 	101324.9999999986
-1.004754754754755 	299.9999999999997 	1.275212350235672e-12 	101324.9999999987
-1.002252252252252 	299.999999999999 	4.627142084908904e-13 	101324.9999999987
-0.9997497497497498 	299.9999999999959 	3.19244881453329e-13 	101324.9999999986
-0.9972472472472473 	299.9999999999969 	6.091297210713485e-13 	101324.9999999985
-0.9947447447447449 	299.9999999999893 	3.776700443031757e-13 	101324.9999999985
-0.9922422422422421 	299.9999999999924 	8.250784048327971e-13 	101324.9999999984
-0.9897397397397399 	299.9999999999938 	6.981221096237549e-13 	101324.9999999983
-0.9872372372372376 	299.9999999999955 	1.16407608939183e-12 	101324.9999999983
-0.9847347347347346 	299.9999999999882 	1.039515514890906e-12 	101324.9999999984
-0.9822322322322323 	299.9999999999874 	8.203220550920878e-13 	101324.9999999984
-0.9797297297297296 	299.9999999999942 	6.207359239475212e-13 	101324.9999999985
-0.9772272272272275 	299.9999999999994 	6.52085002632814e-13 	101324.9999999987
-0.9747247247247248 	300.0000000000027 	1.149141847584944e-12 	101324.9999999987
-0.9722222222222224 	299.9999999999872 	1.256424698423298e-12 	101324.9999999988
-0.9697197197197196 	299.9999999999829 	1.365153391285205e-12 	101324.9999999988
-0.9672172172172175 	299.999999999987 	9.089639057461564e-13 	101324.9999999986
-0.9647147147147147 	299.9999999999915 	5.888935522375135e-13 	101324.9999999987
-0.9622122122122124 	299.9999999999928 	9.316656944844689e-13 	101324.9999999987
-0.9597097097097099 	299.9999999999957 	6.590357080441245e-13 	101324.9999999986
-0.9572072072072073 	299.9999999999934 	3.721495908095109e-13 	101324.9999999986
-0.9547047047047047 	300.0000000000014 	2.426792445194093e-13 	101324.9999999985
-0.9522022022022023 	299.9999999999968 	8.007375170382902e-13 	101324.9999999984
-0.9496996996996998 	299.9999999999951 	7.757063999222399e-13 	101324.9999999984
-0.9471971971971973 	299.9999999999984 	1.645614102442371e-12 	101324.9999999985
-0.9446946946946947 	299.9999999999861 	1.327143902713022e-12 	101324.9999999984
-0.9421921921921923 	299.9999999999923 	1.005846805778418e-12 	101324.9999999983
-0.93968968968969 	299.9999999999996 	8.046689850016014e-13 	101324.9999999984
-0.9371871871871872 	299.9999999999966 	3.852324296057002e-13 	101324.9999999985
-0.9346846846846848 	299.9999999999886 	4.48448853929473e-13 	101324.9999999985
-0.9321821821821823 	299.9999999999935 	8.390659212525217e-13 	101324.9999999984
-0.9296796796796799 	300.0000000000007 	5.379244495609413e-13 	101324.9999999982
-0.9271771771771771 	299.9999999999976 	9.08381837649176e-13 	101324.9999999981
-0.9246746746746748 	299.9999999999933 	1.295389378426658e-12 	101324.999999998
-0.9221721721721724 	299.9999999999982 	1.042246768768826e-12 	101324.999999998
-0.9196696696696698 	299.9999999999972 	1.432345207812411e-12 	101324.999999998
-0.9171671671671672 	299.999999999989 	9.028151249344723e-13 	101324.9999999981
-0.9146646646646649 	299.9999999999953 	3.253413895886302e-13 	101324.999999998
-0.9121621621621623 	300.0000000000007 	2.686857742452209e-13 	101324.999999998
-0.9096596596596597 	299.9999999999934 	4.277763673730553e-13 	101324.9999999979
-0.9071571571571573 	299.999999999997 	5.971973656072889e-13 	101324.999999998
-0.9046546546546547 	300.0000000000015 	7.025283839972932e-13 	101324.9999999981
-0.9021521521521524 	299.9999999999941 	7.666310914076652e-13 	101324.9999999981
-0.8996496496496498 	299.9999999999968 	6.930499954214769e-13 	101324.9999999982
-0.8971471471471473 	300.0000000000007 	7.214753271349514e-13 	101324.9999999982
-0.894644644644645 	299.9999999999993 	6.365337042044005e-13 	101324.9999999981
-0.892142142142142 	300.0000000000001 	5.543427328544364e-13 	101324.999999998
-0.8896396396396397 	300.0000000000013 	1.369549946109349e-12 	101324.9999999981
-0.8871371371371374 	299.9999999999905 	8.488758536666328e-13 	101324.999999998
-0.8846346346346349 	299.9999999999866 	1.770784794350913e-12 	101324.9999999979
-0.8821321321321324 	299.9999999999857 	1.410109163967858e-12 	101324.9999999979
-0.8796296296296297 	299.9999999999892 	2.251130776757329e-12 	101324.9999999978
-0.8771271271271271 	299.999999999991 	1.491000715084184e-12 	101324.9999999977
-0.8746246246246248 	299.9999999999977 	1.692672753747972e-12 	101324.9999999976
-0.8721221221221224 	300.000000000001 	1.123650988001684e-12 	101324.9999999974
-0.8696196196196196 	299.9999999999931 	1.26767431265979e-12 	101324.9999999975
-0.8671171171171175 	299.9999999999972 	9.923349685643827e-13 	101324.9999999976
-0.8646146146146148 	299.9999999999873 	1.495785653553342e-12 	101324.9999999975
-0.8621121121121121 	299.9999999999946 	1.199968064439724e-12 	101324.9999999975
-0.8596096096096097 	300.0000000000045 	8.778287887906253e-13 	101324.9999999976
-0.857107107107107 	299.9999999999922 	1.194925419464406e-12 	101324.9999999977
-0.8546046046046049 	299.9999999999961 	1.062405413592852e-12 	101324.9999999978
-0.8521021021021022 	299.9999999999989 	1.345953374430312e-12 	101324.9999999979
-0.8495995995995997 	299.9999999999966 	1.724948639090447e-12 	101324.9999999981
-0.8470970970970974 	299.9999999999854 	1.240561110543715e-12 	101324.9999999982
-0.8445945945945946 	299.9999999999897 	1.29068147032133e-12 	101324.9999999981
-0.8420920920920922 	300.000000000001 	7.370646459607494e-13 	101324.9999999979
-0.8395895895895897 	299.9999999999968 	1.723580051905648e-12 	101324.9999999979
-0.8370870870870872 	299.9999999999981 	1.159150414709526e-12 	101324.9999999978
-0.8345845845845846 	300.0000000000006 	1.243737216818971e-12 	101324.9999999979
-0.8320820820820823 	299.9999999999896 	7.543123258402818e-13 	101324.999999998
-0.8295795795795798 	299.9999999999812 	9.708481562518959e-13 	101324.999999998
-0.8270770770770772 	299.9999999999889 	1.323599301565306e-12 	101324.9999999981
-0.8245745745745746 	299.9999999999829 	8.330814737463755e-13 	101324.9999999981
-0.8220720720720721 	299.9999999999865 	7.82492346287919e-13 	101324.9999999984
-0.8195695695695699 	299.9999999999966 	5.638131998663446e-13 	101324.9999999984
-0.817067067067067 	299.9999999999899 	1.380210341538024e-12 	101324.9999999986
-0.8145645645645651 	299.9999999999825 	1.707398670884112e-12 	101324.9999999986
-0.8120620620620621 	299.9999999999955 	8.978628305192018e-13 	101324.9999999984
-0.8095595595595597 	299.9999999999998 	4.612712241728649e-13 	101324.9999999984
-0.8070570570570572 	299.9999999999853 	2.664815700058331e-13 	101324.9999999984
-0.8045545545545546 	299.9999999999864 	2.462804303552523e-13 	101324.9999999983
-0.8020520520520523 	299.9999999999976 	1.079620675088479e-12 	101324.9999999983
-0.7995495495495494 	300.0000000000044 	1.721064731346495e-12 	101324.9999999985
-0.7970470470470474 	300.0000000000003 	2.029320245495753e-12 	101324.9999999986
-0.7945445445445446 	300.0000000000006 	2.167500095573869e-12 	101324.9999999986
-0.7920420420420423 	300.0000000000024 	1.543838820274012e-12 	101324.9999999984
-0.7895395395395397 	300.0000000000018 	2.344651421965306e-12 	101324.9999999984
-0.7870370370370371 	300.0000000000006 	1.348691936156707e-12 	101324.9999999983
-0.7845345345345348 	299.9999999999916 	1.704971983358307e-12 	101324.9999999982
-0.7820320320320323 	299.9999999999921 	8.219269730588728e-13 	101324.9999999982
-0.7795295295295296 	299.9999999999828 	2.234944543051833e-12 	101324.9999999983
-0.7770270270270272 	299.9999999999798 	1.502504420998586e-12 	101324.9999999982
-0.7745245245245247 	299.9999999999799 	1.758703743012821e-12 	101324.9999999982
-0.7720220220220222 	299.9999999999898 	9.942062642082765e-13 	101324.9999999983
-0.7695195195195199 	299.9999999999893 	9.674856266679092e-13 	101324.9999999983
-0.767017017017017 	299.9999999999947 	1.195139828907561e-12 	101324.9999999982
-0.7645145145145147 	300.0000000000022 	1.395886717862279e-12 	101324.9999999982
-0.7620120120120122 	300.0000000000034 	1.975607363413816e-12 	101324.9999999982
-0.7595095095095097 	299.9999999999823 	2.051782595684246e-12 	101324.9999999983
-0.7570070070070072 	299.9999999999825 	3.51142569071981e-12 	101324.9999999983
-0.7545045045045048 	299.9999999999957 	2.706198329788199e-12 	101324.9999999982
-0.7520020020020022 	299.9999999999893 	3.362130917101241e-12 	101324.9999999982
-0.7494994994994997 	299.9999999999892 	1.83745087204107e-12 	101324.9999999983
-0.7469969969969972 	299.9999999999976 	1.99343834469222e-12 	101324.9999999984
-0.7444944944944945 	299.9999999999956 	1.069228652701574e-12 	101324.9999999984
-0.7419919919919924 	299.9999999999964 	1.572661128387244e-12 	101324.9999999986
-0.7394894894894897 	299.9999999999886 	1.926246255866924e-12 	101324.9999999985
-0.7369869869869872 	299.9999999999968 	1.900285340636243e-12 	101324.9999999983
-0.7344844844844846 	299.9999999999923 	2.96725553542376e-12 	101324.9999999982
-0.7319819819819822 	300.0000000000007 	1.929028471985688e-12 	101324.9999999982
-0.7294794794794797 	299.9999999999982 	3.188892471525239e-12 	101324.9999999983
-0.7269769769769773 	300.0000000000014 	2.410037172819334e-12 	101324.9999999982
-0.7244744744744747 	300.0000000000035 	1.929627946624392e-12 	101324.9999999981
-0.721971971971972 	299.9999999999895 	1.862947105948432e-12 	101324.9999999981
-0.7194694694694695 	299.9999999999949 	1.804098632801055e-12 	101324.9999999981
-0.7169669669669674 	299.9999999999837 	2.024485700661832e-12 	101324.999999998
-0.7144644644644647 	299.999999999992 	1.92486530262102e-12 	101324.9999999982
-0.711961961961962 	300.0000000000023 	1.743446855030523e-12 	101324.9999999982
-0.7094594594594597 	300.000000000003 	8.762350763891065e-13 	101324.9999999981
-0.7069569569569573 	300.0000000000038 	1.281655378828089e-12 	101324.9999999979
-0.7044544544544545 	300.0000000000056 	7.24411283133508e-13 	101324.9999999978
-0.7019519519519523 	300.0000000000015 	6.592815998385941e-13 	101324.9999999978
-0.6994494494494495 	299.9999999999828 	8.922826461958463e-13 	101324.999999998
-0.6969469469469471 	299.9999999999875 	1.300273277889054e-12 	101324.9999999979
-0.6944444444444446 	299.9999999999922 	1.7489604397414e-12 	101324.999999998
-0.6919419419419421 	300.0000000000061 	1.709684409591055e-12 	101324.9999999982
-0.6894394394394396 	299.9999999999977 	1.534767913363368e-12 	101324.9999999983
-0.6869369369369374 	300.0000000000019 	1.957984967761631e-12 	101324.9999999984
-0.6844344344344344 	300.0000000000049 	1.54655633151188e-12 	101324.9999999983
-0.6819319319319321 	299.9999999999906 	2.037280847520053e-12 	101324.9999999983
-0.6794294294294296 	299.9999999999872 	1.834018462196408e-12 	101324.9999999985
-0.6769269269269272 	299.9999999999801 	1.823726523916025e-12 	101324.9999999983
-0.6744244244244245 	299.9999999999927 	1.337229632970146e-12 	101324.9999999981
-0.6719219219219222 	299.9999999999916 	8.435811727675284e-13 	101324.9999999981
-0.6694194194194195 	300.0000000000002 	1.054231539576662e-12 	101324.9999999983
-0.6669169169169172 	300.0000000000045 	7.186804457985885e-13 	101324.9999999985
-0.6644144144144146 	299.9999999999906 	6.546113591328624e-13 	101324.9999999983
-0.661911911911912 	299.9999999999925 	5.491013925446847e-13 	101324.9999999983
-0.6594094094094097 	299.9999999999952 	4.915111957138447e-13 	101324.9999999985
-0.656906906906907 	299.999999999986 	2.406802103848721e-13 	101324.9999999986
-0.6544044044044046 	299.9999999999857 	7.315894990795382e-13 	101324.9999999987
-0.6519019019019021 	299.9999999999977 	4.575788289658929e-13 	101324.9999999986
-0.6493993993993996 	300.0000000000049 	1.424301344141195e-12 	101324.9999999984
-0.6468968968968971 	300.0000000000067 	1.091723609267709e-12 	101324.9999999983
-0.6443943943943946 	299.9999999999976 	1.776237178504319e-12 	101324.9999999983
-0.6418918918918921 	299.9999999999988 	5.447367663319641e-13 	101324.9999999983
-0.6393893893893897 	300.0000000000005 	6.415394123308973e-13 	101324.9999999983
-0.6368868868868871 	299.9999999999935 	6.297086978883702e-13 	101324.9999999982
-0.6343843843843846 	300.0000000000007 	5.477023728015249e-13 	101324.9999999983
-0.6318818818818821 	299.999999999991 	7.214129601670119e-13 	101324.9999999983
-0.6293793793793795 	300.0000000000014 	5.183375396439386e-13 	101324.9999999983
-0.6268768768768773 	300.0000000000044 	3.896701489705116e-13 	101324.9999999983
-0.6243743743743745 	299.9999999999963 	3.829184235413996e-13 	101324.9999999983
-0.6218718718718721 	300.0000000000023 	8.095277726758528e-13 	101324.9999999983
-0.6193693693693696 	299.9999999999855 	5.190628667196829e-13 	101324.9999999982
-0.6168668668668671 	299.9999999999962 	9.221403116338845e-13 	101324.9999999981
-0.6143643643643645 	300.0000000000028 	7.815327259539839e-13 	101324.9999999982
-0.6118618618618621 	299.9999999999947 	3.597872454060358e-13 	101324.9999999982
-0.6093593593593596 	299.9999999999944 	2.260753993450859e-13 	101324.9999999982
-0.6068568568568571 	299.9999999999952 	4.04430219385854e-13 	101324.9999999982
-0.6043543543543546 	299.9999999999902 	4.658585572747427e-13 	101324.9999999982
-0.6018518518518521 	299.9999999999927 	6.41338509338245e-13 	101324.9999999983
-0.5993493493493496 	299.9999999999854 	1.141895833699868e-12 	101324.9999999985
-0.5968468468468471 	299.9999999999898 	1.266939228259847e-12 	101324.9999999986
-0.5943443443443446 	299.999999999997 	1.574984206924065e-12 	101324.9999999985
-0.591841841841842 	299.9999999999896 	9.156716511882038e-13 	101324.9999999985
-0.5893393393393397 	299.9999999999907 	1.091137013819262e-12 	101324.9999999984
-0.5868368368368371 	299.9999999999973 	8.370385451363448e-13 	101324.9999999983
-0.5843343343343346 	299.9999999999985 	1.282520930537542e-12 	101324.9999999982
-0.5818318318318321 	300.0000000000045 	1.392735824106739e-12 	101324.9999999981
-0.5793293293293297 	299.9999999999962 	1.247218373031405e-12 	101324.9999999981
-0.5768268268268271 	300.0000000000013 	8.292275946635824e-13 	101324.9999999981
-0.5743243243243245 	300.0000000000057 	1.198547129609452e-12 	101324.9999999982
-0.5718218218218221 	300.0000000000045 	1.049604478880119e-12 	101324.9999999981
-0.5693193193193196 	300.0000000000098 	9.670046944446991e-13 	101324.9999999982
-0.5668168168168171 	299.9999999999966 	1.620545577308603e-12 	101324.9999999982
-0.5643143143143147 	299.9999999999881 	8.022921736292772e-13 	101324.9999999983
-0.5618118118118121 	300.000000000004 	1.748294232270799e-12 	101324.9999999984
-0.5593093093093094 	300.0000000000088 	1.428990787423836e-12 	101324.9999999983
-0.5568068068068072 	300.0000000000041 	2.345681409300745e-12 	101324.9999999982
-0.5543043043043046 	300.0000000000061 	2.168522215749379e-12 	101324.9999999984
-0.551801801801802 	299.9999999999902 	1.865541593168743e-12 	101324.9999999984
-0.5492992992992995 	300.000000000001 	9.890110427038165e-13 	101324.9999999983
-0.5467967967967969 	300.0000000000049 	1.106803501067496e-12 	101324.9999999984
-0.5442942942942947 	300.0000000000005 	1.595128131274146e-12 	101324.9999999983
-0.5417917917917919 	299.9999999999897 	1.72584955674851e-12 	101324.9999999984
-0.5392892892892895 	299.999999999987 	1.441105287558155e-12 	101324.9999999983
-0.536786786786787 	299.9999999999902 	1.688003689065107e-12 	101324.9999999982
-0.5342842842842846 	299.9999999999908 	1.530688962747139e-12 	101324.9999999982
-0.531781781781782 	299.9999999999843 	1.701633504348688e-12 	101324.9999999982
-0.5292792792792794 	299.9999999999824 	1.15510540315604e-12 	101324.9999999983
-0.526776776776777 	299.9999999999798 	1.854260395602411e-12 	101324.9999999985
-0.5242742742742745 	299.9999999999939 	6.775749024567483e-13 	101324.9999999987
-0.521771771771772 	300.0000000000016 	2.347611144550853e-12 	101324.9999999987
-0.5192692692692695 	299.99999999999 	1.720760336158969e-12 	101324.9999999986
-0.516766766766767 	299.9999999999988 	2.082975501500056e-12 	101324.9999999986
-0.5142642642642645 	299.9999999999935 	1.486759091219426e-12 	101324.9999999985
-0.511761761761762 	299.999999999989 	1.615056286072465e-12 	101324.9999999984
-0.5092592592592596 	299.9999999999948 	1.235455249274472e-12 	101324.9999999983
-0.506756756756757 	299.9999999999885 	6.856203478766741e-13 	101324.9999999982
-0.5042542542542544 	299.9999999999987 	3.916743283650728e-13 	101324.9999999983
-0.5017517517517521 	300.0000000000078 	9.825004997529196e-13 	101324.9999999983
-0.4992492492492494 	300.0000000000076 	1.059552629633713e-12 	101324.9999999983
-0.496746746746747 	299.9999999999968 	1.514706293461579e-12 	101324.9999999982
-0.4942442442442445 	299.9999999999839 	9.793578022377692e-13 	101324.9999999982
-0.4917417417417421 	299.9999999999862 	4.677056054354779e-13 	101324.9999999982
-0.4892392392392395 	299.9999999999896 	4.427034785402206e-13 	101324.9999999984
-0.486736736736737 	299.9999999999889 	4.091664284417836e-13 	101324.9999999986
-0.4842342342342345 	299.9999999999816 	9.962066636017425e-13 	101324.9999999987
-0.481731731731732 	300.0000000000092 	4.288865853079601e-13 	101324.9999999987
-0.4792292292292296 	300.0000000000049 	7.546909025423899e-13 	101324.9999999986
-0.4767267267267268 	299.999999999991 	1.199965711410464e-12 	101324.9999999986
-0.4742242242242246 	299.9999999999997 	1.42648359589839e-12 	101324.9999999987
-0.471721721721722 	299.9999999999902 	6.700935069619986e-13 	101324.9999999986
-0.4692192192192195 	299.9999999999953 	1.645441810912352e-12 	101324.9999999987
-0.4667167167167169 	299.9999999999798 	1.218384585328087e-12 	101324.9999999988
-0.4642142142142145 	299.9999999999992 	1.685739828834038e-12 	101324.9999999988
-0.461711711711712 	300.0000000000058 	1.071480685944713e-12 	101324.9999999986
-0.4592092092092094 	300.0000000000021 	1.123692116105009e-12 	101324.9999999986
-0.456706706706707 	300.0000000000117 	2.279012949849693e-13 	101324.9999999985
-0.4542042042042045 	299.9999999999864 	1.546476595869519e-13 	101324.9999999985
-0.451701701701702 	299.9999999999902 	2.026928675822837e-13 	101324.9999999986
-0.4491991991991995 	299.9999999999918 	2.146445336921049e-13 	101324.9999999986
-0.4466966966966969 	299.9999999999902 	1.202965230736308e-13 	101324.9999999985
-0.4441941941941945 	299.999999999998 	3.349898002486749e-13 	101324.9999999986
-0.441691691691692 	299.9999999999915 	1.442701241702226e-13 	101324.9999999985
-0.4391891891891895 	299.9999999999967 	1.580622186818654e-12 	101324.9999999985
-0.436686686686687 	299.9999999999937 	6.969147338135256e-13 	101324.9999999985
-0.4341841841841846 	299.9999999999993 	2.353703403741399e-12 	101324.9999999984
-0.431681681681682 	299.9999999999899 	8.344447478916735e-13 	101324.9999999983
-0.4291791791791794 	299.9999999999828 	1.842758489155432e-12 	101324.9999999982
-0.426676676676677 	299.9999999999819 	2.001314628624995e-12 	101324.9999999984
-0.4241741741741744 	299.999999999993 	2.752893015749227e-12 	101324.9999999983
-0.421671671671672 	300.0000000000013 	1.934968779360521e-12 	101324.9999999985
-0.4191691691691694 	300.0000000000106 	1.451677667229191e-12 	101324.9999999984
-0.4166666666666669 	300.0000000000126 	1.17498902201229e-12 	101324.9999999982
-0.4141641641641645 	299.9999999999881 	1.622604958463454e-12 	101324.9999999983
-0.411661661661662 	300.0000000000009 	2.294538348458559e-12 	101324.9999999983
-0.4091591591591594 	300.0000000000023 	1.189421403103303e-12 	101324.9999999984
-0.406656656656657 	299.9999999999897 	1.784357068103549e-12 	101324.9999999986
-0.4041541541541545 	300.0000000000047 	2.304654553833083e-12 	101324.9999999989
-0.401651651651652 	299.9999999999841 	2.176225087838122e-12 	101324.999999999
-0.3991491491491494 	300.000000000001 	3.199090886939037e-12 	101324.999999999
-0.396646646646647 	299.9999999999909 	1.44169880101509e-12 	101324.9999999991
-0.3941441441441444 	299.999999999995 	3.426785313036102e-12 	101324.999999999
-0.3916416416416419 	299.9999999999845 	1.121694818141823e-12 	101324.9999999988
-0.3891391391391395 	299.999999999992 	2.0504916886706e-12 	101324.9999999987
-0.3866366366366368 	299.9999999999913 	1.659487436669735e-12 	101324.9999999987
-0.3841341341341344 	299.9999999999998 	2.253517135688942e-12 	101324.9999999985
-0.381631631631632 	299.9999999999906 	2.267148676855318e-12 	101324.9999999986
-0.3791291291291294 	300.0000000000011 	2.19512701858304e-12 	101324.9999999988
-0.3766266266266269 	300.0000000000038 	1.952800199441132e-12 	101324.9999999989
-0.3741241241241244 	300.0000000000043 	1.057819988945238e-12 	101324.9999999989
-0.371621621621622 	300.0000000000049 	2.353699324162559e-12 	101324.9999999991
-0.3691191191191194 	300.0000000000038 	8.217497044980332e-13 	101324.999999999
-0.366616616616617 	300.0000000000027 	2.472608188874327e-12 	101324.9999999991
-0.3641141141141143 	299.9999999999934 	8.695681319275707e-13 	101324.9999999991
-0.3616116116116119 	299.9999999999858 	1.373719433409318e-12 	101324.9999999989
-0.3591091091091095 	299.9999999999956 	5.072937587499009e-13 	101324.9999999987
-0.356606606606607 	299.9999999999955 	6.235191629426599e-13 	101324.9999999987
-0.3541041041041044 	299.9999999999991 	3.846530493339204e-13 	101324.9999999985
-0.3516016016016019 	300.0000000000043 	4.47208832185395e-13 	101324.9999999985
-0.3490990990990994 	299.9999999999988 	6.533725247365423e-13 	101324.9999999985
-0.346596596596597 	300.0000000000073 	8.261686761155557e-13 	101324.9999999986
-0.3440940940940944 	300.0000000000089 	7.18381693602553e-13 	101324.9999999985
-0.3415915915915919 	300.0000000000068 	9.771815016761597e-13 	101324.9999999986
-0.3390890890890895 	299.999999999996 	3.63163507432701e-13 	101324.9999999985
-0.3365865865865869 	300.0000000000034 	6.79805036187776e-13 	101324.9999999985
-0.3340840840840844 	299.999999999998 	3.824738625112865e-13 	101324.9999999984
-0.3315815815815819 	300.0000000000059 	4.659259847325882e-13 	101324.9999999986
-0.3290790790790794 	300.0000000000077 	5.049008348360704e-13 	101324.9999999985
-0.3265765765765769 	299.9999999999878 	3.034539730302317e-13 	101324.9999999987
-0.3240740740740744 	300.0000000000016 	7.070302277021338e-13 	101324.9999999987
-0.3215715715715718 	300.0000000000043 	6.167088920453261e-13 	101324.9999999986
-0.3190690690690695 	299.9999999999876 	3.028788736984767e-13 	101324.9999999986
-0.3165665665665668 	299.9999999999968 	5.976287662285543e-13 	101324.9999999986
-0.3140640640640644 	299.9999999999989 	5.146121425662178e-13 	101324.9999999987
-0.311561561561562 	299.9999999999858 	1.231082941160633e-12 	101324.9999999988
-0.3090590590590593 	299.9999999999994 	8.421794115478667e-13 	101324.9999999986
-0.3065565565565568 	300.0000000000008 	1.913354625074715e-12 	101324.9999999985
-0.3040540540540545 	299.9999999999986 	9.488455413321816e-13 	101324.9999999988
-0.3015515515515518 	300.0000000000041 	2.056412713260143e-12 	101324.9999999987
-0.2990490490490494 	299.9999999999847 	9.229044785251437e-13 	101324.9999999988
-0.2965465465465469 	300.0000000000002 	1.184653781990071e-12 	101324.9999999989
-0.2940440440440444 	299.9999999999984 	7.228254776680591e-13 	101324.9999999989
-0.2915415415415418 	300.000000000004 	8.169202681776083e-13 	101324.9999999992
-0.2890390390390395 	300.0000000000049 	1.655626262348972e-12 	101324.9999999992
-0.2865365365365368 	299.9999999999935 	8.812492842182323e-13 	101324.9999999991
-0.2840340340340343 	299.9999999999971 	1.304908112283901e-12 	101324.9999999991
-0.2815315315315318 	299.9999999999828 	6.603440990795924e-13 	101324.9999999989
-0.2790290290290295 	299.9999999999922 	5.391173608228345e-13 	101324.9999999988
-0.2765265265265269 	300.0000000000027 	5.192422964970822e-13 	101324.9999999988
-0.2740240240240244 	300.0000000000057 	1.447292817743056e-12 	101324.9999999986
-0.2715215215215219 	300.000000000006 	2.01776102485714e-12 	101324.9999999987
-0.2690190190190194 	299.9999999999864 	1.494174072155403e-12 	101324.9999999987
-0.2665165165165169 	299.9999999999977 	1.832807598467994e-12 	101324.9999999986
-0.2640140140140144 	300.0000000000002 	1.400629741929534e-12 	101324.9999999984
-0.2615115115115119 	299.9999999999998 	2.145655374650206e-12 	101324.9999999986
-0.2590090090090094 	299.9999999999825 	1.156453179571797e-12 	101324.9999999986
-0.2565065065065068 	299.9999999999967 	1.619122051785744e-12 	101324.9999999986
-0.2540040040040044 	299.9999999999958 	1.427539256813987e-12 	101324.9999999988
-0.2515015015015019 	300.0000000000035 	1.271309183799757e-12 	101324.9999999987
-0.2489989989989994 	300.0000000000077 	1.90499677208614e-12 	101324.9999999986
-0.2464964964964968 	299.9999999999944 	1.438910605193647e-12 	101324.9999999987
-0.2439939939939944 	299.999999999996 	3.162136670456101e-12 	101324.9999999988
-0.2414914914914919 	299.9999999999912 	1.932270670711215e-12 	101324.9999999989
-0.2389889889889893 	299.999999999996 	3.166326848268988e-12 	101324.9999999988
-0.2364864864864869 	300.0000000000083 	2.20657628914026e-12 	101324.9999999986
-0.2339839839839843 	299.9999999999909 	3.628410848794801e-12 	101324.9999999986
-0.2314814814814819 	299.9999999999931 	2.160876707165123e-12 	101324.9999999984
-0.2289789789789792 	299.999999999981 	2.899278266138599e-12 	101324.9999999983
-0.2264764764764769 	299.9999999999854 	1.919619368711248e-12 	101324.9999999983
-0.2239739739739743 	299.9999999999962 	2.519732321446449e-12 	101324.9999999984
-0.2214714714714718 	299.9999999999853 	2.255708481906799e-12 	101324.9999999985
-0.2189689689689693 	299.9999999999925 	1.713433927671805e-12 	101324.9999999985
-0.2164664664664669 	299.9999999999941 	2.654482342789126e-12 	101324.9999999986
-0.2139639639639643 	299.9999999999847 	1.152723655747225e-12 	101324.9999999984
-0.2114614614614618 	299.9999999999936 	1.357332837377959e-12 	101324.9999999985
-0.2089589589589593 	300.0000000000013 	9.430624938676275e-13 	101324.9999999984
-0.2064564564564568 	299.9999999999995 	8.340942810132059e-13 	101324.9999999982
-0.2039539539539543 	299.9999999999833 	1.397910183732226e-12 	101324.9999999983
-0.2014514514514518 	299.9999999999795 	4.046529130811495e-13 	101324.9999999982
-0.1989489489489494 	299.9999999999951 	1.54268370152918e-12 	101324.9999999982
-0.1964464464464468 	300.0000000000028 	4.385407406510635e-13 	101324.9999999982
-0.1939439439439443 	300.0000000000013 	1.065932033998246e-12 	101324.9999999981
-0.1914414414414418 	299.9999999999893 	4.424571802582475e-13 	101324.9999999981
-0.1889389389389393 	299.9999999999978 	1.013877872005201e-12 	101324.999999998
-0.1864364364364368 	300.0000000000018 	1.291628573904814e-12 	101324.9999999982
-0.1839339339339343 	299.999999999997 	1.339218300657021e-12 	101324.9999999982
-0.1814314314314318 	299.999999999996 	1.483939429417303e-12 	101324.9999999982
-0.1789289289289293 	299.9999999999798 	1.092360119801983e-12 	101324.9999999981
-0.1764264264264268 	299.9999999999913 	6.866655248650183e-13 	101324.9999999981
-0.1739239239239243 	299.9999999999783 	3.228454858009144e-13 	101324.9999999981
-0.1714214214214218 	299.9999999999972 	1.571058139546638e-13 	101324.9999999982
-0.1689189189189193 	299.9999999999864 	3.953421911109972e-13 	101324.999999998
-0.1664164164164168 	299.9999999999985 	3.957915766676586e-13 	101324.999999998
-0.1639139139139143 	299.9999999999985 	8.639685527163798e-13 	101324.9999999979
-0.1614114114114118 	300.0000000000012 	9.033226856546569e-13 	101324.9999999978
-0.1589089089089093 	299.9999999999984 	2.776947051937206e-12 	101324.9999999979
-0.1564064064064068 	299.999999999992 	1.18568781096565e-12 	101324.9999999979
-0.1539039039039043 	300.0000000000012 	3.090519130225413e-12 	101324.9999999979
-0.1514014014014018 	300.0000000000042 	4.531370186912189e-13 	101324.9999999978
-0.1488988988988993 	300.0000000000039 	3.500334870218896e-12 	101324.9999999979
-0.1463963963963968 	300.0000000000011 	8.327473976191527e-13 	101324.9999999981
-0.1438938938938943 	299.9999999999962 	2.881059640854049e-12 	101324.9999999981
-0.1413913913913918 	299.9999999999823 	1.631030802236027e-12 	101324.9999999978
-0.1388888888888893 	299.9999999999922 	2.238223722309342e-12 	101324.9999999977
-0.1363863863863868 	299.999999999975 	1.779997751997639e-12 	101324.9999999975
-0.1338838838838843 	299.9999999999891 	2.379946424841498e-12 	101324.9999999977
-0.1313813813813818 	299.9999999999969 	2.214745010774431e-12 	101324.9999999976
-0.1288788788788793 	299.9999999999906 	2.46224228124245e-12 	101324.9999999975
-0.1263763763763768 	299.9999999999949 	1.940164273616012e-12 	101324.9999999973
-0.1238738738738743 	299.9999999999889 	1.696723803300906e-12 	101324.9999999974
-0.1213713713713717 	300.0000000000004 	3.890941688008996e-13 	101324.9999999972
-0.1188688688688693 	300.0000000000064 	1.500849764905423e-12 	101324.9999999975
-0.1163663663663668 	299.9999999999763 	3.733400321319932e-13 	101324.9999999973
-0.1138638638638643 	299.9999999999977 	1.67706726071798e-12 	101324.9999999974
-0.1113613613613618 	299.999999999999 	5.592718259448559e-13 	101324.9999999974
-0.1088588588588592 	299.9999999999992 	2.507345123016016e-12 	101324.9999999973
-0.1063563563563568 	299.9999999999914 	5.092792113883548e-13 	101324.9999999973
-0.1038538538538543 	299.9999999999987 	1.581091020840605e-12 	101324.9999999972
-0.1013513513513517 	300.0000000000006 	9.360603910150458e-13 	101324.9999999975
-0.09884884884884926 	299.9999999999891 	1.356803885089584e-12 	101324.9999999972
-0.09634634634634676 	299.9999999999835 	7.092007495281513e-13 	101324.9999999973
-0.09384384384384425 	299.9999999999804 	1.964596187715153e-13 	101324.9999999972
-0.09134134134134177 	300.0000000000014 	1.247599778836168e-14 	101324.9999999971
-0.08883883883883925 	300.0000000000006 	8.499368854481413e-13 	101324.9999999969
-0.08633633633633674 	299.9999999999893 	1.168505210392419e-12 	101324.9999999968
-0.08383383383383426 	299.9999999999975 	9.524014410283929e-13 	101324.9999999966
-0.08133133133133173 	299.9999999999903 	1.354082452437366e-12 	101324.9999999969
-0.07882882882882926 	299.9999999999757 	1.041179677495831e-12 	101324.9999999969
-0.07632632632632676 	299.9999999999949 	1.023488390653076e-12 	101324.9999999971
-0.07382382382382424 	299.9999999999757 	9.230852705203272e-13 	101324.9999999975
-0.07132132132132173 	299.9999999999991 	8.969455456828793e-13 	101324.9999999977
-0.06881881881881925 	299.9999999999894 	1.33102227731566e-12 	101324.9999999976
-0.06631631631631671 	299.9999999999753 	1.431997598991096e-12 	101324.9999999975
-0.06381381381381425 	299.9999999999886 	1.136344036050284e-12 	101324.9999999975
-0.06131131131131173 	299.9999999999891 	1.163191336028855e-12 	101324.9999999976
-0.05880880880880923 	299.9999999999833 	1.053630793094994e-12 	101324.9999999977
-0.05630630630630672 	299.9999999999921 	1.185395571591466e-12 	101324.9999999978
-0.05380380380380424 	300.0000000000056 	1.779572425688666e-12 	101324.9999999975
-0.05130130130130173 	300.0000000000015 	1.710719155595649e-12 	101324.9999999973
-0.04879879879879922 	299.9999999999876 	1.412669645104596e-12 	101324.9999999973
-0.04629629629629672 	299.9999999999866 	6.61625750520645e-13 	101324.9999999971
-0.04379379379379422 	299.9999999999778 	4.030975147007834e-13 	101324.9999999972
-0.04129129129129173 	299.9999999999951 	2.099783076914886e-13 	101324.9999999971
-0.03878878878878922 	299.9999999999984 	9.274166652064388e-13 	101324.9999999973
-0.03628628628628671 	299.9999999999957 	1.596397398824442e-12 	101324.9999999974
-0.03378378378378422 	299.9999999999865 	2.165283368577511e-12 	101324.9999999974
-0.03128128128128172 	299.9999999999907 	1.79198852596122e-12 	101324.9999999974
-0.02877877877877922 	299.9999999999916 	2.264491463255211e-12 	101324.9999999975
-0.0262762762762767 	299.999999999977 	1.63726307425944e-12 	101324.9999999974
-0.02377377377377422 	300.0000000000048 	1.301865185353309e-12 	101324.9999999971
-0.0212712712712717 	299.9999999999771 	9.510225367695436e-13 	101324.9999999972
-0.01876876876876921 	299.9999999999947 	2.862091249401466e-13 	101324.9999999969
-0.01626626626626671 	299.9999999999981 	4.887478800274031e-13 	101324.9999999969
-0.0137637637637642 	299.9999999999899 	9.260549087172076e-14 	101324.9999999968
-0.0112612612612617 	300.0000000000014 	5.48183724527043e-14 	101324.9999999969
-0.008758758758759198 	299.9999999999969 	2.681342524859462e-14 	101324.9999999967
-0.006256256256256697 	299.9999999999739 	1.64348373114524e-14 	101324.9999999967
-0.003753753753754195 	299.9999999999889 	4.119745565457032e-13 	101324.9999999969
-0.001251251251251693 	299.9999999999843 	8.17049510137147e-14 	101324.9999999969
0.00125125125125081 	299.9999999999877 	3.032518544470562e-14 	101324.9999999968
0.003753753753753312 	299.9999999999922 	4.40407846928717e-13 	101324.9999999968
0.006256256256255817 	299.9999999999749 	3.204369197875371e-13 	101324.9999999969
0.008758758758758317 	299.9999999999959 	4.170342704294253e-13 	101324.9999999967
0.01126126126126082 	299.999999999998 	5.734430762369873e-13 	101324.9999999965
0.01376376376376332 	299.9999999999915 	1.950678590218312e-13 	101324.9999999966
0.01626626626626582 	300.0000000000007 	4.702112818399906e-14 	101324.9999999966
0.01876876876876833 	299.9999999999874 	1.990992074251697e-13 	101324.9999999968
0.02127127127127083 	299.9999999999936 	4.514853699624136e-13 	101324.999999997
0.02377377377377332 	299.9999999999972 	9.236253334652908e-14 	101324.999999997
0.02627627627627583 	299.9999999999797 	2.347725983434217e-13 	101324.9999999974
0.02877877877877833 	299.9999999999993 	1.950578121808267e-13 	101324.9999999974
0.03128128128128083 	299.9999999999882 	6.289451747856058e-13 	101324.9999999972
0.03378378378378333 	299.9999999999763 	5.141341613021311e-13 	101324.9999999969
0.03628628628628584 	299.9999999999965 	5.213387942543909e-13 	101324.999999997
0.03878878878878834 	299.999999999998 	5.652869935962734e-13 	101324.9999999971
0.04129129129129084 	299.9999999999943 	1.579598510111846e-13 	101324.9999999971
0.04379379379379333 	299.999999999986 	4.740769721225475e-13 	101324.9999999971
0.04629629629629585 	299.9999999999745 	1.063016268108101e-12 	101324.9999999972
0.04879879879879834 	299.9999999999893 	1.794434991250963e-12 	101324.9999999971
0.05130130130130085 	299.9999999999993 	2.09127195664846e-12 	101324.9999999974
0.05380380380380335 	300.0000000000067 	1.909356829730764e-12 	101324.9999999973
0.05630630630630584 	299.9999999999958 	1.320891644889385e-12 	101324.9999999971
0.05880880880880836 	299.9999999999858 	1.045189241466763e-12 	101324.9999999971
0.06131131131131085 	299.999999999991 	1.180457247057242e-12 	101324.999999997
0.06381381381381336 	299.9999999999873 	8.387224713052109e-13 	101324.9999999972
0.06631631631631586 	299.999999999974 	7.354822047120655e-13 	101324.9999999973
0.06881881881881835 	299.9999999999874 	7.397390611709454e-13 	101324.9999999973
0.07132132132132088 	300.0000000000025 	1.579219089644485e-13 	101324.9999999976
0.07382382382382337 	299.9999999999787 	3.535512709515908e-13 	101324.9999999975
0.07632632632632587 	299.9999999999911 	6.526127458595181e-13 	101324.9999999973
0.07882882882882837 	299.9999999999828 	8.440842273775655e-13 	101324.9999999972
0.08133133133133086 	300.0000000000001 	1.578549050544249e-12 	101324.9999999975
0.08383383383383337 	300.0000000000026 	1.617585930623604e-12 	101324.9999999975
0.08633633633633589 	299.9999999999773 	2.06237126058867e-12 	101324.9999999974
0.08883883883883838 	300.0000000000032 	2.439448485137883e-12 	101324.9999999973
0.09134134134134086 	299.9999999999973 	1.949784906688713e-12 	101324.9999999972
0.09384384384384339 	299.9999999999791 	2.441001033314144e-12 	101324.9999999972
0.09634634634634588 	299.999999999993 	2.278189897605239e-12 	101324.9999999972
0.09884884884884838 	299.9999999999947 	1.764430573377729e-12 	101324.9999999973
0.1013513513513509 	300.0000000000078 	2.109758015144782e-12 	101324.9999999975
0.1038538538538534 	299.9999999999845 	2.509671019538017e-12 	101324.9999999975
0.1063563563563559 	300.0000000000003 	2.819514165282112e-12 	101324.9999999976
0.1088588588588584 	300.0000000000013 	2.073397051548054e-12 	101324.9999999976
0.1113613613613609 	299.9999999999938 	1.781301859338748e-12 	101324.9999999976
0.1138638638638634 	299.9999999999912 	1.197995104398309e-12 	101324.9999999974
0.1163663663663659 	299.9999999999863 	1.19613297404668e-12 	101324.9999999972
0.1188688688688684 	299.9999999999923 	1.572141671222824e-12 	101324.9999999975
0.1213713713713709 	299.9999999999971 	2.065232629171381e-12 	101324.9999999975
0.1238738738738734 	299.9999999999801 	1.920183478423466e-12 	101324.9999999977
0.1263763763763759 	299.9999999999997 	1.650583263009387e-12 	101324.9999999976
0.1288788788788784 	299.999999999999 	1.370408355206076e-12 	101324.9999999975
0.1313813813813809 	299.9999999999958 	1.700737400693082e-12 	101324.9999999975
0.1338838838838834 	299.9999999999899 	1.479641990106235e-12 	101324.9999999976
0.1363863863863859 	300.0000000000048 	1.333929599416035e-12 	101324.9999999976
0.1388888888888884 	300.0000000000059 	7.036968565829792e-13 	101324.9999999976
0.1413913913913909 	299.9999999999982 	1.460567664654805e-13 	101324.9999999976
0.1438938938938934 	299.9999999999934 	5.667126618184794e-14 	101324.9999999973
0.1463963963963959 	299.9999999999905 	2.314140011633402e-13 	101324.9999999974
0.1488988988988985 	299.9999999999818 	7.221476073605923e-13 	101324.9999999976
0.1514014014014009 	299.9999999999929 	9.416936934087102e-13 	101324.9999999976
0.1539039039039035 	299.99999999999 	1.914184757992684e-12 	101324.9999999975
0.1564064064064059 	299.9999999999916 	1.868822969124248e-12 	101324.9999999977
0.1589089089089084 	299.9999999999919 	3.296644734824496e-12 	101324.9999999978
0.1614114114114109 	299.9999999999914 	1.247825473458782e-12 	101324.9999999978
0.1639139139139134 	299.9999999999833 	1.835473130900061e-12 	101324.9999999979
0.166416416416416 	299.9999999999966 	1.818766462825058e-12 	101324.9999999979
0.1689189189189185 	300.000000000007 	1.744149698907963e-12 	101324.9999999979
0.1714214214214209 	299.9999999999988 	1.576738516651253e-12 	101324.9999999979
0.1739239239239235 	299.9999999999995 	9.196030683817994e-13 	101324.9999999977
0.1764264264264259 	299.999999999989 	1.992751385035918e-12 	101324.9999999976
0.1789289289289284 	300.0000000000021 	7.252635232686176e-13 	101324.9999999976
0.181431431431431 	299.9999999999949 	1.715719650757998e-12 	101324.9999999978
0.1839339339339334 	299.9999999999952 	1.237777072388576e-12 	101324.9999999979
0.186436436436436 	299.9999999999898 	2.28755059120133e-12 	101324.9999999981
0.1889389389389385 	299.9999999999933 	1.917769967506963e-12 	101324.999999998
0.191441441441441 	299.9999999999925 	1.450183369167363e-12 	101324.9999999979
0.1939439439439434 	299.9999999999828 	1.788803512633374e-12 	101324.9999999979
0.196446446446446 	299.9999999999928 	1.365980214199808e-12 	101324.999999998
0.1989489489489485 	299.9999999999921 	2.612172756713263e-12 	101324.9999999981
0.2014514514514509 	299.999999999997 	1.764798931697229e-12 	101324.9999999984
0.2039539539539535 	299.9999999999966 	2.475635094542765e-12 	101324.9999999983
0.2064564564564559 	299.9999999999892 	2.338289335082307e-12 	101324.9999999984
0.2089589589589585 	299.9999999999978 	2.685813612756702e-12 	101324.9999999985
0.211461461461461 	299.99999999999 	2.843739566224847e-12 	101324.9999999984
0.2139639639639635 	300.0000000000008 	3.237043977949436e-12 	101324.9999999985
0.2164664664664659 	300.000000000006 	3.501440009570897e-12 	101324.9999999984
0.2189689689689684 	300.0000000000051 	2.272478479552747e-12 	101324.9999999983
0.221471471471471 	300.0000000000011 	2.86385858701627e-12 	101324.9999999985
0.2239739739739735 	299.9999999999908 	1.912118481722581e-12 	101324.9999999986
0.226476476476476 	299.9999999999999 	2.645993091599698e-12 	101324.9999999984
0.2289789789789785 	300.0000000000013 	1.868219188664229e-12 	101324.9999999987
0.231481481481481 	299.9999999999976 	1.523649441839192e-12 	101324.9999999986
0.2339839839839835 	299.9999999999945 	1.716609349260594e-12 	101324.9999999983
0.236486486486486 	300.0000000000074 	1.282229411525188e-12 	101324.9999999986
0.2389889889889885 	299.9999999999997 	1.769843714169923e-12 	101324.9999999985
0.241491491491491 	299.9999999999841 	8.332403393957523e-13 	101324.9999999985
0.2439939939939935 	299.9999999999976 	2.381352998606057e-12 	101324.9999999987
0.246496496496496 	299.9999999999991 	1.177225301777112e-12 	101324.9999999988
0.2489989989989985 	300.0000000000038 	1.283419906420571e-12 	101324.9999999987
0.251501501501501 	300.0000000000034 	7.409244633168155e-13 	101324.9999999988
0.2540040040040035 	299.9999999999985 	9.977195714257551e-13 	101324.9999999987
0.256506506506506 	300.0000000000032 	1.490613793569334e-12 	101324.999999999
0.2590090090090086 	299.9999999999849 	1.035845791705924e-12 	101324.9999999988
0.261511511511511 	300.0000000000031 	2.360664528949726e-12 	101324.9999999987
0.2640140140140135 	299.9999999999948 	1.012007610843318e-12 	101324.9999999985
0.2665165165165161 	299.9999999999908 	1.576165738511203e-12 	101324.9999999986
0.2690190190190185 	300.000000000008 	8.834985699878191e-13 	101324.9999999986
0.271521521521521 	300.0000000000022 	7.853854139184803e-13 	101324.9999999985
0.2740240240240235 	300.0000000000034 	5.545416216391712e-13 	101324.9999999984
0.276526526526526 	299.9999999999984 	5.276843869544976e-13 	101324.9999999986
0.2790290290290286 	299.9999999999891 	1.599206684100936e-12 	101324.9999999986
0.281531531531531 	299.9999999999818 	7.779547702364984e-13 	101324.9999999987
0.2840340340340335 	299.9999999999978 	1.445205072605132e-12 	101324.9999999989
0.2865365365365361 	299.9999999999937 	7.700357179141255e-13 	101324.999999999
0.2890390390390385 	299.9999999999979 	1.573213152079067e-12 	101324.999999999
0.291541541541541 	299.9999999999993 	8.524617430763977e-13 	101324.999999999
0.2940440440440436 	299.9999999999993 	7.050650590933164e-13 	101324.999999999
0.296546546546546 	299.9999999999961 	3.662958946765848e-13 	101324.9999999988
0.2990490490490486 	299.9999999999849 	9.601529789130779e-13 	101324.9999999988
0.3015515515515511 	300.0000000000053 	1.011672741781872e-12 	101324.9999999985
0.3040540540540535 	299.9999999999969 	1.684105408727081e-12 	101324.9999999986
0.3065565565565562 	299.9999999999995 	1.125874354443926e-12 	101324.9999999985
0.3090590590590585 	299.9999999999968 	1.26915832339963e-12 	101324.9999999988
0.3115615615615611 	299.9999999999866 	3.7047255449134e-13 	101324.9999999987
0.3140640640640635 	300.000000000001 	1.884873486047176e-13 	101324.9999999987
0.316566566566566 	299.9999999999975 	4.4424687400287e-13 	101324.9999999989
0.3190690690690687 	299.9999999999893 	3.320565639221266e-13 	101324.9999999989
0.3215715715715711 	300.0000000000014 	8.170052454330146e-13 	101324.9999999988
0.3240740740740735 	299.9999999999969 	5.942992834097487e-13 	101324.9999999989
0.326576576576576 	299.9999999999779 	8.102898251839e-13 	101324.9999999988
0.3290790790790786 	300.0000000000001 	8.953670655172812e-13 	101324.9999999988
0.3315815815815811 	300.0000000000097 	3.915354044810133e-13 	101324.9999999989
0.3340840840840836 	300.0000000000012 	3.434381965552939e-13 	101324.9999999989
0.3365865865865861 	300.0000000000139 	1.962265286201732e-13 	101324.9999999988
0.3390890890890886 	300.0000000000099 	4.405575052267807e-13 	101324.9999999988
0.3415915915915911 	300.0000000000011 	5.652973948831356e-13 	101324.9999999989
0.3440940940940935 	299.9999999999903 	1.462783941641481e-12 	101324.999999999
0.3465965965965962 	300.0000000000078 	6.013210073289176e-13 	101324.9999999991
0.3490990990990985 	300.0000000000063 	1.700990062440376e-12 	101324.9999999991
0.3516016016016011 	299.9999999999973 	1.052975300103237e-12 	101324.9999999992
0.3541041041041035 	300.0000000000033 	1.435504191112798e-12 	101324.999999999
0.3566066066066061 	299.9999999999932 	1.186398677022262e-12 	101324.999999999
0.3591091091091085 	299.9999999999858 	1.061201449895292e-12 	101324.999999999
0.3616116116116112 	299.9999999999872 	1.447211628673532e-12 	101324.9999999987
0.3641141141141137 	299.9999999999853 	7.03877391348824e-13 	101324.9999999987
0.3666166166166161 	299.9999999999831 	1.581804790556179e-12 	101324.9999999988
0.3691191191191185 	300.000000000006 	1.409631138951993e-12 	101324.9999999988
0.371621621621621 	300.0000000000045 	6.654329756402938e-13 	101324.9999999988
0.3741241241241237 	300.0000000000118 	5.698123891554687e-13 	101324.9999999988
0.3766266266266261 	300.0000000000039 	4.462710452226213e-13 	101324.999999999
0.3791291291291286 	299.9999999999969 	4.971947724394114e-13 	101324.9999999989
0.3816316316316311 	299.9999999999848 	1.032946062687582e-12 	101324.999999999
0.3841341341341336 	300.0000000000021 	1.097136004811766e-12 	101324.999999999
0.3866366366366362 	299.9999999999982 	1.268863558130012e-12 	101324.9999999988
0.3891391391391387 	299.9999999999895 	1.142359209171966e-12 	101324.9999999987
0.391641641641641 	299.9999999999994 	1.630423062169071e-12 	101324.9999999984
0.3941441441441436 	300.0000000000013 	1.699005861982603e-12 	101324.9999999982
0.3966466466466462 	299.9999999999989 	2.05577233919161e-12 	101324.9999999981
0.3991491491491486 	299.9999999999882 	2.395984759371538e-12 	101324.9999999982
0.4016516516516512 	299.9999999999795 	2.351302579724798e-12 	101324.9999999983
0.4041541541541536 	299.9999999999908 	1.340053600453904e-12 	101324.9999999984
0.4066566566566561 	299.9999999999907 	2.105258623567887e-12 	101324.9999999984
0.4091591591591587 	300.0000000000003 	6.011384196742102e-13 	101324.9999999985
0.4116616616616612 	300.0000000000038 	1.546685058494384e-12 	101324.9999999984
0.4141641641641635 	300.0000000000086 	6.480482485756542e-13 	101324.9999999984
0.4166666666666662 	299.9999999999991 	1.161850028971969e-12 	101324.9999999984
0.4191691691691687 	299.9999999999873 	1.64748875164011e-12 	101324.9999999983
0.421671671671671 	300.0000000000032 	1.98013346342287e-12 	101324.9999999981
0.4241741741741737 	299.9999999999959 	3.01465942933875e-12 	101324.999999998
0.4266766766766761 	299.9999999999913 	1.319591382944602e-12 	101324.999999998
0.4291791791791785 	300.000000000003 	2.755960014892232e-12 	101324.999999998
0.4316816816816812 	299.999999999997 	4.942227808103053e-13 	101324.9999999982
0.4341841841841836 	299.9999999999956 	2.176655201456789e-12 	101324.9999999982
0.4366866866866862 	299.9999999999873 	7.431651830952773e-13 	101324.9999999982
0.4391891891891885 	299.9999999999988 	1.478407039377435e-12 	101324.9999999983
0.4416916916916913 	299.9999999999993 	1.856600856430714e-12 	101324.9999999984
0.4441941941941936 	299.9999999999962 	2.31099199611686e-12 	101324.9999999985
0.4466966966966961 	299.9999999999843 	2.102621335134085e-12 	101324.9999999985
0.4491991991991987 	299.9999999999978 	1.487660738615805e-12 	101324.9999999987
0.4517017017017012 	299.9999999999968 	2.111414201852352e-12 	101324.9999999988
0.4542042042042035 	299.9999999999955 	1.895576608063361e-12 	101324.9999999988
0.4567067067067062 	299.9999999999962 	2.376981044892569e-12 	101324.9999999986
0.4592092092092087 	299.9999999999841 	2.417063333220399e-12 	101324.9999999984
0.4617117117117112 	300.0000000000015 	2.513590566576007e-12 	101324.9999999983
0.4642142142142137 	299.9999999999915 	2.398282169693102e-12 	101324.9999999983
0.4667167167167162 	299.9999999999955 	2.183820979524069e-12 	101324.9999999983
0.4692192192192187 	299.9999999999889 	1.998808109299363e-12 	101324.9999999982
0.4717217217217212 	300.0000000000047 	1.751195293004974e-12 	101324.9999999981
0.4742242242242236 	299.9999999999906 	1.308512555177984e-12 	101324.9999999982
0.4767267267267262 	299.999999999998 	6.695491765913134e-13 	101324.9999999984
0.4792292292292287 	300.0000000000015 	4.578416510852651e-13 	101324.9999999983
0.4817317317317312 	300.0000000000045 	5.442590073789579e-13 	101324.9999999984
0.4842342342342336 	299.9999999999966 	8.973213162758113e-13 	101324.9999999984
0.4867367367367362 	299.9999999999885 	6.623448079825501e-13 	101324.9999999982
0.4892392392392387 	300.0000000000028 	2.10109924050116e-13 	101324.9999999981
0.4917417417417412 	299.9999999999997 	1.04439826579925e-12 	101324.999999998
0.4942442442442437 	299.9999999999795 	1.11891868345069e-12 	101324.9999999981
0.4967467467467462 	299.9999999999835 	1.368038866678453e-12 	101324.9999999983
0.4992492492492487 	299.9999999999815 	4.062201571736743e-13 	101324.9999999982
0.5017517517517511 	299.9999999999886 	2.259024562310894e-13 	101324.9999999984
0.5042542542542537 	299.9999999999936 	2.219248729061916e-14 	101324.9999999984
0.5067567567567562 	299.9999999999866 	1.047436520420435e-13 	101324.9999999983
0.5092592592592589 	299.9999999999914 	2.206116636222886e-13 	101324.9999999982
0.5117617617617611 	299.9999999999917 	4.098346739330207e-13 	101324.9999999981
0.5142642642642637 	300 	6.708177181200569e-13 	101324.9999999979
0.5167667667667663 	299.9999999999961 	9.51417831710912e-13 	101324.9999999978
0.5192692692692688 	299.9999999999839 	1.651854487153308e-12 	101324.9999999979
0.5217717717717714 	299.9999999999852 	1.235556392318973e-12 	101324.9999999979
0.5242742742742736 	299.9999999999853 	1.241223969170225e-12 	101324.999999998
0.5267767767767763 	299.999999999991 	5.706645864375413e-13 	101324.9999999981
0.5292792792792789 	299.9999999999883 	4.667991151554455e-13 	101324.9999999981
0.5317817817817813 	299.9999999999793 	7.20824704886927e-13 	101324.9999999983
0.5342842842842837 	300.0000000000016 	7.6028393837447e-13 	101324.9999999984
0.5367867867867864 	299.9999999999993 	6.570003937006346e-13 	101324.9999999983
0.5392892892892888 	299.9999999999919 	3.455267875394014e-13 	101324.9999999982
0.5417917917917912 	299.9999999999999 	4.671565090283039e-13 	101324.9999999981
0.5442942942942938 	299.9999999999948 	6.367427775279429e-13 	101324.9999999981
0.5467967967967964 	299.9999999999884 	7.476918099871728e-13 	101324.9999999979
0.5492992992992988 	299.9999999999856 	3.97927138881625e-13 	101324.9999999977
0.5518018018018012 	299.9999999999864 	3.940124107911174e-13 	101324.9999999976
0.5543043043043039 	300.0000000000015 	6.34847736877783e-13 	101324.9999999976
0.5568068068068063 	299.9999999999965 	5.656232321528755e-13 	101324.9999999976
0.5593093093093087 	299.999999999981 	7.60140861627941e-13 	101324.9999999977
0.5618118118118114 	299.9999999999915 	7.010100505173806e-13 	101324.9999999977
0.5643143143143137 	299.9999999999897 	4.403790658681387e-13 	101324.9999999976
0.5668168168168163 	299.9999999999984 	3.834152677241096e-13 	101324.9999999978
0.5693193193193188 	300.0000000000065 	3.216288294324257e-13 	101324.9999999978
0.5718218218218213 	300.0000000000061 	5.370605422664198e-13 	101324.999999998
0.5743243243243239 	300.0000000000021 	6.471525951141786e-13 	101324.9999999979
0.5768268268268262 	299.9999999999994 	7.629065787755792e-13 	101324.9999999979
0.5793293293293288 	299.9999999999885 	9.856086795536742e-13 	101324.9999999979
0.5818318318318314 	299.9999999999832 	1.522241131875985e-12 	101324.9999999981
0.5843343343343338 	299.9999999999952 	1.103706617033003e-12 	101324.9999999978
0.5868368368368363 	299.9999999999933 	8.806694276917922e-13 	101324.9999999976
0.5893393393393387 	299.999999999986 	4.3882363326611e-13 	101324.9999999975
0.5918418418418413 	299.9999999999883 	5.443920464567051e-13 	101324.9999999976
0.5943443443443439 	300.0000000000023 	1.353665037540742e-12 	101324.9999999977
0.5968468468468463 	300.0000000000023 	1.275794293261631e-12 	101324.9999999978
0.5993493493493487 	300.0000000000092 	7.236996542612288e-13 	101324.9999999976
0.6018518518518514 	299.9999999999939 	3.340244616408297e-13 	101324.9999999974
0.6043543543543537 	299.9999999999981 	3.993502454370268e-13 	101324.9999999975
0.6068568568568564 	299.9999999999946 	5.045645633558612e-13 	101324.9999999974
0.6093593593593587 	299.9999999999833 	3.462271728204946e-13 	101324.9999999975
0.6118618618618614 	299.9999999999833 	3.179369455256354e-13 	101324.9999999974
0.6143643643643638 	300.0000000000015 	6.775543715509136e-13 	101324.9999999975
0.6168668668668662 	299.9999999999982 	7.312886055617345e-13 	101324.9999999973
0.6193693693693688 	299.9999999999888 	9.143119856290145e-13 	101324.9999999974
0.6218718718718714 	299.9999999999923 	6.927950929581868e-13 	101324.9999999976
0.6243743743743737 	299.999999999987 	8.714124143146432e-13 	101324.9999999976
0.6268768768768762 	299.9999999999849 	6.049595686297636e-13 	101324.9999999978
0.629379379379379 	299.9999999999889 	3.968195562926044e-13 	101324.9999999977
0.6318818818818812 	299.9999999999922 	6.228386783958023e-13 	101324.9999999978
0.6343843843843838 	300.0000000000016 	6.48412315347436e-13 	101324.9999999978
0.6368868868868864 	299.9999999999947 	1.108048329120536e-12 	101324.9999999978
0.6393893893893888 	299.9999999999838 	1.287142975970792e-12 	101324.9999999978
0.6418918918918912 	299.9999999999995 	7.563929860309687e-13 	101324.999999998
0.6443943943943939 	299.9999999999974 	1.763611707225989e-12 	101324.9999999981
0.6468968968968963 	299.9999999999945 	8.911278806900538e-13 	101324.9999999979
0.6493993993993988 	299.9999999999926 	1.272620781704128e-12 	101324.9999999978
0.6519019019019012 	299.9999999999915 	5.232509950752189e-13 	101324.9999999978
0.6544044044044038 	299.9999999999778 	9.780310614627004e-13 	101324.9999999977
0.6569069069069065 	299.9999999999907 	1.33472182226032e-13 	101324.9999999977
0.6594094094094087 	299.9999999999899 	3.30209927994093e-13 	101324.9999999977
0.6619119119119113 	299.999999999989 	6.644040561043645e-13 	101324.9999999977
0.664414414414414 	299.9999999999973 	3.188996810764463e-13 	101324.9999999978
0.6669169169169162 	300.0000000000018 	3.36260952293317e-13 	101324.9999999978
0.6694194194194188 	299.9999999999958 	3.136484142081381e-13 	101324.9999999979
0.6719219219219214 	299.9999999999863 	3.561032513810935e-13 	101324.9999999981
0.674424424424424 	299.9999999999947 	2.512662704038047e-13 	101324.9999999982
0.6769269269269262 	299.9999999999837 	4.092052636497281e-13 	101324.9999999983
0.679429429429429 	300.0000000000003 	5.758108062412081e-13 	101324.9999999982
0.6819319319319311 	299.9999999999936 	8.052660637750293e-13 	101324.9999999982
0.6844344344344341 	299.9999999999978 	4.546686232244889e-13 	101324.9999999982
0.686936936936936 	299.999999999999 	5.44594488532871e-13 	101324.9999999981
0.6894394394394392 	299.9999999999999 	8.806737766939147e-13 	101324.9999999979
0.6919419419419413 	299.9999999999966 	1.139518843174129e-12 	101324.999999998
0.694444444444444 	299.9999999999893 	1.200109308435056e-12 	101324.999999998
0.6969469469469463 	299.9999999999851 	5.988603624567423e-13 	101324.999999998
0.6994494494494489 	299.9999999999827 	4.721752355614458e-13 	101324.9999999979
0.7019519519519515 	299.9999999999971 	7.924708241058668e-13 	101324.9999999979
0.7044544544544538 	299.9999999999909 	6.791025364389382e-13 	101324.9999999979
0.7069569569569564 	299.9999999999981 	1.347428744161036e-12 	101324.9999999978
0.7094594594594589 	299.9999999999918 	6.954396505420125e-13 	101324.9999999977
0.7119619619619615 	299.9999999999819 	8.762617839464164e-13 	101324.9999999977
0.7144644644644638 	299.9999999999869 	2.524288610495192e-13 	101324.9999999978
0.7169669669669665 	299.9999999999824 	1.78777429361267e-13 	101324.9999999978
0.7194694694694688 	299.9999999999981 	5.048974130074311e-13 	101324.9999999978
0.7219719719719715 	299.9999999999985 	3.289167201556447e-13 	101324.9999999977
0.7244744744744737 	299.9999999999993 	4.729036441406441e-13 	101324.9999999977
0.7269769769769764 	299.9999999999982 	9.43173125501359e-13 	101324.9999999977
0.7294794794794791 	299.9999999999975 	1.814100177211824e-12 	101324.9999999978
0.7319819819819813 	299.9999999999957 	8.886058119660175e-13 	101324.9999999978
0.7344844844844839 	299.9999999999849 	1.64206145457311e-12 	101324.9999999978
0.7369869869869864 	299.9999999999916 	2.933892778385806e-13 	101324.9999999979
0.739489489489489 	299.9999999999881 	8.105322865139653e-13 	101324.9999999978
0.7419919919919914 	299.999999999987 	9.068710152317928e-13 	101324.9999999978
0.7444944944944939 	299.9999999999945 	7.772568411590895e-13 	101324.999999998
0.7469969969969963 	299.999999999994 	1.577632104020748e-12 	101324.9999999979
0.7494994994994989 	299.9999999999875 	1.568037668030195e-12 	101324.9999999978
0.7520020020020015 	299.9999999999924 	1.405674861630671e-12 	101324.9999999976
0.7545045045045039 	299.9999999999935 	1.342735845926612e-12 	101324.9999999974
0.7570070070070062 	299.999999999989 	1.112611342657096e-12 	101324.9999999973
0.7595095095095092 	299.9999999999844 	4.649612072356227e-13 	101324.9999999974
0.7620120120120112 	299.9999999999984 	8.668447830034174e-13 	101324.9999999976
0.7645145145145138 	299.9999999999969 	8.725839346002642e-13 	101324.9999999977
0.7670170170170165 	299.999999999988 	6.841590442091228e-13 	101324.9999999978
0.7695195195195191 	299.9999999999851 	1.538124548101565e-12 	101324.9999999979
0.7720220220220213 	299.999999999989 	1.022702126433929e-12 	101324.9999999979
0.7745245245245239 	299.9999999999898 	5.8050195746763e-13 	101324.9999999978
0.7770270270270263 	299.9999999999946 	1.329122250814489e-12 	101324.9999999977
0.779529529529529 	299.9999999999952 	6.488830960857008e-13 	101324.9999999976
0.7820320320320313 	299.9999999999915 	1.169814024143597e-12 	101324.9999999977
0.784534534534534 	299.9999999999961 	1.03356362913275e-12 	101324.9999999978
0.7870370370370364 	299.9999999999952 	5.632092808245442e-13 	101324.9999999979
0.7895395395395389 	299.9999999999933 	9.438743842732718e-13 	101324.9999999979
0.7920420420420413 	299.999999999996 	8.028640515794559e-13 	101324.9999999978
0.794544544544544 	300 	1.398423615562895e-12 	101324.9999999977
0.7970470470470463 	300.0000000000015 	1.472752156189202e-12 	101324.9999999978
0.799549549549549 	299.9999999999969 	1.356659122115154e-12 	101324.9999999978
0.8020520520520515 	299.9999999999972 	8.291052604890328e-13 	101324.9999999978
0.8045545545545539 	299.9999999999893 	4.736642088630903e-13 	101324.9999999978
0.8070570570570563 	299.9999999999992 	5.953488165676347e-14 	101324.9999999976
0.8095595595595589 	299.9999999999918 	1.733880002190232e-13 	101324.9999999975
0.8120620620620614 	299.999999999984 	4.480824087120523e-13 	101324.9999999974
0.8145645645645638 	299.999999999996 	6.458797253241608e-13 	101324.9999999975
0.8170670670670666 	299.999999999996 	9.189740582569437e-13 	101324.9999999977
0.8195695695695689 	299.9999999999941 	1.420946987976074e-12 	101324.9999999979
0.8220720720720714 	299.9999999999877 	1.061003691745904e-12 	101324.9999999979
0.8245745745745739 	299.9999999999984 	5.239075819671696e-13 	101324.999999998
0.8270770770770765 	299.9999999999935 	1.073669246055276e-12 	101324.9999999978
0.8295795795795788 	299.999999999989 	3.994994971043596e-13 	101324.9999999977
0.8320820820820815 	300.0000000000035 	3.412059711232122e-13 	101324.9999999976
0.834584584584584 	300.0000000000012 	5.096458264042176e-13 	101324.9999999976
0.8370870870870865 	299.9999999999927 	8.626299694591886e-13 	101324.9999999977
0.8395895895895891 	299.999999999984 	5.18664997685995e-13 	101324.9999999979
0.8420920920920915 	299.9999999999849 	2.427376824778116e-13 	101324.999999998
0.844594594594594 	299.9999999999835 	1.048784488141592e-13 	101324.9999999981
0.8470970970970964 	299.9999999999882 	2.722599821633774e-13 	101324.9999999981
0.8495995995995991 	299.9999999999966 	3.114629214294297e-13 	101324.9999999981
0.8521021021021015 	299.9999999999965 	4.629422260690731e-13 	101324.9999999979
0.8546046046046039 	299.9999999999942 	7.206916028644056e-13 	101324.999999998
0.8571071071071066 	299.9999999999972 	1.059885660281052e-12 	101324.999999998
0.8596096096096089 	299.9999999999899 	1.443545841615094e-12 	101324.999999998
0.8621121121121116 	299.999999999985 	1.097381716828391e-12 	101324.9999999979
0.8646146146146139 	299.9999999999969 	6.567909640973604e-13 	101324.9999999978
0.8671171171171166 	299.9999999999949 	4.36082323822191e-13 	101324.9999999977
0.8696196196196189 	299.9999999999902 	2.198181576068189e-13 	101324.9999999976
0.8721221221221216 	299.9999999999908 	7.631129098460977e-13 	101324.9999999975
0.874624624624624 	299.9999999999982 	8.762846460302379e-13 	101324.9999999976
0.8771271271271264 	300.0000000000015 	6.732663997782269e-13 	101324.9999999978
0.879629629629629 	299.9999999999994 	1.378927440204201e-12 	101324.9999999979
0.8821321321321317 	299.9999999999961 	1.346805926207803e-12 	101324.999999998
0.8846346346346339 	299.9999999999856 	9.18723570254274e-13 	101324.9999999978
0.8871371371371364 	299.9999999999924 	4.556025367907713e-13 	101324.9999999977
0.8896396396396391 	299.9999999999901 	6.612837209352213e-13 	101324.9999999978
0.8921421421421414 	299.999999999991 	1.160188449206683e-13 	101324.9999999979
0.8946446446446441 	299.999999999999 	6.322588665387095e-13 	101324.999999998
0.8971471471471464 	299.9999999999999 	9.03284333990697e-13 	101324.9999999979
0.8996496496496489 	299.9999999999927 	8.02593532977515e-13 	101324.9999999981
0.9021521521521517 	299.9999999999887 	1.335189883177363e-12 	101324.999999998
0.9046546546546541 	299.9999999999949 	8.621447273708335e-13 	101324.9999999978
0.9071571571571564 	299.9999999999874 	9.791594577296679e-13 	101324.9999999979
0.9096596596596589 	299.9999999999891 	8.887812802300276e-13 	101324.9999999979
0.9121621621621616 	300.0000000000006 	1.005619572252996e-12 	101324.9999999979
0.9146646646646639 	299.9999999999953 	7.89223483907913e-13 	101324.9999999977
0.9171671671671666 	299.9999999999893 	8.55536394425781e-13 	101324.9999999978
0.9196696696696689 	299.9999999999991 	1.345302010552306e-12 	101324.999999998
0.9221721721721714 	299.9999999999997 	1.218222152698005e-12 	101324.9999999981
0.9246746746746741 	299.9999999999876 	1.270703100670217e-12 	101324.9999999983
0.9271771771771765 	299.9999999999866 	4.879794376475104e-13 	101324.9999999984
0.9296796796796791 	299.9999999999973 	6.733203085253135e-13 	101324.9999999982
0.9321821821821816 	299.9999999999972 	3.916189056887974e-13 	101324.999999998
0.9346846846846838 	299.9999999999915 	4.379710438508292e-13 	101324.9999999978
0.9371871871871866 	300.0000000000015 	7.933377869688302e-13 	101324.9999999976
0.9396896896896891 	300.0000000000028 	9.016730695931897e-13 	101324.9999999977
0.9421921921921914 	300.000000000002 	9.993776587230792e-13 	101324.9999999979
0.9446946946946939 	299.9999999999925 	1.503655875074232e-12 	101324.9999999981
0.9471971971971965 	299.9999999999838 	1.040657339484686e-12 	101324.9999999981
0.9496996996996991 	299.9999999999879 	6.335825185865562e-13 	101324.9999999981
0.9522022022022016 	299.9999999999897 	4.107875852640981e-13 	101324.9999999981
0.9547047047047038 	299.9999999999937 	3.335480575289592e-13 	101324.9999999981
0.9572072072072064 	299.9999999999931 	5.41400011206194e-13 	101324.9999999982
0.9597097097097093 	299.9999999999916 	6.273427691972659e-13 	101324.9999999982
0.9622122122122114 	299.9999999999896 	8.448045993795614e-13 	101324.9999999981
0.964714714714714 	299.9999999999909 	8.804277571837744e-13 	101324.9999999981
0.9672172172172167 	299.9999999999919 	8.091548224604846e-13 	101324.999999998
0.969719719719719 	299.9999999999972 	1.454769045673623e-12 	101324.999999998
0.9722222222222214 	299.9999999999934 	7.540468855450269e-13 	101324.9999999981
0.9747247247247239 	299.9999999999911 	5.554558482020842e-13 	101324.9999999981
0.9772272272272267 	299.9999999999977 	8.565704131815271e-13 	101324.9999999981
0.9797297297297292 	299.9999999999962 	1.09767696687792e-12 	101324.999999998
0.9822322322322313 	299.9999999999991 	1.141115944442483e-12 	101324.9999999979
0.9847347347347344 	299.9999999999996 	1.331220975879352e-12 	101324.999999998
0.9872372372372363 	299.9999999999914 	1.183292185207809e-12 	101324.9999999981
0.9897397397397389 	299.9999999999967 	7.330890519198223e-13 	101324.9999999983
0.9922422422422417 	299.9999999999903 	7.029425060273625e-13 	101324.9999999983
0.9947447447447441 	299.9999999999878 	6.418043935314097e-13 	101324.999999998
0.9972472472472468 	299.9999999999919 	9.933240444808645e-13 	101324.9999999978
0.999749749749749 	299.9999999999904 	8.129579961838764e-13 	101324.9999999978
1.002252252252252 	299.9999999999925 	7.957498124952152e-13 	101324.9999999979
1.004754754754754 	299.9999999999942 	1.276996731327171e-12 	101324.9999999981
1.007257257257256 	299.9999999999901 	1.278727125651374e-12 	101324.9999999981
1.009759759759759 	299.9999999999882 	9.778790268656153e-13 	101324.999999998
1.012262262262261 	299.9999999999866 	6.692023469914293e-13 	101324.999999998
1.014764764764764 	299.9999999999841 	1.049534052904085e-12 	101324.9999999982
1.017267267267267 	299.9999999999828 	1.27509843453896e-12 	101324.9999999983
1.019769769769769 	299.9999999999916 	1.754662252670767e-12 	101324.9999999981
1.022272272272272 	299.9999999999931 	1.396479977750171e-12 	101324.9999999978
1.024774774774774 	299.9999999999908 	9.553547008874491e-13 	101324.9999999977
1.027277277277277 	299.9999999999909 	9.327344489762916e-13 	101324.9999999977
1.029779779779779 	299.9999999999957 	1.598608920204358e-13 	101324.9999999979
1.032282282282282 	299.9999999999956 	1.693805079728865e-13 	101324.9999999981
1.034784784784784 	299.9999999999961 	6.601168524482801e-14 	101324.9999999981
1.037287287287286 	299.9999999999905 	4.461425492654156e-13 	101324.9999999981
1.039789789789789 	299.9999999999924 	8.386120109068267e-13 	101324.999999998
1.042292292292291 	300.0000000000013 	1.289967840429363e-12 	101324.9999999979
1.044794794794794 	300.0000000000032 	1.587826521907644e-12 	101324.9999999979
1.047297297297296 	300.0000000000034 	9.90653394746956e-13 	101324.9999999981
1.049799799799799 	299.9999999999962 	1.346370340778584e-12 	101324.9999999982
1.052302302302302 	299.9999999999937 	7.420666358477574e-13 	101324.9999999982
1.054804804804804 	299.9999999999889 	1.910598768862411e-13 	101324.9999999983
1.057307307307306 	299.9999999999832 	4.032194520352852e-13 	101324.9999999982
1.059809809809809 	299.9999999999888 	9.286943814719131e-13 	101324.999999998
1.062312312312312 	299.9999999999863 	7.845424501108507e-13 	101324.9999999979
1.064814814814814 	299.9999999999858 	8.651983123971114e-13 	101324.999999998
1.067317317317317 	299.9999999999828 	1.086753563595905e-12 	101324.9999999981
1.069819819819819 	299.999999999981 	1.111878336032499e-12 	101324.999999998
1.072322322322321 	299.9999999999944 	1.316974171630282e-12 	101324.9999999979
1.074824824824824 	299.9999999999999 	4.563737405885354e-13 	101324.9999999979
1.077327327327327 	300.0000000000032 	2.223154176102302e-13 	101324.999999998
1.079829829829829 	300.0000000000033 	3.828365327875757e-13 	101324.9999999981
1.082332332332332 	299.9999999999982 	8.716408587905037e-13 	101324.9999999983
1.084834834834834 	299.9999999999956 	1.285771995838616e-12 	101324.9999999984
1.087337337337337 	299.9999999999881 	1.623206293208608e-12 	101324.9999999985
1.089839839839839 	299.9999999999862 	1.630560990090706e-12 	101324.9999999984
1.092342342342342 	299.999999999994 	1.561632351223038e-12 	101324.9999999983
1.094844844844844 	299.9999999999969 	1.501620779267257e-12 	101324.9999999982
1.097347347347347 	299.9999999999907 	1.798262454949194e-12 	101324.9999999982
1.099849849849849 	299.999999999987 	1.387565794140719e-12 	101324.9999999983
1.102352352352352 	299.9999999999908 	7.791252033639297e-13 	101324.9999999982
1.104854854854854 	299.9999999999957 	1.181919433574486e-12 	101324.9999999983
1.107357357357357 	299.9999999999926 	4.457851060049562e-13 	101324.9999999985
1.109859859859859 	299.9999999999866 	8.099994476311636e-13 	101324.9999999985
1.112362362362362 	300.0000000000015 	1.115639151982534e-12 	101324.9999999987
1.114864864864865 	300.0000000000042 	1.194938017618818e-12 	101324.9999999986
1.117367367367367 	299.9999999999922 	1.227658123402097e-12 	101324.9999999985
1.119869869869869 	299.9999999999843 	9.427631573624855e-13 	101324.9999999985
1.122372372372372 	299.9999999999886 	1.513245272035463e-12 	101324.9999999984
1.124874874874874 	299.9999999999877 	1.205454026143387e-12 	101324.9999999984
1.127377377377377 	299.999999999993 	1.574484897831255e-12 	101324.9999999987
1.129879879879879 	300.0000000000058 	1.45920346431901e-12 	101324.9999999987
1.132382382382382 	300.0000000000047 	1.307027837109786e-12 	101324.9999999988
1.134884884884884 	299.9999999999991 	9.355583722392534e-13 	101324.9999999988
1.137387387387387 	300.0000000000015 	1.003056182128523e-12 	101324.9999999987
1.139889889889889 	299.9999999999912 	1.391604914585269e-12 	101324.9999999988
1.142392392392392 	299.9999999999901 	1.339720346186382e-12 	101324.9999999989
1.144894894894894 	300.0000000000016 	1.846858274846896e-12 	101324.9999999991
1.147397397397397 	299.999999999999 	1.279630834946325e-12 	101324.9999999992
1.149899899899899 	299.9999999999864 	1.402310646909729e-12 	101324.9999999992
1.152402402402402 	299.9999999999836 	1.249067018847036e-12 	101324.9999999992
1.154904904904904 	299.9999999999928 	1.721517916687638e-12 	101324.9999999992
1.157407407407407 	299.9999999999944 	1.737796092105464e-12 	101324.9999999992
1.159909909909909 	299.999999999989 	2.063766749028424e-12 	101324.9999999993
1.162412412412412 	299.9999999999861 	2.60224076689869e-12 	101324.9999999993
1.164914914914914 	299.9999999999903 	2.169675254903453e-12 	101324.9999999993
1.167417417417417 	299.9999999999893 	2.736246063537658e-12 	101324.9999999994
1.169919919919919 	299.999999999999 	2.097384457023126e-12 	101324.9999999995
1.172422422422422 	300.000000000006 	1.90265711267017e-12 	101324.9999999994
1.174924924924925 	299.9999999999939 	1.203034738139144e-12 	101324.9999999994
1.177427427427427 	299.9999999999867 	1.406313086472344e-12 	101324.9999999994
1.179929929929929 	299.9999999999981 	1.83205557328316e-12 	101324.9999999992
1.182432432432432 	300.0000000000022 	1.156111594622579e-12 	101324.9999999993
1.184934934934934 	299.9999999999977 	1.486625149747352e-12 	101324.9999999994
1.187437437437437 	299.9999999999961 	1.495805013970973e-12 	101324.9999999994
1.189939939939939 	299.9999999999936 	2.069777968733601e-12 	101324.9999999992
1.192442442442442 	299.9999999999848 	2.034794593481568e-12 	101324.9999999992
1.194944944944944 	299.9999999999836 	2.641856138570042e-12 	101324.9999999991
1.197447447447447 	299.9999999999949 	2.294651990798993e-12 	101324.999999999
1.199949949949949 	299.9999999999989 	2.35373266420205e-12 	101324.9999999992
1.202452452452452 	299.9999999999894 	2.894467611309482e-12 	101324.9999999992
1.204954954954955 	299.9999999999875 	2.807326724780603e-12 	101324.9999999992
1.207457457457457 	299.9999999999924 	3.337334884394319e-12 	101324.9999999993
1.20995995995996 	299.9999999999931 	3.039383118170454e-12 	101324.9999999994
1.212462462462462 	299.9999999999964 	3.477151995710274e-12 	101324.9999999995
1.214964964964964 	299.9999999999962 	3.335388204430011e-12 	101324.9999999996
1.217467467467467 	299.9999999999964 	3.735077420146771e-12 	101324.9999999997
1.219969969969969 	299.999999999995 	3.330654341791464e-12 	101324.9999999998
1.222472472472472 	300.0000000000033 	3.341420071905659e-12 	101324.9999999999
1.224974974974975 	300.0000000000085 	2.994391265826162e-12 	101324.9999999999
1.227477477477477 	299.9999999999998 	2.082874725920902e-12 	101324.9999999999
1.229979979979979 	299.9999999999945 	2.553881167205067e-12 	101324.9999999999
1.232482482482482 	299.99999999999 	2.173889519483836e-12 	101324.9999999997
1.234984984984984 	299.9999999999916 	2.860567466656982e-12 	101324.9999999997
1.237487487487487 	299.999999999993 	2.31890324863787e-12 	101324.9999999999
1.239989989989989 	299.9999999999928 	2.811835094091344e-12 	101324.9999999999
1.242492492492492 	299.9999999999987 	3.285642222431068e-12 	101324.9999999999
1.244994994994994 	299.9999999999933 	2.563209034985896e-12 	101324.9999999999
1.247497497497497 	299.9999999999941 	3.204240138811264e-12 	101324.9999999999
1.249999999999999 	300 	3.193700200554701e-12 	101325.0000000001
