-1.25 	347.5528258147341 	0.003077885465077527 	101325.0345575164
-1.247497497497497 	300.0834015472069 	0.003078740004300976 	101325.0287353897
-1.244994994994995 	300.002729867396 	0.002926211325826546 	101325.0330429427
-1.242492492492492 	300.0000873509363 	0.002773947336351423 	101325.0296950703
-1.23998998998999 	300.0000278756906 	0.00261580239943923 	101325.0319048181
-1.237487487487487 	300.0000258836543 	0.002459138918046781 	101325.0306347998
-1.234984984984985 	300.0000268235787 	0.00229948449361081 	101325.03167521
-1.232482482482482 	300.0000265893971 	0.002145297036352084 	101325.0314684387
-1.22997997997998 	300.0000270476145 	0.001986309150317089 	101325.0319500824
-1.227477477477477 	300.0000275377731 	0.001835122929062104 	101325.0325804101
-1.224974974974975 	300.0000274440722 	0.001680345895208423 	101325.0324254714
-1.222472472472472 	300.0000279788878 	0.001535675110251032 	101325.0330978061
-1.21996996996997 	300.0000277087042 	0.001387372577609897 	101325.0327442781
-1.217467467467467 	300.0000290194832 	0.001251374245645522 	101325.0343217502
-1.214964964964965 	300.000027811809 	0.001113884941491653 	101325.0328721708
-1.212462462462462 	300.0000290609069 	0.0009909224413283499 	101325.0343622419
-1.20995995995996 	300.0000277328912 	0.0008610636194435202 	101325.0327802995
-1.207457457457457 	300.0000291159022 	0.0007480289656578501 	101325.0344254463
-1.204954954954955 	300.0000273548094 	0.0006300548980088846 	101325.0323431051
-1.202452452452452 	300.0000289836881 	0.0005306502042122638 	101325.0342638448
-1.19994994994995 	300.0000269242423 	0.0004243150047347641 	101325.0318319294
-1.197447447447447 	300.0000292208596 	0.0003389906705236426 	101325.0345362679
-1.194944944944945 	300.0000268696606 	0.0002464184839068065 	101325.0317695545
-1.192442442442442 	300.0000296481445 	0.000178569351119065 	101325.035040084
-1.18993993993994 	300.0000271508893 	0.0001099098034505498 	101325.032114008
-1.187437437437437 	300.0000300876603 	6.276855067398842e-05 	101325.0355612207
-1.184934934934935 	300.0000278795776 	0.00010321444454654 	101325.032977152
-1.182432432432432 	300.000030371883 	7.386912206788514e-05 	101325.0358890926
-1.17992992992993 	300.0000292659761 	8.219790406814457e-05 	101325.0346131812
-1.177427427427427 	300.0000302429173 	9.570613720644511e-05 	101325.0357345278
-1.174924924924925 	300.0000298913475 	7.564723388649592e-05 	101325.0353532675
-1.172422422422422 	300.0000303606811 	0.0001015586399297801 	101325.0358732761
-1.16991991991992 	300.0000299911159 	7.135012104500299e-05 	101325.0354725564
-1.167417417417417 	300.0000301478775 	0.000104972765754448 	101325.0356263643
-1.164914914914915 	300.000029795779 	0.0001028079296444674 	101325.0352421797
-1.162412412412412 	300.0000297808011 	0.0001382338294019585 	101325.0351908547
-1.15990990990991 	300.0000295930067 	0.000149230044511723 	101325.0350016843
-1.157407407407407 	300.0000295993205 	0.0001832073981123176 	101325.0349768592
-1.154904904904904 	300.0000297215447 	0.0001897601196697795 	101325.0351530846
-1.152402402402403 	300.0000298351034 	0.0002211268677818773 	101325.0352577419
-1.1498998998999 	300.0000302137904 	0.0002215271166824874 	101325.0357352189
-1.147397397397397 	300.0000303919601 	0.0002484260718197536 	101325.0359172798
-1.144894894894895 	300.0000308456124 	0.0002405990276884169 	101325.0364786259
-1.142392392392392 	300.0000310490876 	0.000257440410959009 	101325.0366918332
-1.13988988988989 	300.0000313394476 	0.0002361801737155077 	101325.0370596593
-1.137387387387387 	300.0000314715783 	0.0002463064156334569 	101325.0371922669
-1.134884884884885 	300.0000315862457 	0.0002219907298169862 	101325.0373500994
-1.132382382382382 	300.0000315622318 	0.0002311322385493805 	101325.0373016056
-1.12987987987988 	300.0000315118529 	0.0002058221932904447 	101325.0372680257
-1.127377377377377 	300.0000313923002 	0.0002150378898312037 	101325.037102854
-1.124874874874875 	300.0000312949307 	0.0001892407028591885 	101325.0370077577
-1.122372372372372 	300.0000312086954 	0.0001993712881504942 	101325.0368872652
-1.11986986986987 	300.000031203402 	0.0001730207741584999 	101325.0368985587
-1.117367367367367 	300.0000312669785 	0.0001847422297091414 	101325.0369544798
-1.114864864864865 	300.00003141629 	0.0001576599352109532 	101325.0371483486
-1.112362362362362 	300.0000316232424 	0.000171241456864079 	101325.0373769354
-1.10985985985986 	300.0000318687392 	0.0001434372330128369 	101325.0376834535
-1.107357357357357 	300.0000321094116 	0.0001586591773377549 	101325.0379524446
-1.104854854854855 	300.000032320527 	0.0001303659329276126 	101325.0382156605
-1.102352352352353 	300.0000324620348 	0.0001467217332972745 	101325.0383688544
-1.09984984984985 	300.0000325394013 	0.0001181983049321836 	101325.0384728769
-1.097347347347347 	300.0000325367189 	0.000135283148920093 	101325.0384571284
-1.094844844844845 	300.0000324997796 	0.0001065448963397264 	101325.0384256998
-1.092342342342342 	300.0000324320646 	0.0001243510177247936 	101325.0383362627
-1.08983983983984 	300.0000323991314 	9.509557821013145e-05 	101325.0383089918
-1.087337337337337 	300.0000323953582 	0.0001139413808241568 	101325.0382953604
-1.084834834834835 	300.0000324674149 	8.393037389431372e-05 	101325.0383885844
-1.082332332332332 	300.0000325760444 	0.0001040689940832623 	101325.0385081459
-1.07982982982983 	300.0000327384823 	8.563920275714356e-05 	101325.0387060302
-1.077327327327327 	300.0000328927176 	0.0001040232600697359 	101325.0388808985
-1.074824824824825 	300.0000330459317 	8.745650847777469e-05 	101325.0390679276
-1.072322322322323 	300.0000331441632 	0.0001037894248869515 	101325.0391786436
-1.06981981981982 	300.0000332116928 	8.88708650559084e-05 	101325.0392635959
-1.067317317317317 	300.0000332207782 	0.0001030761304641352 	101325.0392701432
-1.064814814814815 	300.0000332195449 	8.9832861333251e-05 	101325.0392731974
-1.062312312312312 	300.0000332028496 	0.0001021282487958861 	101325.0392502249
-1.05980980980981 	300.0000332247972 	9.077180422378395e-05 	101325.0392799775
-1.057307307307307 	300.0000332780824 	0.00010148190819574 	101325.0393409384
-1.054804804804805 	300.0000333957315 	9.214266474669394e-05 	101325.0394824745
-1.052302302302302 	300.0000335452905 	0.0001014045736693352 	101325.039656499
-1.0497997997998 	300.0000337229248 	9.389066444023192e-05 	101325.0398677843
-1.047297297297297 	300.0000338743741 	0.0001015322990768396 	101325.0400450407
-1.044794794794795 	300.0000339827999 	9.538222348491282e-05 	101325.0401743058
-1.042292292292292 	300.0000340059468 	0.0001011513305262668 	101325.0402006217
-1.03978978978979 	300.0000339522024 	9.59951585560285e-05 	101325.0401379536
-1.037287287287287 	300.0000338223106 	9.995333994362976e-05 	101325.0399835146
-1.034784784784785 	300.0000336626288 	9.582170968767197e-05 	101325.039795053
-1.032282282282283 	300.0000335075616 	9.847700543934692e-05 	101325.039611809
-1.02977977977978 	300.0000334150573 	9.570656638159647e-05 	101325.0395031162
-1.027277277277277 	300.0000334149418 	9.772341266858325e-05 	101325.0395032582
-1.024774774774775 	300.0000335335479 	9.653666412122745e-05 	101325.0396434956
-1.022272272272272 	300.0000337587849 	9.828761763715885e-05 	101325.0399095915
-1.01976976976977 	300.0000340603847 	9.840317033537329e-05 	101325.0402665079
-1.017267267267267 	300.0000343807816 	9.973117348075855e-05 	101325.0406460349
-1.014764764764765 	300.0000346567555 	0.0001003370431784028 	101325.0409723324
-1.012262262262262 	300.0000348274399 	0.000100786049898878 	101325.0411733475
-1.00975975975976 	300.0000348539973 	0.0001010106927939295 	101325.0412035055
-1.007257257257257 	300.0000347294764 	0.0001004396719383282 	101325.0410553152
-1.004754754754755 	300.000034481008 	9.994929004704227e-05 	101325.0407614248
-1.002252252252252 	300.000034166491 	9.894277850444032e-05 	101325.0403906246
-0.9997497497497498 	300.0000338600927 	9.812445525864354e-05 	101325.0400293383
-0.9972472472472473 	300.0000336360009 	9.749064571533792e-05 	101325.0397644778
-0.9947447447447449 	300.0000335495661 	9.724838048750483e-05 	101325.0396616887
-0.9922422422422421 	300.0000336240591 	9.745623570478789e-05 	101325.0397488315
-0.9897397397397399 	300.0000338428549 	9.807167401927892e-05 	101325.0400076558
-0.9872372372372376 	300.0000341535151 	9.894651137120369e-05 	101325.0403762376
-0.9847347347347346 	300.0000344804023 	9.986808516295855e-05 	101325.0407643076
-0.9822322322322323 	300.0000347455937 	0.0001006146824689675 	101325.0410781006
-0.9797297297297296 	300.0000348880895 	0.000101013356499756 	101325.0412452568
-0.9772272272272275 	300.0000348792441 	0.0001009873875709741 	101325.0412328469
-0.9747247247247248 	300.0000347299052 	0.0001005689502545875 	101325.0410549499
-0.9722222222222224 	300.0000344864554 	9.988986110929988e-05 	101325.0407676129
-0.9697197197197196 	300.0000342184646 	9.91431305628056e-05 	101325.0404521241
-0.9672172172172175 	300.0000339967299 	9.852415358853818e-05 	101325.0401916256
-0.9647147147147147 	300.0000338747984 	9.818117923867257e-05 	101325.040048409
-0.9622122122122124 	300.0000338744809 	9.817555238743994e-05 	101325.0400480099
-0.9597097097097099 	300.0000339819392 	9.846913229704154e-05 	101325.0401743014
-0.9572072072072073 	300.0000341546349 	9.894678024243149e-05 	101325.0403775295
-0.9547047047047047 	300.0000343375633 	9.945500489752424e-05 	101325.0405924281
-0.9522022022022023 	300.0000344794043 	9.985301440833242e-05 	101325.0407595815
-0.9496996996996998 	300.0000345506455 	0.0001000579135075831 	101325.0408433905
-0.9471971971971973 	300.0000345494093 	0.0001000614512625361 	101325.0408412799
-0.9446946946946947 	300.0000344981221 	9.992585702050476e-05 	101325.0407805327
-0.9421921921921923 	300.0000344338329 	9.975167889453511e-05 	101325.0407041356
-0.93968968968969 	300.0000343898735 	9.962942413295471e-05 	101325.0406517829
-0.9371871871871872 	300.0000343824211 	9.960570785335507e-05 	101325.04064317
-0.9346846846846848 	300.0000344042185 	9.966055083875634e-05 	101325.04066968
-0.9321821821821823 	300.0000344272967 	9.971424492318494e-05 	101325.0406976499
-0.9296796796796799 	300.0000344128355 	9.966066962529902e-05 	101325.040681032
-0.9271771771771771 	300.0000343250196 	9.940102190165839e-05 	101325.0405779339
-0.9246746746746748 	300.00003414589 	9.888524425776108e-05 	101325.0403664526
-0.9221721721721724 	300.0000338835524 	9.81387071675134e-05 	101325.0400561773
-0.9196696696696698 	300.000033574809 	9.726605957645622e-05 	101325.0396912163
-0.9171671671671672 	300.0000332792971 	9.643404214830436e-05 	101325.0393418082
-0.9146646646646649 	300.0000330634431 	9.582707063574179e-05 	101325.0390859342
-0.9121621621621623 	300.0000329794584 	9.559106848063639e-05 	101325.03898621
-0.9096596596596597 	300.0000330492827 	9.578760058842227e-05 	101325.0390689636
-0.9071571571571573 	300.0000332555301 	9.63645821853701e-05 	101325.0393126634
-0.9046546546546547 	300.0000335414286 	9.71629153732332e-05 	101325.0396506452
-0.9021521521521524 	300.0000338261631 	9.795909422417177e-05 	101325.0399879268
-0.8996496496496498 	300.000034027354 	9.851905315065357e-05 	101325.0402262039
-0.8971471471471473 	300.0000340807638 	9.866291004381004e-05 	101325.0402894474
-0.894644644644645 	300.0000339577421 	9.831297303087338e-05 	101325.0401442247
-0.892142142142142 	300.0000336747576 	9.751396577628787e-05 	101325.0398097378
-0.8896396396396397 	300.0000332892917 	9.642761468097599e-05 	101325.0393538953
-0.8871371371371374 	300.0000328843547 	9.528737436296571e-05 	101325.0388753688
-0.8846346346346349 	300.000032547564 	9.433583629683343e-05 	101325.0384769551
-0.8821321321321324 	300.0000323464765 	9.376446760547212e-05 	101325.038238778
-0.8796296296296297 	300.0000323124503 	9.366207895541023e-05 	101325.0381984709
-0.8771271271271271 	300.0000324347521 	9.399892719223719e-05 	101325.0383432581
-0.8746246246246248 	300.000032665471 	9.464196771525715e-05 	101325.0386160812
-0.8721221221221224 	300.0000329339168 	9.539371027982093e-05 	101325.0389337764
-0.8696196196196196 	300.0000331681723 	9.605282310775029e-05 	101325.0392110882
-0.8671171171171175 	300.0000333130099 	9.64629432652079e-05 	101325.0393824438
-0.8646146146146148 	300.0000333407051 	9.654536187369585e-05 	101325.0394156535
-0.8621121121121121 	300.0000332555715 	9.630944994746418e-05 	101325.0393150017
-0.8596096096096097 	300.0000330860573 	9.583273728811946e-05 	101325.0391141674
-0.857107107107107 	300.0000328731694 	9.523037447013859e-05 	101325.0388622464
-0.8546046046046049 	300.0000326584206 	9.461803331640188e-05 	101325.0386077987
-0.8521021021021022 	300.0000324710479 	9.407843302953762e-05 	101325.0383857986
-0.8495995995995997 	300.0000323228418 	9.364744782667239e-05 	101325.0382107283
-0.8470970970970974 	300.000032209039 	9.331364613644245e-05 	101325.0380769075
-0.8445945945945946 	300.0000321143518 	9.303256122797749e-05 	101325.0379651998
-0.8420920920920922 	300.000032020278 	9.275407900891229e-05 	101325.0378534683
-0.8395895895895897 	300.0000319134561 	9.244417842687885e-05 	101325.0377270167
-0.8370870870870872 	300.0000317936909 	9.210146798620336e-05 	101325.0375854245
-0.8345845845845846 	300.0000316735971 	9.1761998312739e-05 	101325.0374435329
-0.8320820820820823 	300.0000315740434 	9.14831769727874e-05 	101325.0373263844
-0.8295795795795798 	300.0000315174667 	9.132579433549436e-05 	101325.0372599823
-0.8270770770770772 	300.0000315184332 	9.132878612217013e-05 	101325.0372610374
-0.8245745745745746 	300.0000315760466 	9.148921157562406e-05 	101325.0373291616
-0.8220720720720721 	300.0000316736426 	9.176004530012682e-05 	101325.0374442358
-0.8195695695695699 	300.0000317803442 	9.205458179938606e-05 	101325.0375700084
-0.817067067067067 	300.0000318586315 	9.22690264041236e-05 	101325.0376628016
-0.8145645645645651 	300.0000318750284 	9.230916166590247e-05 	101325.0376825084
-0.8120620620620621 	300.0000318077767 	9.211148536792554e-05 	101325.0376027235
-0.8095595595595597 	300.0000316510649 	9.16619996175678e-05 	101325.0374173346
-0.8070570570570572 	300.0000314177869 	9.099770520684244e-05 	101325.0371419076
-0.8045545545545546 	300.0000311367237 	9.019676676516132e-05 	101325.0368096712
-0.8020520520520523 	300.0000308446024 	8.936200988206503e-05 	101325.0364634796
-0.7995495495495494 	300.0000305770783 	8.859560463880233e-05 	101325.0361462735
-0.7970470470470474 	300.0000303627837 	8.798048731488862e-05 	101325.0358927309
-0.7945445445445446 	300.0000302198019 	8.756854854871594e-05 	101325.0357238554
-0.7920420420420423 	300.0000301526005 	8.737278432599807e-05 	101325.0356451593
-0.7895395395395397 	300.0000301541321 	8.737440927477616e-05 	101325.0356482077
-0.7870370370370371 	300.0000302093069 	8.752964790840223e-05 	101325.0357145244
-0.7845345345345348 	300.0000302987845 	8.778161775359081e-05 	101325.0358204767
-0.7820320320320323 	300.0000304023396 	8.807266012765866e-05 	101325.0359418532
-0.7795295295295296 	300.000030500978 	8.835070590105932e-05 	101325.0360572981
-0.7770270270270272 	300.0000305806424 	8.857519039673643e-05 	101325.0361502992
-0.7745245245245247 	300.0000306314307 	8.87198363247584e-05 	101325.0362098851
-0.7720220220220222 	300.0000306485184 	8.876958768985224e-05 	101325.0362303567
-0.7695195195195199 	300.0000306306241 	8.872111235632091e-05 	101325.0362103483
-0.767017017017017 	300.0000305799794 	8.857778221403793e-05 	101325.036151467
-0.7645145145145147 	300.0000304996237 	8.834655292648696e-05 	101325.0360568031
-0.7620120120120122 	300.0000303918763 	8.803582544477673e-05 	101325.035929706
-0.7595095095095097 	300.0000302588614 	8.765303485903562e-05 	101325.0357732019
-0.7570070070070072 	300.000030103496 	8.72055224628287e-05 	101325.0355902573
-0.7545045045045048 	300.0000299290899 	8.670379994656637e-05 	101325.035384724
-0.7520020020020022 	300.0000297400229 	8.61615234348818e-05 	101325.035162413
-0.7494994994994997 	300.0000295444627 	8.559928268523353e-05 	101325.0349315729
-0.7469969969969972 	300.0000293511357 	8.504074094917682e-05 	101325.0347022413
-0.7444944944944945 	300.0000291679 	8.450962652262062e-05 	101325.0344844665
-0.7419919919919924 	300.0000290012716 	8.402450795759022e-05 	101325.0342859897
-0.7394894894894897 	300.0000288532676 	8.359342790721045e-05 	101325.0341103107
-0.7369869869869872 	300.0000287232423 	8.321316033129913e-05 	101325.0339559803
-0.7344844844844846 	300.0000286059346 	8.287108486665846e-05 	101325.0338174499
-0.7319819819819822 	300.0000284955249 	8.254907816842501e-05 	101325.0336871199
-0.7294794794794797 	300.0000283855105 	8.223035768495585e-05 	101325.0335577426
-0.7269769769769773 	300.000028272121 	8.190296188355531e-05 	101325.0334242981
-0.7244744744744747 	300.0000281536554 	8.156174445050702e-05 	101325.0332848806
-0.721971971971972 	300.0000280313693 	8.120984216512259e-05 	101325.0331406451
-0.7194694694694695 	300.0000279091262 	8.08551637046243e-05 	101325.0329951839
-0.7169669669669674 	300.0000277905845 	8.051022628162404e-05 	101325.0328536903
-0.7144644644644647 	300.0000276811484 	8.018936999574082e-05 	101325.0327220571
-0.711961961961962 	300.0000275845848 	7.990561387486465e-05 	101325.0326058924
-0.7094594594594597 	300.0000275036214 	7.96696944473514e-05 	101325.0325094646
-0.7069569569569573 	300.0000274401992 	7.948607119692142e-05 	101325.0324347297
-0.7044544544544545 	300.0000273938053 	7.935226510576134e-05 	101325.032380697
-0.7019519519519523 	300.0000273611496 	7.925903845729808e-05 	101325.032343352
-0.6994494494494495 	300.0000273369889 	7.91901218193656e-05 	101325.0323161833
-0.6969469469469471 	300.000027315354 	7.912647961241608e-05 	101325.0322911621
-0.6944444444444446 	300.0000272886379 	7.904770779769097e-05 	101325.0322599051
-0.6919419419419421 	300.0000272505334 	7.893515239721368e-05 	101325.0322148015
-0.6894394394394396 	300.0000271950024 	7.877510091128098e-05 	101325.0321499642
-0.6869369369369374 	300.0000271201553 	7.855871476965341e-05 	101325.0320619274
-0.6844344344344344 	300.0000270251297 	7.828502483143022e-05 	101325.0319500594
-0.6819319319319321 	300.0000269117443 	7.795958098585535e-05 	101325.0318166542
-0.6794294294294296 	300.0000267849165 	7.759405776864835e-05 	101325.0316666503
-0.6769269269269272 	300.0000266500499 	7.720569911680303e-05 	101325.0315069711
-0.6744244244244245 	300.0000265144533 	7.681298952903744e-05 	101325.0313456097
-0.6719219219219222 	300.0000263837799 	7.643592549921117e-05 	101325.0311906574
-0.6694194194194195 	300.0000262649126 	7.609179341312699e-05 	101325.0310494153
-0.6669169169169172 	300.0000261620196 	7.579427231804126e-05 	101325.0309276355
-0.6644144144144146 	300.0000260779614 	7.555266461345352e-05 	101325.030828934
-0.661911911911912 	300.0000260144566 	7.536906093259807e-05 	101325.0307544292
-0.6594094094094097 	300.0000259704184 	7.524070237580326e-05 	101325.0307026531
-0.656906906906907 	300.0000259424709 	7.515789513653861e-05 	101325.030669706
-0.6544044044044046 	300.0000259257592 	7.510620594590505e-05 	101325.0306496148
-0.6519019019019021 	300.0000259138855 	7.506784018436305e-05 	101325.0306348706
-0.6493993993993996 	300.0000258994606 	7.502180031003366e-05 	101325.0306171017
-0.6468968968968971 	300.0000258748163 	7.494801362080831e-05 	101325.0305877996
-0.6443943943943946 	300.0000258335236 	7.482653957520735e-05 	101325.0305390243
-0.6418918918918921 	300.0000257704268 	7.464138805446354e-05 	101325.0304640727
-0.6393893893893897 	300.0000256812486 	7.438094222035166e-05 	101325.0303581217
-0.6368868868868871 	300.0000255637736 	7.403947252544331e-05 	101325.0302188516
-0.6343843843843846 	300.0000254185161 	7.361949526280759e-05 	101325.0300470308
-0.6318818818818821 	300.0000252485844 	7.31314332280749e-05 	101325.0298469859
-0.6293793793793795 	300.0000250617167 	7.25952121593091e-05 	101325.0296267788
-0.6268768768768773 	300.0000248672687 	7.203860615218314e-05 	101325.0293978731
-0.6243743743743745 	300.0000246773299 	7.149479017718645e-05 	101325.0291741011
-0.6218718718718721 	300.0000245051057 	7.09987842362418e-05 	101325.0289699527
-0.6193693693693696 	300.0000243600992 	7.058135154266548e-05 	101325.0287984022
-0.6168668668668671 	300.0000242509392 	7.026463657451446e-05 	101325.0286686667
-0.6143643643643645 	300.0000241798081 	7.005728696468428e-05 	101325.0285844008
-0.6118618618618621 	300.0000241440742 	6.995230734377469e-05 	101325.0285428011
-0.6093593593593596 	300.0000241369585 	6.99285607915336e-05 	101325.0285348836
-0.6068568568568571 	300.0000241467221 	6.995259013141617e-05 	101325.0285468762
-0.6043543543543546 	300.0000241600724 	6.998528381256267e-05 	101325.0285623633
-0.6018518518518521 	300.0000241628326 	6.998636771658958e-05 	101325.0285646724
-0.5993493493493496 	300.0000241419477 	6.992014962185368e-05 	101325.0285390631
-0.5968468468468471 	300.0000240878044 	6.976024470543277e-05 	101325.0284745087
-0.5943443443443446 	300.00002399521 	6.949191011180457e-05 	101325.0283650072
-0.591841841841842 	300.0000238637019 	6.911498726532463e-05 	101325.0282104015
-0.5893393393393397 	300.0000236990692 	6.864384214005131e-05 	101325.0280166419
-0.5868368368368371 	300.0000235116175 	6.810654436883229e-05 	101325.0277953475
-0.5843343343343346 	300.0000233145799 	6.754154385080415e-05 	101325.0275624964
-0.5818318318318321 	300.0000231231749 	6.699259858287656e-05 	101325.0273362617
-0.5793293293293297 	300.000022952044 	6.650227142891165e-05 	101325.0271343622
-0.5768268268268271 	300.0000228143056 	6.61059783382223e-05 	101325.0269714853
-0.5743243243243245 	300.0000227179486 	6.582700400168942e-05 	101325.0268572349
-0.5718218218218221 	300.0000226653979 	6.567258424999787e-05 	101325.0267947847
-0.5693193193193196 	300.0000226538809 	6.563342119253026e-05 	101325.0267801756
-0.5668168168168171 	300.0000226729662 	6.568204600934523e-05 	101325.026802232
-0.5643143143143147 	300.0000227082544 	6.577598612562599e-05 	101325.0268433266
-0.5618118118118121 	300.0000227414252 	6.586210496644918e-05 	101325.0268813348
-0.5593093093093094 	300.0000227515359 	6.588387883230601e-05 	101325.0268928297
-0.5568068068068072 	300.0000227210127 	6.57920120683887e-05 	101325.0268570838
-0.5543043043043046 	300.000022638257 	6.555282304849231e-05 	101325.0267600469
-0.551801801801802 	300.0000224992797 	6.515569142079736e-05 	101325.0265972798
-0.5492992992992995 	300.0000223107464 	6.461630797099248e-05 	101325.0263751231
-0.5467967967967969 	300.0000220859022 	6.397365217571014e-05 	101325.0261099378
-0.5442942942942947 	300.0000218450729 	6.328581002867482e-05 	101325.0258257433
-0.5417917917917919 	300.0000216117987 	6.262068646103392e-05 	101325.025550715
-0.5392892892892895 	300.0000214104879 	6.204530221641111e-05 	101325.0253129957
-0.536786786786787 	300.0000212609431 	6.161684051195659e-05 	101325.0251361563
-0.5342842842842846 	300.0000211749737 	6.136906383959636e-05 	101325.0250347657
-0.531781781781782 	300.0000211546984 	6.13070131734739e-05 	101325.0250109279
-0.5292792792792794 	300.000021190437 	6.140223418112639e-05 	101325.0250527981
-0.526776776776777 	300.0000212611931 	6.15948452086687e-05 	101325.0251357661
-0.5242742742742745 	300.000021338958 	6.180584494368942e-05 	101325.0252263939
-0.521771771771772 	300.0000213927488 	6.194782017401831e-05 	101325.0252884407
-0.5192692692692695 	300.0000213946282 	6.194420758348751e-05 	101325.025289787
-0.516766766766767 	300.0000213274361 	6.174505260514784e-05 	101325.0252090899
-0.5142642642642645 	300.0000211853662 	6.133603159483216e-05 	101325.0250408084
-0.511761761761762 	300.0000209796732 	6.074828731245575e-05 	101325.0247972584
-0.5092592592592596 	300.0000207340765 	6.004859905302987e-05 	101325.0245068498
-0.506756756756757 	300.0000204810728 	5.933049782081391e-05 	101325.0242086242
-0.5042542542542544 	300.0000202568705 	5.869422403702357e-05 	101325.0239442967
-0.5017517517517521 	300.0000200912876 	5.82235584237606e-05 	101325.0237495857
-0.4992492492492494 	300.0000200027725 	5.797169773158282e-05 	101325.0236463306
-0.496746746746747 	300.0000199936001 	5.794298170858778e-05 	101325.0236369184
-0.4942442442442445 	300.0000200481321 	5.809247675975553e-05 	101325.023702616
-0.4917417417417421 	300.000020135618 	5.833383230706214e-05 	101325.0238068138
-0.4892392392392395 	300.0000202165834 	5.855418836510871e-05 	101325.023902827
-0.486736736736737 	300.0000202514383 	5.864463021418434e-05 	101325.0239442138
-0.4842342342342345 	300.0000202098601 	5.851897921985967e-05 	101325.0238951691
-0.481731731731732 	300.0000200786097 	5.813818415237257e-05 	101325.0237390562
-0.4792292292292296 	300.0000198624905 	5.752131027620404e-05 	101325.0234832313
-0.4767267267267268 	300.0000195878268 	5.674013838033143e-05 	101325.0231585645
-0.4742242242242246 	300.0000192960934 	5.59106136890058e-05 	101325.0228130143
-0.471721721721722 	300.0000190317012 	5.515910401269188e-05 	101325.0225003674
-0.4692192192192195 	300.0000188347063 	5.459606066339242e-05 	101325.0222671579
-0.4667167167167169 	300.0000187277813 	5.428775199033248e-05 	101325.0221409013
-0.4642142142142145 	300.0000187129378 	5.423418323045887e-05 	101325.0221226559
-0.461711711711712 	300.0000187670856 	5.437720764100715e-05 	101325.0221866039
-0.4592092092092094 	300.0000188525023 	5.460809516278917e-05 	101325.0222875335
-0.456706706706707 	300.0000189260416 	5.480680254133709e-05 	101325.0223741787
-0.4542042042042045 	300.0000189505308 	5.487261261553433e-05 	101325.0224037524
-0.451701701701702 	300.0000189078008 	5.474809897535958e-05 	101325.0223530669
-0.4491991991991995 	300.000018797946 	5.443757616470467e-05 	101325.0222231838
-0.4466966966966969 	300.0000186399295 	5.398971468952471e-05 	101325.0220362704
-0.4441941941941945 	300.0000184624263 	5.348445150381224e-05 	101325.0218259351
-0.441691691691692 	300.0000182922503 	5.299878034206649e-05 	101325.0216248681
-0.4391891891891895 	300.0000181484961 	5.258256840614148e-05 	101325.0214546513
-0.436686686686687 	300.0000180354995 	5.225403188279561e-05 	101325.0213212883
-0.4341841841841846 	300.0000179476307 	5.199464623262965e-05 	101325.021217452
-0.431681681681682 	300.0000178730612 	5.177647464085386e-05 	101325.0211297537
-0.4291791791791794 	300.0000178030563 	5.157376275832119e-05 	101325.0210472258
-0.426676676676677 	300.0000177349099 	5.137778818802776e-05 	101325.0209667952
-0.4241741741741744 	300.0000176730143 	5.12007058680063e-05 	101325.0208932174
-0.421671671671672 	300.0000176232704 	5.105570680547126e-05 	101325.0208338631
-0.4191691691691694 	300.0000175876921 	5.09493154816402e-05 	101325.020791351
-0.4166666666666669 	300.0000175599442 	5.086265520373757e-05 	101325.0207581892
-0.4141641641641645 	300.0000175243119 	5.075328468265037e-05 	101325.0207166766
-0.411661661661662 	300.0000174637905 	5.057208660683136e-05 	101325.0206447246
-0.4091591591591594 	300.0000173626279 	5.027817070812857e-05 	101325.0205253733
-0.406656656656657 	300.0000172189534 	4.98682474119827e-05 	101325.0203559503
-0.4041541541541545 	300.0000170472325 	4.938016768219225e-05 	101325.0201525426
-0.401651651651652 	300.0000168727398 	4.888822446630158e-05 	101325.0199470589
-0.3991491491491494 	300.0000167293515 	4.848297240987285e-05 	101325.0197774069
-0.396646646646647 	300.0000166417968 	4.823381672936429e-05 	101325.019674381
-0.3941441441441444 	300.0000166209807 	4.817002252957994e-05 	101325.0196498976
-0.3916416416416419 	300.0000166552636 	4.825986922386804e-05 	101325.0196910634
-0.3891391391391395 	300.0000167158904 	4.842078343650743e-05 	101325.0197628806
-0.3866366366366368 	300.0000167633579 	4.854541933546509e-05 	101325.0198190521
-0.3841341341341344 	300.0000167615192 	4.853064347436952e-05 	101325.0198166673
-0.381631631631632 	300.0000166876761 	4.831739003450953e-05 	101325.019729593
-0.3791291291291294 	300.0000165417616 	4.790020864269456e-05 	101325.0195564304
-0.3766266266266269 	300.0000163426024 	4.733470929623662e-05 	101325.0193205004
-0.3741241241241244 	300.0000161244307 	4.671577026369186e-05 	101325.0190619892
-0.371621621621622 	300.0000159245697 	4.614673022303155e-05 	101325.0188253887
-0.3691191191191194 	300.0000157742256 	4.571679093602237e-05 	101325.0186471266
-0.366616616616617 	300.0000156897727 	4.547097490324603e-05 	101325.018547027
-0.3641141141141143 	300.0000156711488 	4.541223854857633e-05 	101325.0185252397
-0.3616116116116119 	300.000015704613 	4.550033874173829e-05 	101325.0185646409
-0.3591091091091095 	300.0000157660785 	4.566761754703935e-05 	101325.0186371444
-0.356606606606607 	300.0000158285347 	4.584179593040842e-05 	101325.0187114488
-0.3541041041041044 	300.0000158692276 	4.595352455051693e-05 	101325.0187597596
-0.3516016016016019 	300.0000158709838 	4.595654436253983e-05 	101325.0187621628
-0.3490990990990994 	300.0000158254842 	4.582607874024243e-05 	101325.0187087473
-0.346596596596597 	300.000015733471 	4.556224981841456e-05 	101325.0186000256
-0.3440940940940944 	300.0000156031139 	4.51915442838333e-05 	101325.0184461798
-0.3415915915915919 	300.0000154497804 	4.475479789556161e-05 	101325.0182652795
-0.3390890890890895 	300.0000152932283 	4.430952160392663e-05 	101325.0180803775
-0.3365865865865869 	300.0000151540642 	4.391192528766461e-05 	101325.0179154945
-0.3340840840840844 	300.0000150487101 	4.361001377318422e-05 	101325.0177909209
-0.3315815815815819 	300.0000149877233 	4.343346196191593e-05 	101325.0177185896
-0.3290790790790794 	300.0000149708657 	4.338015089689256e-05 	101325.017698701
-0.3265765765765769 	300.0000149875326 	4.342333270561084e-05 	101325.0177189571
-0.3240740740740744 	300.0000150201737 	4.35083652425267e-05 	101325.0177571899
-0.3215715715715718 	300.0000150455233 	4.357403482633357e-05 	101325.0177870401
-0.3190690690690695 	300.0000150434219 	4.356528951350628e-05 	101325.0177850377
-0.3165665665665668 	300.0000150031263 	4.344679439639523e-05 	101325.017737028
-0.3140640640640644 	300.0000149230057 	4.321925394611262e-05 	101325.0176421522
-0.311561561561562 	300.0000148135555 	4.290980258098678e-05 	101325.0175131263
-0.3090590590590593 	300.0000146951622 	4.257383997159968e-05 	101325.0173726159
-0.3065565565565568 	300.0000145889812 	4.227301158937968e-05 	101325.0172468202
-0.3040540540540545 	300.0000145142513 	4.20593186812938e-05 	101325.017158338
-0.3015515515515518 	300.0000144822766 	4.196683681164084e-05 	101325.0171202941
-0.2990490490490494 	300.0000144927078 	4.199375698387194e-05 	101325.0171331459
-0.2965465465465469 	300.0000145367467 	4.211452279091841e-05 	101325.0171849668
-0.2940440440440444 	300.0000145960472 	4.22792879973824e-05 	101325.0172550562
-0.2915415415415418 	300.0000146507278 	4.243118651767681e-05 	101325.0173197385
-0.2890390390390395 	300.0000146833862 	4.252333355756107e-05 	101325.0173585206
-0.2865365365365368 	300.0000146835648 	4.25233208766283e-05 	101325.0173589367
-0.2840340340340343 	300.0000146497089 	4.242837237347211e-05 	101325.0173189928
-0.2815315315315318 	300.0000145881459 	4.225590078961548e-05 	101325.0172467378
-0.2790290290290295 	300.0000145123929 	4.204155574430131e-05 	101325.0171572441
-0.2765265265265269 	300.0000144371959 	4.182818956559903e-05 	101325.0170680811
-0.2740240240240244 	300.0000143753358 	4.165102919981567e-05 	101325.0169947667
-0.2715215215215219 	300.0000143353396 	4.153691040854226e-05 	101325.0169475141
-0.2690190190190194 	300.0000143201298 	4.149279660214792e-05 	101325.0169298762
-0.2665165165165169 	300.0000143285282 	4.151378216158304e-05 	101325.0169392565
-0.2640140140140144 	300.0000143534418 	4.15837687971833e-05 	101325.0169687135
-0.2615115115115119 	300.0000143880026 	4.167964894581389e-05 	101325.0170092125
-0.2590090090090094 	300.0000144235237 	4.178141078671632e-05 	101325.0170515539
-0.2565065065065068 	300.0000144543739 	4.186701425765094e-05 	101325.0170875531
-0.2540040040040044 	300.0000144737683 	4.192153211331913e-05 	101325.0171105021
-0.2515015015015019 	300.0000144778608 	4.193237187705397e-05 	101325.0171152551
-0.2489989989989994 	300.0000144634003 	4.188990714715934e-05 	101325.0170983352
-0.2464964964964968 	300.0000144291582 	4.179302488736975e-05 	101325.0170583336
-0.2439939939939944 	300.0000143768721 	4.164296182736441e-05 	101325.0169965884
-0.2414914914914919 	300.0000143100328 	4.145309000505581e-05 	101325.0169179142
-0.2389889889889893 	300.0000142366554 	4.124431925512642e-05 	101325.0168309914
-0.2364864864864869 	300.0000141667965 	4.104493868332867e-05 	101325.0167480246
-0.2339839839839843 	300.0000141118579 	4.08918767116442e-05 	101325.0166834918
-0.2314814814814819 	300.0000140856883 	4.08179458676437e-05 	101325.0166520604
-0.2289789789789792 	300.0000140972284 	4.085427672730766e-05 	101325.0166659822
-0.2264764764764769 	300.0000141537396 	4.101757137001737e-05 	101325.0167325066
-0.2239739739739743 	300.0000142549749 	4.130750350421207e-05 	101325.0168519319
-0.2214714714714718 	300.0000143942723 	4.170781553133668e-05 	101325.0170168254
-0.2189689689689693 	300.0000145600092 	4.218145873188915e-05 	101325.0172126588
-0.2164664664664669 	300.000014735219 	4.268260412508271e-05 	101325.0174197673
-0.2139639639639643 	300.0000149008938 	4.315767302347998e-05 	101325.0176161771
-0.2114614614614618 	300.0000150400357 	4.35548602198293e-05 	101325.0177806228
-0.2089589589589593 	300.0000151370629 	4.383254150041363e-05 	101325.017895299
-0.2064564564564568 	300.0000151815366 	4.395996459901924e-05 	101325.017948125
-0.2039539539539543 	300.0000151694826 	4.39273416759804e-05 	101325.0179343535
-0.2014514514514518 	300.0000151046495 	4.374210594766692e-05 	101325.017857388
-0.1989489489489494 	300.0000149959931 	4.343216222518665e-05 	101325.0177286829
-0.1964464464464468 	300.000014859296 	4.304268122265365e-05 	101325.0175666463
-0.1939439439439443 	300.0000147138214 	4.262828623114534e-05 	101325.0173945377
-0.1914414414414418 	300.0000145808013 	4.225160500803712e-05 	101325.0172375903
-0.1889389389389393 	300.0000144816379 	4.196890382883595e-05 	101325.0171198158
-0.1864364364364368 	300.0000144319116 	4.182832989388236e-05 	101325.0170608476
-0.1839339339339343 	300.0000144419223 	4.186022182662174e-05 	101325.017073157
-0.1814314314314318 	300.0000145154797 	4.207097414781814e-05 	101325.0171601026
-0.1789289289289293 	300.0000146461359 	4.244741087853345e-05 	101325.0173152759
-0.1764264264264268 	300.0000148224608 	4.295052679475128e-05 	101325.01752339
-0.1739239239239243 	300.0000150244746 	4.352943646139497e-05 	101325.0177626557
-0.1714214214214218 	300.0000152326417 	4.412438932140345e-05 	101325.0180082571
-0.1689189189189193 	300.0000154252939 	4.467660350569296e-05 	101325.0182362748
-0.1664164164164168 	300.000015587247 	4.514182078321873e-05 	101325.0184273531
-0.1639139139139143 	300.0000157076632 	4.548947789059593e-05 	101325.0185696809
-0.1614114114114118 	300.0000157849537 	4.57155377796303e-05 	101325.0186608455
-0.1589089089089093 	300.0000158247591 	4.58370684067577e-05 	101325.0187080859
-0.1564064064064068 	300.0000158404673 	4.588920893197392e-05 	101325.0187266815
-0.1539039039039043 	300.0000158490152 	4.592237044833928e-05 	101325.0187366982
-0.1514014014014018 	300.0000158679109 	4.598300473550523e-05 	101325.0187587723
-0.1488988988988993 	300.0000159110421 	4.611418601458901e-05 	101325.0188099385
-0.1463963963963968 	300.0000159875027 	4.633890175704529e-05 	101325.018900234
-0.1438938938938943 	300.0000160974062 	4.665895495206802e-05 	101325.0190306121
-0.1413913913913918 	300.0000162342824 	4.705613721514349e-05 	101325.0191925678
-0.1388888888888893 	300.0000163842508 	4.748905128911205e-05 	101325.0193696605
-0.1363863863863868 	300.0000165285887 	4.791023026931759e-05 	101325.0195408128
-0.1338838838838843 	300.000016650312 	4.826831448282808e-05 	101325.0196847434
-0.1313813813813818 	300.0000167353145 	4.852360037416559e-05 	101325.0197845935
-0.1288788788788793 	300.0000167750116 	4.865802870289405e-05 	101325.0198317654
-0.1263763763763768 	300.000016771987 	4.867437165227627e-05 	101325.0198279973
-0.1238738738738743 	300.0000167355204 	4.860431090501328e-05 	101325.0197850966
-0.1213713713713717 	300.0000166826993 	4.84933040104563e-05 	101325.0197223925
-0.1188688688688693 	300.0000166324503 	4.83983808392007e-05 	101325.0196626343
-0.1163663663663668 	300.0000166020946 	4.837407847894237e-05 	101325.0196274895
-0.1138638638638643 	300.0000166076558 	4.846115098902954e-05 	101325.0196336146
-0.1113613613613618 	300.0000166551554 	4.86860533742511e-05 	101325.0196898216
-0.1088588588588592 	300.000016744522 	4.904864867330108e-05 	101325.0197956384
-0.1063563563563568 	300.000016867695 	4.953116739261043e-05 	101325.0199414773
-0.1038538538538543 	300.0000170106417 	5.009754467950582e-05 	101325.0201104499
-0.1013513513513517 	300.0000171557304 	5.070085388512936e-05 	101325.0202816022
-0.09884884884884926 	300.0000172841208 	5.129894459027257e-05 	101325.0204339675
-0.09634634634634676 	300.0000173825984 	5.185438573011018e-05 	101325.0205505352
-0.09384384384384425 	300.0000174425439 	5.235168873957836e-05 	101325.0206212318
-0.09134134134134177 	300.0000174626969 	5.279251279381828e-05 	101325.0206442381
-0.08883883883883925 	300.0000174466622 	5.3196703949612e-05 	101325.0206253231
-0.08633633633633674 	300.0000174041057 	5.359939336258845e-05 	101325.0205754577
-0.08383383383383426 	300.0000173468582 	5.403523606757789e-05 	101325.020507384
-0.08133133133133173 	300.0000172829604 	5.453984845265472e-05 	101325.0204321903
-0.07882882882882926 	300.0000172186869 	5.513404042351619e-05 	101325.0203566735
-0.07632632632632676 	300.0000171557663 	5.582590191070337e-05 	101325.0202819689
-0.07382382382382424 	300.0000170892522 	5.661009389772055e-05 	101325.0202036739
-0.07132132132132173 	300.0000170134268 	5.746671744048965e-05 	101325.0201133926
-0.06881881881881925 	300.000016918343 	5.837492333098976e-05 	101325.0200012914
-0.06631631631631671 	300.0000167978012 	5.930947940038712e-05 	101325.0198590194
-0.06381381381381425 	300.0000166486507 	6.025601784956969e-05 	101325.0196823253
-0.06131131131131173 	300.0000164713714 	6.120840781461876e-05 	101325.0194727615
-0.05880880880880923 	300.0000162727362 	6.217104541671666e-05 	101325.0192381129
-0.05630630630630672 	300.000016064247 	6.316090886920433e-05 	101325.0189914687
-0.05380380380380424 	300.0000158595291 	6.419341777213224e-05 	101325.0187490171
-0.05130130130130173 	300.000015671448 	6.528628345364086e-05 	101325.0185268477
-0.04879879879879922 	300.000015510685 	6.644108787433095e-05 	101325.0183373628
-0.04629629629629672 	300.0000153828009 	6.764367885675881e-05 	101325.0181862427
-0.04379379379379422 	300.0000152854325 	6.886104860513433e-05 	101325.0180709462
-0.04129129129129173 	300.0000152097769 	7.00389160896459e-05 	101325.0179814341
-0.03878878878878922 	300.0000151438835 	7.11211116115396e-05 	101325.0179032632
-0.03628628628628671 	300.0000150752201 	7.204943132355718e-05 	101325.0178222237
-0.03378378378378422 	300.0000149964361 	7.278921140984542e-05 	101325.0177294182
-0.03128128128128172 	300.0000149086089 	7.333291232767124e-05 	101325.017625283
-0.02877877877877922 	300.0000148206756 	7.370495590714444e-05 	101325.017521112
-0.0262762762762767 	300.0000147494886 	7.39653225712742e-05 	101325.0174374488
-0.02377377377377422 	300.0000147178361 	7.418625450547915e-05 	101325.0173994477
-0.0212712712712717 	300.0000147431571 	7.444997976561927e-05 	101325.0174300515
-0.01876876876876921 	300.0000148388846 	7.481754019472967e-05 	101325.0175429124
-0.01626626626626671 	300.0000150028807 	7.53211681460722e-05 	101325.0177365462
-0.0137637637637642 	300.0000152183663 	7.595473718804853e-05 	101325.0179916241
-0.0112612612612617 	300.0000154565559 	7.666947885445738e-05 	101325.0182729147
-0.008758758758759198 	300.0000156784162 	7.739672127772044e-05 	101325.0185353748
-0.006256256256256697 	300.0000158452912 	7.805182516805948e-05 	101325.0187329859
-0.003753753753754195 	300.0000159266219 	7.856861646780489e-05 	101325.0188286948
-0.001251251251251693 	300.0000159053254 	7.890853511582246e-05 	101325.0188033602
0.00125125125125081 	300.0000157849503 	7.907590948042733e-05 	101325.0186609296
0.003753753753753312 	300.0000155891496 	7.912402822762141e-05 	101325.018429546
0.006256256256255817 	300.000015358219 	7.913547132943618e-05 	101325.0181570099
0.008758758758758317 	300.0000151421048 	7.921699842139093e-05 	101325.0179012768
0.01126126126126082 	300.0000149881312 	7.946076633714496e-05 	101325.0177191918
0.01376376376376332 	300.0000149333634 	7.993411256074013e-05 	101325.0176548855
0.01626626626626582 	300.0000149970203 	8.065358736929855e-05 	101325.0177298851
0.01876876876876833 	300.0000151728601 	8.15770108085722e-05 	101325.0179379714
0.02127127127127083 	300.000015433406 	8.261537913632977e-05 	101325.0182460077
0.02377377377377332 	300.0000157339571 	8.363765311790286e-05 	101325.0186007026
0.02627627627627583 	300.0000160212833 	8.451610305765598e-05 	101325.0189408306
0.02877877877877833 	300.0000162503224 	8.514021535601652e-05 	101325.019210894
0.03128128128128083 	300.0000163873188 	8.54560203253359e-05 	101325.0193732128
0.03378378378378333 	300.0000164233899 	8.547446836338882e-05 	101325.0194161454
0.03628628628628584 	300.0000163725722 	8.526826995906833e-05 	101325.0193557333
0.03878878878878834 	300.0000162668161 	8.496426875358312e-05 	101325.0192305643
0.04129129129129084 	300.0000161488326 	8.469897063778531e-05 	101325.0190913858
0.04379379379379333 	300.0000160610188 	8.460207485254398e-05 	101325.0189877409
0.04629629629629585 	300.0000160339763 	8.474952726565349e-05 	101325.0189561247
0.04879879879879834 	300.0000160812534 	8.515763835333021e-05 	101325.0190118946
0.05130130130130085 	300.0000161958463 	8.577590637964821e-05 	101325.0191468971
0.05380380380380335 	300.0000163541991 	8.650046716521976e-05 	101325.0193338687
0.05630630630630584 	300.0000165249068 	8.721209656515488e-05 	101325.0195359634
0.05880880880880836 	300.0000166792774 	8.7797317437198e-05 	101325.0197185531
0.06131131131131085 	300.0000167985797 	8.819163498671372e-05 	101325.0198593321
0.06381381381381336 	300.0000168785346 	8.838081269032314e-05 	101325.0199538445
0.06631631631631586 	300.0000169298098 	8.841035801076093e-05 	101325.020014922
0.06881881881881835 	300.0000169734245 	8.836091944641564e-05 	101325.0200663132
0.07132132132132088 	300.0000170297681 	8.832213842609573e-05 	101325.0201327196
0.07382382382382337 	300.0000171114316 	8.836623836037465e-05 	101325.0202298636
0.07632632632632587 	300.0000172204286 	8.852070108182016e-05 	101325.0203582882
0.07882882882882837 	300.0000173429431 	8.877125697785693e-05 	101325.0205031
0.08133133133133086 	300.0000174586464 	8.906109034270766e-05 	101325.0206395559
0.08383383383383337 	300.0000175463127 	8.932421854357573e-05 	101325.0207429314
0.08633633633633589 	300.0000175930394 	8.950157455834168e-05 	101325.0207987147
0.08883883883883838 	300.0000176030376 	8.957226208485107e-05 	101325.0208100067
0.09134134134134086 	300.0000175935106 	8.955795986691326e-05 	101325.0207990754
0.09384384384384339 	300.0000175952221 	8.951618794109327e-05 	101325.0208016
0.09634634634634588 	300.0000176410753 	8.952398887071443e-05 	101325.0208554669
0.09884884884884838 	300.0000177521057 	8.963740188477747e-05 	101325.0209866485
0.1013513513513509 	300.0000179311199 	8.987898135165019e-05 	101325.0211978414
0.1038538538538534 	300.0000181557498 	9.020858915219731e-05 	101325.0214637762
0.1063563563563559 	300.0000183864192 	9.054417809781904e-05 	101325.0217361137
0.1088588588588584 	300.0000185738161 	9.077798192507241e-05 	101325.021957434
0.1113613613613609 	300.0000186765954 	9.081768685739174e-05 	101325.0220796012
0.1138638638638634 	300.000018678075 	9.062354899430109e-05 	101325.0220812776
0.1163663663663659 	300.0000185905891 	9.022282846838904e-05 	101325.0219778644
0.1188688688688684 	300.0000184569152 	8.971970034173317e-05 	101325.0218197762
0.1213713713713709 	300.0000183372498 	8.92515051353023e-05 	101325.0216781785
0.1238738738738734 	300.0000182899935 	8.896042164051377e-05 	101325.0216229484
0.1263763763763759 	300.0000183560108 	8.893306415580022e-05 	101325.0217007324
0.1288788788788784 	300.0000185411496 	8.918069474573556e-05 	101325.0219197479
0.1313813813813809 	300.000018818068 	8.963024865683667e-05 	101325.0222470974
0.1338838838838834 	300.0000191332662 	9.014675215848164e-05 	101325.0226195533
0.1363863863863859 	300.0000194252334 	9.058469093766694e-05 	101325.022964278
0.1388888888888884 	300.0000196431972 	9.082332141227563e-05 	101325.0232214958
0.1413913913913909 	300.0000197614298 	9.081280969597975e-05 	101325.0233612307
0.1438938938938934 	300.0000197852808 	9.056986762058161e-05 	101325.0233894714
0.1463963963963959 	300.0000197450088 	9.017583973035067e-05 	101325.0233421306
0.1488988988988985 	300.0000196836264 	8.973300629876648e-05 	101325.023269883
0.1514014014014009 	300.0000196417927 	8.933494146790107e-05 	101325.0232204858
0.1539039039039035 	300.0000196454606 	8.903863476208065e-05 	101325.0232252172
0.1564064064064059 	300.00001970278 	8.885271294278818e-05 	101325.0232934917
0.1589089089089084 	300.0000198064589 	8.875666710885442e-05 	101325.0234160558
0.1614114114114109 	300.0000199399355 	8.871034557080058e-05 	101325.0235739166
0.1639139139139134 	300.000020087392 	8.868825995656123e-05 	101325.0237483476
0.166416416416416 	300.0000202397746 	8.867735023359567e-05 	101325.0239276039
0.1689189189189185 	300.0000203929319 	8.868516698683047e-05 	101325.0241079792
0.1714214214214209 	300.000020546865 	8.871800964639017e-05 	101325.0242897008
0.1739239239239235 	300.0000206999695 	8.876710685170631e-05 	101325.024470562
0.1764264264264259 	300.0000208442569 	8.880084540740686e-05 	101325.0246410005
0.1789289289289284 	300.0000209651945 	8.876056359741419e-05 	101325.0247836889
0.181431431431431 	300.0000210449007 	8.858775754860207e-05 	101325.0248783745
0.1839339339339334 	300.0000210716844 	8.823603704001885e-05 	101325.0249103396
0.186436436436436 	300.0000210446079 	8.770613005052992e-05 	101325.0248788934
0.1889389389389385 	300.000020979551 	8.704625197978759e-05 	101325.0248020778
0.191441441441441 	300.0000209054641 	8.635225522869015e-05 	101325.0247148091
0.1939439439439434 	300.0000208589577 	8.574058913431112e-05 	101325.0246603445
0.196446446446446 	300.0000208736721 	8.531144300218006e-05 	101325.024677686
0.1989489489489485 	300.0000209681009 	8.512149784010447e-05 	101325.0247890181
0.2014514514514509 	300.0000211395215 	8.515659062120442e-05 	101325.0249913793
0.2039539539539535 	300.0000213634368 	8.53400940109739e-05 	101325.0252557203
0.2064564564564559 	300.0000215991161 	8.554552651518758e-05 	101325.0255341905
0.2089589589589585 	300.0000218019338 	8.564002622596189e-05 	101325.0257733598
0.211461461461461 	300.0000219334148 	8.55152364219402e-05 	101325.0259289359
0.2139639639639635 	300.0000219750146 	8.512038923487671e-05 	101325.0259776757
0.2164664664664659 	300.0000219292808 	8.447485039919618e-05 	101325.025923412
0.2189689689689684 	300.0000218210099 	8.365674340904273e-05 	101325.0257955362
0.221471471471471 	300.000021689622 	8.278530669709962e-05 	101325.0256405309
0.2239739739739735 	300.0000215782994 	8.198138867886226e-05 	101325.0255093801
0.226476476476476 	300.0000215237681 	8.134429275987281e-05 	101325.0254450344
0.2289789789789785 	300.0000215475295 	8.092581837722756e-05 	101325.0254732035
0.231481481481481 	300.0000216530009 	8.072830762222361e-05 	101325.025598198
0.2339839839839835 	300.0000218273109 	8.070923161118425e-05 	101325.0258041921
0.236486486486486 	300.0000220448204 	8.079630592080178e-05 	101325.0260609868
0.2389889889889885 	300.0000222740944 	8.090982311047104e-05 	101325.0263322013
0.241491491491491 	300.0000224863429 	8.097578468612519e-05 	101325.0265834324
0.2439939939939935 	300.0000226600093 	8.094040279940267e-05 	101325.0267883047
0.246496496496496 	300.000022781347 	8.0769895265573e-05 	101325.0269315476
0.2489989989989985 	300.0000228473409 	8.045390997657895e-05 	101325.0270092213
0.251501501501501 	300.0000228622814 	7.999763876884866e-05 	101325.0270268454
0.2540040040040035 	300.0000228365251 	7.942113302925686e-05 	101325.0269965261
0.256506506506506 	300.0000227838366 	7.875569630281609e-05 	101325.0269340822
0.2590090090090086 	300.0000227179149 	7.803979141204711e-05 	101325.026856788
0.261511511511511 	300.0000226549281 	7.731950304521185e-05 	101325.0267817983
0.2640140140140135 	300.0000226066867 	7.663870567020549e-05 	101325.0267249578
0.2665165165165161 	300.0000225849467 	7.603929722519873e-05 	101325.0266995268
0.2690190190190185 	300.000022598012 	7.554767147327892e-05 	101325.0267145242
0.271521521521521 	300.0000226474593 	7.51718249466133e-05 	101325.0267728811
0.2740240240240235 	300.00002272963 	7.489818840806199e-05 	101325.026870038
0.276526526526526 	300.0000228340722 	7.468928074924101e-05 	101325.0269937231
0.2790290290290286 	300.0000229451139 	7.449557632127496e-05 	101325.0271254081
0.281531531531531 	300.0000230449232 	7.426066628591245e-05 	101325.0272434912
0.2840340340340335 	300.000023116315 	7.39376272450223e-05 	101325.0273276427
0.2865365365365361 	300.0000231465714 	7.34966717847797e-05 	101325.0273633888
0.2890390390390385 	300.0000231318386 	7.29313145129967e-05 	101325.0273457385
0.291541541541541 	300.0000230769273 	7.226149782733295e-05 	101325.0272807921
0.2940440440440436 	300.0000229956084 	7.152591147399806e-05 	101325.027184726
0.296546546546546 	300.0000229072424 	7.077767377734158e-05 	101325.0270803775
0.2990490490490486 	300.0000228324051 	7.007115119885355e-05 	101325.0269923415
0.3015515515515511 	300.0000227901529 	6.945404357296809e-05 	101325.026941955
0.3040540540540535 	300.0000227911685 	6.896010156937778e-05 	101325.0269433362
0.3065565565565562 	300.0000228400698 	6.860169747723477e-05 	101325.0270011825
0.3090590590590585 	300.0000229325522 	6.837198443187995e-05 	101325.0271105387
0.3115615615615611 	300.0000230572933 	6.824165675706059e-05 	101325.0272582573
0.3140640640640635 	300.000023199286 	6.816674972443584e-05 	101325.027425565
0.316566566566566 	300.0000233392653 	6.809408225854213e-05 	101325.0275910494
0.3190690690690687 	300.0000234594545 	6.79684054036376e-05 	101325.0277334716
0.3215715715715711 	300.000023544953 	6.774196069020034e-05 	101325.0278340861
0.3240740740740735 	300.0000235824263 	6.737852658189199e-05 	101325.027878549
0.326576576576576 	300.0000235650836 	6.685982456250629e-05 	101325.0278585345
0.3290790790790786 	300.00002349329 	6.618691511678848e-05 	101325.0277730521
0.3315815815815811 	300.000023371639 	6.538062497598084e-05 	101325.0276291947
0.3340840840840836 	300.0000232130121 	6.447947959751008e-05 	101325.0274419319
0.3365865865865861 	300.0000230361422 	6.353444491091996e-05 	101325.0272326086
0.3390890890890886 	300.0000228615361 	6.260353229893437e-05 	101325.0270261753
0.3415915915915911 	300.0000227102261 	6.174362726212581e-05 	101325.0268476478
0.3440940940940935 	300.0000226008668 	6.100436014627799e-05 	101325.0267185793
0.3465965965965962 	300.0000225469136 	6.042188435304217e-05 	101325.0266542002
0.3490990990990985 	300.000022553251 	6.001455556416688e-05 	101325.0266616717
0.3516016016016011 	300.00002261915 	5.978126283826892e-05 	101325.0267396349
0.3541041041041035 	300.0000227369044 	5.970169073914583e-05 	101325.0268789279
0.3566066066066061 	300.0000228932175 	5.973996951940054e-05 	101325.0270642115
0.3591091091091085 	300.0000230723971 	5.984997571498953e-05 	101325.0272761837
0.3616116116116112 	300.0000232567994 	5.99820154563592e-05 	101325.0274941128
0.3641141141141137 	300.0000234294274 	6.008942537919207e-05 	101325.0276983576
0.3666166166166161 	300.0000235767742 	6.01338416468307e-05 	101325.0278725118
0.3691191191191185 	300.0000236894149 	6.008786749722952e-05 	101325.0280048864
0.371621621621621 	300.0000237606442 	5.993722261229122e-05 	101325.0280891445
0.3741241241241237 	300.000023790372 	5.967838042623872e-05 	101325.028124043
0.3766266266266261 	300.0000237804521 	5.931755968409473e-05 	101325.0281124589
0.3791291291291286 	300.000023735921 	5.886783671562639e-05 	101325.028060052
0.3816316316316311 	300.0000236627148 	5.83463586017544e-05 	101325.02797394
0.3841341341341336 	300.0000235680271 	5.777193827260867e-05 	101325.0278616565
0.3866366366366362 	300.0000234568839 	5.716298454025201e-05 	101325.0277304858
0.3891391391391387 	300.0000233354888 	5.653635700315027e-05 	101325.0275871083
0.391641641641641 	300.0000232091268 	5.590611725062756e-05 	101325.0274374654
0.3941441441441436 	300.0000230817427 	5.528400252318839e-05 	101325.0272867875
0.3966466466466462 	300.0000229573339 	5.46800873772344e-05 	101325.0271396973
0.3991491491491486 	300.0000228392118 	5.410189419328348e-05 	101325.0270003242
0.4016516516516512 	300.0000227308598 	5.355517939943071e-05 	101325.0268723309
0.4041541541541536 	300.000022635031 	5.304382941978592e-05 	101325.0267587802
0.4066566566566561 	300.0000225530865 	5.256997643564696e-05 	101325.0266618735
0.4091591591591587 	300.0000224863168 	5.213504558887141e-05 	101325.0265827062
0.4116616616616612 	300.0000224343014 	5.173869040414508e-05 	101325.0265211637
0.4141641641641635 	300.000022396162 	5.137941331600837e-05 	101325.0264760039
0.4166666666666662 	300.0000223696885 	5.105396546854431e-05 	101325.0264450119
0.4191691691691687 	300.0000223524775 	5.075647532753686e-05 	101325.0264250995
0.421671671671671 	300.0000223419608 	5.048064962796884e-05 	101325.0264123599
0.4241741741741737 	300.0000223331895 	5.021853700998758e-05 	101325.0264022303
0.4266766766766761 	300.0000223227469 	4.996395772943209e-05 	101325.0263899293
0.4291791791791785 	300.0000223073631 	4.971228447024227e-05 	101325.0263711632
0.4316816816816812 	300.0000222833955 	4.945915276207638e-05 	101325.0263428469
0.4341841841841836 	300.0000222501729 	4.92047234092186e-05 	101325.02630352
0.4366866866866862 	300.0000222074025 	4.894802009791013e-05 	101325.0262532861
0.4391891891891885 	300.0000221570888 	4.869037352319932e-05 	101325.0261933482
0.4416916916916913 	300.0000220995464 	4.843327919982896e-05 	101325.0261253812
0.4441941941941936 	300.0000220363971 	4.817505346352045e-05 	101325.0260509439
0.4466966966966961 	300.000021968323 	4.791474801170865e-05 	101325.0259710441
0.4491991991991987 	300.0000218965143 	4.76463805347637e-05 	101325.0258858969
0.4517017017017012 	300.0000218193468 	4.736367522250563e-05 	101325.0257948819
0.4542042042042035 	300.0000217364533 	4.705972233139139e-05 	101325.0256967058
0.4567067067067062 	300.0000216461203 	4.672691961068688e-05 	101325.0255897904
0.4592092092092087 	300.00002154691 	4.636345498348125e-05 	101325.0254728446
0.4617117117117112 	300.0000214398297 	4.596852039550087e-05 	101325.0253454808
0.4642142142142137 	300.000021323952 	4.554905381349849e-05 	101325.0252086943
0.4667167167167162 	300.0000212028656 	4.511693401161847e-05 	101325.0250651024
0.4692192192192187 	300.0000210789623 	4.468732500556828e-05 	101325.0249189138
0.4717217217217212 	300.000020958008 	4.428150198662725e-05 	101325.0247755995
0.4742242242242236 	300.0000208438727 	4.391799676771032e-05 	101325.0246412204
0.4767267267267262 	300.0000207424309 	4.361493457728756e-05 	101325.0245213884
0.4792292292292287 	300.0000206569105 	4.338309677454978e-05 	101325.0244199896
0.4817317317317312 	300.0000205875202 	4.322192199871238e-05 	101325.024337971
0.4842342342342336 	300.00002053191 	4.312161094364467e-05 	101325.0242725419
0.4867367367367362 	300.0000204848919 	4.305771914756829e-05 	101325.0242171217
0.4892392392392387 	300.0000204387302 	4.299959460668789e-05 	101325.0241621706
0.4917417417417412 	300.0000203834078 	4.291269653404351e-05 	101325.0240967612
0.4942442442442437 	300.0000203098891 	4.276482349819153e-05 	101325.0240105485
0.4967467467467462 	300.0000202127584 	4.253580678662704e-05 	101325.0238957523
0.4992492492492487 	300.0000200883355 	4.221811677681854e-05 	101325.0237487981
0.5017517517517511 	300.0000199382975 	4.182319510956823e-05 	101325.0235713093
0.5042542542542537 	300.0000197682097 	4.137638946401817e-05 	101325.023370141
0.5067567567567562 	300.0000195871407 	4.091434051958632e-05 	101325.0231564005
0.5092592592592589 	300.0000194071478 	4.047919092608167e-05 	101325.0229437345
0.5117617617617611 	300.0000192400867 	4.010935057688688e-05 	101325.0227462869
0.5142642642642637 	300.0000190966951 	3.983755895283078e-05 	101325.0225767091
0.5167667667667663 	300.000018984577 	3.968107858323335e-05 	101325.0224442264
0.5192692692692688 	300.0000189068372 	3.964146290624466e-05 	101325.0223526988
0.5217717717717714 	300.0000188616874 	3.970076902223866e-05 	101325.0222989189
0.5242742742742736 	300.0000188388101 	3.982036722459493e-05 	101325.0222716863
0.5267767767767763 	300.0000188227079 	3.994866851385455e-05 	101325.0222524286
0.5292792792792789 	300.0000187935146 	4.002453344207522e-05 	101325.0222178589
0.5317817817817813 	300.000018731366 	3.999336765188612e-05 	101325.02214444
0.5342842842842837 	300.0000186214742 	3.981804341797898e-05 	101325.022013951
0.5367867867867864 	300.0000184564994 	3.948938730694435e-05 	101325.0218189107
0.5392892892892888 	300.0000182425258 	3.9036058529589e-05 	101325.0215661339
0.5417917917917912 	300.0000179979912 	3.851613225023325e-05 	101325.0212767126
0.5442942942942938 	300.000017748502 	3.801073439774706e-05 	101325.0209817715
0.5467967967967964 	300.0000175228835 	3.760167348709022e-05 	101325.0207149313
0.5492992992992988 	300.0000173443551 	3.735024930784942e-05 	101325.0205037218
0.5518018018018012 	300.0000172247972 	3.728365251925634e-05 	101325.0203622277
0.5543043043043039 	300.0000171614933 	3.738141952296333e-05 	101325.0202869541
0.5568068068068063 	300.0000171364773 	3.758579042663977e-05 	101325.0202575073
0.5593093093093087 	300.0000171230946 	3.781317482786659e-05 	101325.0202422248
0.5618118118118114 	300.0000170933115 	3.797760877277459e-05 	101325.0202069547
0.5643143143143137 	300.0000170229399 	3.801559852420919e-05 	101325.020124014
0.5668168168168163 	300.0000169001897 	3.789594183250365e-05 	101325.0199787485
0.5693193193193188 	300.0000167256897 	3.763168289360646e-05 	101325.0197722808
0.5718218218218213 	300.0000165122173 	3.726890192868251e-05 	101325.0195199301
0.5743243243243239 	300.0000162804791 	3.687421396627676e-05 	101325.0192460054
0.5768268268268262 	300.000016052683 	3.651745869817274e-05 	101325.0189768631
0.5793293293293288 	300.0000158473812 	3.625036129660296e-05 	101325.0187344735
0.5818318318318314 	300.0000156761599 	3.610226782723201e-05 	101325.0185320742
0.5843343343343338 	300.0000155414367 	3.607097366394762e-05 	101325.0183724472
0.5868368368368363 	300.0000154366346 	3.613015112369005e-05 	101325.0182486892
0.5893393393393387 	300.0000153502299 	3.623782523416086e-05 	101325.0181469057
0.5918418418418413 	300.0000152681579 	3.634379854218903e-05 	101325.0180498423
0.5943443443443439 	300.0000151759085 	3.640614611966136e-05 	101325.0179404993
0.5968468468468463 	300.0000150613893 	3.639340278130115e-05 	101325.0178050627
0.5993493493493487 	300.0000149176537 	3.6293226839617e-05 	101325.0176350142
0.6018518518518514 	300.0000147426783 	3.611293419998212e-05 	101325.0174284472
0.6043543543543537 	300.0000145415061 	3.587373622580419e-05 	101325.0171904742
0.6068568568568564 	300.0000143232477 	3.561241530189229e-05 	101325.0169325399
0.6093593593593587 	300.0000141013318 	3.53684594053238e-05 	101325.016670531
0.6118618618618614 	300.0000138909767 	3.518067246175418e-05 	101325.0164217768
0.6143643643643638 	300.0000137049532 	3.507842543185997e-05 	101325.0162013815
0.6168668668668662 	300.0000135500948 	3.507117166000611e-05 	101325.016018514
0.6193693693693688 	300.0000134273432 	3.515035077684487e-05 	101325.0158735737
0.6218718718718714 	300.0000133289366 	3.528393323443232e-05 	101325.0157573153
0.6243743743743737 	300.0000132400677 	3.542678965293046e-05 	101325.0156526015
0.6268768768768762 	300.0000131435851 	3.553111546476592e-05 	101325.0155386075
0.629379379379379 	300.0000130233751 	3.555501845112628e-05 	101325.0153963126
0.6318818818818812 	300.0000128689828 	3.547962475304567e-05 	101325.0152136645
0.6343843843843838 	300.0000126790572 	3.530861763207697e-05 	101325.01498892
0.6368868868868864 	300.0000124608883 	3.507122509125699e-05 	101325.0147310981
0.6393893893893888 	300.0000122290968 	3.48149236618639e-05 	101325.0144574049
0.6418918918918912 	300.0000120019765 	3.458853858604762e-05 	101325.0141884719
0.6443943943943939 	300.0000117941721 	3.443607147130151e-05 	101325.0139429003
0.6468968968968963 	300.000011616463 	3.437986239097695e-05 	101325.0137326618
0.6493993993993988 	300.0000114707591 	3.441926053552842e-05 	101325.0135604095
0.6519019019019012 	300.0000113515119 	3.453290319564306e-05 	101325.0134192987
0.6544044044044038 	300.0000112461875 	3.468030189198853e-05 	101325.0132952682
0.6569069069069065 	300.0000111411902 	3.481979597665914e-05 	101325.0131709816
0.6594094094094087 	300.00001102221 	3.491271720739046e-05 	101325.0130301998
0.6619119119119113 	300.0000108794243 	3.493440348828403e-05 	101325.0128614561
0.664414414414414 	300.0000107093662 	3.488055274577779e-05 	101325.0126602979
0.6669169169169162 	300.0000105142426 	3.476061626949384e-05 	101325.0124297419
0.6694194194194188 	300.0000103018486 	3.460166377907603e-05 	101325.012178921
0.6719219219219214 	300.0000100828169 	3.443433372267217e-05 	101325.0119204043
0.674424424424424 	300.0000098686136 	3.428794674089541e-05 	101325.0116670197
0.6769269269269262 	300.0000096670564 	3.418613862566939e-05 	101325.0114290817
0.679429429429429 	300.0000094843252 	3.413697770790835e-05 	101325.0112126299
0.6819319319319311 	300.0000093203432 	3.414055013892675e-05 	101325.011018868
0.6844344344344341 	300.0000091730252 	3.418404636327518e-05 	101325.0108446782
0.686936936936936 	300.0000090369384 	3.424942116330053e-05 	101325.0106838599
0.6894394394394392 	300.0000089056599 	3.431927931068686e-05 	101325.0105286753
0.6919419419419413 	300.0000087724437 	3.437478862199683e-05 	101325.0103713159
0.694444444444444 	300.0000086314054 	3.440624229070816e-05 	101325.0102050601
0.6969469469469463 	300.0000084791942 	3.440620966178099e-05 	101325.0100250756
0.6994494494494489 	300.0000083134228 	3.437330788502272e-05 	101325.0098289291
0.7019519519519515 	300.000008134386 	3.431306740262371e-05 	101325.0096168702
0.7044544544544538 	300.0000079440601 	3.423251053909725e-05 	101325.0093919122
0.7069569569569564 	300.0000077479567 	3.414743719159979e-05 	101325.0091596015
0.7094594594594589 	300.000007551406 	3.407370763905617e-05 	101325.0089273184
0.7119619619619615 	300.0000073615226 	3.402702601585071e-05 	101325.0087030095
0.7144644644644638 	300.0000071844945 	3.402016443251222e-05 	101325.0084934215
0.7169669669669665 	300.0000070225746 	3.405396539750838e-05 	101325.0083022009
0.7194694694694688 	300.000006875956 	3.412257722773879e-05 	101325.0081284506
0.7219719719719715 	300.0000067387853 	3.420854919650043e-05 	101325.0079664025
0.7244744744744737 	300.000006603574 	3.428843912495211e-05 	101325.007806521
0.7269769769769764 	300.0000064609416 	3.434224423268359e-05 	101325.0076379511
0.7294794794794791 	300.0000063033198 	3.435353267319791e-05 	101325.0074516937
0.7319819819819813 	300.0000061272031 	3.432166164469488e-05 	101325.0072435846
0.7344844844844839 	300.0000059343961 	3.425884836486309e-05 	101325.0070159922
0.7369869869869864 	300.0000057327758 	3.418654230770588e-05 	101325.0067773924
0.739489489489489 	300.0000055319182 	3.413453545166118e-05 	101325.0065397966
0.7419919919919914 	300.0000053416375 	3.412546475367495e-05 	101325.0063149005
0.7444944944944939 	300.0000051689133 	3.417197230690535e-05 	101325.0061104046
0.7469969969969963 	300.0000050143759 	3.426978295882921e-05 	101325.005927716
0.7494994994994989 	300.0000048737019 	3.439604464575584e-05 	101325.0057617226
0.7520020020020015 	300.0000047391487 	3.452034293479953e-05 	101325.0056025418
0.7545045045045039 	300.0000046004008 	3.460903363095473e-05 	101325.0054386167
0.7570070070070062 	300.0000044493841 	3.463961755774188e-05 	101325.0052602777
0.7595095095095092 	300.0000042823347 	3.46080880677974e-05 	101325.0050628357
0.7620120120120112 	300.0000041011435 	3.452802702115706e-05 	101325.004848276
0.7645145145145138 	300.0000039120619 	3.443225039124969e-05 	101325.0046248198
0.7670170170170165 	300.0000037253608 	3.435932204435902e-05 	101325.0044043715
0.7695195195195191 	300.0000035514798 	3.434443010940811e-05 	101325.0041986894
0.7720220220220213 	300.0000033967967 	3.441096315392592e-05 	101325.0040156387
0.7745245245245239 	300.0000032623458 	3.455840513885664e-05 	101325.0038566881
0.7770270270270263 	300.000003143845 	3.476791136262437e-05 	101325.0037163183
0.779529529529529 	300.0000030316016 	3.500166283255272e-05 	101325.003583433
0.7820320320320313 	300.0000029137766 	3.521339392286022e-05 	101325.0034442167
0.784534534534534 	300.0000027798131 	3.536330779915461e-05 	101325.0032856614
0.7870370370370364 	300.0000026216934 	3.542149990990176e-05 	101325.0030988879
0.7895395395395389 	300.0000024376747 	3.538244047465497e-05 	101325.0028814701
0.7920420420420413 	300.0000022317902 	3.526185585610693e-05 	101325.0026381559
0.794544544544544 	300.0000020131072 	3.509229591694336e-05 	101325.0023797497
0.7970470470470463 	300.0000017940253 	3.492121373845398e-05 	101325.0021206232
0.799549549549549 	300.0000015867704 	3.479362207076122e-05 	101325.0018756884
0.8020520520520515 	300.0000014021251 	3.474752287825312e-05 	101325.001657527
0.8045545545545539 	300.0000012466476 	3.480498666669163e-05 	101325.0014740146
0.8070570570570563 	300.0000011221812 	3.496513446390641e-05 	101325.001326702
0.8095595595595589 	300.0000010236598 	3.521172880680409e-05 	101325.0012104048
0.8120620620620614 	300.0000009422813 	3.551120015073062e-05 	101325.0011142738
0.8145645645645638 	300.0000008662207 	3.582202921725143e-05 	101325.0010240301
0.8170670670670666 	300.0000007821727 	3.610459226796798e-05 	101325.0009246624
0.8195695695695689 	300.0000006791119 	3.63227333555328e-05 	101325.000802995
0.8220720720720714 	300.000000549368 	3.645724139416138e-05 	101325.0006499267
0.8245745745745739 	300.0000003907815 	3.650360852698312e-05 	101325.0004621736
0.8270770770770765 	300.0000002055248 	3.64730418518139e-05 	101325.0002431614
0.8295795795795788 	300.0000000021342 	3.639480624344386e-05 	101325.0000027575
0.8320820820820815 	299.9999997935957 	3.630483505347989e-05 	101324.9997558511
0.834584584584584 	299.9999995940925 	3.624772183547254e-05 	101324.9995200349
0.8370870870870865 	299.9999994184256 	3.626444632595255e-05 	101324.9993126117
0.8395895895895891 	299.9999992784008 	3.638353003078506e-05 	101324.9991471747
0.8420920920920915 	299.9999991797408 	3.662031500090494e-05 	101324.9990303559
0.844594594594594 	299.999999119907 	3.696442607759205e-05 	101324.998959651
0.8470970970970964 	299.9999990890295 	3.738636194104631e-05 	101324.9989231131
0.8495995995995991 	299.9999990707397 	3.783992646147491e-05 	101324.9989012227
0.8521021021021015 	299.9999990447686 	3.826690102961401e-05 	101324.9988706085
0.8546046046046039 	299.9999989924261 	3.861700182745531e-05 	101324.9988088305
0.8571071071071066 	299.9999988997806 	3.885090268137914e-05 	101324.998699187
0.8596096096096089 	299.9999987603064 	3.895222781163074e-05 	101324.9985345282
0.8621121121121116 	299.9999985779602 	3.893397333216366e-05 	101324.998319132
0.8646146146146139 	299.9999983658563 	3.883054261479252e-05 	101324.9980680507
0.8671171171171166 	299.9999981422751 	3.869873743813088e-05 	101324.9978039184
0.8696196196196189 	299.9999979289126 	3.859952583667147e-05 	101324.9975518661
0.8721221221221216 	299.9999977447953 	3.858561673330583e-05 	101324.9973338881
0.874624624624624 	299.9999976013543 	3.869384300588938e-05 	101324.9971641382
0.8771271271271264 	299.9999975016394 	3.893154806828821e-05 	101324.9970462657
0.879629629629629 	299.999997440037 	3.928422629304405e-05 	101324.9969733978
0.8821321321321317 	299.9999974037647 	3.971468969593717e-05 	101324.9969306808
0.8846346346346339 	299.9999973770813 	4.01760104130035e-05 	101324.9968995694
0.8871371371371364 	299.9999973458271 	4.062145652284647e-05 	101324.9968625285
0.8896396396396391 	299.9999972986398 	4.101431796967577e-05 	101324.9968067374
0.8921421421421414 	299.9999972302823 	4.133581641962038e-05 	101324.9967259202
0.8946446446446441 	299.9999971409195 	4.158116003700135e-05 	101324.9966201475
0.8971471471471464 	299.9999970343223 	4.176016373782649e-05 	101324.9964939846
0.8996496496496489 	299.999996915659 	4.189192904199764e-05 	101324.99635379
0.9021521521521517 	299.999996789903 	4.199742961378485e-05 	101324.9962051731
0.9046546546546541 	299.9999966600573 	4.209416005981328e-05 	101324.9960515484
0.9071571571571564 	299.9999965267221 	4.219673139753505e-05 	101324.9958942205
0.9096596596596589 	299.9999963909814 	4.231460004731788e-05 	101324.9957338093
0.9121621621621616 	299.9999962546079 	4.246132313447955e-05 	101324.995572267
0.9146646646646639 	299.9999961209475 	4.26471349727676e-05 	101324.9954144358
0.9171671671671666 	299.9999959971184 	4.288348929134338e-05 	101324.9952682732
0.9196696696696689 	299.9999958917489 	4.318428474354543e-05 	101324.9951434019
0.9221721721721714 	299.9999958113414 	4.355424236473293e-05 	101324.9950483596
0.9246746746746741 	299.999995759472 	4.399257193386195e-05 	101324.9949874018
0.9271771771771765 	299.9999957346751 	4.44842826165228e-05 	101324.9949580179
0.9296796796796791 	299.999995728146 	4.500315862855903e-05 	101324.9949501343
0.9321821821821816 	299.999995725746 	4.551592996614595e-05 	101324.9949474645
0.9346846846846838 	299.9999957115732 	4.59819869430763e-05 	101324.9949308818
0.9371871871871866 	299.9999956713034 	4.637128011111952e-05 	101324.994883009
0.9396896896896891 	299.9999955950452 	4.666795605920448e-05 	101324.9947929085
0.9421921921921914 	299.9999954821927 	4.687531470621729e-05 	101324.9946595511
0.9446946946946939 	299.9999953410701 	4.702012519736805e-05 	101324.9944928987
0.9471971971971965 	299.9999951879344 	4.714492366823763e-05 	101324.9943120457
0.9496996996996991 	299.9999950432379 	4.730417059785204e-05 	101324.9941407148
0.9522022022022016 	299.9999949255266 	4.754373215527853e-05 	101324.9940013082
0.9547047047047038 	299.9999948477026 	4.789286193445625e-05 	101324.9939091723
0.9572072072072064 	299.9999948133992 	4.835728441221928e-05 	101324.9938686091
0.9597097097097093 	299.9999948161625 	4.891208789395365e-05 	101324.9938717809
0.9622122122122114 	299.999994840868 	4.951302368684211e-05 	101324.9939009521
0.964714714714714 	299.9999948683068 	5.010683015888674e-05 	101324.9939334302
0.9672172172172167 	299.9999948803503 	5.064612672233795e-05 	101324.993947701
0.969719719719719 	299.999994864653 	5.109928390027973e-05 	101324.9939290055
0.9722222222222214 	299.9999948171809 	5.145675368241467e-05 	101324.9938729125
0.9747247247247239 	299.9999947435753 	5.173396723163718e-05 	101324.9937859633
0.9772272272272267 	299.9999946567351 	5.196247687517911e-05 	101324.9936831689
0.9797297297297292 	299.9999945720292 	5.217923189593935e-05 	101324.9935831749
0.9822322322322313 	299.9999945039355 	5.24162224351301e-05 	101324.9935026937
0.9847347347347344 	299.9999944610228 	5.269245108498428e-05 	101324.9934520042
0.9872372372372363 	299.9999944446052 	5.300794877898993e-05 	101324.9934328454
0.9897397397397389 	299.99999445 	5.335017123817786e-05 	101324.9934391303
0.9922422422422417 	299.9999944676216 	5.37006253967907e-05 	101324.9934600203
0.9947447447447441 	299.9999944881508 	5.404133326733264e-05 	101324.9934841202
0.9972472472472468 	299.9999945043369 	5.436574776425525e-05 	101324.9935032364
0.999749749749749 	299.9999945137853 	5.467943189254528e-05 	101324.9935144412
1.002252252252252 	299.99999451845 	5.499862439312941e-05 	101324.9935198999
1.004754754754754 	299.9999945226026 	5.534703212693898e-05 	101324.9935247376
1.007257257257256 	299.9999945301698 	5.574489165999068e-05 	101324.9935338295
1.009759759759759 	299.9999945426911 	5.620177867475547e-05 	101324.9935487043
1.012262262262261 	299.9999945570534 	5.671165979307734e-05 	101324.9935657278
1.014764764764764 	299.9999945658738 	5.72520807610527e-05 	101324.9935763194
1.017267267267267 	299.9999945598972 	5.779151844437843e-05 	101324.9935693147
1.019769769769769 	299.9999945309893 	5.829747232356042e-05 	101324.9935348855
1.022272272272272 	299.9999944751314 	5.874749901025889e-05 	101324.9934687697
1.024774774774774 	299.9999943961244 	5.913738418379513e-05 	101324.9933753573
1.027277277277277 	299.9999943055448 	5.948554369956072e-05 	101324.9932683276
1.029779779779779 	299.9999942210486 	5.982706915943891e-05 	101324.9931682868
1.032282282282282 	299.9999941615606 	6.020402650195614e-05 	101324.9930979531
1.034784784784784 	299.9999941430085 	6.065481755745598e-05 	101324.9930761
1.037287287287286 	299.9999941731481 	6.119681673037985e-05 	101324.9931118961
1.039789789789789 	299.9999942488362 	6.182207674802779e-05 	101324.9932013123
1.042292292292291 	299.9999943551547 	6.249736724022631e-05 	101324.9933268183
1.044794794794794 	299.9999944687231 	6.316844466688708e-05 	101324.9934609579
1.047297297297296 	299.9999945636102 	6.377679498967941e-05 	101324.993573066
1.049799799799799 	299.9999946176724 	6.427562324413541e-05 	101324.9936372996
1.052302302302302 	299.9999946196279 	6.464470784578722e-05 	101324.9936398619
1.054804804804804 	299.9999945715413 	6.489838506656162e-05 	101324.9935831896
1.057307307307306 	299.9999944890543 	6.508380136315385e-05 	101324.9934857359
1.059809809809809 	299.9999943975199 	6.526958041304312e-05 	101324.9933772993
1.062312312312312 	299.9999943246409 	6.552721031625878e-05 	101324.9932911365
1.064814814814814 	299.9999942942907 	6.591303116687758e-05 	101324.9932552469
1.067317317317317 	299.9999943193725 	6.644948148587047e-05 	101324.9932850499
1.069819819819819 	299.9999943991286 	6.711953389023091e-05 	101324.9933793474
1.072322322322321 	299.9999945191926 	6.787169774525039e-05 	101324.9935208663
1.074824824824824 	299.9999946550723 	6.863054185432292e-05 	101324.9936812958
1.077327327327327 	299.9999947804636 	6.931866460617722e-05 	101324.9938294001
1.079829829829829 	299.9999948738167 	6.987754619331698e-05 	101324.9939397113
1.082332332332332 	299.9999949239063 	7.028300370243332e-05 	101324.9939991937
1.084834834834834 	299.9999949328745 	7.055056117749706e-05 	101324.9940099945
1.087337337337337 	299.9999949135666 	7.072920380506571e-05 	101324.9939873962
1.089839839839839 	299.9999948850534 	7.088550873213061e-05 	101324.9939537861
1.092342342342342 	299.9999948658881 	7.108340223507646e-05 	101324.993930912
1.094844844844844 	299.9999948678569 	7.1366926904108e-05 	101324.9939332301
1.097347347347347 	299.9999948942939 	7.175069042671722e-05 	101324.9939646363
1.099849849849849 	299.9999949406039 	7.222252208164699e-05 	101324.9940194118
1.102352352352352 	299.9999949977225 	7.27502758820408e-05 	101324.9940867088
1.104854854854854 	299.9999950568924 	7.330119210799731e-05 	101324.9941565373
1.107357357357357 	299.9999951143044 	7.385396360784236e-05 	101324.9942245414
1.109859859859859 	299.9999951725997 	7.439636660281208e-05 	101324.9942934944
1.112362362362362 	299.9999952383656 	7.493468772899398e-05 	101324.9943708526
1.114864864864865 	299.9999953167611 	7.547469149968999e-05 	101324.9944635151
1.117367367367367 	299.9999954085832 	7.601328913949157e-05 	101324.9945723445
1.119869869869869 	299.9999955072034 	7.653207756294141e-05 	101324.9946891214
1.122372372372372 	299.9999955992058 	7.70000343391096e-05 	101324.994797668
1.124874874874874 	299.9999956680152 	7.738706222348123e-05 	101324.9948790312
1.127377377377377 	299.9999957017235 	7.767474201206947e-05 	101324.9949188676
1.129879879879879 	299.9999956979955 	7.786841898249451e-05 	101324.9949141682
1.132382382382382 	299.9999956662193 	7.800593826659629e-05 	101324.994876477
1.134884884884884 	299.9999956267339 	7.814891609965943e-05 	101324.9948300019
1.137387387387387 	299.9999956055639 	7.836361714152328e-05 	101324.9948049782
1.139889889889889 	299.9999956252909 	7.870444930369009e-05 	101324.9948286125
1.142392392392392 	299.9999956997832 	7.919275466984113e-05 	101324.9949167289
1.144894894894894 	299.9999958288067 	7.98083241283338e-05 	101324.9950688545
1.147397397397397 	299.9999959975008 	8.049637911774048e-05 	101324.9952683876
1.149899899899899 	299.9999961826773 	8.118337955168923e-05 	101324.9954876437
1.152402402402402 	299.9999963587048 	8.179492642629613e-05 	101324.9956957954
1.154904904904904 	299.9999965036557 	8.227776105791294e-05 	101324.9958669766
1.157407407407407 	299.9999966044352 	8.261245922843073e-05 	101324.9959861663
1.159909909909909 	299.9999966595618 	8.281579185908075e-05 	101324.9960515442
1.162412412412412 	299.9999966778561 	8.292925296018267e-05 	101324.9960732232
1.164914914914914 	299.9999966747573 	8.301137653141501e-05 	101324.9960693809
1.167417417417417 	299.9999966680696 	8.31213311296689e-05 	101324.9960613997
1.169919919919919 	299.9999966751723 	8.330328932449539e-05 	101324.9960694408
1.172422422422422 	299.9999967090558 	8.358172233599166e-05 	101324.996109253
1.174924924924925 	299.9999967773518 	8.396024953436369e-05 	101324.9961902465
1.177427427427427 	299.9999968823724 	8.44221032513551e-05 	101324.9963145456
1.179929929929929 	299.9999970198825 	8.493508271568518e-05 	101324.9964767893
1.182432432432432 	299.9999971789587 	8.545827370859268e-05 	101324.9966646899
1.184934934934934 	299.9999973444246 	8.594838055986481e-05 	101324.9968606306
1.187437437437437 	299.9999974997319 	8.636857894329697e-05 	101324.9970445084
1.189939939939939 	299.9999976291761 	8.669375388067196e-05 	101324.9971976406
1.192442442442442 	299.999997721565 	8.691591292133303e-05 	101324.9973070683
1.194944944944944 	299.9999977741407 	8.704789946930556e-05 	101324.9973692237
1.197447447447447 	299.9999977935352 	8.712075053511383e-05 	101324.9973917906
1.199949949949949 	299.9999977945865 	8.717698528377905e-05 	101324.9973928384
1.202452452452452 	299.9999977979097 	8.726472876338763e-05 	101324.9973970313
1.204954954954955 	299.9999978255846 	8.742405376697627e-05 	101324.9974297396
1.207457457457457 	299.9999978941644 	8.767217213425554e-05 	101324.9975105771
1.20995995995996 	299.9999980104386 	8.800384183128178e-05 	101324.9976480077
1.212462462462462 	299.9999981699943 	8.839205516499127e-05 	101324.9978365802
1.214964964964964 	299.9999983570747 	8.879107406011992e-05 	101324.998057794
1.217467467467467 	299.9999985487277 	8.914797862011122e-05 	101324.9982844513
1.219969969969969 	299.9999987201046 	8.941676348440941e-05 	101324.9984872177
1.222472472472472 	299.9999988510228 	8.957042200001487e-05 	101324.9986417097
1.224974974974975 	299.9999989296393 	8.960574560686085e-05 	101324.998734492
1.227477477477477 	299.9999989564096 	8.954527280415403e-05 	101324.9987664604
1.229979979979979 	299.9999989448081 	8.943146074579317e-05 	101324.9987527886
1.232482482482482 	299.9999989166444 	8.931774665410733e-05 	101324.99871961
1.234984984984984 	299.9999988985364 	8.925702466685117e-05 	101324.9986981313
1.237487487487487 	299.9999989150725 	8.92864668278809e-05 	101324.9987174386
1.239989989989989 	299.9999989831339 	8.942568694157505e-05 	101324.9987978116
1.242492492492492 	299.9999991087452 	8.966069458826858e-05 	101324.9989461254
1.244994994994994 	299.9999992735558 	8.996862747990657e-05 	101324.9991541498
1.247497497497497 	299.9999968421414 	9.035702890420556e-05 	101324.999400189
1.249999999999999 	299.9994632167192 	9.057402263236335e-05 	101324.9996457841
