-1.25 	300 	0 	101374.9013364214
-1.247497497497497 	300.0303687077808 	2.276812612982496 	101365.1845293276
-1.244994994994995 	300.0395270040037 	2.066748958374915 	101374.5658834074
-1.242492492492492 	300.0327498683197 	1.868241546403874 	101365.6403734404
-1.23998998998999 	300.039170181071 	1.681304256086321 	101373.2053691569
-1.237487487487487 	300.0336477516253 	1.500913774303478 	101365.9988232842
-1.234984984984985 	300.0392574747102 	1.334022563516063 	101372.6335496578
-1.232482482482482 	300.034295229963 	1.172866569876563 	101366.269537304
-1.22997997997998 	300.039022391307 	1.027054016933113 	101371.882786937
-1.227477477477477 	300.0347252154496 	0.8854802956804504 	101366.4486523684
-1.224974974974975 	300.0386871184297 	0.7609588080796557 	101371.170561701
-1.222472472472472 	300.0349703374476 	0.6390503926177938 	101366.5341234985
-1.21996996996997 	300.0382343263697 	0.5358112579012464 	101370.4358411491
-1.217467467467467 	300.0350692592658 	0.4335707526672395 	101366.5362081125
-1.214964964964965 	300.0376813680787 	0.35146912636059 	101369.6647689227
-1.212462462462462 	300.0350507587785 	0.2686483349541269 	101366.4590746315
-1.20995995995996 	300.0370563557792 	0.2073341976363201 	101368.8624988333
-1.207457457457457 	300.034962687711 	0.1435821498490826 	101366.3353511944
-1.204954954954955 	300.0363736875009 	0.1026087758310765 	101368.0246167799
-1.202452452452452 	300.0348448727419 	0.1171401685907088 	101366.1941022376
-1.19994994994995 	300.0356495070417 	0.09145208746365537 	101367.155242463
-1.197447447447447 	300.0347264781821 	0.1084465233992791 	101366.0574164372
-1.194944944944945 	300.0348962534486 	0.09824924950793318 	101366.2603336876
-1.192442442442442 	300.0346140745432 	0.1004543078121119 	101365.9262360508
-1.18993993993994 	300.0343882458264 	0.09960417942133451 	101365.6593618405
-1.187437437437437 	300.0341558475091 	0.09892846535680354 	101365.3845446897
-1.184934934934935 	300.0339155309707 	0.09823195007154981 	101365.1003646683
-1.182432432432432 	300.0336653019205 	0.09750651329234675 	101364.8044635964
-1.17992992992993 	300.0334032789093 	0.09674762579992632 	101364.4946165972
-1.177427427427427 	300.033129543866 	0.09595606544795429 	101364.1709203888
-1.174924924924925 	300.0328475452956 	0.09514171188024542 	101363.8374526247
-1.172422422422422 	300.0325637547314 	0.09432236893386704 	101363.5018659321
-1.16991991991992 	300.0322851189653 	0.09351675926053217 	101363.1723752503
-1.167417417417417 	300.0320153409053 	0.09273460178823724 	101362.8533596742
-1.164914914914915 	300.0317522350487 	0.09196969595311377 	101362.5422352422
-1.162412412412412 	300.031488103589 	0.09120106195704193 	101362.2298995382
-1.15990990990991 	300.0312132809336 	0.09040255283004553 	101361.9049229003
-1.157407407407407 	300.0309210496169 	0.08955593979588625 	101361.5593615331
-1.154904904904904 	300.0306108994298 	0.08865959950205302 	101361.1926117562
-1.152402402402403 	300.0302881440419 	0.08772757816840045 	101360.8109568048
-1.1498998998999 	300.0299603322473 	0.08678004529687389 	101360.4233231755
-1.147397397397397 	300.0296327611256 	0.08583142640386168 	101360.0359749673
-1.144894894894895 	300.0293060114465 	0.08488366251609253 	101359.6495993575
-1.142392392392392 	300.0289765849078 	0.08392761732914633 	101359.2600599049
-1.13988988988989 	300.0286395652279 	0.08295016434456001 	101358.8615431522
-1.137387387387387 	300.0282915736923 	0.08194204758556133 	101358.4500537453
-1.134884884884885 	300.0279322126495 	0.08090193057235157 	101358.0251213566
-1.132382382382382 	300.0275636331623 	0.07983556059681779 	101357.5892894695
-1.12987987987988 	300.027189209765 	0.07875210131903015 	101357.1465484677
-1.127377377377377 	300.0268119060707 	0.07765972264521694 	101356.7004028391
-1.124874874874875 	300.0264331885946 	0.07656272944677575 	101356.2525868325
-1.122372372372372 	300.0260531070788 	0.07546143355749602 	101355.8031593864
-1.11986986986987 	300.0256707471077 	0.07435337819255392 	101355.3510393113
-1.117367367367367 	300.0252848006284 	0.07323511825080997 	101354.8946799166
-1.114864864864865 	300.0248944328604 	0.07210433351257288 	101354.4330941277
-1.112362362362362 	300.0244995477517 	0.07096058476939111 	101353.9661683748
-1.10985985985986 	300.0241004278387 	0.06980466433278325 	101353.4942367799
-1.107357357357357 	300.0236976079058 	0.06863800085789547 	101353.0179316993
-1.104854854854855 	300.0232915286574 	0.067461628884908 	101352.537774324
-1.102352352352353 	300.0228819886314 	0.06627516699011105 	101352.0535265297
-1.09984984984985 	300.0224686549555 	0.06507804180520256 	101351.5647946769
-1.097347347347347 	300.0220520017181 	0.06387151780337007 	101351.0721393478
-1.094844844844845 	300.0216330780283 	0.06265835424860963 	101350.5768010676
-1.092342342342342 	300.0212128223826 	0.06144124738738397 	101350.07988954
-1.08983983983984 	300.0207919088216 	0.06022196457114418 	101349.5822018234
-1.087337337337337 	300.020370229414 	0.05899983976849571 	101349.0836104249
-1.084834834834835 	300.0199460707212 	0.05777012835999162 	101348.5820895108
-1.082332332332332 	300.0195167203134 	0.05652574013067952 	101348.0744319329
-1.07982982982983 	300.01908041947 	0.0552620348714128 	101347.5585581349
-1.077327327327327 	300.0186375701447 	0.05398005805473105 	101347.0349433172
-1.074824824824825 	300.0181904895004 	0.0526862601905398 	101346.5063271712
-1.072322322322323 	300.0177426957977 	0.05139051736907026 	101345.97686954
-1.06981981981982 	300.0172979717419 	0.05010312809220883 	101345.4510430519
-1.067317317317317 	300.0168585599816 	0.04882969968976553 	101344.9314996372
-1.064814814814815 	300.0164228491622 	0.04756520548112643 	101344.4163343828
-1.062312312312312 	300.0159845535389 	0.04629245452556914 	101343.8981155037
-1.05980980980981 	300.0155355361572 	0.04499016709400088 	101343.3672221701
-1.057307307307307 	300.0150718330092 	0.04364868530418619 	101342.818967086
-1.054804804804805 	300.0145982552294 	0.04228109503763942 	101342.2590381602
-1.052302302302302 	300.0141260043409 	0.040916389153186 	101341.7006794137
-1.0497997997998 	300.0136637002294 	0.0395766556779695 	101341.1540830095
-1.047297297297297 	300.0132100081851 	0.03825879133349597 	101340.6176715172
-1.044794794794795 	300.0127556436201 	0.03693957261251885 	101340.0804676914
-1.042292292292292 	300.0122928167627 	0.03559911646203309 	101339.5332610333
-1.03978978978979 	300.011822140307 	0.03423823999312189 	101338.9767754511
-1.037287287287287 	300.0113502339144 	0.03287302571772206 	101338.418837396
-1.034784784784785 	300.01088184153 	0.03151561540496629 	101337.8650560482
-1.032282282282283 	300.0104156907363 	0.03016367716681654 	101337.3139273422
-1.02977977977978 	300.009947871551 	0.02880816913333644 	101336.7608284209
-1.027277277277277 	300.0094776344938 	0.02744735373070453 	101336.2048728945
-1.024774774774775 	300.009008506843 	0.0260896579812463 	101335.6502308641
-1.022272272272272 	300.0085437411772 	0.02474267199555927 	101335.1007480665
-1.01976976976977 	300.0080816609175 	0.02340180030179501 	101334.5544426728
-1.017267267267267 	300.0076163854566 	0.02205222750349909 	101334.0043622343
-1.014764764764765 	300.0071435904337 	0.02068350524067421 	101333.4453937819
-1.012262262262262 	300.0066658556901 	0.01930305451347243 	101332.8805868647
-1.00975975975976 	300.0061924516002 	0.0179354362068462 	101332.3209012618
-1.007257257257257 	300.0057333057683 	0.01660664101876567 	101331.778074179
-1.004754754754755 	300.0052917429437 	0.01532508874606022 	101331.2560368658
-1.002252252252252 	300.004861317131 	0.0140731727227644 	101330.7471691261
-0.9997497497497498 	300.0044287149622 	0.01281488890214664 	101330.2357314485
-0.9972472472472473 	300.0039806952733 	0.01151451713765541 	101329.7060692972
-0.9947447447447449 	300.0035111609642 	0.01015589407897424 	101329.1509738569
-0.9922422422422421 	300.0030250086843 	0.008752969800664277 	101328.5762333446
-0.9897397397397399 	300.0025372744342 	0.007347519197638294 	101327.9996231979
-0.9872372372372376 	300.0020683025168 	0.005996184174505139 	101327.4451946067
-0.9847347347347346 	300.0016376297882 	0.00475401712755885 	101326.9360442991
-0.9822322322322323 	300.0012596081947 	0.00366208900218542 	101326.4891392721
-0.9797297297297296 	300.0009417136368 	0.002742224771405099 	101326.1133175844
-0.9772272272272275 	300.0006848781758 	0.001997629304955131 	101325.8096810852
-0.9747247247247248 	300.0004849715875 	0.001416937795919564 	101325.5733469365
-0.9722222222222224 	300.0003346901684 	0.0009795311319415064 	101325.3956806328
-0.9697197197197196 	300.0002253239047 	0.0006605807099609321 	101325.2663850157
-0.9672172172172175 	300.0001481190684 	0.0004349825111064713 	101325.1751113146
-0.9647147147147147 	300.000095156366 	0.0002799221363635238 	101325.1124972241
-0.9622122122122124 	300.0000597930966 	0.0001761909874379653 	101325.0706896347
-0.9597097097097099 	300.0000367783566 	0.0001085554753171694 	101325.0434808209
-0.9572072072072073 	300.0000221606282 	6.551808762306168e-05 	101325.0261992209
-0.9547047047047047 	300.0000130894489 	3.876251507478944e-05 	101325.015474904
-0.9522022022022023 	300.0000075838535 	2.249494099228693e-05 	101325.0089659779
-0.9496996996996998 	300.0000043127276 	1.281277224179661e-05 	101325.0050987158
-0.9471971971971973 	300.00000240855 	7.166937289396216e-06 	101325.002847503
-0.9446946946946947 	300.000001321667 	3.93901729488699e-06 	101325.0015625697
-0.9421921921921923 	300.000000712995 	2.128256479149751e-06 	101325.0008429542
-0.93968968968969 	300.0000003783182 	1.130958592674131e-06 	101325.0004472627
-0.9371871871871872 	300.0000001975146 	5.913568956257134e-07 	101325.000233511
-0.9346846846846848 	300.0000001014914 	3.043796510826682e-07 	101325.0001200107
-0.9321821821821823 	300.0000000513655 	1.542823903769664e-07 	101325.0000607392
-0.9296796796796799 	300.0000000256195 	7.704095344048799e-08 	101325.0000302839
-0.9271771771771771 	300.0000000125838 	3.791196361159518e-08 	101325.0000148797
-0.9246746746746748 	300.0000000060869 	1.839349305453793e-08 	101325.0000072068
-0.9221721721721724 	300.0000000029131 	8.799688331257237e-09 	101325.0000034414
-0.9196696696696698 	300.0000000013678 	4.154276621569995e-09 	101325.0000016201
-0.9171671671671672 	300.0000000006164 	1.935183004964808e-09 	101325.0000007516
-0.9146646646646649 	300.0000000002874 	8.903586033437846e-10 	101325.0000003431
-0.9121621621621623 	300.0000000001372 	4.047041318063221e-10 	101325.0000001537
-0.9096596596596597 	300.0000000000411 	1.81480754569771e-10 	101325.0000000669
-0.9071571571571573 	300.0000000000211 	8.004036293587724e-11 	101325.0000000278
-0.9046546546546547 	300.0000000000205 	3.45230452938865e-11 	101325.0000000103
-0.9021521521521524 	299.9999999999883 	1.538608432857919e-11 	101325.0000000026
-0.8996496496496498 	299.9999999999946 	6.154034556932487e-12 	101324.9999999992
-0.8971471471471473 	300.0000000000067 	2.676769765646409e-12 	101324.9999999979
-0.894644644644645 	300.0000000000029 	1.695932850528739e-12 	101324.9999999974
-0.892142142142142 	300.0000000000039 	6.85836183018255e-13 	101324.9999999971
-0.8896396396396397 	300.000000000005 	1.453447389504172e-12 	101324.9999999971
-0.8871371371371374 	299.999999999982 	1.931060531622236e-12 	101324.999999997
-0.8846346346346349 	299.9999999999743 	2.533569021143968e-12 	101324.9999999968
-0.8821321321321324 	299.9999999999746 	2.902753728361992e-12 	101324.9999999967
-0.8796296296296297 	299.9999999999775 	2.926989996220971e-12 	101324.9999999967
-0.8771271271271271 	299.9999999999793 	3.110503420235272e-12 	101324.9999999967
-0.8746246246246248 	299.9999999999948 	2.607876744115985e-12 	101324.9999999967
-0.8721221221221224 	300.0000000000015 	2.138191733950435e-12 	101324.9999999968
-0.8696196196196196 	299.9999999999873 	1.807246727860103e-12 	101324.999999997
-0.8671171171171175 	299.9999999999957 	1.520884673997236e-12 	101324.9999999972
-0.8646146146146148 	299.9999999999752 	1.460250158420511e-12 	101324.9999999973
-0.8621121121121121 	299.9999999999889 	9.249378930875621e-13 	101324.9999999974
-0.8596096096096097 	300.0000000000076 	6.346243432367113e-13 	101324.9999999974
-0.857107107107107 	299.999999999984 	3.947732902026708e-13 	101324.9999999973
-0.8546046046046049 	299.9999999999964 	6.406429566391155e-13 	101324.9999999972
-0.8521021021021022 	300.0000000000039 	8.731071205161759e-13 	101324.999999997
-0.8495995995995997 	299.9999999999962 	2.110158596001967e-12 	101324.9999999968
-0.8470970970970974 	299.9999999999681 	1.584940876057956e-12 	101324.9999999968
-0.8445945945945946 	299.9999999999795 	1.770969031386799e-12 	101324.9999999968
-0.8420920920920922 	300.0000000000049 	9.718958072671756e-13 	101324.9999999968
-0.8395895895895897 	299.9999999999978 	2.421862388663493e-12 	101324.9999999967
-0.8370870870870872 	299.9999999999993 	1.479945093829141e-12 	101324.9999999966
-0.8345845845845846 	300.0000000000045 	2.100565562466496e-12 	101324.9999999967
-0.8320820820820823 	299.9999999999798 	1.587793083876558e-12 	101324.9999999968
-0.8295795795795798 	299.9999999999595 	1.559276239135854e-12 	101324.9999999969
-0.8270770770770772 	299.9999999999764 	1.708678536302528e-12 	101324.9999999971
-0.8245745745745746 	299.999999999966 	9.45824639403084e-13 	101324.9999999973
-0.8220720720720721 	299.9999999999759 	5.137543165181269e-13 	101324.9999999973
-0.8195695695695699 	299.9999999999949 	1.671683655758567e-12 	101324.9999999972
-0.817067067067067 	299.9999999999793 	1.163631074915904e-12 	101324.9999999971
-0.8145645645645651 	299.999999999966 	1.96451912572881e-12 	101324.9999999971
-0.8120620620620621 	299.9999999999932 	1.110501067724402e-12 	101324.9999999969
-0.8095595595595597 	300.0000000000032 	4.857121058609334e-13 	101324.9999999967
-0.8070570570570572 	299.999999999973 	3.201415936635812e-13 	101324.9999999965
-0.8045545545545546 	299.9999999999722 	1.336935763506728e-12 	101324.9999999967
-0.8020520520520523 	299.9999999999941 	1.032844631720036e-12 	101324.9999999967
-0.7995495495495494 	300.0000000000086 	3.197793720979725e-12 	101324.9999999968
-0.7970470470470474 	299.999999999998 	2.636224150188613e-12 	101324.9999999968
-0.7945445445445446 	300.0000000000017 	3.121967708598008e-12 	101324.9999999968
-0.7920420420420423 	300.0000000000054 	3.24312231679744e-12 	101324.9999999967
-0.7895395395395397 	300.0000000000048 	3.251314933300582e-12 	101324.9999999966
-0.7870370370370371 	300.0000000000007 	2.975746674379983e-12 	101324.9999999965
-0.7845345345345348 	299.9999999999852 	2.682839577421989e-12 	101324.9999999963
-0.7820320320320323 	299.9999999999863 	2.640954742676917e-12 	101324.999999996
-0.7795295295295296 	299.9999999999658 	2.977666778720047e-12 	101324.9999999958
-0.7770270270270272 	299.9999999999559 	3.259993110070308e-12 	101324.999999996
-0.7745245245245247 	299.9999999999554 	2.746802263900502e-12 	101324.9999999961
-0.7720220220220222 	299.9999999999757 	2.777497592052155e-12 	101324.9999999963
-0.7695195195195199 	299.9999999999777 	2.111942919051604e-12 	101324.9999999963
-0.767017017017017 	299.9999999999905 	3.151853588411522e-12 	101324.9999999962
-0.7645145145145147 	300.0000000000057 	2.872059710298943e-12 	101324.9999999961
-0.7620120120120122 	300.0000000000087 	3.710076244516035e-12 	101324.9999999962
-0.7595095095095097 	299.9999999999681 	3.732453836316155e-12 	101324.9999999965
-0.7570070070070072 	299.99999999997 	5.152325855159789e-12 	101324.9999999967
-0.7545045045045048 	299.9999999999933 	4.746873556547009e-12 	101324.9999999966
-0.7520020020020022 	299.9999999999826 	4.226758438002238e-12 	101324.9999999966
-0.7494994994994997 	299.9999999999782 	3.393419902699644e-12 	101324.9999999964
-0.7469969969969972 	299.9999999999954 	2.897655568835279e-12 	101324.9999999962
-0.7444944944944945 	299.9999999999919 	1.505895572744446e-12 	101324.9999999959
-0.7419919919919924 	299.9999999999935 	1.583383403173447e-12 	101324.999999996
-0.7394894894894897 	299.999999999979 	9.878516748242332e-13 	101324.9999999961
-0.7369869869869872 	299.9999999999945 	6.736999680709827e-13 	101324.9999999963
-0.7344844844844846 	299.9999999999847 	1.06222333482284e-12 	101324.9999999963
-0.7319819819819822 	300.0000000000021 	9.840301166010062e-13 	101324.9999999963
-0.7294794794794797 	299.9999999999977 	1.596740682650729e-12 	101324.9999999964
-0.7269769769769773 	300.0000000000034 	1.457914138439686e-12 	101324.9999999963
-0.7244744744744747 	300.0000000000076 	5.469489930522033e-13 	101324.9999999964
-0.721971971971972 	299.9999999999775 	8.070695287025964e-13 	101324.9999999963
-0.7194694694694695 	299.999999999991 	6.855272329849889e-13 	101324.9999999963
-0.7169669669669674 	299.9999999999686 	3.551135347387506e-13 	101324.9999999963
-0.7144644644644647 	299.9999999999858 	2.460157411390379e-13 	101324.9999999964
-0.711961961961962 	300.0000000000026 	5.374026825676094e-13 	101324.9999999963
-0.7094594594594597 	300.0000000000036 	7.403914214926589e-13 	101324.9999999961
-0.7069569569569573 	300.00000000001 	9.541029191905353e-13 	101324.9999999961
-0.7044544544544545 	300.0000000000135 	3.931164180725744e-13 	101324.9999999961
-0.7019519519519523 	300.0000000000044 	2.058422434099069e-13 	101324.9999999962
-0.6994494494494495 	299.9999999999662 	2.335693628303667e-13 	101324.9999999962
-0.6969469469469471 	299.9999999999724 	4.729871837146494e-13 	101324.9999999961
-0.6944444444444446 	299.9999999999812 	4.691488556138209e-13 	101324.9999999962
-0.6919419419419421 	300.0000000000114 	3.682328439690964e-13 	101324.9999999963
-0.6894394394394396 	299.9999999999964 	3.079550700402387e-13 	101324.9999999964
-0.6869369369369374 	300.0000000000042 	6.479812040273765e-13 	101324.9999999966
-0.6844344344344344 	300.00000000001 	4.747275173628211e-13 	101324.9999999967
-0.6819319319319321 	299.999999999981 	1.045720304957926e-12 	101324.9999999968
-0.6794294294294296 	299.9999999999715 	8.401053510031829e-13 	101324.9999999969
-0.6769269269269272 	299.9999999999581 	1.068507324573256e-12 	101324.9999999968
-0.6744244244244245 	299.9999999999828 	1.226014370348856e-12 	101324.9999999966
-0.6719219219219222 	299.9999999999801 	8.421356955342019e-13 	101324.9999999964
-0.6694194194194195 	299.9999999999984 	7.51238702351214e-13 	101324.9999999962
-0.6669169169169172 	300.0000000000069 	6.802241603639604e-13 	101324.9999999961
-0.6644144144144146 	299.9999999999798 	5.428804395116975e-13 	101324.9999999962
-0.661911911911912 	299.9999999999837 	5.734448057620466e-13 	101324.9999999963
-0.6594094094094097 	299.9999999999891 	4.482947751831719e-13 	101324.9999999964
-0.656906906906907 	299.9999999999695 	3.95920762531922e-13 	101324.9999999966
-0.6544044044044046 	299.999999999971 	1.892001398207215e-12 	101324.9999999967
-0.6519019019019021 	299.9999999999928 	1.423696126288312e-12 	101324.9999999969
-0.6493993993993996 	300.0000000000107 	2.81877450493803e-12 	101324.9999999969
-0.6468968968968971 	300.0000000000146 	1.426560155582954e-12 	101324.9999999967
-0.6443943943943946 	299.999999999996 	2.105598288015452e-12 	101324.9999999964
-0.6418918918918921 	299.9999999999972 	1.335026953783755e-12 	101324.9999999963
-0.6393893893893897 	299.9999999999985 	7.042427649616539e-13 	101324.9999999963
-0.6368868868868871 	299.9999999999873 	9.77395022729078e-13 	101324.9999999964
-0.6343843843843846 	299.9999999999969 	6.686756380168362e-13 	101324.9999999964
-0.6318818818818821 	299.9999999999789 	5.371111082379946e-13 	101324.9999999964
-0.6293793793793795 	300.0000000000013 	4.287600191645681e-13 	101324.9999999966
-0.6268768768768773 	300.0000000000072 	4.966281195186294e-13 	101324.9999999966
-0.6243743743743745 	299.9999999999888 	3.321154271756237e-13 	101324.9999999966
-0.6218718718718721 	300.0000000000029 	1.38727738255018e-12 	101324.9999999967
-0.6193693693693696 	299.9999999999706 	9.283147923189517e-13 	101324.9999999969
-0.6168668668668671 	299.9999999999923 	2.242742080133929e-12 	101324.999999997
-0.6143643643643645 	300.0000000000078 	1.783969662219089e-12 	101324.9999999971
-0.6118618618618621 	299.9999999999935 	2.134726912976158e-12 	101324.9999999973
-0.6093593593593596 	299.999999999993 	1.4655451310296e-12 	101324.9999999974
-0.6068568568568571 	299.9999999999926 	1.364768873756813e-12 	101324.9999999974
-0.6043543543543546 	299.9999999999815 	1.021569984569793e-12 	101324.9999999973
-0.6018518518518521 	299.9999999999853 	1.578041246683586e-12 	101324.9999999972
-0.5993493493493496 	299.9999999999726 	1.421124183123644e-12 	101324.9999999971
-0.5968468468468471 	299.9999999999789 	2.248042325370997e-12 	101324.9999999969
-0.5943443443443446 	299.9999999999962 	1.345667286635533e-12 	101324.9999999965
-0.591841841841842 	299.99999999998 	1.875211466495551e-12 	101324.9999999962
-0.5893393393393397 	299.999999999977 	8.643920893287502e-13 	101324.999999996
-0.5868368368368371 	299.9999999999943 	1.856515575040127e-12 	101324.9999999958
-0.5843343343343346 	299.9999999999997 	1.186319217421639e-12 	101324.9999999959
-0.5818318318318321 	300.0000000000147 	2.458052401312554e-12 	101324.9999999961
-0.5793293293293297 	299.9999999999915 	1.146090385124642e-12 	101324.9999999962
-0.5768268268268271 	300.0000000000023 	1.989099385587645e-12 	101324.9999999964
-0.5743243243243245 	300.0000000000119 	1.163694308515084e-12 	101324.9999999966
-0.5718218218218221 	300.0000000000111 	1.647661805082871e-12 	101324.9999999966
-0.5693193193193196 	300.0000000000209 	1.69982695605012e-12 	101324.9999999965
-0.5668168168168171 	299.9999999999935 	1.157085260211857e-12 	101324.9999999964
-0.5643143143143147 	299.9999999999745 	1.790481661848721e-12 	101324.9999999965
-0.5618118118118121 	300.0000000000068 	5.972799061482204e-13 	101324.9999999965
-0.5593093093093094 	300.0000000000171 	9.92367098538872e-13 	101324.9999999965
-0.5568068068068072 	300.0000000000084 	8.742861998238982e-13 	101324.9999999964
-0.5543043043043046 	300.0000000000095 	7.668474307172085e-13 	101324.9999999964
-0.551801801801802 	299.9999999999785 	5.335074015073466e-13 	101324.9999999965
-0.5492992992992995 	299.9999999999987 	9.512869847716824e-13 	101324.9999999964
-0.5467967967967969 	300.0000000000065 	9.515453813998512e-13 	101324.9999999964
-0.5442942942942947 	300.0000000000042 	1.014162638575396e-12 	101324.9999999967
-0.5417917917917919 	299.99999999998 	7.413296116865989e-13 	101324.9999999971
-0.5392892892892895 	299.9999999999685 	1.323909060439722e-12 	101324.9999999972
-0.536786786786787 	299.99999999998 	1.144725213223893e-12 	101324.9999999974
-0.5342842842842846 	299.999999999983 	1.730709809454132e-12 	101324.9999999975
-0.531781781781782 	299.9999999999704 	7.277799032199797e-13 	101324.9999999975
-0.5292792792792794 	299.9999999999676 	2.089740468311856e-12 	101324.9999999973
-0.526776776776777 	299.9999999999596 	1.527226036881424e-12 	101324.9999999974
-0.5242742742742745 	299.9999999999899 	2.712586109381563e-12 	101324.9999999973
-0.521771771771772 	300.0000000000067 	2.999898092940862e-12 	101324.9999999973
-0.5192692692692695 	299.9999999999817 	3.706893652768471e-12 	101324.9999999974
-0.516766766766767 	300.0000000000006 	3.057836122739307e-12 	101324.9999999973
-0.5142642642642645 	299.9999999999839 	2.935995834375378e-12 	101324.9999999974
-0.511761761761762 	299.9999999999773 	2.278980589275771e-12 	101324.9999999975
-0.5092592592592596 	299.9999999999872 	2.269182077843837e-12 	101324.9999999976
-0.506756756756757 	299.9999999999756 	1.267686219493551e-12 	101324.9999999974
-0.5042542542542544 	299.9999999999992 	1.825740195501171e-12 	101324.9999999973
-0.5017517517517521 	300.0000000000144 	4.720038164523454e-13 	101324.9999999971
-0.4992492492492494 	300.0000000000156 	1.230975331651232e-12 	101324.9999999969
-0.496746746746747 	299.9999999999954 	6.52230433077905e-13 	101324.9999999966
-0.4942442442442445 	299.9999999999714 	1.239749703916998e-12 	101324.9999999965
-0.4917417417417421 	299.9999999999714 	6.204045541085708e-13 	101324.9999999968
-0.4892392392392395 	299.9999999999792 	1.127310653939209e-12 	101324.9999999968
-0.486736736736737 	299.9999999999795 	6.406024276500401e-13 	101324.9999999967
-0.4842342342342345 	299.9999999999636 	1.931160627757686e-12 	101324.9999999966
-0.481731731731732 	300.0000000000163 	9.384579857373537e-13 	101324.9999999967
-0.4792292292292296 	300.0000000000106 	2.302931100285808e-12 	101324.9999999967
-0.4767267267267268 	299.9999999999812 	7.732245098988001e-13 	101324.9999999966
-0.4742242242242246 	300.0000000000005 	3.020170277737676e-12 	101324.9999999967
-0.471721721721722 	299.9999999999818 	1.301359718238686e-12 	101324.9999999968
-0.4692192192192195 	299.9999999999928 	1.925847768523921e-12 	101324.999999997
-0.4667167167167169 	299.9999999999604 	8.833863816584348e-13 	101324.999999997
-0.4642142142142145 	299.999999999997 	1.256046943200099e-12 	101324.9999999971
-0.461711711711712 	300.0000000000085 	6.043932527229818e-13 	101324.9999999971
-0.4592092092092094 	300.0000000000031 	1.089498811492745e-12 	101324.9999999971
-0.456706706706707 	300.0000000000238 	6.03499252525914e-13 	101324.999999997
-0.4542042042042045 	299.9999999999734 	1.140886089160548e-12 	101324.9999999971
-0.451701701701702 	299.9999999999779 	1.099921070982103e-12 	101324.9999999969
-0.4491991991991995 	299.9999999999822 	1.037045185247926e-12 	101324.9999999966
-0.4466966966966969 	299.9999999999811 	2.146890401012378e-13 	101324.9999999967
-0.4441941941941945 	299.9999999999976 	7.706649311065889e-13 	101324.9999999969
-0.441691691691692 	299.9999999999826 	4.743144319706056e-13 	101324.9999999968
-0.4391891891891895 	299.9999999999949 	2.284055413984435e-12 	101324.9999999967
-0.436686686686687 	299.9999999999866 	1.290051997963854e-12 	101324.9999999968
-0.4341841841841846 	299.9999999999996 	3.243274646847536e-12 	101324.9999999969
-0.431681681681682 	299.9999999999776 	7.504584455116805e-13 	101324.9999999968
-0.4291791791791794 	299.999999999968 	2.206472675711215e-12 	101324.999999997
-0.426676676676677 	299.9999999999621 	1.000540703907083e-12 	101324.9999999972
-0.4241741741741744 	299.9999999999864 	2.605261638225369e-12 	101324.9999999972
-0.421671671671672 	300.0000000000031 	1.791102809563681e-12 	101324.9999999973
-0.4191691691691694 	300.0000000000226 	1.711756287411996e-12 	101324.9999999972
-0.4166666666666669 	300.0000000000271 	3.776032579628921e-13 	101324.9999999972
-0.4141641641641645 	299.9999999999721 	1.297358274455468e-13 	101324.9999999971
-0.411661661661662 	300.0000000000015 	1.0555132277464e-13 	101324.9999999969
-0.4091591591591594 	300.0000000000053 	4.375733631679821e-13 	101324.9999999969
-0.406656656656657 	299.9999999999774 	1.52751205683615e-13 	101324.9999999968
-0.4041541541541545 	300.0000000000078 	4.408511681399125e-13 	101324.9999999967
-0.401651651651652 	299.9999999999662 	5.21061004787069e-13 	101324.9999999967
-0.3991491491491494 	300.0000000000019 	1.730030452603601e-12 	101324.9999999968
-0.396646646646647 	299.9999999999811 	1.803219362272507e-12 	101324.9999999969
-0.3941441441441444 	299.9999999999914 	2.301358551792849e-12 	101324.999999997
-0.3916416416416419 	299.9999999999716 	1.702745639830658e-12 	101324.9999999971
-0.3891391391391395 	299.999999999982 	1.939608600365128e-12 	101324.9999999972
-0.3866366366366368 	299.9999999999813 	4.461763217268989e-13 	101324.999999997
-0.3841341341341344 	300.000000000001 	1.73075881144481e-12 	101324.9999999971
-0.381631631631632 	299.9999999999782 	1.124927299364129e-12 	101324.9999999971
-0.3791291291291294 	300.0000000000019 	6.906752263701418e-13 	101324.9999999972
-0.3766266266266269 	300.0000000000105 	2.987464366808233e-13 	101324.9999999971
-0.3741241241241244 	300.000000000011 	1.151843141188417e-12 	101324.999999997
-0.371621621621622 	300.0000000000101 	8.398335270745411e-13 	101324.9999999969
-0.3691191191191194 	300.0000000000051 	1.804945596078817e-12 	101324.9999999969
-0.366616616616617 	300.0000000000056 	1.450164972775076e-12 	101324.999999997
-0.3641141141141143 	299.9999999999893 	1.438772412760793e-12 	101324.9999999969
-0.3616116116116119 	299.9999999999737 	1.320561472026709e-12 	101324.9999999968
-0.3591091091091095 	299.9999999999896 	7.838699388020209e-13 	101324.9999999966
-0.356606606606607 	299.9999999999923 	3.371680230793245e-13 	101324.9999999966
-0.3541041041041044 	299.9999999999984 	7.29549214437501e-13 	101324.9999999967
-0.3516016016016019 	300.0000000000102 	1.471586286992642e-12 	101324.9999999968
-0.3490990990990994 	299.9999999999976 	6.217726107164267e-13 	101324.9999999965
-0.346596596596597 	300.0000000000124 	2.311367498084652e-12 	101324.9999999965
-0.3440940940940944 	300.0000000000151 	7.824263863140674e-13 	101324.9999999965
-0.3415915915915919 	300.0000000000133 	2.368691286085291e-12 	101324.9999999966
-0.3390890890890895 	299.9999999999922 	7.802733204882266e-13 	101324.9999999964
-0.3365865865865869 	300.0000000000054 	1.233964307352104e-12 	101324.9999999963
-0.3340840840840844 	299.9999999999944 	8.158490874736825e-13 	101324.9999999961
-0.3315815815815819 	300.0000000000095 	1.514875241352894e-12 	101324.9999999963
-0.3290790790790794 	300.0000000000123 	1.606229844426273e-12 	101324.9999999962
-0.3265765765765769 	299.9999999999706 	1.673026468669831e-12 	101324.9999999963
-0.3240740740740744 	300.000000000001 	1.428874671730176e-12 	101324.9999999963
-0.3215715715715718 	300.0000000000069 	2.210271067410631e-12 	101324.9999999967
-0.3190690690690695 	299.9999999999729 	1.306211696217843e-12 	101324.9999999966
-0.3165665665665668 	299.9999999999951 	1.749826038024528e-12 	101324.9999999965
-0.3140640640640644 	299.9999999999972 	2.807462456423169e-13 	101324.9999999966
-0.311561561561562 	299.9999999999673 	2.182703672056823e-12 	101324.9999999968
-0.3090590590590593 	299.9999999999993 	1.180604134970661e-12 	101324.9999999966
-0.3065565565565568 	300.0000000000031 	3.190428141657933e-12 	101324.9999999965
-0.3040540540540545 	299.9999999999977 	1.012432670861624e-12 	101324.9999999962
-0.3015515515515518 	300.0000000000118 	3.271770114071631e-12 	101324.999999996
-0.2990490490490494 	299.9999999999715 	1.587841178229222e-12 	101324.9999999959
-0.2965465465465469 	299.9999999999984 	2.565406681757838e-12 	101324.9999999959
-0.2940440440440444 	299.9999999999946 	1.995085391400759e-12 	101324.999999996
-0.2915415415415418 	300.000000000006 	2.190601266224583e-12 	101324.9999999961
-0.2890390390390395 	300.0000000000075 	2.828728541605678e-12 	101324.9999999963
-0.2865365365365368 	299.9999999999864 	1.405534136805692e-12 	101324.9999999963
-0.2840340340340343 	299.9999999999981 	2.792857036838734e-12 	101324.999999996
-0.2815315315315318 	299.9999999999633 	1.193623664514831e-12 	101324.9999999957
-0.2790290290290295 	299.9999999999853 	2.179278680420708e-12 	101324.9999999956
-0.2765265265265269 	300.0000000000053 	1.056139892146286e-12 	101324.9999999956
-0.2740240240240244 	300.000000000008 	1.705311523193004e-12 	101324.9999999956
-0.2715215215215219 	300.0000000000071 	2.403171835086181e-12 	101324.9999999955
-0.2690190190190194 	299.9999999999735 	2.864699931013441e-12 	101324.9999999956
-0.2665165165165169 	299.9999999999959 	3.87996639777391e-12 	101324.9999999958
-0.2640140140140144 	299.9999999999904 	3.469872345479437e-12 	101324.9999999957
-0.2615115115115119 	299.9999999999976 	5.108882791324369e-12 	101324.9999999959
-0.2590090090090094 	299.9999999999653 	3.469973791002556e-12 	101324.9999999959
-0.2565065065065068 	299.9999999999951 	3.819565545559826e-12 	101324.9999999958
-0.2540040040040044 	299.9999999999927 	3.155147602054418e-12 	101324.999999996
-0.2515015015015019 	300.0000000000106 	2.873285533333409e-12 	101324.9999999961
-0.2489989989989994 	300.0000000000173 	3.707590372328137e-12 	101324.9999999963
-0.2464964964964968 	299.9999999999906 	2.168079668600537e-12 	101324.9999999959
-0.2439939939939944 	299.9999999999911 	4.391956589905656e-12 	101324.9999999957
-0.2414914914914919 	299.999999999981 	2.189959784513169e-12 	101324.999999996
-0.2389889889889893 	299.999999999996 	4.545875631969273e-12 	101324.9999999958
-0.2364864864864869 	300.0000000000088 	2.288594465451044e-12 	101324.9999999957
-0.2339839839839843 	299.9999999999759 	4.610658649693312e-12 	101324.9999999956
-0.2314814814814819 	299.9999999999891 	2.364764707092281e-12 	101324.9999999959
-0.2289789789789792 	299.9999999999638 	4.441635549033876e-12 	101324.999999996
-0.2264764764764769 	299.9999999999744 	3.212905905726093e-12 	101324.9999999963
-0.2239739739739743 	299.9999999999868 	4.305499476173213e-12 	101324.9999999966
-0.2214714714714718 	299.9999999999742 	3.737593276528009e-12 	101324.9999999964
-0.2189689689689693 	299.9999999999842 	3.015114565017017e-12 	101324.9999999963
-0.2164664664664669 	299.9999999999895 	4.050609229209356e-12 	101324.9999999963
-0.2139639639639643 	299.9999999999688 	2.441715446380089e-12 	101324.9999999963
-0.2114614614614618 	299.9999999999865 	3.197689474719228e-12 	101324.9999999961
-0.2089589589589593 	300.0000000000003 	2.991561057483962e-12 	101324.9999999961
-0.2064564564564568 	300.0000000000007 	2.68488056290392e-12 	101324.9999999963
-0.2039539539539543 	299.9999999999644 	3.185953981161916e-12 	101324.9999999964
-0.2014514514514518 	299.9999999999673 	1.257366159559498e-12 	101324.9999999964
-0.1989489489489494 	299.9999999999885 	3.147661120077146e-12 	101324.9999999962
-0.1964464464464468 	300.0000000000044 	7.327329305921673e-13 	101324.999999996
-0.1939439439439443 	299.9999999999995 	3.443503158209818e-12 	101324.9999999959
-0.1914414414414418 	299.9999999999695 	2.705702060756623e-12 	101324.999999996
-0.1889389389389393 	299.9999999999981 	3.934245033660268e-12 	101324.9999999962
-0.1864364364364368 	300.0000000000109 	4.08345196930876e-12 	101324.999999996
-0.1839339339339343 	299.9999999999876 	3.916197542515553e-12 	101324.9999999957
-0.1814314314314318 	299.9999999999937 	4.071696411552007e-12 	101324.9999999958
-0.1789289289289293 	299.9999999999558 	4.555169118765827e-12 	101324.999999996
-0.1764264264264268 	299.9999999999889 	4.155444942699371e-12 	101324.9999999959
-0.1739239239239243 	299.999999999956 	4.240242393681477e-12 	101324.9999999959
-0.1714214214214218 	299.9999999999951 	2.74025397504171e-12 	101324.9999999959
-0.1689189189189193 	299.9999999999753 	3.510091579045424e-12 	101324.9999999957
-0.1664164164164168 	299.9999999999982 	1.89636145725325e-12 	101324.9999999956
-0.1639139139139143 	299.9999999999929 	4.876286908643133e-12 	101324.9999999957
-0.1614114114114118 	300.0000000000064 	1.282399120531922e-12 	101324.9999999957
-0.1589089089089093 	300.0000000000003 	6.813712143680229e-12 	101324.9999999959
-0.1564064064064068 	299.9999999999866 	6.71778273448497e-13 	101324.9999999959
-0.1539039039039043 	299.999999999998 	7.394450978262868e-12 	101324.9999999959
-0.1514014014014018 	300.0000000000103 	1.969760733029869e-12 	101324.9999999958
-0.1488988988988993 	299.9999999999989 	7.779035598436401e-12 	101324.9999999956
-0.1463963963963968 	300.0000000000011 	3.055555434879348e-12 	101324.9999999955
-0.1438938938938943 	299.9999999999836 	6.669731779652058e-12 	101324.9999999957
-0.1413913913913918 	299.9999999999654 	3.561606760957886e-12 	101324.9999999959
-0.1388888888888893 	299.9999999999881 	5.15149671831732e-12 	101324.9999999958
-0.1363863863863868 	299.999999999952 	3.897087096140756e-12 	101324.9999999958
-0.1338838838838843 	299.9999999999704 	3.909377197877409e-12 	101324.9999999955
-0.1313813813813818 	299.9999999999968 	2.94080547128144e-12 	101324.9999999954
-0.1288788788788793 	299.9999999999816 	3.476840565572583e-12 	101324.9999999953
-0.1263763763763768 	299.999999999988 	2.870456094763972e-12 	101324.9999999954
-0.1238738738738743 	299.9999999999725 	3.752163067281157e-12 	101324.9999999951
-0.1213713713713717 	299.9999999999962 	2.470622299098336e-12 	101324.999999995
-0.1188688688688693 	300.0000000000074 	4.694040180487477e-12 	101324.9999999949
-0.1163663663663668 	299.9999999999559 	2.642641989442432e-12 	101324.9999999949
-0.1138638638638643 	299.9999999999936 	5.404840980435981e-12 	101324.9999999954
-0.1113613613613618 	299.9999999999941 	2.796528710707159e-12 	101324.9999999954
-0.1088588588588592 	299.9999999999914 	6.060587173366049e-12 	101324.9999999955
-0.1063563563563568 	299.999999999984 	2.932245436004586e-12 	101324.9999999956
-0.1038538538538543 	299.9999999999935 	5.482857910586167e-12 	101324.9999999954
-0.1013513513513517 	300.0000000000043 	4.104900072153909e-12 	101324.9999999953
-0.09884884884884926 	299.9999999999803 	5.383126533259428e-12 	101324.9999999952
-0.09634634634634676 	299.9999999999597 	4.123617899814537e-12 	101324.9999999952
-0.09384384384384425 	299.9999999999627 	4.182765593993132e-12 	101324.9999999951
-0.09134134134134177 	300.000000000006 	3.536588459212228e-12 	101324.9999999952
-0.08883883883883925 	300.0000000000041 	4.097086031939214e-12 	101324.9999999952
-0.08633633633633674 	299.9999999999774 	3.536914298912654e-12 	101324.9999999952
-0.08383383383383426 	300.0000000000011 	3.403846153058269e-12 	101324.9999999953
-0.08133133133133173 	299.999999999986 	3.950567245443739e-12 	101324.9999999955
-0.07882882882882926 	299.999999999953 	3.943753347676716e-12 	101324.9999999958
-0.07632632632632676 	299.9999999999839 	4.008881805955611e-12 	101324.9999999957
-0.07382382382382424 	299.9999999999551 	3.431798211114118e-12 	101324.9999999957
-0.07132132132132173 	300.0000000000039 	2.792201943473573e-12 	101324.9999999956
-0.06881881881881925 	299.9999999999829 	2.336382421649593e-12 	101324.9999999954
-0.06631631631631671 	299.999999999953 	1.846946824587813e-12 	101324.9999999956
-0.06381381381381425 	299.9999999999812 	1.370284046225262e-12 	101324.9999999954
-0.06131131131131173 	299.9999999999824 	1.605431461895659e-12 	101324.9999999953
-0.05880880880880923 	299.9999999999667 	1.611471238137123e-12 	101324.9999999952
-0.05630630630630672 	299.9999999999831 	1.781865391988915e-12 	101324.9999999953
-0.05380380380380424 	300.0000000000064 	1.869919666249112e-12 	101324.9999999956
-0.05130130130130173 	300.0000000000069 	1.651443914073722e-12 	101324.9999999958
-0.04879879879879922 	299.9999999999762 	1.290967394858566e-12 	101324.9999999957
-0.04629629629629672 	299.9999999999709 	6.315759103949623e-13 	101324.9999999952
-0.04379379379379422 	299.9999999999602 	9.787997827693568e-13 	101324.9999999954
-0.04129129129129173 	299.9999999999923 	7.099178802850027e-13 	101324.9999999953
-0.03878878878878922 	299.9999999999931 	1.339304036660429e-12 	101324.9999999954
-0.03628628628628671 	299.9999999999919 	1.01475444738666e-12 	101324.9999999954
-0.03378378378378422 	299.9999999999683 	1.195693251011699e-12 	101324.9999999952
-0.03128128128128172 	299.9999999999843 	2.516930527641053e-13 	101324.9999999952
-0.02877877877877922 	299.9999999999838 	5.348718978457988e-13 	101324.9999999955
-0.0262762762762767 	299.9999999999565 	1.902561264764617e-13 	101324.9999999956
-0.02377377377377422 	300.000000000007 	3.473218226160997e-13 	101324.9999999957
-0.0212712712712717 	299.9999999999571 	6.47802162277399e-13 	101324.9999999955
-0.01876876876876921 	299.9999999999864 	2.48795749767395e-14 	101324.9999999953
-0.01626626626626671 	300.0000000000032 	9.186743309062269e-13 	101324.9999999953
-0.0137637637637642 	299.9999999999824 	4.531488800305155e-13 	101324.9999999952
-0.0112612612612617 	300.0000000000035 	5.661409681667651e-13 	101324.999999995
-0.008758758758759198 	299.9999999999971 	5.763246187657941e-13 	101324.9999999952
-0.006256256256256697 	299.9999999999522 	7.444472655251118e-13 	101324.9999999953
-0.003753753753754195 	299.9999999999789 	7.799938155602111e-14 	101324.9999999953
-0.001251251251251693 	299.9999999999665 	6.484444142075384e-13 	101324.9999999952
0.00125125125125081 	299.9999999999791 	5.747776841321936e-13 	101324.9999999952
0.003753753753753312 	299.9999999999832 	1.273586097328006e-12 	101324.9999999952
0.006256256256255817 	299.9999999999509 	9.428301688657659e-13 	101324.999999995
0.008758758758758317 	299.9999999999944 	3.181137288656459e-13 	101324.999999995
0.01126126126126082 	300.0000000000026 	2.104815705920595e-13 	101324.9999999951
0.01376376376376332 	299.9999999999852 	3.348929591634607e-13 	101324.9999999953
0.01626626626626582 	300.0000000000023 	5.46516050352944e-13 	101324.9999999954
0.01876876876876833 	299.9999999999806 	4.69467703461013e-13 	101324.9999999958
0.02127127127127083 	299.9999999999882 	6.334686982354155e-13 	101324.9999999958
0.02377377377377332 	299.9999999999981 	6.367972426940416e-13 	101324.9999999958
0.02627627627627583 	299.9999999999591 	6.238995212260264e-13 	101324.9999999958
0.02877877877877833 	299.9999999999994 	1.126423736699123e-12 	101324.9999999957
0.03128128128128083 	299.9999999999744 	7.848699556038446e-13 	101324.9999999954
0.03378378378378333 	299.9999999999548 	1.336457118836481e-12 	101324.9999999954
0.03628628628628584 	299.9999999999898 	2.054603337917576e-12 	101324.9999999951
0.03878878878878834 	299.9999999999923 	2.159410536019524e-12 	101324.999999995
0.04129129129129084 	299.9999999999868 	2.446609200946055e-12 	101324.9999999951
0.04379379379379333 	299.9999999999712 	2.91072574548299e-12 	101324.9999999951
0.04629629629629585 	299.9999999999504 	3.596804724550555e-12 	101324.999999995
0.04879879879879834 	299.9999999999783 	4.147994160448063e-12 	101324.999999995
0.05130130130130085 	300.0000000000034 	3.756372119058764e-12 	101324.999999995
0.05380380380380335 	300.0000000000107 	2.804891573899169e-12 	101324.9999999954
0.05630630630630584 	299.9999999999945 	2.476901948179576e-12 	101324.9999999956
0.05880880880880836 	299.9999999999671 	2.510320800419502e-12 	101324.9999999957
0.06131131131131085 	299.9999999999895 	3.196308546383268e-12 	101324.9999999959
0.06381381381381336 	299.9999999999816 	2.753528899097516e-12 	101324.9999999958
0.06631631631631586 	299.9999999999501 	2.275093460677831e-12 	101324.9999999959
0.06881881881881835 	299.9999999999761 	2.055148456354562e-12 	101324.9999999962
0.07132132132132088 	299.9999999999986 	1.443527827441445e-12 	101324.9999999961
0.07382382382382337 	299.9999999999587 	1.542789951685187e-12 	101324.999999996
0.07632632632632587 	299.9999999999861 	1.873570749976544e-12 	101324.9999999963
0.07882882882882837 	299.9999999999721 	1.964588159431544e-12 	101324.9999999961
0.08133133133133086 	299.9999999999966 	3.111857470658211e-12 	101324.999999996
0.08383383383383337 	299.9999999999967 	3.239415655687167e-12 	101324.9999999961
0.08633633633633589 	299.999999999958 	4.143048716218959e-12 	101324.9999999959
0.08883883883883838 	300.0000000000048 	4.673851071605283e-12 	101324.9999999961
0.09134134134134086 	299.9999999999954 	4.025600855451007e-12 	101324.9999999961
0.09384384384384339 	299.9999999999569 	4.635016983710107e-12 	101324.999999996
0.09634634634634588 	299.9999999999845 	4.265952919028247e-12 	101324.9999999959
0.09884884884884838 	299.9999999999877 	4.04188369279191e-12 	101324.9999999959
0.1013513513513509 	300.0000000000124 	2.889523407084228e-12 	101324.9999999959
0.1038538538538534 	299.9999999999752 	2.269267303138359e-12 	101324.999999996
0.1063563563563559 	300.0000000000048 	2.682567360332519e-12 	101324.9999999959
0.1088588588588584 	300.0000000000093 	1.912717169291027e-12 	101324.9999999959
0.1113613613613609 	299.9999999999741 	2.199039162741338e-12 	101324.9999999959
0.1138638638638634 	299.9999999999787 	2.361154679861668e-12 	101324.9999999958
0.1163663663663659 	299.9999999999749 	3.250133890977463e-12 	101324.9999999956
0.1188688688688684 	299.9999999999834 	3.487913308976998e-12 	101324.9999999955
0.1213713713713709 	299.9999999999955 	3.900043902408243e-12 	101324.9999999954
0.1238738738738734 	299.9999999999649 	3.860466550399744e-12 	101324.9999999956
0.1263763763763759 	299.9999999999939 	4.011715615103604e-12 	101324.9999999954
0.1288788788788784 	299.9999999999941 	3.632190350789394e-12 	101324.9999999955
0.1313813813813809 	299.9999999999936 	4.219030029287946e-12 	101324.9999999956
0.1338838838838834 	299.9999999999855 	4.353101442544555e-12 	101324.9999999955
0.1363863863863859 	300.0000000000106 	4.370811981546942e-12 	101324.9999999955
0.1388888888888884 	300.000000000017 	3.875332319542267e-12 	101324.9999999957
0.1413913913913909 	299.9999999999985 	3.811706024635046e-12 	101324.9999999958
0.1438938938938934 	299.9999999999965 	3.293744724195558e-12 	101324.9999999957
0.1463963963963959 	299.9999999999836 	3.165112845743256e-12 	101324.9999999956
0.1488988988988985 	299.9999999999616 	3.736723420840979e-12 	101324.9999999961
0.1514014014014009 	299.9999999999839 	3.415917871671553e-12 	101324.9999999962
0.1539039039039035 	299.9999999999804 	4.282429038472991e-12 	101324.9999999961
0.1564064064064059 	299.9999999999816 	2.676923196614928e-12 	101324.9999999958
0.1589089089089084 	299.9999999999882 	4.835746774611374e-12 	101324.9999999954
0.1614114114114109 	299.9999999999866 	2.945245000094288e-12 	101324.9999999952
0.1639139139139134 	299.9999999999636 	4.081644883955607e-12 	101324.9999999952
0.166416416416416 	299.9999999999974 	4.073727816926892e-12 	101324.9999999953
0.1689189189189185 	300.0000000000123 	4.232273867752117e-12 	101324.9999999954
0.1714214214214209 	299.9999999999922 	4.965246134526184e-12 	101324.9999999954
0.1739239239239235 	299.9999999999945 	4.385645947894176e-12 	101324.9999999957
0.1764264264264259 	299.9999999999804 	4.790410913983887e-12 	101324.9999999958
0.1789289289289284 	300.0000000000029 	2.059440777999353e-12 	101324.9999999958
0.181431431431431 	299.9999999999864 	4.046877515156621e-12 	101324.9999999958
0.1839339339339334 	299.9999999999895 	2.608001474042273e-12 	101324.9999999958
0.186436436436436 	299.9999999999714 	4.059736360043839e-12 	101324.9999999956
0.1889389389389385 	299.9999999999907 	4.20020375900073e-12 	101324.9999999954
0.191441441441441 	299.9999999999901 	3.793314802600869e-12 	101324.9999999956
0.1939439439439434 	299.9999999999672 	4.752083470170148e-12 	101324.9999999956
0.196446446446446 	299.9999999999808 	3.523192288837905e-12 	101324.9999999958
0.1989489489489485 	299.999999999987 	5.586830527436634e-12 	101324.999999996
0.2014514514514509 	299.9999999999923 	3.947379383698444e-12 	101324.9999999961
0.2039539539539535 	299.9999999999941 	4.45321830856979e-12 	101324.9999999959
0.2064564564564559 	299.9999999999818 	3.847299350643581e-12 	101324.999999996
0.2089589589589585 	299.9999999999915 	4.409730883109166e-12 	101324.9999999959
0.211461461461461 	299.999999999976 	4.423997947660269e-12 	101324.9999999958
0.2139639639639635 	299.9999999999959 	4.18017959524598e-12 	101324.9999999957
0.2164664664664659 	300.0000000000013 	4.526165516515838e-12 	101324.9999999958
0.2189689689689684 	299.999999999999 	3.636150178888384e-12 	101324.9999999957
0.221471471471471 	299.9999999999992 	5.253968797907416e-12 	101324.9999999958
0.2239739739739735 	299.9999999999803 	3.733042194928127e-12 	101324.9999999959
0.226476476476476 	299.9999999999931 	5.003633466795132e-12 	101324.9999999957
0.2289789789789785 	299.9999999999993 	4.055510458999347e-12 	101324.9999999958
0.231481481481481 	299.9999999999933 	3.475397755933458e-12 	101324.999999996
0.2339839839839835 	299.9999999999923 	3.854782226237684e-12 	101324.9999999961
0.236486486486486 	300.0000000000088 	2.973293945428452e-12 	101324.999999996
0.2389889889889885 	299.9999999999995 	3.856393718584975e-12 	101324.9999999959
0.241491491491491 	299.9999999999681 	2.400233473437151e-12 	101324.9999999959
0.2439939939939935 	299.9999999999943 	4.747547051263236e-12 	101324.9999999961
0.246496496496496 	299.9999999999929 	2.799998623690656e-12 	101324.9999999959
0.2489989989989985 	300.0000000000096 	3.60875888083115e-12 	101324.9999999962
0.251501501501501 	300.0000000000071 	2.252618923024617e-12 	101324.9999999962
0.2540040040040035 	299.9999999999943 	1.807977932708269e-12 	101324.9999999958
0.256506506506506 	300.0000000000065 	2.312579998915343e-12 	101324.9999999958
0.2590090090090086 	299.9999999999616 	1.760914619985569e-12 	101324.9999999957
0.261511511511511 	300.0000000000035 	3.80791025241125e-12 	101324.9999999957
0.2640140140140135 	299.9999999999935 	1.497348284851734e-12 	101324.9999999958
0.2665165165165161 	299.9999999999721 	2.584663914772287e-12 	101324.9999999961
0.2690190190190185 	300.0000000000074 	1.560730824817019e-12 	101324.999999996
0.271521521521521 	299.9999999999994 	1.708527676178976e-12 	101324.999999996
0.2740240240240235 	300.0000000000038 	1.962927980246018e-12 	101324.9999999962
0.276526526526526 	300.0000000000006 	1.213113555498483e-12 	101324.9999999961
0.2790290290290286 	299.9999999999753 	1.880765637302917e-12 	101324.9999999961
0.281531531531531 	299.9999999999654 	6.301177426377021e-13 	101324.9999999962
0.2840340340340335 	299.9999999999917 	2.416202726791749e-12 	101324.9999999962
0.2865365365365361 	299.9999999999825 	9.690159401867662e-13 	101324.9999999958
0.2890390390390385 	299.9999999999954 	1.794214294694221e-12 	101324.9999999956
0.291541541541541 	299.9999999999961 	1.400963930148406e-12 	101324.9999999956
0.2940440440440436 	299.9999999999955 	1.281883690598448e-12 	101324.9999999955
0.296546546546546 	299.9999999999934 	1.410016926177262e-12 	101324.9999999957
0.2990490490490486 	299.9999999999681 	5.397945887231749e-13 	101324.9999999961
0.3015515515515511 	300.0000000000103 	2.354756645793173e-12 	101324.999999996
0.3040540540540535 	299.9999999999907 	1.320953238631749e-12 	101324.9999999961
0.3065565565565562 	299.9999999999969 	3.097687606934619e-12 	101324.9999999961
0.3090590590590585 	299.9999999999926 	9.536864858938246e-13 	101324.9999999959
0.3115615615615611 	299.9999999999693 	2.720855769588951e-12 	101324.999999996
0.3140640640640635 	299.9999999999973 	1.061914423807366e-12 	101324.9999999963
0.316566566566566 	299.9999999999932 	2.222490972118801e-12 	101324.9999999966
0.3190690690690687 	299.9999999999799 	9.373728131878206e-13 	101324.9999999967
0.3215715715715711 	300.0000000000034 	1.501478229099404e-12 	101324.9999999967
0.3240740740740735 	299.9999999999956 	5.852069589793422e-13 	101324.9999999967
0.326576576576576 	299.9999999999566 	7.399231180904116e-13 	101324.9999999967
0.3290790790790786 	299.9999999999998 	4.322591930509626e-13 	101324.9999999968
0.3315815815815811 	300.0000000000169 	4.422272370283799e-13 	101324.9999999965
0.3340840840840836 	299.9999999999981 	4.288005674331139e-13 	101324.9999999966
0.3365865865865861 	300.0000000000258 	7.958057616870566e-13 	101324.9999999966
0.3390890890890886 	300.0000000000197 	2.815281656193952e-13 	101324.9999999966
0.3415915915915911 	300.0000000000001 	3.448154224254592e-13 	101324.9999999965
0.3440940940940935 	299.999999999977 	1.243163126500405e-12 	101324.9999999965
0.3465965965965962 	300.0000000000167 	1.000556340263432e-12 	101324.9999999967
0.3490990990990985 	300.0000000000121 	3.732629320451457e-13 	101324.9999999969
0.3516016016016011 	299.9999999999923 	2.437846834631777e-13 	101324.9999999967
0.3541041041041035 	300.000000000004 	4.100542998374148e-13 	101324.9999999968
0.3566066066066061 	299.9999999999828 	6.286311296026998e-13 	101324.9999999968
0.3591091091091085 	299.9999999999667 	6.634660433127487e-13 	101324.9999999966
0.3616116116116112 	299.9999999999743 	1.066699169359276e-12 	101324.9999999965
0.3641141141141137 	299.9999999999691 	1.258373891656667e-12 	101324.9999999964
0.3666166166166161 	299.9999999999671 	1.444797460978151e-12 	101324.9999999967
0.3691191191191185 	300.0000000000118 	2.223823851025338e-12 	101324.9999999968
0.371621621621621 	300.0000000000072 	8.624049752000324e-13 	101324.9999999968
0.3741241241241237 	300.0000000000207 	1.405003608771588e-12 	101324.9999999968
0.3766266266266261 	300.0000000000088 	5.447544805407809e-13 	101324.9999999968
0.3791291291291286 	299.9999999999926 	6.740788201372572e-13 	101324.9999999968
0.3816316316316311 	299.9999999999678 	6.408915463458427e-13 	101324.9999999967
0.3841341341341336 	300.0000000000017 	6.365226575365863e-13 	101324.9999999966
0.3866366366366362 	299.9999999999968 	9.062165887834893e-13 	101324.9999999966
0.3891391391391387 	299.9999999999816 	7.211266646511362e-13 	101324.9999999968
0.391641641641641 	299.9999999999987 	8.72331378304276e-13 	101324.9999999968
0.3941441441441436 	300.0000000000039 	6.935967143368915e-13 	101324.9999999967
0.3966466466466462 	300.0000000000001 	1.346965935452835e-12 	101324.9999999966
0.3991491491491486 	299.9999999999794 	1.179861407337275e-12 	101324.9999999964
0.4016516516516512 	299.9999999999666 	1.505059418602202e-12 	101324.9999999965
0.4041541541541536 	299.999999999981 	4.643296533585071e-13 	101324.9999999964
0.4066566566566561 	299.9999999999797 	1.734706042819058e-12 	101324.9999999964
0.4091591591591587 	299.9999999999976 	1.06725319162325e-12 	101324.9999999964
0.4116616616616612 	300.0000000000045 	1.175130071329416e-12 	101324.9999999966
0.4141641641641635 	300.0000000000164 	1.058644346143871e-12 	101324.9999999966
0.4166666666666662 	299.9999999999982 	2.445417671745883e-12 	101324.9999999966
0.4191691691691687 	299.9999999999757 	2.955722224531371e-12 	101324.9999999966
0.421671671671671 	300.0000000000049 	2.645728711447254e-12 	101324.9999999965
0.4241741741741737 	299.9999999999875 	3.842436983810814e-12 	101324.9999999964
0.4266766766766761 	299.9999999999788 	1.086237216351733e-12 	101324.9999999964
0.4291791791791785 	300.0000000000089 	3.654335288166351e-12 	101324.9999999963
0.4316816816816812 	300.000000000002 	6.997106468660037e-13 	101324.9999999963
0.4341841841841836 	299.9999999999909 	3.350034944620897e-12 	101324.9999999962
0.4366866866866862 	299.9999999999667 	8.048713562446011e-13 	101324.9999999965
0.4391891891891885 	299.9999999999979 	2.163379063191966e-12 	101324.9999999966
0.4416916916916913 	299.9999999999956 	1.480190796054681e-12 	101324.9999999968
0.4441941941941936 	299.9999999999946 	2.043527932384155e-12 	101324.9999999968
0.4466966966966961 	299.9999999999692 	1.822149129262913e-12 	101324.9999999968
0.4491991991991987 	299.9999999999949 	1.762448591549538e-12 	101324.9999999967
0.4517017017017012 	299.9999999999944 	2.754244724216114e-12 	101324.9999999968
0.4542042042042035 	299.999999999994 	2.29518156734444e-12 	101324.9999999967
0.4567067067067062 	299.9999999999975 	2.51275210744486e-12 	101324.9999999967
0.4592092092092087 	299.9999999999703 	1.566176225681728e-12 	101324.9999999967
0.4617117117117112 	300.0000000000073 	1.382361624632683e-12 	101324.9999999967
0.4642142142142137 	299.9999999999855 	1.414411575918472e-12 	101324.9999999966
0.4667167167167162 	299.9999999999963 	1.897648753536619e-12 	101324.9999999966
0.4692192192192187 	299.9999999999821 	2.815363421766593e-12 	101324.9999999963
0.4717217217217212 	300.0000000000056 	3.458641791952356e-12 	101324.9999999963
0.4742242242242236 	299.9999999999813 	4.110051435816521e-12 	101324.9999999962
0.4767267267267262 	299.9999999999909 	3.829866051113207e-12 	101324.9999999966
0.4792292292292287 	300.0000000000055 	4.156821647944386e-12 	101324.9999999964
0.4817317317317312 	300.0000000000121 	3.78275314178432e-12 	101324.9999999964
0.4842342342342336 	299.999999999993 	3.807726383527156e-12 	101324.9999999966
0.4867367367367362 	299.9999999999816 	3.972961581371307e-12 	101324.9999999966
0.4892392392392387 	300.0000000000097 	3.832041959643608e-12 	101324.9999999967
0.4917417417417412 	300.0000000000012 	4.781003108402106e-12 	101324.9999999966
0.4942442442442437 	299.9999999999611 	3.94518138146384e-12 	101324.9999999965
0.4967467467467462 	299.9999999999682 	4.440278570776286e-12 	101324.9999999966
0.4992492492492487 	299.9999999999662 	2.219498030765362e-12 	101324.9999999964
0.5017517517517511 	299.9999999999803 	3.393973624994032e-12 	101324.9999999964
0.5042542542542537 	299.999999999986 	2.795818206789768e-12 	101324.9999999966
0.5067567567567562 	299.9999999999786 	3.239201375567789e-12 	101324.9999999966
0.5092592592592589 	299.9999999999876 	2.922463912239705e-12 	101324.9999999967
0.5117617617617611 	299.9999999999835 	2.43334859568997e-12 	101324.9999999967
0.5142642642642637 	299.9999999999952 	3.20639939388578e-12 	101324.9999999966
0.5167667667667663 	299.999999999989 	1.908165520875363e-12 	101324.9999999966
0.5192692692692688 	299.9999999999685 	3.642202078140099e-12 	101324.9999999968
0.5217717717717714 	299.999999999972 	1.008810224940748e-12 	101324.9999999967
0.5242742742742736 	299.9999999999722 	2.916552140805366e-12 	101324.9999999968
0.5267767767767763 	299.9999999999828 	5.84348420559137e-13 	101324.9999999967
0.5292792792792789 	299.9999999999744 	1.965741259723413e-12 	101324.9999999967
0.5317817817817813 	299.9999999999635 	6.066198952834558e-13 	101324.9999999967
0.5342842842842837 	300.0000000000067 	1.205019205902702e-12 	101324.9999999968
0.5367867867867864 	300.0000000000002 	1.06381071793234e-12 	101324.9999999968
0.5392892892892888 	299.9999999999827 	9.225967588630129e-13 	101324.9999999968
0.5417917917917912 	300.0000000000001 	9.442452964587754e-13 	101324.9999999967
0.5442942942942938 	299.9999999999907 	1.147072724564365e-12 	101324.9999999964
0.5467967967967964 	299.9999999999807 	6.908335092293418e-13 	101324.9999999962
0.5492992992992988 	299.9999999999724 	7.199667372416763e-13 	101324.9999999964
0.5518018018018012 	299.9999999999724 	5.709303935256542e-13 	101324.9999999966
0.5543043043043039 	300.0000000000073 	1.011689011311538e-12 	101324.9999999966
0.5568068068068063 	299.9999999999947 	8.80136577591601e-13 	101324.9999999964
0.5593093093093087 	299.9999999999619 	1.280090167900174e-12 	101324.9999999963
0.5618118118118114 	299.9999999999844 	6.62440367565545e-13 	101324.9999999962
0.5643143143143137 	299.9999999999775 	9.416645296676185e-13 	101324.9999999961
0.5668168168168163 	299.9999999999956 	3.321270321230262e-13 	101324.999999996
0.5693193193193188 	300.0000000000144 	6.184331468174786e-13 	101324.9999999961
0.5718218218218213 	300.0000000000127 	1.016825068099978e-12 	101324.9999999961
0.5743243243243239 	300.0000000000061 	1.046185332926764e-12 	101324.999999996
0.5768268268268262 	300.0000000000019 	1.89290591128931e-12 	101324.9999999961
0.5793293293293288 	299.9999999999808 	1.214075627836674e-12 	101324.9999999962
0.5818318318318314 	299.999999999969 	2.515971204872791e-12 	101324.9999999964
0.5843343343343338 	299.9999999999914 	1.163477404623159e-12 	101324.9999999967
0.5868368368368363 	299.9999999999869 	2.494531616769094e-12 	101324.9999999968
0.5893393393393387 	299.9999999999737 	8.203941513012236e-13 	101324.9999999969
0.5918418418418413 	299.9999999999756 	1.731167077359333e-12 	101324.9999999967
0.5943443443443439 	300.0000000000059 	9.001692454410745e-13 	101324.9999999966
0.5968468468468463 	300.0000000000072 	1.273192606294284e-12 	101324.9999999963
0.5993493493493487 	300.000000000019 	1.450299006754299e-12 	101324.9999999962
0.6018518518518514 	299.9999999999902 	2.020486935568605e-12 	101324.9999999962
0.6043543543543537 	299.9999999999978 	1.88690736531567e-12 	101324.9999999962
0.6068568568568564 	299.9999999999913 	2.04602923799697e-12 	101324.9999999964
0.6093593593593587 	299.9999999999687 	1.682706784460461e-12 	101324.9999999966
0.6118618618618614 	299.9999999999693 	1.435941422065996e-12 	101324.9999999967
0.6143643643643638 	300.000000000003 	1.225808376719275e-12 	101324.9999999966
0.6168668668668662 	299.9999999999942 	1.70006488643783e-12 	101324.9999999966
0.6193693693693688 	299.9999999999825 	8.209396302500751e-13 	101324.9999999965
0.6218718718718714 	299.9999999999866 	1.634764875525053e-12 	101324.9999999964
0.6243743743743737 	299.9999999999718 	5.846879512686003e-13 	101324.9999999963
0.6268768768768762 	299.9999999999678 	1.246302363243087e-12 	101324.9999999961
0.629379379379379 	299.9999999999759 	5.316426761214574e-13 	101324.999999996
0.6318818818818812 	299.9999999999819 	1.113704518591984e-12 	101324.999999996
0.6343843843843838 	300.0000000000035 	1.337645912365057e-12 	101324.9999999962
0.6368868868868864 	299.999999999991 	1.522921959603099e-12 	101324.9999999963
0.6393893893893888 	299.9999999999702 	2.052446774021485e-12 	101324.9999999961
0.6418918918918912 	300.0000000000006 	1.081338755178719e-12 	101324.9999999961
0.6443943943943939 	299.9999999999933 	2.711267649815569e-12 	101324.9999999962
0.6468968968968963 	299.999999999991 	1.544471244007655e-12 	101324.9999999961
0.6493993993993988 	299.999999999987 	2.442475858877409e-12 	101324.9999999959
0.6519019019019012 	299.999999999985 	9.641369193837282e-13 	101324.999999996
0.6544044044044038 	299.9999999999605 	1.843978296506421e-12 	101324.9999999961
0.6569069069069065 	299.9999999999846 	9.343907405889374e-13 	101324.999999996
0.6594094094094087 	299.9999999999815 	9.054675682677272e-13 	101324.9999999959
0.6619119119119113 	299.9999999999765 	6.307729208917343e-13 	101324.9999999957
0.664414414414414 	299.9999999999961 	7.896322687902346e-13 	101324.9999999955
0.6669169169169162 	300.0000000000048 	7.415169041993388e-13 	101324.9999999954
0.6694194194194188 	299.9999999999934 	1.363347883810679e-12 	101324.9999999955
0.6719219219219214 	299.9999999999717 	6.678267180482569e-13 	101324.9999999954
0.674424424424424 	299.9999999999894 	5.899381272769171e-13 	101324.9999999955
0.6769269269269262 	299.9999999999661 	2.322381421582488e-13 	101324.9999999957
0.679429429429429 	300.0000000000011 	5.216194654154926e-13 	101324.9999999958
0.6819319319319311 	299.9999999999889 	4.064662113689024e-13 	101324.9999999959
0.6844344344344341 	299.9999999999976 	6.10384672693821e-13 	101324.999999996
0.686936936936936 	299.9999999999962 	5.950162716798953e-13 	101324.999999996
0.6894394394394392 	299.9999999999932 	7.383026483246133e-13 	101324.999999996
0.6919419419419413 	299.9999999999941 	7.34471674576185e-13 	101324.9999999959
0.694444444444444 	299.9999999999807 	8.548154722958462e-13 	101324.999999996
0.6969469469469463 	299.9999999999713 	6.195025075335332e-13 	101324.9999999959
0.6994494494494489 	299.9999999999661 	4.68312345740242e-13 	101324.9999999958
0.7019519519519515 	299.9999999999932 	1.219994095148695e-12 	101324.9999999959
0.7044544544544538 	299.9999999999781 	7.7573683582034e-13 	101324.9999999958
0.7069569569569564 	299.9999999999964 	1.539889684371598e-12 	101324.9999999959
0.7094594594594589 	299.9999999999851 	1.034341692101904e-12 	101324.9999999961
0.7119619619619615 	299.9999999999654 	1.059375575204076e-12 	101324.9999999961
0.7144644644644638 	299.9999999999783 	5.387941564292173e-13 	101324.9999999961
0.7169669669669665 	299.9999999999674 	1.448308774536361e-12 	101324.999999996
0.7194694694694688 	299.9999999999976 	1.071556910409121e-12 	101324.9999999959
0.7219719719719715 	299.999999999998 	1.321922144442567e-12 	101324.999999996
0.7244744744744737 	300 	1.166605696941656e-12 	101324.9999999958
0.7269769769769764 	299.9999999999961 	1.240939630762535e-12 	101324.9999999957
0.7294794794794791 	299.9999999999932 	2.280612549456137e-12 	101324.9999999957
0.7319819819819813 	299.9999999999911 	1.039563241352748e-12 	101324.9999999956
0.7344844844844839 	299.9999999999667 	1.808087422628352e-12 	101324.9999999955
0.7369869869869864 	299.9999999999807 	3.547486705644985e-13 	101324.9999999956
0.739489489489489 	299.9999999999766 	4.047204246579354e-13 	101324.9999999957
0.7419919919919914 	299.9999999999735 	7.839130622090096e-13 	101324.9999999958
0.7444944944944939 	299.9999999999903 	1.667737840706219e-12 	101324.9999999957
0.7469969969969963 	299.9999999999881 	1.400644687419315e-12 	101324.9999999956
0.7494994994994989 	299.9999999999762 	2.396324003964096e-12 	101324.9999999955
0.7520020020020015 	299.9999999999874 	1.786977059996065e-12 	101324.9999999955
0.7545045045045039 	299.999999999987 	1.859641571302598e-12 	101324.9999999955
0.7570070070070062 	299.9999999999766 	7.463961768794355e-13 	101324.9999999955
0.7595095095095092 	299.9999999999692 	1.260652416557471e-12 	101324.9999999956
0.7620120120120112 	299.9999999999991 	5.96803129467871e-13 	101324.9999999958
0.7645145145145138 	299.9999999999947 	5.800351268391456e-13 	101324.9999999958
0.7670170170170165 	299.9999999999725 	1.245338198712115e-12 	101324.9999999957
0.7695195195195191 	299.9999999999665 	1.374032811259256e-12 	101324.9999999958
0.7720220220220213 	299.9999999999767 	1.592487296945572e-12 	101324.9999999959
0.7745245245245239 	299.9999999999787 	1.066821724114586e-12 	101324.9999999959
0.7770270270270263 	299.999999999989 	1.468251732824311e-12 	101324.999999996
0.779529529529529 	299.9999999999906 	4.376318740285045e-13 	101324.9999999961
0.7820320320320313 	299.9999999999866 	9.154255459127226e-13 	101324.999999996
0.784534534534534 	299.9999999999961 	9.632138576966053e-13 	101324.9999999959
0.7870370370370364 	299.9999999999933 	1.254543728421778e-12 	101324.9999999958
0.7895395395395389 	299.9999999999884 	2.110463099652433e-12 	101324.9999999958
0.7920420420420413 	299.9999999999912 	1.577649911093946e-12 	101324.9999999959
0.794544544544544 	299.999999999995 	2.625367747692209e-12 	101324.9999999958
0.7970470470470463 	300.0000000000014 	1.325284658233756e-12 	101324.9999999956
0.799549549549549 	299.9999999999933 	2.594025077248095e-12 	101324.9999999954
0.8020520520520515 	299.9999999999952 	8.374827951886773e-13 	101324.9999999954
0.8045545545545539 	299.9999999999786 	1.225230893290577e-12 	101324.9999999955
0.8070570570570563 	299.9999999999972 	3.867633498434375e-13 	101324.9999999956
0.8095595595595589 	299.999999999985 	9.698957077245818e-13 	101324.9999999957
0.8120620620620614 	299.9999999999706 	1.278868580234289e-12 	101324.9999999959
0.8145645645645638 	299.9999999999951 	1.237615770034206e-12 	101324.999999996
0.8170670670670666 	299.9999999999949 	1.743994130699373e-12 	101324.9999999961
0.8195695695695689 	299.9999999999899 	1.290717936250523e-12 	101324.9999999964
0.8220720720720714 	299.9999999999782 	1.707419469725404e-12 	101324.9999999965
0.8245745745745739 	299.9999999999987 	7.157619367011101e-13 	101324.9999999967
0.8270770770770765 	299.9999999999907 	1.48754896301211e-12 	101324.9999999967
0.8295795795795788 	299.9999999999792 	4.225417423599691e-13 	101324.9999999966
0.8320820820820815 	300.0000000000084 	4.584281036807207e-13 	101324.9999999967
0.834584584584584 	300.0000000000039 	4.717710276061988e-13 	101324.9999999967
0.8370870870870865 	299.9999999999865 	9.234249096730643e-13 	101324.9999999967
0.8395895895895891 	299.999999999966 	7.405142786466861e-13 	101324.9999999965
0.8420920920920915 	299.9999999999715 	6.423751478292349e-13 	101324.9999999962
0.844594594594594 	299.99999999997 	1.400846999644784e-12 	101324.9999999959
0.8470970970970964 	299.9999999999748 	1.284103454058314e-12 	101324.9999999959
0.8495995995995991 	299.9999999999903 	9.355651856244141e-13 	101324.999999996
0.8521021021021015 	299.9999999999895 	1.011202915873761e-12 	101324.999999996
0.8546046046046039 	299.9999999999918 	1.139772965145919e-12 	101324.9999999961
0.8571071071071066 	299.9999999999985 	1.988448750540196e-12 	101324.999999996
0.8596096096096089 	299.999999999981 	1.837922738828146e-12 	101324.9999999961
0.8621121121121116 	299.9999999999679 	1.884645340321467e-12 	101324.9999999962
0.8646146146146139 	299.999999999994 	7.312347735058747e-13 	101324.9999999963
0.8671171171171166 	299.9999999999906 	1.262427600553591e-12 	101324.9999999963
0.8696196196196189 	299.9999999999815 	9.472857689268148e-13 	101324.9999999962
0.8721221221221216 	299.9999999999836 	1.656268665594749e-12 	101324.9999999962
0.874624624624624 	300.0000000000009 	1.40462553689939e-12 	101324.9999999962
0.8771271271271264 	300.0000000000031 	1.390815947096265e-12 	101324.9999999963
0.879629629629629 	299.9999999999998 	2.154239347304981e-12 	101324.9999999963
0.8821321321321317 	299.9999999999912 	1.454851454615155e-12 	101324.9999999963
0.8846346346346339 	299.9999999999678 	1.870776435701243e-12 	101324.9999999964
0.8871371371371364 	299.9999999999813 	6.947642951218061e-13 	101324.9999999965
0.8896396396396391 	299.9999999999835 	9.809755613318039e-13 	101324.9999999965
0.8921421421421414 	299.999999999985 	2.779537666579997e-13 	101324.9999999965
0.8946446446446441 	299.9999999999924 	3.912033667381842e-13 	101324.9999999965
0.8971471471471464 	299.9999999999983 	6.020264790748615e-13 	101324.9999999962
0.8996496496496489 	299.9999999999863 	8.256425832074546e-13 	101324.9999999962
0.9021521521521517 	299.9999999999823 	7.256551969224147e-13 	101324.9999999962
0.9046546546546541 	299.9999999999947 	3.219323780493922e-13 	101324.9999999961
0.9071571571571564 	299.9999999999777 	5.799846291104743e-13 	101324.9999999962
0.9096596596596589 	299.9999999999777 	7.346209493700069e-13 	101324.9999999963
0.9121621621621616 	300.0000000000003 	1.008956103526621e-12 	101324.9999999962
0.9146646646646639 	299.9999999999922 	1.100147967640296e-12 	101324.9999999962
0.9171671671671666 	299.9999999999785 	1.704865103611288e-12 	101324.9999999963
0.9196696696696689 	299.9999999999991 	2.272310492127616e-12 	101324.9999999962
0.9221721721721714 	300.0000000000005 	1.478976280255059e-12 	101324.9999999962
0.9246746746746741 	299.9999999999772 	2.323225206312752e-12 	101324.9999999961
0.9271771771771765 	299.9999999999761 	1.327980124819144e-12 	101324.9999999961
0.9296796796796791 	299.999999999999 	2.14604332556663e-12 	101324.9999999962
0.9321821821821816 	299.9999999999935 	1.005497646486416e-12 	101324.9999999962
0.9346846846846838 	299.9999999999795 	1.321124804857508e-12 	101324.9999999961
0.9371871871871866 	300.0000000000023 	1.268317905058228e-12 	101324.999999996
0.9396896896896891 	300.0000000000052 	1.161719133944575e-12 	101324.999999996
0.9421921921921914 	300.0000000000026 	1.809073314014111e-12 	101324.9999999957
0.9446946946946939 	299.9999999999812 	1.589520118288475e-12 	101324.9999999956
0.9471971971971965 	299.9999999999644 	2.187952100593176e-12 	101324.9999999958
0.9496996996996991 	299.9999999999804 	1.083742744533883e-12 	101324.9999999959
0.9522022022022016 	299.9999999999847 	1.726565288226127e-12 	101324.999999996
0.9547047047047038 	299.9999999999847 	1.189734507363616e-12 	101324.999999996
0.9572072072072064 	299.9999999999836 	1.504487877128262e-12 	101324.9999999962
0.9597097097097093 	299.9999999999852 	1.543918884445391e-12 	101324.9999999964
0.9622122122122114 	299.9999999999815 	1.476177362145547e-12 	101324.9999999965
0.964714714714714 	299.9999999999824 	1.875033873672148e-12 	101324.9999999966
0.9672172172172167 	299.9999999999851 	1.676086278548536e-12 	101324.9999999967
0.969719719719719 	299.999999999997 	2.426109533144974e-12 	101324.9999999967
0.9722222222222214 	299.9999999999905 	2.05037208421028e-12 	101324.9999999966
0.9747247247247239 	299.999999999985 	2.246849985418183e-12 	101324.9999999964
0.9772272272272267 	299.9999999999944 	2.276720429231063e-12 	101324.9999999963
0.9797297297297292 	299.9999999999926 	2.385560375336997e-12 	101324.9999999963
0.9822322322322313 	299.9999999999998 	2.748540181427085e-12 	101324.9999999965
0.9847347347347344 	299.9999999999997 	2.016049317347839e-12 	101324.9999999968
0.9872372372372363 	299.9999999999823 	3.022454679134093e-12 	101324.9999999969
0.9897397397397389 	299.9999999999932 	1.609221433536302e-12 	101324.999999997
0.9922422422422417 	299.999999999984 	2.383728363466306e-12 	101324.9999999971
0.9947447447447441 	299.9999999999792 	1.925797461118887e-12 	101324.999999997
0.9972472472472468 	299.9999999999832 	2.766177725420979e-12 	101324.999999997
0.999749749749749 	299.9999999999841 	2.93767168780963e-12 	101324.9999999969
1.002252252252252 	299.9999999999924 	3.316687867607179e-12 	101324.999999997
1.004754754754754 	299.9999999999901 	3.35326887679227e-12 	101324.9999999971
1.007257257257256 	299.9999999999841 	2.958159741243129e-12 	101324.999999997
1.009759759759759 	299.9999999999815 	4.218744757645643e-12 	101324.9999999969
1.012262262262261 	299.9999999999816 	3.354732511038621e-12 	101324.9999999969
1.014764764764764 	299.9999999999688 	3.933789598573011e-12 	101324.999999997
1.017267267267267 	299.9999999999631 	3.502923492316468e-12 	101324.9999999971
1.019769769769769 	299.9999999999798 	4.255140188963137e-12 	101324.9999999972
1.022272272272272 	299.9999999999858 	4.181526174461888e-12 	101324.9999999972
1.024774774774774 	299.9999999999887 	4.522058081419127e-12 	101324.9999999972
1.027277277277277 	299.999999999987 	5.187279883479214e-12 	101324.9999999973
1.029779779779779 	299.9999999999969 	4.482351747873762e-12 	101324.9999999974
1.032282282282282 	299.9999999999962 	4.498831193999168e-12 	101324.9999999974
1.034784784784784 	299.9999999999935 	3.956069399127871e-12 	101324.9999999973
1.037287287287286 	299.9999999999844 	4.176458099524222e-12 	101324.9999999974
1.039789789789789 	299.9999999999893 	4.423941519892855e-12 	101324.9999999975
1.042292292292291 	300.0000000000045 	4.686780679095959e-12 	101324.9999999977
1.044794794794794 	300.0000000000095 	4.529520982991661e-12 	101324.9999999976
1.047297297297296 	300.0000000000161 	3.892496697196548e-12 	101324.9999999977
1.049799799799799 	299.9999999999948 	4.725130947776587e-12 	101324.9999999977
1.052302302302302 	299.9999999999828 	3.386205212337963e-12 	101324.9999999978
1.054804804804804 	299.9999999999777 	3.947414577689736e-12 	101324.9999999981
1.057307307307306 	299.9999999999684 	3.335797414185209e-12 	101324.9999999981
1.059809809809809 	299.9999999999819 	4.067013846047416e-12 	101324.999999998
1.062312312312312 	299.999999999979 	3.923551443027291e-12 	101324.999999998
1.064814814814814 	299.9999999999769 	4.183738682508403e-12 	101324.9999999978
1.067317317317317 	299.9999999999682 	4.015889823229191e-12 	101324.9999999979
1.069819819819819 	299.9999999999706 	4.314241592503841e-12 	101324.9999999979
1.072322322322321 	299.9999999999984 	5.610165307393021e-12 	101324.9999999978
1.074824824824824 	300.0000000000082 	4.249549860098103e-12 	101324.9999999978
1.077327327327327 	300.0000000000157 	4.698936254692944e-12 	101324.9999999979
1.079829829829829 	300.0000000000158 	3.696849701174225e-12 	101324.9999999979
1.082332332332332 	300.0000000000019 	3.860701337793678e-12 	101324.9999999979
1.084834834834834 	299.999999999993 	3.338506340153304e-12 	101324.9999999981
1.087337337337337 	299.9999999999792 	3.278780230116928e-12 	101324.9999999983
1.089839839839839 	299.9999999999759 	4.034250739628949e-12 	101324.9999999984
1.092342342342342 	299.9999999999898 	3.708969553429137e-12 	101324.9999999984
1.094844844844844 	299.9999999999905 	4.616149862950362e-12 	101324.9999999983
1.097347347347347 	299.9999999999785 	4.259809146571612e-12 	101324.9999999982
1.099849849849849 	299.9999999999748 	5.691975461211337e-12 	101324.9999999982
1.102352352352352 	299.9999999999854 	4.637296665304309e-12 	101324.9999999981
1.104854854854854 	299.999999999992 	5.749476107083318e-12 	101324.9999999982
1.107357357357357 	299.9999999999855 	4.837972624405807e-12 	101324.9999999983
1.109859859859859 	299.9999999999812 	5.727839533801222e-12 	101324.9999999985
1.112362362362362 	300.0000000000084 	4.995826790553567e-12 	101324.9999999984
1.114864864864865 	300.0000000000076 	4.764400373725116e-12 	101324.9999999983
1.117367367367367 	299.9999999999878 	5.321998924081368e-12 	101324.9999999984
1.119869869869869 	299.9999999999716 	4.586748618926252e-12 	101324.9999999983
1.122372372372372 	299.9999999999818 	5.737974458210774e-12 	101324.9999999984
1.124874874874874 	299.9999999999808 	5.425447652745283e-12 	101324.9999999985
1.127377377377377 	299.999999999985 	6.006822595604068e-12 	101324.9999999985
1.129879879879879 	300.0000000000053 	5.529425787638794e-12 	101324.9999999986
1.132382382382382 	300.0000000000093 	5.555484014280461e-12 	101324.9999999988
1.134884884884884 	300.0000000000001 	5.088868352945852e-12 	101324.9999999987
1.137387387387387 	300.0000000000048 	5.085992460199097e-12 	101324.9999999987
1.139889889889889 	299.9999999999879 	5.79899075945291e-12 	101324.9999999986
1.142392392392392 	299.9999999999849 	5.245146765027191e-12 	101324.9999999985
1.144894894894894 	300.0000000000042 	5.823413139755126e-12 	101324.9999999985
1.147397397397397 	299.9999999999968 	5.075824879234754e-12 	101324.9999999986
1.149899899899899 	299.9999999999759 	5.36411363469846e-12 	101324.9999999987
1.152402402402402 	299.9999999999731 	4.904230203688272e-12 	101324.9999999987
1.154904904904904 	299.9999999999886 	5.212373784664457e-12 	101324.9999999989
1.157407407407407 	299.9999999999883 	4.719346856192791e-12 	101324.999999999
1.159909909909909 	299.9999999999783 	5.024899775766927e-12 	101324.999999999
1.162412412412412 	299.9999999999745 	6.004130617278135e-12 	101324.999999999
1.164914914914914 	299.9999999999816 	4.990182896787681e-12 	101324.999999999
1.167417417417417 	299.9999999999846 	5.759153642515859e-12 	101324.999999999
1.169919919919919 	300.0000000000041 	5.21379192106463e-12 	101324.999999999
1.172422422422422 	300.0000000000155 	5.718591144301681e-12 	101324.999999999
1.174924924924925 	299.9999999999951 	5.264425435877439e-12 	101324.999999999
1.177427427427427 	299.9999999999831 	6.09607633411926e-12 	101324.999999999
1.179929929929929 	300.0000000000023 	6.831853138450046e-12 	101324.999999999
1.182432432432432 	300.0000000000136 	5.758496184683175e-12 	101324.9999999987
1.184934934934934 	299.9999999999998 	6.458214686665816e-12 	101324.9999999986
1.187437437437437 	299.9999999999886 	6.302392622642292e-12 	101324.9999999985
1.189939939939939 	299.9999999999884 	7.182230867688639e-12 	101324.9999999984
1.192442442442442 	299.9999999999749 	6.705379938397952e-12 	101324.9999999986
1.194944944944944 	299.9999999999736 	7.080091281789716e-12 	101324.9999999987
1.197447447447447 	299.999999999997 	6.11095523759404e-12 	101324.9999999989
1.199949949949949 	300.0000000000059 	5.565844470474513e-12 	101324.9999999991
1.202452452452452 	299.9999999999862 	5.962979255174275e-12 	101324.9999999994
1.204954954954955 	299.9999999999807 	5.352403889050813e-12 	101324.9999999994
1.207457457457457 	299.9999999999912 	5.697147104516965e-12 	101324.9999999994
1.20995995995996 	299.9999999999936 	4.90339167691159e-12 	101324.9999999994
1.212462462462462 	299.999999999997 	5.672347497386849e-12 	101324.9999999994
1.214964964964964 	299.999999999997 	5.410875523579827e-12 	101324.9999999994
1.217467467467467 	299.9999999999935 	5.86843203530212e-12 	101324.9999999995
1.219969969969969 	299.9999999999845 	5.14728588532433e-12 	101324.9999999995
1.222472472472472 	300.0000000000049 	5.154228598774066e-12 	101324.9999999994
1.224974974974975 	300.0000000000173 	5.140884749242235e-12 	101324.9999999994
1.227477477477477 	299.9999999999974 	4.172635622251502e-12 	101324.9999999994
1.229979979979979 	299.9999999999916 	5.164535002257393e-12 	101324.9999999993
1.232482482482482 	299.9999999999847 	4.745846786517547e-12 	101324.9999999992
1.234984984984984 	299.9999999999847 	5.967490722463997e-12 	101324.9999999992
1.237487487487487 	299.9999999999905 	5.166094468015235e-12 	101324.9999999991
1.239989989989989 	299.9999999999911 	5.283547370610757e-12 	101324.999999999
1.242492492492492 	300.0000000000033 	5.40000918459695e-12 	101324.999999999
1.244994994994994 	299.9999999999935 	4.436513722169625e-12 	101324.9999999992
1.247497497497497 	299.9999999999969 	5.116623234107658e-12 	101324.9999999994
1.249999999999999 	300.0000000000549 	4.471891038250711e-12 	101324.9999999994
