-1.25 	300 	0 	101325
-1.247497497497497 	300 	0 	101325
-1.244994994994995 	300 	0 	101325
-1.242492492492492 	300 	0 	101325
-1.23998998998999 	300 	0 	101325
-1.237487487487487 	300 	0 	101325
-1.234984984984985 	300 	0 	101325
-1.232482482482482 	300 	0 	101325
-1.22997997997998 	300 	0 	101325
-1.227477477477477 	300 	0 	101325
-1.224974974974975 	300.0000000000001 	0 	101325
-1.222472472472472 	300 	0 	101325
-1.21996996996997 	300 	0 	101325
-1.217467467467467 	300.0000000000001 	0 	101325
-1.214964964964965 	300 	0 	101325
-1.212462462462462 	300 	0 	101325
-1.20995995995996 	300 	0 	101325
-1.207457457457457 	300.0000000000001 	0 	101325
-1.204954954954955 	300 	0 	101325
-1.202452452452452 	300 	0 	101325
-1.19994994994995 	300 	0 	101325
-1.197447447447447 	300.0000000000001 	0 	101325
-1.194944944944945 	300 	0 	101325
-1.192442442442442 	300 	0 	101325
-1.18993993993994 	300 	0 	101325
-1.187437437437437 	300 	0 	101325
-1.184934934934935 	300 	0 	101325
-1.182432432432432 	300 	0 	101325
-1.17992992992993 	300 	0 	101325
-1.177427427427427 	300 	0 	101325
-1.174924924924925 	300.0000000000001 	0 	101325
-1.172422422422422 	300 	0 	101325
-1.16991991991992 	300.0000000000001 	0 	101325
-1.167417417417417 	300 	0 	101325
-1.164914914914915 	300 	0 	101325
-1.162412412412412 	300 	0 	101325
-1.15990990990991 	300 	0 	101325
-1.157407407407407 	300 	0 	101325
-1.154904904904904 	300 	0 	101325
-1.152402402402403 	300 	0 	101325
-1.1498998998999 	300 	0 	101325
-1.147397397397397 	300.0000000000001 	0 	101325
-1.144894894894895 	300 	0 	101325
-1.142392392392392 	300 	0 	101325
-1.13988988988989 	300 	0 	101325
-1.137387387387387 	300 	0 	101325
-1.134884884884885 	300 	0 	101325
-1.132382382382382 	300 	0 	101325
-1.12987987987988 	300 	0 	101325
-1.127377377377377 	300 	0 	101325
-1.124874874874875 	300 	0 	101325
-1.122372372372372 	300.0000000000001 	0 	101325
-1.11986986986987 	300 	0 	101325
-1.117367367367367 	300 	0 	101325
-1.114864864864865 	300.0000000000001 	0 	101325
-1.112362362362362 	300 	0 	101325
-1.10985985985986 	300 	0 	101325
-1.107357357357357 	300.0000000000001 	0 	101325
-1.104854854854855 	300.0000000000001 	0 	101325
-1.102352352352353 	300 	0 	101325
-1.09984984984985 	300.0000000000001 	0 	101325
-1.097347347347347 	300 	0 	101325
-1.094844844844845 	300 	0 	101325
-1.092342342342342 	300.0000000000001 	0 	101325
-1.08983983983984 	300 	0 	101325
-1.087337337337337 	300 	0 	101325
-1.084834834834835 	300 	0 	101325
-1.082332332332332 	300 	0 	101325
-1.07982982982983 	300 	0 	101325
-1.077327327327327 	299.9999999999999 	0 	101325
-1.074824824824825 	300.0000000000001 	0 	101325
-1.072322322322323 	300 	0 	101325
-1.06981981981982 	300 	0 	101325
-1.067317317317317 	300.0000000000001 	0 	101325
-1.064814814814815 	300 	0 	101325
-1.062312312312312 	300 	0 	101325
-1.05980980980981 	300 	0 	101325
-1.057307307307307 	300 	0 	101325
-1.054804804804805 	300.0000000000001 	0 	101325
-1.052302302302302 	300 	0 	101325
-1.0497997997998 	300 	0 	101325
-1.047297297297297 	300 	0 	101325
-1.044794794794795 	300 	0 	101325
-1.042292292292292 	300 	0 	101325
-1.03978978978979 	300.0000000000001 	0 	101325
-1.037287287287287 	300 	0 	101325
-1.034784784784785 	300 	0 	101325
-1.032282282282283 	300.0000000000001 	0 	101325
-1.02977977977978 	300 	0 	101325
-1.027277277277277 	300 	0 	101325
-1.024774774774775 	300 	0 	101325
-1.022272272272272 	300 	0 	101325
-1.01976976976977 	300 	0 	101325
-1.017267267267267 	300 	0 	101325
-1.014764764764765 	300.0000000000001 	0 	101325
-1.012262262262262 	299.9999999999999 	0 	101325
-1.00975975975976 	299.9999999999999 	0 	101325
-1.007257257257257 	300 	0 	101325
-1.004754754754755 	300 	0 	101325
-1.002252252252252 	300 	0 	101325
-0.9997497497497498 	300 	0 	101325
-0.9972472472472473 	300 	0 	101325
-0.9947447447447449 	299.9999999999999 	0 	101325
-0.9922422422422421 	300 	0 	101325
-0.9897397397397399 	299.9999999999999 	0 	101325
-0.9872372372372376 	300.0000000000001 	0 	101325
-0.9847347347347346 	300 	0 	101325
-0.9822322322322323 	299.9999999999999 	0 	101325
-0.9797297297297296 	300 	0 	101325
-0.9772272272272275 	300 	0 	101325
-0.9747247247247248 	300 	0 	101325
-0.9722222222222224 	300.0000000000001 	0 	101325
-0.9697197197197196 	300 	0 	101325
-0.9672172172172175 	300 	0 	101325
-0.9647147147147147 	300 	0 	101325
-0.9622122122122124 	300 	0 	101325
-0.9597097097097099 	300 	0 	101325
-0.9572072072072073 	300 	0 	101325
-0.9547047047047047 	300 	0 	101325
-0.9522022022022023 	300 	0 	101325
-0.9496996996996998 	299.9999999999999 	0 	101325
-0.9471971971971973 	300 	0 	101325
-0.9446946946946947 	300.0000000000001 	0 	101325
-0.9421921921921923 	300 	0 	101325
-0.93968968968969 	300 	0 	101325
-0.9371871871871872 	300 	0 	101325
-0.9346846846846848 	300.0000000000001 	0 	101325
-0.9321821821821823 	300 	0 	101325
-0.9296796796796799 	300 	0 	101325
-0.9271771771771771 	300 	0 	101325
-0.9246746746746748 	300 	0 	101325
-0.9221721721721724 	300.0000000000001 	0 	101325
-0.9196696696696698 	300 	0 	101325
-0.9171671671671672 	300.0000000000001 	0 	101325
-0.9146646646646649 	299.9999999999999 	0 	101325
-0.9121621621621623 	300 	0 	101325
-0.9096596596596597 	300 	0 	101325
-0.9071571571571573 	300 	0 	101325
-0.9046546546546547 	300 	0 	101325
-0.9021521521521524 	300 	0 	101325
-0.8996496496496498 	300 	0 	101325
-0.8971471471471473 	300 	0 	101325
-0.894644644644645 	300 	0 	101325
-0.892142142142142 	300 	0 	101325
-0.8896396396396397 	300 	0 	101325
-0.8871371371371374 	300 	0 	101325
-0.8846346346346349 	300 	0 	101325
-0.8821321321321324 	300.0000000000001 	0 	101325
-0.8796296296296297 	300 	0 	101325
-0.8771271271271271 	300 	0 	101325
-0.8746246246246248 	300.0000000000001 	0 	101325
-0.8721221221221224 	299.9999999999999 	0 	101325
-0.8696196196196196 	300 	0 	101325
-0.8671171171171175 	300 	0 	101325
-0.8646146146146148 	300.0000000000001 	0 	101325
-0.8621121121121121 	300 	0 	101325
-0.8596096096096097 	300 	0 	101325
-0.857107107107107 	300 	0 	101325
-0.8546046046046049 	300 	0 	101325
-0.8521021021021022 	300 	0 	101325
-0.8495995995995997 	300.0000000000001 	0 	101325
-0.8470970970970974 	300 	0 	101325
-0.8445945945945946 	300.0000000000001 	0 	101325
-0.8420920920920922 	300 	0 	101325
-0.8395895895895897 	300 	0 	101325
-0.8370870870870872 	300 	0 	101325
-0.8345845845845846 	300 	0 	101325
-0.8320820820820823 	300 	0 	101325
-0.8295795795795798 	300 	0 	101325
-0.8270770770770772 	300 	0 	101325
-0.8245745745745746 	300.0000000000001 	0 	101325
-0.8220720720720721 	300.0000000000001 	0 	101325
-0.8195695695695699 	300 	0 	101325
-0.817067067067067 	299.9999999999999 	0 	101325
-0.8145645645645651 	300 	0 	101325
-0.8120620620620621 	300 	0 	101325
-0.8095595595595597 	300 	0 	101325
-0.8070570570570572 	299.9999999999999 	0 	101325
-0.8045545545545546 	300 	0 	101325
-0.8020520520520523 	300 	0 	101325
-0.7995495495495494 	300 	0 	101325
-0.7970470470470474 	300 	0 	101325
-0.7945445445445446 	300 	0 	101325
-0.7920420420420423 	300 	0 	101325
-0.7895395395395397 	300 	0 	101325
-0.7870370370370371 	300 	0 	101325
-0.7845345345345348 	299.9999999999999 	0 	101325
-0.7820320320320323 	300 	0 	101325
-0.7795295295295296 	300 	0 	101325
-0.7770270270270272 	300 	0 	101325
-0.7745245245245247 	300.0000000000001 	0 	101325
-0.7720220220220222 	300 	0 	101325
-0.7695195195195199 	300 	0 	101325
-0.767017017017017 	300 	0 	101325
-0.7645145145145147 	300 	0 	101325
-0.7620120120120122 	300 	0 	101325
-0.7595095095095097 	300 	0 	101325
-0.7570070070070072 	300 	0 	101325
-0.7545045045045048 	300 	0 	101325
-0.7520020020020022 	300 	0 	101325
-0.7494994994994997 	300 	0 	101325
-0.7469969969969972 	300 	0 	101325
-0.7444944944944945 	300 	0 	101325
-0.7419919919919924 	300 	0 	101325
-0.7394894894894897 	300 	0 	101325
-0.7369869869869872 	300 	0 	101325
-0.7344844844844846 	300.0000000000001 	0 	101325
-0.7319819819819822 	300 	0 	101325
-0.7294794794794797 	300 	0 	101325
-0.7269769769769773 	300.0000000000001 	0 	101325
-0.7244744744744747 	300.0000000000001 	0 	101325
-0.721971971971972 	300 	0 	101325
-0.7194694694694695 	300 	0 	101325
-0.7169669669669674 	300.0000000000001 	0 	101325
-0.7144644644644647 	300 	0 	101325
-0.711961961961962 	300.0000000000001 	0 	101325
-0.7094594594594597 	300 	0 	101325
-0.7069569569569573 	300 	0 	101325
-0.7044544544544545 	300 	0 	101325
-0.7019519519519523 	300 	0 	101325
-0.6994494494494495 	300 	0 	101325
-0.6969469469469471 	300 	0 	101325
-0.6944444444444446 	300.0000000000001 	0 	101325
-0.6919419419419421 	300 	0 	101325
-0.6894394394394396 	299.9999999999999 	0 	101325
-0.6869369369369374 	300 	0 	101325
-0.6844344344344344 	299.9999999999999 	0 	101325
-0.6819319319319321 	300 	0 	101325
-0.6794294294294296 	300.0000000000001 	0 	101325
-0.6769269269269272 	300 	0 	101325
-0.6744244244244245 	300.0000000000001 	0 	101325
-0.6719219219219222 	300 	0 	101325
-0.6694194194194195 	300 	0 	101325
-0.6669169169169172 	300.0000000000001 	0 	101325
-0.6644144144144146 	299.9999999999999 	0 	101325
-0.661911911911912 	300 	0 	101325
-0.6594094094094097 	300.0000000000001 	0 	101325
-0.656906906906907 	300 	0 	101325
-0.6544044044044046 	300 	0 	101325
-0.6519019019019021 	300 	0 	101325
-0.6493993993993996 	300 	0 	101325
-0.6468968968968971 	299.9999999999999 	0 	101325
-0.6443943943943946 	300 	0 	101325
-0.6418918918918921 	300.0000000000001 	0 	101325
-0.6393893893893897 	300 	0 	101325
-0.6368868868868871 	300.0000000000001 	0 	101325
-0.6343843843843846 	300 	0 	101325
-0.6318818818818821 	300 	0 	101325
-0.6293793793793795 	300.0000000000001 	0 	101325
-0.6268768768768773 	300 	0 	101325
-0.6243743743743745 	300 	0 	101325
-0.6218718718718721 	300 	0 	101325
-0.6193693693693696 	300.0000000000001 	0 	101325
-0.6168668668668671 	300 	0 	101325
-0.6143643643643645 	300 	0 	101325
-0.6118618618618621 	300 	0 	101325
-0.6093593593593596 	300 	0 	101325
-0.6068568568568571 	300 	0 	101325
-0.6043543543543546 	300.0000000000001 	0 	101325
-0.6018518518518521 	300 	0 	101325
-0.5993493493493496 	300 	0 	101325
-0.5968468468468471 	300.0000000000001 	0 	101325
-0.5943443443443446 	300 	0 	101325
-0.591841841841842 	300.0000000000001 	0 	101325
-0.5893393393393397 	300 	0 	101325
-0.5868368368368371 	300 	0 	101325
-0.5843343343343346 	300 	0 	101325
-0.5818318318318321 	300 	0 	101325
-0.5793293293293297 	300 	0 	101325
-0.5768268268268271 	300 	0 	101325
-0.5743243243243245 	300 	0 	101325
-0.5718218218218221 	300.0000000000001 	0 	101325
-0.5693193193193196 	300 	0 	101325
-0.5668168168168171 	300 	0 	101325
-0.5643143143143147 	300 	0 	101325
-0.5618118118118121 	300 	0 	101325
-0.5593093093093094 	300 	0 	101325
-0.5568068068068072 	300 	0 	101325
-0.5543043043043046 	300 	0 	101325
-0.551801801801802 	300 	0 	101325
-0.5492992992992995 	300.0000000000001 	0 	101325
-0.5467967967967969 	300 	0 	101325
-0.5442942942942947 	300 	0 	101325
-0.5417917917917919 	300 	0 	101325
-0.5392892892892895 	300 	0 	101325
-0.536786786786787 	300 	0 	101325
-0.5342842842842846 	300 	0 	101325
-0.531781781781782 	300 	0 	101325
-0.5292792792792794 	300.0000000000001 	0 	101325
-0.526776776776777 	300 	0 	101325
-0.5242742742742745 	300 	0 	101325
-0.521771771771772 	300 	0 	101325
-0.5192692692692695 	300 	0 	101325
-0.516766766766767 	300 	0 	101325
-0.5142642642642645 	300 	0 	101325
-0.511761761761762 	300 	0 	101325
-0.5092592592592596 	300 	0 	101325
-0.506756756756757 	300 	0 	101325
-0.5042542542542544 	300.0000000000001 	0 	101325
-0.5017517517517521 	300 	0 	101325
-0.4992492492492494 	300 	0 	101325
-0.496746746746747 	300 	0 	101325
-0.4942442442442445 	300 	0 	101325
-0.4917417417417421 	300 	0 	101325
-0.4892392392392395 	300 	0 	101325
-0.486736736736737 	300.0000000000001 	0 	101325
-0.4842342342342345 	300 	0 	101325
-0.481731731731732 	300 	0 	101325
-0.4792292292292296 	300 	0 	101325
-0.4767267267267268 	300 	0 	101325
-0.4742242242242246 	300 	0 	101325
-0.471721721721722 	300 	0 	101325
-0.4692192192192195 	300 	0 	101325
-0.4667167167167169 	300 	0 	101325
-0.4642142142142145 	300 	0 	101325
-0.461711711711712 	300 	0 	101325
-0.4592092092092094 	300 	0 	101325
-0.456706706706707 	300.0000000000001 	0 	101325
-0.4542042042042045 	300 	0 	101325
-0.451701701701702 	300.0000000000001 	0 	101325
-0.4491991991991995 	300 	0 	101325
-0.4466966966966969 	300 	0 	101325
-0.4441941941941945 	300 	0 	101325
-0.441691691691692 	300 	0 	101325
-0.4391891891891895 	300 	0 	101325
-0.436686686686687 	300 	0 	101325
-0.4341841841841846 	300 	0 	101325
-0.431681681681682 	300.0000000000001 	0 	101325
-0.4291791791791794 	300 	0 	101325
-0.426676676676677 	300 	0 	101325
-0.4241741741741744 	300 	0 	101325
-0.421671671671672 	300 	0 	101325
-0.4191691691691694 	300 	0 	101325
-0.4166666666666669 	300.0000000000001 	0 	101325
-0.4141641641641645 	300 	0 	101325
-0.411661661661662 	300 	0 	101325
-0.4091591591591594 	300 	0 	101325
-0.406656656656657 	300 	0 	101325
-0.4041541541541545 	300 	0 	101325
-0.401651651651652 	300 	0 	101325
-0.3991491491491494 	300 	0 	101325
-0.396646646646647 	300 	0 	101325
-0.3941441441441444 	299.9999999999999 	0 	101325
-0.3916416416416419 	300 	0 	101325
-0.3891391391391395 	300 	0 	101325
-0.3866366366366368 	300 	0 	101325
-0.3841341341341344 	300 	0 	101325
-0.381631631631632 	300 	0 	101325
-0.3791291291291294 	300 	0 	101325
-0.3766266266266269 	300 	0 	101325
-0.3741241241241244 	300 	0 	101325
-0.371621621621622 	300 	0 	101325
-0.3691191191191194 	300 	0 	101325
-0.366616616616617 	300 	0 	101325
-0.3641141141141143 	300.0000000000001 	0 	101325
-0.3616116116116119 	300.0000000000001 	0 	101325
-0.3591091091091095 	300.0000000000001 	0 	101325
-0.356606606606607 	299.9999999999999 	0 	101325
-0.3541041041041044 	300 	0 	101325
-0.3516016016016019 	300 	0 	101325
-0.3490990990990994 	300 	0 	101325
-0.346596596596597 	299.9999999999999 	0 	101325
-0.3440940940940944 	299.9999999999999 	0 	101325
-0.3415915915915919 	300 	0 	101325
-0.3390890890890895 	300 	0 	101325
-0.3365865865865869 	300 	0 	101325
-0.3340840840840844 	300 	0 	101325
-0.3315815815815819 	300 	0 	101325
-0.3290790790790794 	300 	0 	101325
-0.3265765765765769 	300 	0 	101325
-0.3240740740740744 	300 	0 	101325
-0.3215715715715718 	300.0000000000001 	0 	101325
-0.3190690690690695 	300 	0 	101325
-0.3165665665665668 	300 	0 	101325
-0.3140640640640644 	300.0000000000001 	0 	101325
-0.311561561561562 	300 	0 	101325
-0.3090590590590593 	300 	0 	101325
-0.3065565565565568 	299.9999999999999 	0 	101325
-0.3040540540540545 	300 	0 	101325
-0.3015515515515518 	299.9999999999999 	0 	101325
-0.2990490490490494 	300 	0 	101325
-0.2965465465465469 	300 	0 	101325
-0.2940440440440444 	300 	0 	101325
-0.2915415415415418 	300 	0 	101325
-0.2890390390390395 	300 	0 	101325
-0.2865365365365368 	300 	0 	101325
-0.2840340340340343 	299.9999999999999 	0 	101325
-0.2815315315315318 	300 	0 	101325
-0.2790290290290295 	299.9999999999999 	0 	101325
-0.2765265265265269 	300 	0 	101325
-0.2740240240240244 	300 	0 	101325
-0.2715215215215219 	300 	0 	101325
-0.2690190190190194 	300.0000000000001 	0 	101325
-0.2665165165165169 	300.0000000000001 	0 	101325
-0.2640140140140144 	299.9999999999999 	0 	101325
-0.2615115115115119 	300 	0 	101325
-0.2590090090090094 	300 	0 	101325
-0.2565065065065068 	299.9999999999999 	0 	101325
-0.2540040040040044 	300 	0 	101325
-0.2515015015015019 	300.0000000000001 	0 	101325
-0.2489989989989994 	300 	0 	101325
-0.2464964964964968 	300 	0 	101325
-0.2439939939939944 	300.0000000000001 	0 	101325
-0.2414914914914919 	300.0000000000001 	0 	101325
-0.2389889889889893 	300.0000000000001 	0 	101325
-0.2364864864864869 	300.0000000000001 	0 	101325
-0.2339839839839843 	300 	0 	101325
-0.2314814814814819 	300 	0 	101325
-0.2289789789789792 	300 	0 	101325
-0.2264764764764769 	300 	0 	101325
-0.2239739739739743 	300 	0 	101325
-0.2214714714714718 	300 	0 	101325
-0.2189689689689693 	299.9999999999999 	0 	101325
-0.2164664664664669 	299.9999999999999 	0 	101325
-0.2139639639639643 	300 	0 	101325
-0.2114614614614618 	300 	0 	101325
-0.2089589589589593 	300 	0 	101325
-0.2064564564564568 	300 	0 	101325
-0.2039539539539543 	299.9999999999999 	0 	101325
-0.2014514514514518 	300 	0 	101325
-0.1989489489489494 	300 	0 	101325
-0.1964464464464468 	300 	0 	101325
-0.1939439439439443 	300 	0 	101325
-0.1914414414414418 	299.9999999999999 	0 	101325
-0.1889389389389393 	300 	0 	101325
-0.1864364364364368 	300 	0 	101325
-0.1839339339339343 	300.0000000000001 	0 	101325
-0.1814314314314318 	300 	0 	101325
-0.1789289289289293 	300 	0 	101325
-0.1764264264264268 	300 	0 	101325
-0.1739239239239243 	299.9999999999999 	0 	101325
-0.1714214214214218 	300 	0 	101325
-0.1689189189189193 	300.0000000000001 	0 	101325
-0.1664164164164168 	299.9999999999999 	0 	101325
-0.1639139139139143 	299.9999999999999 	0 	101325
-0.1614114114114118 	300 	0 	101325
-0.1589089089089093 	300 	0 	101325
-0.1564064064064068 	300 	0 	101325
-0.1539039039039043 	299.9999999999999 	0 	101325
-0.1514014014014018 	300.0000000000001 	0 	101325
-0.1488988988988993 	300 	0 	101325
-0.1463963963963968 	300 	0 	101325
-0.1438938938938943 	299.9999999999999 	0 	101325
-0.1413913913913918 	299.9999999999999 	0 	101325
-0.1388888888888893 	300 	0 	101325
-0.1363863863863868 	300.0000000000001 	0 	101325
-0.1338838838838843 	300 	0 	101325
-0.1313813813813818 	300.0000000000001 	0 	101325
-0.1288788788788793 	299.9999999999999 	0 	101325
-0.1263763763763768 	300.0000000000001 	0 	101325
-0.1238738738738743 	300.0000000000001 	0 	101325
-0.1213713713713717 	300 	0 	101325
-0.1188688688688693 	300 	0 	101325
-0.1163663663663668 	300 	0 	101325
-0.1138638638638643 	300 	0 	101325
-0.1113613613613618 	300 	0 	101325
-0.1088588588588592 	299.9999999999999 	0 	101325
-0.1063563563563568 	300 	0 	101325
-0.1038538538538543 	299.9999999999999 	0 	101325
-0.1013513513513517 	300.0000000000001 	0 	101325
-0.09884884884884926 	300 	0 	101325
-0.09634634634634676 	300.0000000000001 	0 	101325
-0.09384384384384425 	299.9999999999999 	0 	101325
-0.09134134134134177 	299.9999999999999 	0 	101325
-0.08883883883883925 	300 	0 	101325
-0.08633633633633674 	300 	0 	101325
-0.08383383383383426 	300 	0 	101325
-0.08133133133133173 	300.0000000000001 	0 	101325
-0.07882882882882926 	300 	0 	101325
-0.07632632632632676 	300.0000000000001 	0 	101325
-0.07382382382382424 	300.0000000000001 	0 	101325
-0.07132132132132173 	300 	0 	101325
-0.06881881881881925 	300 	0 	101325
-0.06631631631631671 	299.9999999999999 	0 	101325
-0.06381381381381425 	299.9999999999999 	0 	101325
-0.06131131131131173 	300 	0 	101325
-0.05880880880880923 	300.0000000000001 	0 	101325
-0.05630630630630672 	300 	0 	101325
-0.05380380380380424 	300.0000000000001 	0 	101325
-0.05130130130130173 	300 	0 	101325
-0.04879879879879922 	300.0000000000001 	0 	101325
-0.04629629629629672 	299.9999999999999 	0 	101325
-0.04379379379379422 	300.0000000000001 	0 	101325
-0.04129129129129173 	300.0000000000001 	0 	101325
-0.03878878878878922 	300 	0 	101325
-0.03628628628628671 	299.9999999999999 	0 	101325
-0.03378378378378422 	299.9999999999999 	0 	101325
-0.03128128128128172 	300 	0 	101325
-0.02877877877877922 	300.0000000000001 	0 	101325
-0.0262762762762767 	300 	0 	101325
-0.02377377377377422 	300 	0 	101325
-0.0212712712712717 	300.0000000000001 	0 	101325
-0.01876876876876921 	300 	0 	101325
-0.01626626626626671 	300 	0 	101325
-0.0137637637637642 	300.0000000000001 	0 	101325
-0.0112612612612617 	300.0000000000001 	0 	101325
-0.008758758758759198 	300 	0 	101325
-0.006256256256256697 	300 	0 	101325
-0.003753753753754195 	300 	0 	101325
-0.001251251251251693 	300.0000000000001 	0 	101325
0.00125125125125081 	300 	0 	101325
0.003753753753753312 	300 	0 	101325
0.006256256256255817 	300.0000000000001 	0 	101325
0.008758758758758317 	300.0000000000001 	0 	101325
0.01126126126126082 	300 	0 	101325
0.01376376376376332 	299.9999999999999 	0 	101325
0.01626626626626582 	300 	0 	101325
0.01876876876876833 	300 	0 	101325
0.02127127127127083 	300 	0 	101325
0.02377377377377332 	300 	0 	101325
0.02627627627627583 	300.0000000000001 	0 	101325
0.02877877877877833 	299.9999999999999 	0 	101325
0.03128128128128083 	299.9999999999999 	0 	101325
0.03378378378378333 	300 	0 	101325
0.03628628628628584 	299.9999999999999 	0 	101325
0.03878878878878834 	300 	0 	101325
0.04129129129129084 	300.0000000000001 	0 	101325
0.04379379379379333 	300 	0 	101325
0.04629629629629585 	300.0000000000001 	0 	101325
0.04879879879879834 	300 	0 	101325
0.05130130130130085 	300 	0 	101325
0.05380380380380335 	300 	0 	101325
0.05630630630630584 	300.0000000000001 	0 	101325
0.05880880880880836 	300 	0 	101325
0.06131131131131085 	300 	0 	101325
0.06381381381381336 	299.9999999999999 	0 	101325
0.06631631631631586 	299.9999999999999 	0 	101325
0.06881881881881835 	300.0000000000001 	0 	101325
0.07132132132132088 	300 	0 	101325
0.07382382382382337 	300 	0 	101325
0.07632632632632587 	300 	0 	101325
0.07882882882882837 	300 	0 	101325
0.08133133133133086 	300 	0 	101325
0.08383383383383337 	300 	0 	101325
0.08633633633633589 	300 	0 	101325
0.08883883883883838 	299.9999999999999 	0 	101325
0.09134134134134086 	300 	0 	101325
0.09384384384384339 	300.0000000000001 	0 	101325
0.09634634634634588 	300 	0 	101325
0.09884884884884838 	299.9999999999999 	0 	101325
0.1013513513513509 	300.0000000000001 	0 	101325
0.1038538538538534 	300 	0 	101325
0.1063563563563559 	300 	0 	101325
0.1088588588588584 	300.0000000000001 	0 	101325
0.1113613613613609 	300 	0 	101325
0.1138638638638634 	300 	0 	101325
0.1163663663663659 	300.0000000000001 	0 	101325
0.1188688688688684 	300 	0 	101325
0.1213713713713709 	300 	0 	101325
0.1238738738738734 	300.0000000000001 	0 	101325
0.1263763763763759 	299.9999999999999 	0 	101325
0.1288788788788784 	300 	0 	101325
0.1313813813813809 	300 	0 	101325
0.1338838838838834 	300.0000000000001 	0 	101325
0.1363863863863859 	300 	0 	101325
0.1388888888888884 	300.0000000000001 	0 	101325
0.1413913913913909 	300 	0 	101325
0.1438938938938934 	300 	0 	101325
0.1463963963963959 	300 	0 	101325
0.1488988988988985 	300 	0 	101325
0.1514014014014009 	300 	0 	101325
0.1539039039039035 	300 	0 	101325
0.1564064064064059 	300.0000000000001 	0 	101325
0.1589089089089084 	299.9999999999999 	0 	101325
0.1614114114114109 	299.9999999999999 	0 	101325
0.1639139139139134 	299.9999999999999 	0 	101325
0.166416416416416 	300 	0 	101325
0.1689189189189185 	299.9999999999999 	0 	101325
0.1714214214214209 	300.0000000000001 	0 	101325
0.1739239239239235 	300 	0 	101325
0.1764264264264259 	300 	0 	101325
0.1789289289289284 	300 	0 	101325
0.181431431431431 	300 	0 	101325
0.1839339339339334 	300 	0 	101325
0.186436436436436 	299.9999999999999 	0 	101325
0.1889389389389385 	299.9999999999999 	0 	101325
0.191441441441441 	300 	0 	101325
0.1939439439439434 	300 	0 	101325
0.196446446446446 	300 	0 	101325
0.1989489489489485 	300 	0 	101325
0.2014514514514509 	300.0000000000001 	0 	101325
0.2039539539539535 	300.0000000000001 	0 	101325
0.2064564564564559 	300 	0 	101325
0.2089589589589585 	300 	0 	101325
0.211461461461461 	299.9999999999999 	0 	101325
0.2139639639639635 	300 	0 	101325
0.2164664664664659 	300 	0 	101325
0.2189689689689684 	300.0000000000001 	0 	101325
0.221471471471471 	299.9999999999999 	0 	101325
0.2239739739739735 	299.9999999999999 	0 	101325
0.226476476476476 	300 	0 	101325
0.2289789789789785 	300 	0 	101325
0.231481481481481 	300 	0 	101325
0.2339839839839835 	300 	0 	101325
0.236486486486486 	300 	0 	101325
0.2389889889889885 	300 	0 	101325
0.241491491491491 	300 	0 	101325
0.2439939939939935 	300 	0 	101325
0.246496496496496 	300 	0 	101325
0.2489989989989985 	300 	0 	101325
0.251501501501501 	300 	0 	101325
0.2540040040040035 	300 	0 	101325
0.256506506506506 	300 	0 	101325
0.2590090090090086 	299.9999999999999 	0 	101325
0.261511511511511 	300 	0 	101325
0.2640140140140135 	300 	0 	101325
0.2665165165165161 	300 	0 	101325
0.2690190190190185 	300 	0 	101325
0.271521521521521 	300 	0 	101325
0.2740240240240235 	300 	0 	101325
0.276526526526526 	300 	0 	101325
0.2790290290290286 	300 	0 	101325
0.281531531531531 	299.9999999999999 	0 	101325
0.2840340340340335 	299.9999999999999 	0 	101325
0.2865365365365361 	300 	0 	101325
0.2890390390390385 	300 	0 	101325
0.291541541541541 	300 	0 	101325
0.2940440440440436 	300 	0 	101325
0.296546546546546 	300 	0 	101325
0.2990490490490486 	300 	0 	101325
0.3015515515515511 	300 	0 	101325
0.3040540540540535 	300 	0 	101325
0.3065565565565562 	300 	0 	101325
0.3090590590590585 	300 	0 	101325
0.3115615615615611 	300 	0 	101325
0.3140640640640635 	300 	0 	101325
0.316566566566566 	300 	0 	101325
0.3190690690690687 	300 	0 	101325
0.3215715715715711 	300.0000000000001 	0 	101325
0.3240740740740735 	300 	0 	101325
0.326576576576576 	299.9999999999999 	0 	101325
0.3290790790790786 	300 	0 	101325
0.3315815815815811 	300 	0 	101325
0.3340840840840836 	300 	0 	101325
0.3365865865865861 	300 	0 	101325
0.3390890890890886 	300 	0 	101325
0.3415915915915911 	300.0000000000001 	0 	101325
0.3440940940940935 	300 	0 	101325
0.3465965965965962 	300.0000000000001 	0 	101325
0.3490990990990985 	300 	0 	101325
0.3516016016016011 	300 	0 	101325
0.3541041041041035 	300 	0 	101325
0.3566066066066061 	300 	0 	101325
0.3591091091091085 	300 	0 	101325
0.3616116116116112 	300 	0 	101325
0.3641141141141137 	300 	0 	101325
0.3666166166166161 	299.9999999999999 	0 	101325
0.3691191191191185 	300 	0 	101325
0.371621621621621 	299.9999999999999 	0 	101325
0.3741241241241237 	300 	0 	101325
0.3766266266266261 	300 	0 	101325
0.3791291291291286 	300 	0 	101325
0.3816316316316311 	300 	0 	101325
0.3841341341341336 	300 	0 	101325
0.3866366366366362 	300 	0 	101325
0.3891391391391387 	300 	0 	101325
0.391641641641641 	300 	0 	101325
0.3941441441441436 	300 	0 	101325
0.3966466466466462 	300 	0 	101325
0.3991491491491486 	300 	0 	101325
0.4016516516516512 	300 	0 	101325
0.4041541541541536 	300 	0 	101325
0.4066566566566561 	300 	0 	101325
0.4091591591591587 	300 	0 	101325
0.4116616616616612 	300 	0 	101325
0.4141641641641635 	300 	0 	101325
0.4166666666666662 	300 	0 	101325
0.4191691691691687 	300 	0 	101325
0.421671671671671 	300.0000000000001 	0 	101325
0.4241741741741737 	300 	0 	101325
0.4266766766766761 	300 	0 	101325
0.4291791791791785 	300 	0 	101325
0.4316816816816812 	300 	0 	101325
0.4341841841841836 	300 	0 	101325
0.4366866866866862 	300 	0 	101325
0.4391891891891885 	300.0000000000001 	0 	101325
0.4416916916916913 	300 	0 	101325
0.4441941941941936 	300 	0 	101325
0.4466966966966961 	300 	0 	101325
0.4491991991991987 	299.9999999999999 	0 	101325
0.4517017017017012 	300 	0 	101325
0.4542042042042035 	300 	0 	101325
0.4567067067067062 	300 	0 	101325
0.4592092092092087 	300 	0 	101325
0.4617117117117112 	300 	0 	101325
0.4642142142142137 	299.9999999999999 	0 	101325
0.4667167167167162 	300.0000000000001 	0 	101325
0.4692192192192187 	300 	0 	101325
0.4717217217217212 	300 	0 	101325
0.4742242242242236 	300 	0 	101325
0.4767267267267262 	299.9999999999999 	0 	101325
0.4792292292292287 	300.0000000000001 	0 	101325
0.4817317317317312 	300 	0 	101325
0.4842342342342336 	300 	0 	101325
0.4867367367367362 	300 	0 	101325
0.4892392392392387 	300 	0 	101325
0.4917417417417412 	300.0000000000001 	0 	101325
0.4942442442442437 	300 	0 	101325
0.4967467467467462 	300 	0 	101325
0.4992492492492487 	300 	0 	101325
0.5017517517517511 	299.9999999999999 	0 	101325
0.5042542542542537 	300 	0 	101325
0.5067567567567562 	300 	0 	101325
0.5092592592592589 	300 	0 	101325
0.5117617617617611 	300.0000000000001 	0 	101325
0.5142642642642637 	300.0000000000001 	0 	101325
0.5167667667667663 	300.0000000000001 	0 	101325
0.5192692692692688 	300 	0 	101325
0.5217717717717714 	300 	0 	101325
0.5242742742742736 	300 	0 	101325
0.5267767767767763 	300 	0 	101325
0.5292792792792789 	300 	0 	101325
0.5317817817817813 	300 	0 	101325
0.5342842842842837 	300 	0 	101325
0.5367867867867864 	300 	0 	101325
0.5392892892892888 	300 	0 	101325
0.5417917917917912 	300 	0 	101325
0.5442942942942938 	300 	0 	101325
0.5467967967967964 	300 	0 	101325
0.5492992992992988 	300 	0 	101325
0.5518018018018012 	300.0000000000001 	0 	101325
0.5543043043043039 	300 	0 	101325
0.5568068068068063 	300.0000000000001 	0 	101325
0.5593093093093087 	300 	0 	101325
0.5618118118118114 	300 	0 	101325
0.5643143143143137 	300.0000000000001 	0 	101325
0.5668168168168163 	300.0000000000001 	0 	101325
0.5693193193193188 	300 	0 	101325
0.5718218218218213 	300 	0 	101325
0.5743243243243239 	299.9999999999999 	0 	101325
0.5768268268268262 	300 	0 	101325
0.5793293293293288 	300 	0 	101325
0.5818318318318314 	300 	0 	101325
0.5843343343343338 	300.0000000000001 	0 	101325
0.5868368368368363 	300.0000000000001 	0 	101325
0.5893393393393387 	300 	0 	101325
0.5918418418418413 	300 	0 	101325
0.5943443443443439 	300 	0 	101325
0.5968468468468463 	300.0000000000001 	0 	101325
0.5993493493493487 	300 	0 	101325
0.6018518518518514 	300 	0 	101325
0.6043543543543537 	300.0000000000001 	0 	101325
0.6068568568568564 	300.0000000000001 	0 	101325
0.6093593593593587 	300 	0 	101325
0.6118618618618614 	300 	0 	101325
0.6143643643643638 	299.9999999999999 	0 	101325
0.6168668668668662 	300 	0 	101325
0.6193693693693688 	300 	0 	101325
0.6218718718718714 	300 	0 	101325
0.6243743743743737 	300 	0 	101325
0.6268768768768762 	300 	0 	101325
0.629379379379379 	299.9999999999999 	0 	101325
0.6318818818818812 	300 	0 	101325
0.6343843843843838 	300 	0 	101325
0.6368868868868864 	300 	0 	101325
0.6393893893893888 	300 	0 	101325
0.6418918918918912 	300 	0 	101325
0.6443943943943939 	300 	0 	101325
0.6468968968968963 	300 	0 	101325
0.6493993993993988 	299.9999999999999 	0 	101325
0.6519019019019012 	300 	0 	101325
0.6544044044044038 	300 	0 	101325
0.6569069069069065 	300 	0 	101325
0.6594094094094087 	300 	0 	101325
0.6619119119119113 	300 	0 	101325
0.664414414414414 	300 	0 	101325
0.6669169169169162 	300 	0 	101325
0.6694194194194188 	300 	0 	101325
0.6719219219219214 	300 	0 	101325
0.674424424424424 	300 	0 	101325
0.6769269269269262 	300 	0 	101325
0.679429429429429 	299.9999999999999 	0 	101325
0.6819319319319311 	299.9999999999999 	0 	101325
0.6844344344344341 	300 	0 	101325
0.686936936936936 	300 	0 	101325
0.6894394394394392 	300 	0 	101325
0.6919419419419413 	300 	0 	101325
0.694444444444444 	300 	0 	101325
0.6969469469469463 	300 	0 	101325
0.6994494494494489 	300 	0 	101325
0.7019519519519515 	300 	0 	101325
0.7044544544544538 	300 	0 	101325
0.7069569569569564 	300 	0 	101325
0.7094594594594589 	300 	0 	101325
0.7119619619619615 	300 	0 	101325
0.7144644644644638 	300 	0 	101325
0.7169669669669665 	300 	0 	101325
0.7194694694694688 	300 	0 	101325
0.7219719719719715 	300 	0 	101325
0.7244744744744737 	300 	0 	101325
0.7269769769769764 	300.0000000000001 	0 	101325
0.7294794794794791 	300 	0 	101325
0.7319819819819813 	299.9999999999999 	0 	101325
0.7344844844844839 	300 	0 	101325
0.7369869869869864 	300 	0 	101325
0.739489489489489 	300.0000000000001 	0 	101325
0.7419919919919914 	300 	0 	101325
0.7444944944944939 	300 	0 	101325
0.7469969969969963 	300 	0 	101325
0.7494994994994989 	299.9999999999999 	0 	101325
0.7520020020020015 	300 	0 	101325
0.7545045045045039 	300 	0 	101325
0.7570070070070062 	300 	0 	101325
0.7595095095095092 	300 	0 	101325
0.7620120120120112 	300 	0 	101325
0.7645145145145138 	300 	0 	101325
0.7670170170170165 	300 	0 	101325
0.7695195195195191 	300 	0 	101325
0.7720220220220213 	300 	0 	101325
0.7745245245245239 	300 	0 	101325
0.7770270270270263 	300 	0 	101325
0.779529529529529 	300.0000000000001 	0 	101325
0.7820320320320313 	300 	0 	101325
0.784534534534534 	300 	0 	101325
0.7870370370370364 	300 	0 	101325
0.7895395395395389 	300 	0 	101325
0.7920420420420413 	300 	0 	101325
0.794544544544544 	300 	0 	101325
0.7970470470470463 	300 	0 	101325
0.799549549549549 	300.0000000000001 	0 	101325
0.8020520520520515 	300 	0 	101325
0.8045545545545539 	300 	0 	101325
0.8070570570570563 	300.0000000000001 	0 	101325
0.8095595595595589 	300 	0 	101325
0.8120620620620614 	300 	0 	101325
0.8145645645645638 	299.9999999999999 	0 	101325
0.8170670670670666 	300.0000000000001 	0 	101325
0.8195695695695689 	300.0000000000001 	0 	101325
0.8220720720720714 	300 	0 	101325
0.8245745745745739 	300 	0 	101325
0.8270770770770765 	299.9999999999999 	0 	101325
0.8295795795795788 	300 	0 	101325
0.8320820820820815 	300 	0 	101325
0.834584584584584 	299.9999999999999 	0 	101325
0.8370870870870865 	300 	0 	101325
0.8395895895895891 	300 	0 	101325
0.8420920920920915 	300 	0 	101325
0.844594594594594 	300 	0 	101325
0.8470970970970964 	300 	0 	101325
0.8495995995995991 	300 	0 	101325
0.8521021021021015 	300 	0 	101325
0.8546046046046039 	300 	0 	101325
0.8571071071071066 	300 	0 	101325
0.8596096096096089 	300 	0 	101325
0.8621121121121116 	300 	0 	101325
0.8646146146146139 	300 	0 	101325
0.8671171171171166 	300 	0 	101325
0.8696196196196189 	300 	0 	101325
0.8721221221221216 	300 	0 	101325
0.874624624624624 	300 	0 	101325
0.8771271271271264 	300 	0 	101325
0.879629629629629 	300 	0 	101325
0.8821321321321317 	300 	0 	101325
0.8846346346346339 	299.9999999999999 	0 	101325
0.8871371371371364 	300 	0 	101325
0.8896396396396391 	300 	0 	101325
0.8921421421421414 	299.9999999999999 	0 	101325
0.8946446446446441 	300 	0 	101325
0.8971471471471464 	300 	0 	101325
0.8996496496496489 	300 	0 	101325
0.9021521521521517 	300 	0 	101325
0.9046546546546541 	300 	0 	101325
0.9071571571571564 	300 	0 	101325
0.9096596596596589 	300 	0 	101325
0.9121621621621616 	300 	0 	101325
0.9146646646646639 	299.9999999999999 	0 	101325
0.9171671671671666 	300 	0 	101325
0.9196696696696689 	300 	0 	101325
0.9221721721721714 	300 	0 	101325
0.9246746746746741 	300 	0 	101325
0.9271771771771765 	300 	0 	101325
0.9296796796796791 	300 	0 	101325
0.9321821821821816 	300 	0 	101325
0.9346846846846838 	300 	0 	101325
0.9371871871871866 	299.9999999999999 	0 	101325
0.9396896896896891 	300 	0 	101325
0.9421921921921914 	300 	0 	101325
0.9446946946946939 	299.9999999999999 	0 	101325
0.9471971971971965 	300 	0 	101325
0.9496996996996991 	300.0000000000001 	0 	101325
0.9522022022022016 	300.0000000000001 	0 	101325
0.9547047047047038 	300 	0 	101325
0.9572072072072064 	300 	0 	101325
0.9597097097097093 	300.0000000000001 	0 	101325
0.9622122122122114 	300.0000000000001 	0 	101325
0.964714714714714 	300 	0 	101325
0.9672172172172167 	300 	0 	101325
0.969719719719719 	300 	0 	101325
0.9722222222222214 	300 	0 	101325
0.9747247247247239 	300 	0 	101325
0.9772272272272267 	300 	0 	101325
0.9797297297297292 	300 	0 	101325
0.9822322322322313 	300 	0 	101325
0.9847347347347344 	300 	0 	101325
0.9872372372372363 	300 	0 	101325
0.9897397397397389 	300 	0 	101325
0.9922422422422417 	300.0000000000001 	0 	101325
0.9947447447447441 	300.0000000000001 	0 	101325
0.9972472472472468 	300 	0 	101325
0.999749749749749 	300 	0 	101325
1.002252252252252 	300 	0 	101325
1.004754754754754 	300 	0 	101325
1.007257257257256 	300 	0 	101325
1.009759759759759 	300 	0 	101325
1.012262262262261 	300 	0 	101325
1.014764764764764 	300.0000000000001 	0 	101325
1.017267267267267 	300 	0 	101325
1.019769769769769 	300 	0 	101325
1.022272272272272 	300 	0 	101325
1.024774774774774 	300 	0 	101325
1.027277277277277 	300 	0 	101325
1.029779779779779 	300 	0 	101325
1.032282282282282 	300 	0 	101325
1.034784784784784 	300.0000000000001 	0 	101325
1.037287287287286 	300 	0 	101325
1.039789789789789 	300.0000000000001 	0 	101325
1.042292292292291 	300.0000000000001 	0 	101325
1.044794794794794 	300 	0 	101325
1.047297297297296 	300 	0 	101325
1.049799799799799 	300 	0 	101325
1.052302302302302 	300 	0 	101325
1.054804804804804 	300.0000000000001 	0 	101325
1.057307307307306 	300 	0 	101325
1.059809809809809 	300 	0 	101325
1.062312312312312 	300 	0 	101325
1.064814814814814 	300 	0 	101325
1.067317317317317 	300.0000000000001 	0 	101325
1.069819819819819 	300 	0 	101325
1.072322322322321 	300 	0 	101325
1.074824824824824 	300 	0 	101325
1.077327327327327 	300 	0 	101325
1.079829829829829 	300 	0 	101325
1.082332332332332 	300.0000000000001 	0 	101325
1.084834834834834 	300 	0 	101325
1.087337337337337 	300 	0 	101325
1.089839839839839 	300 	0 	101325
1.092342342342342 	300.0000000000001 	0 	101325
1.094844844844844 	300.0000000000001 	0 	101325
1.097347347347347 	300 	0 	101325
1.099849849849849 	300 	0 	101325
1.102352352352352 	300 	0 	101325
1.104854854854854 	300 	0 	101325
1.107357357357357 	300 	0 	101325
1.109859859859859 	300 	0 	101325
1.112362362362362 	300 	0 	101325
1.114864864864865 	300 	0 	101325
1.117367367367367 	300 	0 	101325
1.119869869869869 	300 	0 	101325
1.122372372372372 	300 	0 	101325
1.124874874874874 	300 	0 	101325
1.127377377377377 	300 	0 	101325
1.129879879879879 	300 	0 	101325
1.132382382382382 	300 	0 	101325
1.134884884884884 	300.0000000000001 	0 	101325
1.137387387387387 	300 	0 	101325
1.139889889889889 	300 	0 	101325
1.142392392392392 	300 	0 	101325
1.144894894894894 	300 	0 	101325
1.147397397397397 	300 	0 	101325
1.149899899899899 	300 	0 	101325
1.152402402402402 	300 	0 	101325
1.154904904904904 	300 	0 	101325
1.157407407407407 	300 	0 	101325
1.159909909909909 	300 	0 	101325
1.162412412412412 	300 	0 	101325
1.164914914914914 	300 	0 	101325
1.167417417417417 	300 	0 	101325
1.169919919919919 	300.0000000000001 	0 	101325
1.172422422422422 	300 	0 	101325
1.174924924924925 	299.9999999999999 	0 	101325
1.177427427427427 	300 	0 	101325
1.179929929929929 	300 	0 	101325
1.182432432432432 	300 	0 	101325
1.184934934934934 	300 	0 	101325
1.187437437437437 	300 	0 	101325
1.189939939939939 	300 	0 	101325
1.192442442442442 	300 	0 	101325
1.194944944944944 	300 	0 	101325
1.197447447447447 	300.0000000000001 	0 	101325
1.199949949949949 	300 	0 	101325
1.202452452452452 	300 	0 	101325
1.204954954954955 	300 	0 	101325
1.207457457457457 	300.0000000000001 	0 	101325
1.20995995995996 	300 	0 	101325
1.212462462462462 	300 	0 	101325
1.214964964964964 	300 	0 	101325
1.217467467467467 	300.0000000000001 	0 	101325
1.219969969969969 	300.0000000000001 	0 	101325
1.222472472472472 	300 	0 	101325
1.224974974974975 	300 	0 	101325
1.227477477477477 	300 	0 	101325
1.229979979979979 	300.0000000000001 	0 	101325
1.232482482482482 	300 	0 	101325
1.234984984984984 	300 	0 	101325
1.237487487487487 	300 	0 	101325
1.239989989989989 	300 	0 	101325
1.242492492492492 	300 	0 	101325
1.244994994994994 	300 	0 	101325
1.247497497497497 	300 	0 	101325
1.249999999999999 	300 	0 	101325
