-1.25 	300 	0.03047685363690954 	101312.5655056418
-1.247497497497497 	299.9890168288567 	0.02903744477502241 	101313.2217492606
-1.244994994994995 	299.9905790552048 	0.02710921641370376 	101313.8823325961
-1.242492492492492 	299.9911572555018 	0.02568531795700128 	101314.5461484294
-1.23998998998999 	299.9917157588677 	0.02397475384203789 	101315.2070988929
-1.237487487487487 	299.9922820707741 	0.02236851605502001 	101315.8765775599
-1.234984984984985 	299.9928529094119 	0.02072031641657035 	101316.5513809823
-1.232482482482482 	299.9934179063462 	0.01908060319491749 	101317.219279946
-1.22997997997998 	299.993980497571 	0.01745084876436408 	101317.8843423387
-1.227477477477477 	299.9945456914111 	0.0158152559464732 	101318.5524875384
-1.224974974974975 	299.9951127194191 	0.01416700159435624 	101319.2228024942
-1.222472472472472 	299.9956831518181 	0.01251066381426956 	101319.8971448315
-1.21996996996997 	299.9962609974386 	0.01083708887566696 	101320.5802570951
-1.217467467467467 	299.9968433238452 	0.009149235515429205 	101321.2686651426
-1.214964964964965 	299.9974222568424 	0.007478245189259537 	101321.9530590314
-1.212462462462462 	299.9979923909472 	0.005829350102377878 	101322.6270544961
-1.20995995995996 	299.9985553705155 	0.004195180127029297 	101323.2925984731
-1.207457457457457 	299.9991198217893 	0.002560379808693726 	101323.9598899742
-1.204954954954955 	299.9996894050876 	0.0009081312231936801 	101324.6332552377
-1.202452452452452 	300.0002645824448 	0.0008611010614345879 	101325.3132337227
-1.19994994994995 	300.0008420212424 	0.002425991728330908 	101325.9958843399
-1.197447447447447 	300.0014173009184 	0.004092753073082118 	101326.6759864942
-1.194944944944945 	300.0019914240059 	0.00575608167227351 	101327.3547250049
-1.192442442442442 	300.002564773829 	0.007417114926158723 	101328.0325526251
-1.18993993993994 	300.0031374830182 	0.009076249785854529 	101328.7096261805
-1.187437437437437 	300.003709545929 	0.01073348604922645 	101329.3859388537
-1.184934934934935 	300.0042808940833 	0.0123886378803694 	101330.0614095955
-1.182432432432432 	300.0048514348052 	0.01404144925467214 	101330.7359287307
-1.17992992992993 	300.0054210669788 	0.01569163865888099 	101331.4093770142
-1.177427427427427 	300.0059896871505 	0.01733891082418709 	101332.0816326714
-1.174924924924925 	300.0065571925901 	0.01898296374141013 	101332.7525735656
-1.172422422422422 	300.0071234811916 	0.02062349598265806 	101333.4220776613
-1.16991991991992 	300.0076884498024 	0.0222602071696153 	101334.0900229864
-1.167417417417417 	300.0082519933637 	0.02389279473859852 	101334.7562875144
-1.164914914914915 	300.0088140068782 	0.02552095619106679 	101335.4207491777
-1.162412412412412 	300.0093743884798 	0.02714439253679301 	101336.0832859911
-1.15990990990991 	300.0099330386465 	0.02876280623104293 	101336.7437761878
-1.157407407407407 	300.0104898565652 	0.03037589838265077 	101337.402098311
-1.154904904904904 	300.0110447375598 	0.03198337152356195 	101338.058131328
-1.152402402402403 	300.0115975751663 	0.03358493151210217 	101338.7117546446
-1.1498998998999 	300.0121482654092 	0.03518028393666599 	101339.3628481007
-1.147397397397397 	300.0126967085184 	0.03676913373836393 	101340.0112919758
-1.144894894894895 	300.0132428079683 	0.03835118921029788 	101340.6569670243
-1.142392392392392 	300.013786467443 	0.03992616116891021 	101341.2997545034
-1.13988988988989 	300.0143275886228 	0.04149375917402871 	101341.9395362109
-1.137387387387387 	300.0148660708563 	0.04305369420230497 	101342.5761945519
-1.134884884884885 	300.0154018124113 	0.04460568064958596 	101343.2096125006
-1.132382382382382 	300.015934712469 	0.04614943352460499 	101343.8396736144
-1.12987987987988 	300.0164646714138 	0.04768466824018654 	101344.4662620288
-1.127377377377377 	300.0169915912447 	0.04921110335056801 	101345.089262578
-1.124874874874875 	300.0175153753139 	0.05072845949994152 	101345.708560855
-1.122372372372372 	300.0180359277912 	0.05223645675588615 	101346.3240431083
-1.11986986986987 	300.0185531536354 	0.05373481795305325 	101346.9355962343
-1.117367367367367 	300.0190669581453 	0.05522326939652324 	101347.5431077722
-1.114864864864865 	300.0195772472958 	0.05670153726025621 	101348.1464660576
-1.112362362362362 	300.0200839276811 	0.05816934927590799 	101348.7455602839
-1.10985985985986 	300.0205869064226 	0.0596264368670604 	101349.3402804955
-1.107357357357357 	300.0210860915078 	0.06107253289718495 	101349.930517533
-1.104854854854855 	300.0215813912004 	0.06250737123376746 	101350.5161629503
-1.102352352352353 	300.0220727146079 	0.06393068898664112 	101351.0971091675
-1.09984984984985 	300.0225599716807 	0.06534222547045658 	101351.6732494631
-1.097347347347347 	300.0230430728498 	0.06674172075266356 	101352.2444780537
-1.094844844844845 	300.0235219295107 	0.06812891812999514 	101352.8106900885
-1.092342342342342 	300.0239964537821 	0.06950356389176453 	101353.3717815372
-1.08983983983984 	300.0244665585645 	0.07086540479007147 	101353.9276493131
-1.087337337337337 	300.0249321573802 	0.07221419047019295 	101354.4781911758
-1.084834834834835 	300.0253931646746 	0.07354967428778925 	101355.0233058904
-1.082332332332332 	300.0258494959367 	0.07487161041966175 	101355.5628933216
-1.07982982982983 	300.0263010672114 	0.07617975550442861 	101356.0968543015
-1.077327327327327 	300.0267477956356 	0.07747387034438664 	101356.6250907886
-1.074824824824825 	300.0271895992694 	0.07875371750122784 	101357.147505766
-1.072322322322323 	300.0276263970655 	0.08001906186175761 	101357.6640033488
-1.06981981981982 	300.0280581089967 	0.08126967180583643 	101358.1744887861
-1.067317317317317 	300.0284846556739 	0.08250531788223518 	101358.678868314
-1.064814814814815 	300.028905959143 	0.08372577331586298 	101359.1770494893
-1.062312312312312 	300.0293219421659 	0.08493081507759867 	101359.6689409432
-1.05980980980981 	300.0297325283006 	0.08612022238685652 	101360.1544523671
-1.057307307307307 	300.0301376424708 	0.08729377634889017 	101360.6334947517
-1.054804804804805 	300.0305372103044 	0.08845126209579182 	101361.1059800859
-1.052302302302302 	300.0309311585373 	0.08959246829132921 	101361.5718217344
-1.0497997997998 	300.0313194149361 	0.09071718523569604 	101362.0309343703
-1.047297297297297 	300.0317019084447 	0.09182520662435818 	101362.4832336579
-1.044794794794795 	300.0320785690803 	0.09291632989241988 	101362.9286366383
-1.042292292292292 	300.0324493272592 	0.09399035430267202 	101363.3670614103
-1.03978978978979 	300.032814114879 	0.09504708297529137 	101363.7984274818
-1.037287287287287 	300.0331728658638 	0.09608632312018955 	101364.2226560763
-1.034784784784785 	300.0335255145374 	0.09710788361496003 	101364.6396692055
-1.032282282282283 	300.0338719953945 	0.09811157707170205 	101365.0493901546
-1.02977977977978 	300.0342122444811 	0.09909721984737063 	101365.4517437493
-1.027277277277277 	300.034546200254 	0.100064630303534 	101365.8466559502
-1.024774774774775 	300.0348738023392 	0.1010136315882565 	101366.2340546043
-1.022272272272272 	300.0351949896351 	0.101944050668131 	101366.6138687587
-1.01976976976977 	300.035509701827 	0.1028557160434642 	101366.9860283373
-1.017267267267267 	300.0358178826368 	0.1037484605591655 	101367.3504652349
-1.014764764764765 	300.0361194773767 	0.1046221205898796 	101367.7071123325
-1.012262262262262 	300.0364144291389 	0.1054765347048038 	101368.0559036696
-1.00975975975976 	300.0367026811916 	0.1063115466781835 	101368.3967756507
-1.007257257257257 	300.0369841807692 	0.1071270042002494 	101368.7296657343
-1.004754754754755 	300.0372588802154 	0.1079227577067041 	101369.0545128499
-1.002252252252252 	300.0375267319102 	0.1086986618819009 	101369.3712579341
-0.9997497497497498 	300.0377876823135 	0.1094545737046786 	101369.6798421237
-0.9972472472472473 	300.0380416777524 	0.1101903531069281 	101369.9802081893
-0.9947447447447449 	300.0382886729845 	0.1109058654077355 	101370.2723014533
-0.9922422422422421 	300.0385286295291 	0.1116009788589594 	101370.5560676486
-0.9897397397397399 	300.0387615078141 	0.1122755652908978 	101370.8314544502
-0.9872372372372376 	300.0389872605851 	0.1129295020866505 	101371.0984120871
-0.9847347347347346 	300.0392058363081 	0.1135626690173308 	101371.3568909413
-0.9822322322322323 	300.039417192157 	0.1141749498501655 	101371.6068436539
-0.9797297297297296 	300.0396212990192 	0.1147662343630465 	101371.8482256548
-0.9772272272272275 	300.0398181302255 	0.1153364136913221 	101372.0809918314
-0.9747247247247248 	300.0400076506475 	0.1158853815737061 	101372.3050987468
-0.9722222222222224 	300.0401898154882 	0.1164130378316364 	101372.5205060759
-0.9697197197197196 	300.0403645773805 	0.1169192845341366 	101372.7271732305
-0.9672172172172175 	300.040531901099 	0.1174040276502003 	101372.9250615742
-0.9647147147147147 	300.0406917682869 	0.1178671803208533 	101373.1141363463
-0.9622122122122124 	300.0408441641561 	0.1183086567489026 	101373.2943621552
-0.9597097097097099 	300.0409890656859 	0.1187283732011451 	101373.4657042815
-0.9572072072072073 	300.0411264388798 	0.1191262536705884 	101373.6281322999
-0.9547047047047047 	300.0412562422997 	0.1195022242339556 	101373.7816159982
-0.9522022022022023 	300.0413784386699 	0.1198562128968096 	101373.9261252568
-0.9496996996996998 	300.0414930077242 	0.1201881572124763 	101374.0616349487
-0.9471971971971973 	300.0415999423095 	0.1204979981446313 	101374.188121441
-0.9446946946946947 	300.041699236778 	0.1207856751664359 	101374.3055593981
-0.9421921921921923 	300.0417908818496 	0.1210511353307157 	101374.4139270408
-0.93968968968969 	300.0418748589064 	0.1212943319506421 	101374.5132059292
-0.9371871871871872 	300.0419511385257 	0.121515216876642 	101374.603376069
-0.9346846846846848 	300.0420196908961 	0.1217137467797926 	101374.6844191772
-0.9321821821821823 	300.0420804952854 	0.1218898876958653 	101374.7563220073
-0.9296796796796799 	300.0421335397929 	0.1220436074910334 	101374.81907176
-0.9271771771771771 	300.0421788195016 	0.1221748742327788 	101374.8726546051
-0.9246746746746748 	300.0422163375063 	0.1222836636628204 	101374.9170605774
-0.9221721721721724 	300.0422461011053 	0.1223699598015063 	101374.9522839337
-0.9196696696696698 	300.0422681128243 	0.1224337468618294 	101374.9783181398
-0.9171671671671672 	300.0422823686768 	0.1224750083808868 	101374.9951556599
-0.9146646646646649 	300.0422888636871 	0.1224937377786659 	101375.0027938937
-0.9121621621621623 	300.0422875936565 	0.1224899356982112 	101375.0012344949
-0.9096596596596597 	300.042278547905 	0.122463594746813 	101374.9904735717
-0.9071571571571573 	300.0422617184089 	0.1224147095626266 	101374.9705072176
-0.9046546546546547 	300.0422371087338 	0.122343298063008 	101374.941343754
-0.9021521521521524 	300.0422047269755 	0.1222493845563188 	101374.9029959507
-0.8996496496496498 	300.0421645717073 	0.1221329725146519 	101374.8554632483
-0.8971471471471473 	300.0421166431151 	0.1219940713799478 	101374.7987458701
-0.894644644644645 	300.0420609615836 	0.1218327289541483 	101374.7328672791
-0.892142142142142 	300.0419975453773 	0.1216489856983716 	101374.6578478854
-0.8896396396396397 	300.0419263892371 	0.1214428387926369 	101374.5736802354
-0.8871371371371374 	300.0418475002318 	0.1212143151428201 	101374.4803716303
-0.8846346346346349 	300.0417609183927 	0.1209635055455618 	101374.3779683093
-0.8821321321321324 	300.0416666634194 	0.1206904572491797 	101374.2664927613
-0.8796296296296297 	300.0415647179603 	0.1203951496951723 	101374.1459239162
-0.8771271271271271 	300.0414551013909 	0.1200776435548859 	101374.016284291
-0.8746246246246248 	300.0413378803456 	0.1197380891667695 	101373.8776523206
-0.8721221221221224 	300.0412130703568 	0.119376528585259 	101373.7300462173
-0.8696196196196196 	300.0410806337979 	0.1189929068692723 	101373.573421376
-0.8671171171171175 	300.0409406071855 	0.1185873283373707 	101373.407820922
-0.8646146146146148 	300.0407930944886 	0.118160024934605 	101373.2333678547
-0.8621121121121121 	300.0406381046714 	0.1177110258207514 	101373.0500725574
-0.8596096096096097 	300.0404755644836 	0.1172402060515532 	101372.8578484858
-0.857107107107107 	300.0403055249259 	0.1167477105160174 	101372.6567562243
-0.8546046046046049 	300.0401281479925 	0.1162338985779661 	101372.4469871731
-0.8521021021021022 	300.039943446006 	0.1156988034201415 	101372.2285558413
-0.8495995995995997 	300.0397512835527 	0.1151421693877774 	101372.0013022358
-0.8470970970970974 	300.0395517030409 	0.114564136209906 	101371.7652766869
-0.8445945945945946 	300.0393449563034 	0.1139652662825381 	101371.5207769658
-0.8420920920920922 	300.039131104303 	0.113345690782765 	101371.2678749755
-0.8395895895895897 	300.0389099175992 	0.112704942798344 	101371.0062995795
-0.8370870870870872 	300.0386813538627 	0.1120429934471735 	101370.7360009434
-0.8345845845845846 	300.0384457740316 	0.1113606676155003 	101370.457405995
-0.8320820820820823 	300.0382034032551 	0.1106584491264306 	101370.1707808156
-0.8295795795795798 	300.0379539343065 	0.1099356715485544 	101369.8757618779
-0.8270770770770772 	300.0376970809643 	0.1091917761059508 	101369.5720110677
-0.8245745745745746 	300.0374332240175 	0.1084276792658 	101369.259979156
-0.8220720720720721 	300.0371629406641 	0.1076446619668366 	101368.9403484067
-0.8195695695695699 	300.0368860585314 	0.1068423089582542 	101368.6129145501
-0.817067067067067 	300.0366018825404 	0.1060191106924889 	101368.2768559147
-0.8145645645645651 	300.0363104287101 	0.1051752198413619 	101367.9321920924
-0.8120620620620621 	300.0360126597836 	0.1043128668146514 	101367.5800617015
-0.8095595595595597 	300.0357091011425 	0.1034331883862469 	101367.221085398
-0.8070570570570572 	300.0353989167496 	0.1025342428665592 	101366.8542741344
-0.8045545545545546 	300.0350811186831 	0.101613872240298 	101366.4784602406
-0.8020520520520523 	300.034756292499 	0.1006735792790591 	101366.0943372367
-0.7995495495495494 	300.0344260818617 	0.0997171836017727 	101365.7038487088
-0.7970470470470474 	300.0340908466222 	0.09874540500918336 	101365.3074189015
-0.7945445445445446 	300.0337489000115 	0.09775426833478831 	101364.9030526191
-0.7920420420420423 	300.0333988085295 	0.09674057700924842 	101364.4890560509
-0.7895395395395397 	300.0330417512541 	0.09570731052658812 	101364.0668251167
-0.7870370370370371 	300.0326803788085 	0.09466073807930693 	101363.6394938469
-0.7845345345345348 	300.0323152792739 	0.09360207615781228 	101363.2077555208
-0.7820320320320323 	300.0319438080608 	0.09252493345744014 	101362.7684818633
-0.7795295295295296 	300.0315633238578 	0.09142317159366706 	101362.3185514075
-0.7770270270270272 	300.0311749739271 	0.09029983226133063 	101361.8593233786
-0.7745245245245247 	300.0307829162671 	0.08916501550567331 	101361.3957147641
-0.7720220220220222 	300.0303893790287 	0.08802390637226867 	101360.9303574518
-0.7695195195195199 	300.0299914971359 	0.08686932880268305 	101360.4598610034
-0.767017017017017 	300.029584232082 	0.08568907541396539 	101359.9782685104
-0.7645145145145147 	300.0291664463602 	0.08448070524313939 	101359.4842390342
-0.7620120120120122 	300.0287430058062 	0.08325643288482694 	101358.9835288801
-0.7595095095095097 	300.0283199170792 	0.08203098495036062 	101358.4832385975
-0.7570070070070072 	300.0278975126782 	0.0808048701018384 	101357.9837563827
-0.7545045045045048 	300.0274693693519 	0.07956195695939826 	101357.4774847412
-0.7520020020020022 	300.0270287182726 	0.0782855638298879 	101356.9564231844
-0.7494994994994997 	300.0265759331356 	0.0769770275670129 	101356.4210192781
-0.7469969969969972 	300.0261190932026 	0.07565686401631987 	101355.880829001
-0.7444944944944945 	300.0256664838427 	0.07434581354782858 	101355.3456458173
-0.7419919919919924 	300.0252182095256 	0.07304380288763072 	101354.8155865425
-0.7394894894894897 	300.024765309523 	0.07172790414642542 	101354.2800524447
-0.7369869869869872 	300.0242976735921 	0.0703725423622189 	101353.727092269
-0.7344844844844846 	300.0238136497621 	0.06897389117744263 	101353.1547604473
-0.7319819819819822 	300.023322438143 	0.0675558061329922 	101352.5739403222
-0.7294794794794797 	300.0228367474398 	0.06615092183778291 	101351.9996568668
-0.7269769769769773 	300.0223619118266 	0.06477272345092282 	101351.4382092987
-0.7244744744744747 	300.0218908284392 	0.0634025717334335 	101350.8811920728
-0.721971971971972 	300.0214091080408 	0.0620030947757348 	101350.3115909385
-0.7194694694694695 	300.0209063964542 	0.06054758925348602 	101349.717169988
-0.7169669669669674 	300.0203849361888 	0.05904224253966554 	101349.1005901735
-0.7144644644644647 	300.0198586483554 	0.05752367261476213 	101348.4783160542
-0.711961961961962 	300.019343336557 	0.05603331957293377 	101347.8690299866
-0.7094594594594597 	300.0188452890434 	0.05458756018263151 	101347.2801577508
-0.7069569569569573 	300.0183564919727 	0.0531650431026401 	101346.7022153729
-0.7044544544544545 	300.0178596329603 	0.05171983948890154 	101346.1147312468
-0.7019519519519523 	300.0173393267399 	0.05021119874328007 	101345.4995204853
-0.6994494494494495 	300.0167921828065 	0.04863032361266016 	101344.8525846546
-0.6969469469469471 	300.0162293972429 	0.04700729078053307 	101344.187169653
-0.6944444444444446 	300.015670414263 	0.04539420958467643 	101343.5262666779
-0.6919419419419421 	300.0151317265847 	0.04383533523372347 	101342.8893692906
-0.6894394394394396 	300.0146175476559 	0.04234196523603925 	101342.2814490618
-0.6869369369369374 	300.0141174404174 	0.04088583959581892 	101341.6901570403
-0.6844344344344344 	300.0136116693832 	0.03941343040568814 	101341.0921568941
-0.6819319319319321 	300.0130810284288 	0.03787257911590111 	101340.4647454771
-0.6794294294294296 	300.0125161465534 	0.03623787721610536 	101339.7968527227
-0.6769269269269272 	300.0119220086376 	0.03452305543976143 	101339.0943824624
-0.6744244244244245 	300.0113158980675 	0.03277545628908945 	101338.3777749882
-0.6719219219219222 	300.0107200364361 	0.03105605579584823 	101337.673302777
-0.6694194194194195 	300.0101525005655 	0.02941465016769208 	101337.0023315301
-0.6669169169169172 	300.0096203455411 	0.02787079647049115 	101336.3731929961
-0.6644144144144146 	300.0091172755508 	0.0264071506886433 	101335.778434734
-0.661911911911912 	300.0086261131481 	0.02497601722448074 	101335.1977423613
-0.6594094094094097 	300.0081245037983 	0.02351503740656585 	101334.6046858036
-0.656906906906907 	300.0075915740242 	0.02196580965874325 	101333.9745908052
-0.6544044044044046 	300.0070135971194 	0.02028987222471153 	101333.2912358123
-0.6519019019019021 	300.0063874044931 	0.01847838066982202 	101332.5508833483
-0.6493993993993996 	300.0057210217878 	0.01655395770913291 	101331.7630297943
-0.6468968968968971 	300.0050316957178 	0.01456519413535569 	101330.9480707019
-0.6443943943943946 	300.0043420498256 	0.01257591674727526 	101330.1327547251
-0.6418918918918921 	300.0036755106214 	0.01065253770440247 	101329.3447760654
-0.6393893893893897 	300.0030524317947 	0.008853265961137526 	101328.6081937098
-0.6368868868868871 	300.0024879021291 	0.007221621905120281 	101327.940841054
-0.6343843843843846 	300.0019910609756 	0.005784222897823097 	101327.3535176145
-0.6318818818818821 	300.0015654230544 	0.004551573601864891 	101326.850374056
-0.6293793793793795 	300.0012098133442 	0.00352066046216617 	101326.4300173774
-0.6268768768768773 	300.0009195795263 	0.002678396550645635 	101326.0869451465
-0.6243743743743745 	300.0006877998225 	0.002005168956644478 	101325.8130138679
-0.6218718718718721 	300.000506510779 	0.001478020715723769 	101325.5987478126
-0.6193693693693696 	300.0003674894319 	0.001073211373248707 	101325.4343770667
-0.6168668668668671 	300.0002627687262 	0.0007680264991052373 	101325.3105816594
-0.6143643643643645 	300.0001852550247 	0.0005419371936039104 	101325.2189619012
-0.6118618618618621 	300.0001288360738 	0.0003772159085743577 	101325.1522764285
-0.6093593593593596 	300.0000884198819 	0.0002591034407980919 	101325.1045061274
-0.6068568568568571 	300.0000599057552 	0.0001756954455985065 	101325.0708038986
-0.6043543543543546 	300.0000400819548 	0.0001176541768594184 	101325.0473734255
-0.6018518518518521 	300.0000264936901 	7.78329733753406e-05 	101325.0313130492
-0.5993493493493496 	300.000017305733 	5.088279434950297e-05 	101325.0204536414
-0.5968468468468471 	300.0000111743905 	3.288220570514134e-05 	101325.0132069316
-0.5943443443443446 	300.0000071345706 	2.101146498805431e-05 	101325.0084322139
-0.591841841841842 	300.0000045053702 	1.327922126163982e-05 	101325.0053248224
-0.5893393393393397 	300.0000028146602 	8.302704782630232e-06 	101325.0033266112
-0.5868368368368371 	300.0000017400911 	5.13690121928235e-06 	101325.002056537
-0.5843343343343346 	300.0000010647677 	3.145701317244687e-06 	101325.0012583682
-0.5818318318318321 	300.0000006450218 	1.907047685462589e-06 	101325.0007622716
-0.5793293293293297 	300.0000003868688 	1.14478981414697e-06 	101325.0004572274
-0.5768268268268271 	300.0000002298387 	6.806016714478347e-07 	101325.0002716188
-0.5743243243243245 	300.0000001352732 	4.008207415003285e-07 	101325.0001598357
-0.5718218218218221 	300.0000000788755 	2.338681789266078e-07 	101325.0000931858
-0.5693193193193196 	300.000000045603 	1.352187208350713e-07 	101325.0000538339
-0.5668168168168171 	300.0000000260706 	7.748556248400559e-08 	101325.0000308217
-0.5643143143143147 	300.0000000147513 	4.401349294404144e-08 	101325.0000174905
-0.5618118118118121 	300.0000000083466 	2.478777753014281e-08 	101325.0000098389
-0.5593093093093094 	300.0000000046847 	1.384222745102924e-08 	101325.0000054868
-0.5568068068068072 	300.0000000025934 	7.668033515473152e-09 	101325.0000030329
-0.5543043043043046 	300.0000000014352 	4.212715009724973e-09 	101325.0000016612
-0.551801801801802 	300.0000000007232 	2.297505151402928e-09 	101325.000000901
-0.5492992992992995 	300.0000000004121 	1.241639669538485e-09 	101325.0000004831
-0.5467967967967969 	300.0000000002371 	6.674511735003e-10 	101325.000000255
-0.5442942942942947 	300.0000000001272 	3.54859951789955e-10 	101325.0000001315
-0.5417917917917919 	300.0000000000225 	1.893295720755142e-10 	101325.0000000654
-0.5392892892892895 	299.9999999999602 	9.773867471116506e-11 	101325.0000000301
-0.536786786786787 	299.9999999999674 	5.289463267377947e-11 	101325.0000000115
-0.5342842842842846 	299.999999999964 	2.524699803426376e-11 	101325.0000000016
-0.531781781781782 	299.9999999999328 	1.580583759367815e-11 	101324.9999999966
-0.5292792792792794 	299.9999999999254 	5.170022996121363e-12 	101324.9999999942
-0.526776776776777 	299.9999999999105 	6.887110285377927e-12 	101324.9999999932
-0.5242742742742745 	299.9999999999769 	3.350498776734601e-12 	101324.9999999925
-0.521771771771772 	300.0000000000242 	7.018160564806402e-12 	101324.9999999922
-0.5192692692692695 	299.9999999999597 	4.320019383828536e-12 	101324.999999992
-0.516766766766767 	300.0000000000038 	7.179521980335687e-12 	101324.9999999917
-0.5142642642642645 	299.9999999999775 	3.928565910421901e-12 	101324.9999999915
-0.511761761761762 	299.999999999953 	5.941895921828673e-12 	101324.9999999914
-0.5092592592592596 	299.9999999999681 	3.347636625928527e-12 	101324.9999999911
-0.506756756756757 	299.9999999999339 	4.888236988783388e-12 	101324.9999999908
-0.5042542542542544 	299.9999999999915 	2.232723534158098e-12 	101324.9999999908
-0.5017517517517521 	300.0000000000254 	4.540388255559394e-12 	101324.9999999909
-0.4992492492492494 	300.0000000000315 	1.604218942733707e-12 	101324.9999999913
-0.496746746746747 	299.9999999999863 	3.382891603247998e-12 	101324.9999999916
-0.4942442442442445 	299.9999999999458 	1.035110992510613e-12 	101324.9999999919
-0.4917417417417421 	299.9999999999428 	4.107433155635375e-12 	101324.9999999918
-0.4892392392392395 	299.9999999999571 	1.970883981075674e-12 	101324.9999999916
-0.486736736736737 	299.9999999999604 	4.61456914629235e-12 	101324.9999999915
-0.4842342342342345 	299.9999999999258 	2.178027188194362e-12 	101324.9999999916
-0.481731731731732 	300.0000000000297 	5.499865228909464e-12 	101324.9999999914
-0.4792292292292296 	300.0000000000188 	2.945345334046804e-12 	101324.9999999915
-0.4767267267267268 	299.9999999999455 	7.020725713708965e-12 	101324.9999999914
-0.4742242242242246 	299.9999999999886 	2.086165542674181e-12 	101324.9999999915
-0.471721721721722 	299.9999999999509 	5.734532509645083e-12 	101324.9999999917
-0.4692192192192195 	299.9999999999665 	1.859174784517894e-12 	101324.9999999918
-0.4667167167167169 	299.9999999999119 	4.154723349753824e-12 	101324.9999999917
-0.4642142142142145 	299.9999999999955 	1.32532783745032e-12 	101324.9999999918
-0.461711711711712 	300.0000000000149 	4.404934740389243e-12 	101324.999999992
-0.4592092092092094 	300.0000000000124 	2.42212235766344e-12 	101324.9999999922
-0.456706706706707 	300.0000000000488 	4.142029587385134e-12 	101324.9999999921
-0.4542042042042045 	299.9999999999383 	2.625400948546631e-12 	101324.9999999918
-0.451701701701702 	299.9999999999534 	4.131664856854433e-12 	101324.9999999917
-0.4491991991991995 	299.9999999999573 	2.485722839463442e-12 	101324.9999999916
-0.4466966966966969 	299.9999999999432 	4.599850571376405e-12 	101324.9999999917
-0.4441941941941945 	299.9999999999934 	2.230619770646934e-12 	101324.9999999914
-0.441691691691692 	299.9999999999566 	5.486089930911397e-12 	101324.9999999916
-0.4391891891891895 	299.9999999999846 	1.361902166730473e-12 	101324.9999999915
-0.436686686686687 	299.9999999999667 	5.713592774629405e-12 	101324.9999999915
-0.4341841841841846 	299.9999999999968 	1.822472696052966e-12 	101324.9999999915
-0.431681681681682 	299.9999999999503 	5.181899958127419e-12 	101324.9999999917
-0.4291791791791794 	299.9999999999093 	1.329288954951915e-12 	101324.9999999919
-0.426676676676677 	299.9999999999166 	4.428326290741664e-12 	101324.9999999918
-0.4241741741741744 	299.9999999999666 	1.749999531857645e-12 	101324.9999999916
-0.421671671671672 	300.0000000000031 	3.704705180013149e-12 	101324.9999999915
-0.4191691691691694 	300.000000000045 	1.810753780446284e-12 	101324.9999999914
-0.4166666666666669 	300.0000000000528 	3.974394121143543e-12 	101324.9999999913
-0.4141641641641645 	299.9999999999347 	2.626736691545224e-12 	101324.9999999912
-0.411661661661662 	300.0000000000042 	3.161322114660543e-12 	101324.9999999915
-0.4091591591591594 	300.0000000000059 	2.091381375977523e-12 	101324.9999999913
-0.406656656656657 	299.9999999999395 	3.443880919234402e-12 	101324.9999999915
-0.4041541541541545 	300.0000000000127 	1.871225481597949e-12 	101324.9999999916
-0.401651651651652 	299.9999999999231 	4.023253396081597e-12 	101324.9999999915
-0.3991491491491494 	300.0000000000007 	1.714658780117041e-12 	101324.9999999914
-0.396646646646647 	299.9999999999563 	3.972612475508488e-12 	101324.9999999913
-0.3941441441441444 	299.9999999999739 	2.36952203262199e-12 	101324.9999999913
-0.3916416416416419 	299.999999999931 	4.171545070793043e-12 	101324.9999999909
-0.3891391391391395 	299.9999999999588 	1.285915002827679e-12 	101324.9999999909
-0.3866366366366368 	299.9999999999559 	2.789111861261131e-12 	101324.9999999909
-0.3841341341341344 	299.9999999999967 	1.218467464496889e-12 	101324.999999991
-0.381631631631632 	299.9999999999552 	2.63677754777381e-12 	101324.9999999912
-0.3791291291291294 	300.0000000000048 	1.904059652714437e-12 	101324.9999999913
-0.3766266266266269 	300.0000000000188 	2.210296726790786e-12 	101324.9999999915
-0.3741241241241244 	300.0000000000214 	3.239215212808351e-12 	101324.9999999918
-0.371621621621622 	300.0000000000144 	1.765297552151886e-12 	101324.9999999918
-0.3691191191191194 	300.000000000003 	4.693203636785383e-12 	101324.999999992
-0.366616616616617 	300.0000000000081 	2.125937172046811e-12 	101324.9999999921
-0.3641141141141143 	299.9999999999683 	4.685269478646e-12 	101324.999999992
-0.3616116116116119 	299.9999999999482 	2.279296797295586e-12 	101324.9999999922
-0.3591091091091095 	299.9999999999883 	3.043335669652949e-12 	101324.999999992
-0.356606606606607 	299.9999999999862 	2.526363343296981e-12 	101324.9999999921
-0.3541041041041044 	299.9999999999833 	2.549102981002008e-12 	101324.9999999919
-0.3516016016016019 	300.0000000000036 	3.747344242363472e-12 	101324.9999999919
-0.3490990990990994 	299.9999999999851 	2.381786639577266e-12 	101324.9999999919
-0.346596596596597 	300.0000000000406 	4.113909525046124e-12 	101324.9999999922
-0.3440940940940944 	300.0000000000496 	1.976904948504728e-12 	101324.9999999921
-0.3415915915915919 	300.0000000000182 	4.585532637843888e-12 	101324.999999992
-0.3390890890890895 	299.9999999999795 	3.057993204914372e-12 	101324.9999999918
-0.3365865865865869 	300.0000000000206 	4.895734092849989e-12 	101324.999999992
-0.3340840840840844 	300.0000000000056 	4.117110089335039e-12 	101324.9999999922
-0.3315815815815819 	300.0000000000249 	4.935355520563993e-12 	101324.9999999921
-0.3290790790790794 	300.0000000000162 	4.06305834587519e-12 	101324.999999992
-0.3265765765765769 	299.9999999999332 	5.144300877728988e-12 	101324.999999992
-0.3240740740740744 	299.9999999999982 	3.657400768375361e-12 	101324.999999992
-0.3215715715715718 	300.0000000000069 	5.799077929043978e-12 	101324.9999999919
-0.3190690690690695 	299.9999999999295 	3.79031529564673e-12 	101324.9999999919
-0.3165665665665668 	299.9999999999898 	5.54841690961095e-12 	101324.999999992
-0.3140640640640644 	300.0000000000011 	2.827343934163326e-12 	101324.9999999922
-0.311561561561562 	299.9999999999291 	5.619083651864253e-12 	101324.9999999921
-0.3090590590590593 	299.9999999999954 	8.448207221330225e-13 	101324.9999999921
-0.3065565565565568 	300.0000000000046 	5.73011752936696e-12 	101324.9999999923
-0.3040540540540545 	300.0000000000176 	1.699461164940227e-12 	101324.9999999919
-0.3015515515515518 	300.0000000000295 	5.503392174815561e-12 	101324.9999999917
-0.2990490490490494 	299.9999999999458 	1.506940567902075e-12 	101324.9999999916
-0.2965465465465469 	299.9999999999822 	3.946449761037402e-12 	101324.9999999916
-0.2940440440440444 	299.9999999999999 	2.41896171329956e-12 	101324.9999999916
-0.2915415415415418 	299.9999999999993 	3.539028122127601e-12 	101324.9999999915
-0.2890390390390395 	300.0000000000024 	3.430272430293744e-12 	101324.9999999915
-0.2865365365365368 	299.9999999999767 	2.678086987452865e-12 	101324.9999999914
-0.2840340340340343 	300.0000000000021 	3.666959866207033e-12 	101324.9999999915
-0.2815315315315318 	299.9999999999305 	1.931007070866583e-12 	101324.9999999915
-0.2790290290290295 	299.9999999999595 	3.453813262947329e-12 	101324.9999999915
-0.2765265265265269 	300.0000000000112 	2.663117264624402e-12 	101324.9999999917
-0.2740240240240244 	300.0000000000327 	3.15117042782116e-12 	101324.9999999915
-0.2715215215215219 	300.000000000014 	3.498071027831686e-12 	101324.9999999917
-0.2690190190190194 	299.9999999999445 	2.691768851241715e-12 	101324.9999999917
-0.2665165165165169 	299.9999999999956 	2.850157463127055e-12 	101324.9999999917
-0.2640140140140144 	299.9999999999712 	1.485078593153301e-12 	101324.9999999915
-0.2615115115115119 	299.9999999999989 	3.792928474539113e-12 	101324.9999999917
-0.2590090090090094 	299.999999999939 	2.108241020737927e-12 	101324.9999999918
-0.2565065065065068 	299.9999999999944 	3.200521557333715e-12 	101324.9999999917
-0.2540040040040044 	299.9999999999992 	3.152578873904164e-12 	101324.9999999917
-0.2515015015015019 	300.0000000000367 	2.541374441878327e-12 	101324.9999999917
-0.2489989989989994 	300.0000000000443 	4.599005160045263e-12 	101324.9999999918
-0.2464964964964968 	299.999999999993 	2.291152886915886e-12 	101324.9999999915
-0.2439939939939944 	299.9999999999991 	6.212203033033117e-12 	101324.9999999916
-0.2414914914914919 	299.9999999999748 	2.453077246466536e-12 	101324.9999999917
-0.2389889889889893 	300.0000000000034 	6.654894495933433e-12 	101324.9999999918
-0.2364864864864869 	300.0000000000226 	2.782523056700069e-12 	101324.999999992
-0.2339839839839843 	299.9999999999291 	6.856061414719367e-12 	101324.9999999917
-0.2314814814814819 	299.9999999999815 	2.798404843860094e-12 	101324.9999999916
-0.2289789789789792 	299.9999999999255 	5.726910871969513e-12 	101324.9999999915
-0.2264764764764769 	299.9999999999491 	2.476172934649463e-12 	101324.9999999917
-0.2239739739739743 	299.9999999999621 	4.244118929660789e-12 	101324.9999999917
-0.2214714714714718 	299.9999999999416 	3.560664984011518e-12 	101324.9999999915
-0.2189689689689693 	299.9999999999728 	3.106409149006379e-12 	101324.9999999915
-0.2164664664664669 	299.9999999999794 	3.263635332333386e-12 	101324.9999999914
-0.2139639639639643 	299.9999999999322 	1.520249942169141e-12 	101324.9999999913
-0.2114614614614618 	299.9999999999727 	2.37827855345459e-12 	101324.9999999912
-0.2089589589589593 	299.9999999999936 	1.784273126223156e-12 	101324.9999999914
-0.2064564564564568 	299.9999999999912 	1.522149774860434e-12 	101324.9999999914
-0.2039539539539543 	299.9999999999142 	2.654984024601374e-12 	101324.9999999916
-0.2014514514514518 	299.9999999999522 	6.282694907312074e-13 	101324.9999999917
-0.1989489489489494 	299.9999999999787 	3.076594929933608e-12 	101324.999999992
-0.1964464464464468 	299.9999999999952 	5.304914053061191e-13 	101324.999999992
-0.1939439439439443 	299.9999999999841 	3.404117725338236e-12 	101324.9999999919
-0.1914414414414418 	299.999999999921 	1.080120804627019e-12 	101324.9999999921
-0.1889389389389393 	300.0000000000053 	2.983506086857942e-12 	101324.9999999921
-0.1864364364364368 	300.0000000000373 	1.659123003166e-12 	101324.9999999919
-0.1839339339339343 	299.9999999999749 	2.762640257581675e-12 	101324.999999992
-0.1814314314314318 	299.9999999999953 	2.262236893584463e-12 	101324.9999999917
-0.1789289289289293 	299.9999999999094 	3.271132762239464e-12 	101324.9999999914
-0.1764264264264268 	299.9999999999793 	1.144054850681509e-12 	101324.9999999915
-0.1739239239239243 	299.9999999999037 	3.288547835210956e-12 	101324.9999999915
-0.1714214214214218 	299.9999999999895 	8.592792351926598e-13 	101324.9999999918
-0.1689189189189193 	299.9999999999582 	3.975842924856587e-12 	101324.9999999916
-0.1664164164164168 	300.000000000007 	2.138609967403339e-12 	101324.9999999917
-0.1639139139139143 	299.9999999999904 	5.971801438109898e-12 	101324.9999999921
-0.1614114114114118 	300.0000000000313 	2.706722960332121e-12 	101324.9999999921
-0.1589089089089093 	299.9999999999969 	7.734013979446803e-12 	101324.9999999922
-0.1564064064064068 	299.9999999999882 	4.194184911788276e-12 	101324.9999999923
-0.1539039039039043 	299.9999999999917 	7.717107742577359e-12 	101324.9999999922
-0.1514014014014018 	300.0000000000241 	4.559333429831747e-12 	101324.9999999924
-0.1488988988988993 	299.9999999999965 	5.956354834883298e-12 	101324.9999999926
-0.1463963963963968 	300.0000000000031 	4.02787002161929e-12 	101324.9999999928
-0.1438938938938943 	299.9999999999564 	4.297606636244698e-12 	101324.9999999929
-0.1413913913913918 	299.9999999999305 	2.528131411851794e-12 	101324.999999993
-0.1388888888888893 	299.9999999999818 	2.782342286650195e-12 	101324.9999999929
-0.1363863863863868 	299.9999999998988 	1.496736553733609e-12 	101324.9999999927
-0.1338838838838843 	299.9999999999254 	2.03756304027928e-12 	101324.9999999926
-0.1313813813813818 	299.9999999999932 	3.950509737820301e-13 	101324.9999999926
-0.1288788788788793 	299.9999999999747 	2.636231362633402e-12 	101324.9999999926
-0.1263763763763768 	299.9999999999722 	2.089537917119437e-13 	101324.9999999924
-0.1238738738738743 	299.9999999999321 	2.87496270619294e-12 	101324.9999999927
-0.1213713713713717 	299.999999999977 	9.682611314832536e-13 	101324.9999999925
-0.1188688688688693 	300.0000000000062 	3.756324759607519e-12 	101324.9999999926
-0.1163663663663668 	299.999999999909 	1.234604774057671e-12 	101324.9999999923
-0.1138638638638643 	299.9999999999921 	3.850384712247922e-12 	101324.9999999923
-0.1113613613613618 	299.9999999999882 	2.192126012859225e-12 	101324.999999992
-0.1088588588588592 	299.9999999999802 	4.662088913493361e-12 	101324.9999999921
-0.1063563563563568 	299.9999999999496 	8.041848004969759e-13 	101324.9999999921
-0.1038538538538543 	299.9999999999793 	4.746169824065607e-12 	101324.999999992
-0.1013513513513517 	300.0000000000174 	1.046621359063314e-12 	101324.9999999919
-0.09884884884884926 	299.9999999999391 	4.059466930502744e-12 	101324.9999999919
-0.09634634634634676 	299.9999999999038 	1.072652212553797e-12 	101324.9999999921
-0.09384384384384425 	299.999999999934 	2.931822087873683e-12 	101324.9999999921
-0.09134134134134177 	300.0000000000234 	9.03367433267276e-13 	101324.9999999923
-0.08883883883883925 	300.0000000000048 	2.733307242528307e-12 	101324.9999999922
-0.08633633633633674 	299.9999999999552 	2.09737017607079e-12 	101324.999999992
-0.08383383383383426 	300.0000000000077 	2.787408335811986e-12 	101324.9999999921
-0.08133133133133173 	299.9999999999671 	2.958537006853593e-12 	101324.999999992
-0.07882882882882926 	299.999999999894 	2.604614952910895e-12 	101324.9999999917
-0.07632632632632676 	299.9999999999623 	2.228090760356246e-12 	101324.9999999918
-0.07382382382382424 	299.9999999999036 	2.604053420658148e-12 	101324.9999999923
-0.07132132132132173 	300.0000000000161 	2.651390379287183e-12 	101324.9999999924
-0.06881881881881925 	299.9999999999665 	3.242915162327781e-12 	101324.9999999925
-0.06631631631631671 	299.9999999999047 	3.259308436744287e-12 	101324.9999999926
-0.06381381381381425 	299.9999999999575 	3.051695132054269e-12 	101324.9999999922
-0.06131131131131173 	299.999999999959 	2.556538598123284e-12 	101324.999999992
-0.05880880880880923 	299.9999999999213 	2.246734389150565e-12 	101324.9999999925
-0.05630630630630672 	299.9999999999723 	2.305057321749604e-12 	101324.9999999927
-0.05380380380380424 	300.0000000000148 	3.13980351041447e-12 	101324.999999993
-0.05130130130130173 	300.0000000000138 	3.609809814272887e-12 	101324.9999999927
-0.04879879879879922 	299.9999999999452 	3.361384817127223e-12 	101324.9999999926
-0.04629629629629672 	299.9999999999351 	1.823024513525272e-12 	101324.9999999925
-0.04379379379379422 	299.9999999999186 	1.722766348156053e-12 	101324.9999999924
-0.04129129129129173 	299.9999999999808 	9.009340155904915e-13 	101324.9999999922
-0.03878878878878922 	299.9999999999847 	1.291533909969125e-12 	101324.9999999923
-0.03628628628628671 	299.999999999983 	1.185763073444007e-12 	101324.9999999923
-0.03378378378378422 	299.9999999999299 	1.342093824223575e-12 	101324.9999999923
-0.03128128128128172 	299.9999999999653 	2.214813546468839e-13 	101324.999999992
-0.02877877877877922 	299.9999999999654 	1.282268795967805e-12 	101324.9999999919
-0.0262762762762767 	299.9999999999081 	1.125021759061337e-12 	101324.999999992
-0.02377377377377422 	300.0000000000191 	1.697482596347855e-12 	101324.999999992
-0.0212712712712717 	299.9999999999093 	2.193881365852389e-12 	101324.9999999917
-0.01876876876876921 	299.9999999999665 	2.162590000493633e-12 	101324.9999999914
-0.01626626626626671 	300.0000000000119 	2.587761568880383e-12 	101324.9999999914
-0.0137637637637642 	299.9999999999691 	2.205914434068934e-12 	101324.9999999913
-0.0112612612612617 	300.0000000000162 	2.385552420769522e-12 	101324.9999999916
-0.008758758758759198 	299.9999999999966 	2.082698234859744e-12 	101324.9999999916
-0.006256256256256697 	299.9999999998895 	1.957454512840799e-12 	101324.9999999919
-0.003753753753754195 	299.9999999999566 	3.42000188851154e-13 	101324.999999992
-0.001251251251251693 	299.9999999999374 	1.14228661298547e-13 	101324.9999999922
0.00125125125125081 	299.9999999999558 	1.128011647635868e-12 	101324.9999999923
0.003753753753753312 	299.9999999999641 	7.241653928158097e-13 	101324.9999999923
0.006256256256255817 	299.9999999998991 	1.494012882583558e-12 	101324.9999999923
0.008758758758758317 	299.9999999999836 	1.215412126733352e-12 	101324.9999999925
0.01126126126126082 	300.0000000000029 	1.035057642516135e-12 	101324.9999999923
0.01376376376376332 	299.9999999999717 	8.063259622851856e-13 	101324.9999999922
0.01626626626626582 	300.0000000000097 	6.25555522704765e-13 	101324.9999999923
0.01876876876876833 	299.9999999999549 	2.682031658686525e-13 	101324.9999999924
0.02127127127127083 	299.9999999999647 	5.406242862215917e-13 	101324.9999999923
0.02377377377377332 	299.9999999999937 	6.002172107644884e-13 	101324.9999999923
0.02627627627627583 	299.9999999999099 	5.723311254916834e-13 	101324.9999999925
0.02877877877877833 	300.0000000000117 	1.01659211104526e-12 	101324.9999999926
0.03128128128128083 	299.9999999999579 	3.501868697629496e-14 	101324.9999999922
0.03378378378378333 	299.9999999999062 	1.889323521927534e-13 	101324.999999992
0.03628628628628584 	299.9999999999699 	3.799200077881313e-13 	101324.9999999917
0.03878878878878834 	299.9999999999882 	5.752139092419669e-13 	101324.9999999918
0.04129129129129084 	299.9999999999784 	2.444994206611259e-13 	101324.9999999916
0.04379379379379333 	299.9999999999498 	6.881564801601111e-13 	101324.9999999918
0.04629629629629585 	299.9999999998943 	1.941197140875148e-13 	101324.9999999916
0.04879879879879834 	299.9999999999615 	5.250315935397534e-13 	101324.9999999916
0.05130130130130085 	300.0000000000103 	1.051404977250753e-13 	101324.9999999917
0.05380380380380335 	300.0000000000158 	3.785369413928254e-14 	101324.9999999915
0.05630630630630584 	299.9999999999931 	8.377932607443984e-14 	101324.9999999916
0.05880880880880836 	299.9999999999236 	1.165132001356419e-12 	101324.9999999913
0.06131131131131085 	299.9999999999652 	7.301728435957584e-13 	101324.9999999911
0.06381381381381336 	299.9999999999643 	7.349189820238686e-13 	101324.999999991
0.06631631631631586 	299.9999999998996 	3.18981256120523e-13 	101324.9999999911
0.06881881881881835 	299.9999999999566 	1.456832157550041e-12 	101324.9999999909
0.07132132132132088 	299.9999999999841 	1.532316919030619e-12 	101324.9999999908
0.07382382382382337 	299.9999999999019 	2.249884052226502e-12 	101324.9999999912
0.07632632632632587 	299.99999999997 	2.429851135262996e-12 	101324.9999999911
0.07882882882882837 	299.99999999994 	2.626978921794381e-12 	101324.999999991
0.08133133133133086 	299.9999999999807 	3.080871922119643e-12 	101324.9999999913
0.08383383383383337 	299.9999999999855 	2.749958278380087e-12 	101324.9999999912
0.08633633633633589 	299.9999999999096 	3.328735249898491e-12 	101324.9999999912
0.08883883883883838 	300.0000000000027 	3.963166261965111e-12 	101324.9999999913
0.09134134134134086 	299.9999999999775 	3.609477920175282e-12 	101324.9999999913
0.09384384384384339 	299.9999999998999 	4.790530352568988e-12 	101324.9999999914
0.09634634634634588 	299.9999999999616 	4.187020494585102e-12 	101324.9999999912
0.09884884884884838 	299.9999999999764 	3.625611235908039e-12 	101324.9999999913
0.1013513513513509 	300.0000000000179 	3.530462834065667e-12 	101324.9999999909
0.1038538538538534 	299.9999999999553 	3.705060519956252e-12 	101324.9999999912
0.1063563563563559 	300.0000000000035 	4.086428352483163e-12 	101324.9999999914
0.1088588588588584 	300.0000000000244 	3.145206664063413e-12 	101324.9999999913
0.1113613613613609 	299.9999999999252 	2.704686110158352e-12 	101324.9999999913
0.1138638638638634 	299.999999999943 	2.323041800459332e-12 	101324.999999991
0.1163663663663659 	299.9999999999552 	1.913058496607532e-12 	101324.999999991
0.1188688688688684 	299.9999999999798 	1.688437175912534e-12 	101324.9999999911
0.1213713713713709 	300.0000000000049 	9.783711215212061e-13 	101324.9999999913
0.1238738738738734 	299.9999999999289 	1.460735030135802e-12 	101324.9999999911
0.1263763763763759 	299.9999999999825 	1.480635420325516e-12 	101324.9999999912
0.1288788788788784 	299.9999999999832 	1.82376638661137e-12 	101324.9999999912
0.1313813813813809 	299.9999999999804 	1.76505672481097e-12 	101324.9999999913
0.1338838838838834 	299.9999999999775 	1.6739544398811e-12 	101324.9999999916
0.1363863863863859 	300.0000000000144 	1.328552402595049e-12 	101324.999999992
0.1388888888888884 	300.0000000000379 	2.271387537029606e-12 	101324.9999999919
0.1413913913913909 	300.0000000000073 	1.523631659421606e-12 	101324.9999999918
0.1438938938938934 	299.9999999999927 	2.100149988784633e-12 	101324.9999999915
0.1463963963963959 	299.9999999999626 	1.894628877165417e-12 	101324.9999999918
0.1488988988988985 	299.9999999999159 	4.708057426281017e-12 	101324.9999999915
0.1514014014014009 	299.9999999999708 	4.08647323247324e-12 	101324.9999999914
0.1539039039039035 	299.999999999964 	6.531501279498016e-12 	101324.9999999913
0.1564064064064059 	299.9999999999339 	4.237644054649253e-12 	101324.9999999913
0.1589089089089084 	299.9999999999756 	7.155707995250215e-12 	101324.9999999914
0.1614114114114109 	299.9999999999718 	4.415674581933671e-12 	101324.9999999915
0.1639139139139134 	299.9999999999153 	6.176866093797311e-12 	101324.9999999917
0.166416416416416 	300.0000000000058 	5.342459342838741e-12 	101324.9999999915
0.1689189189189185 	300.0000000000311 	4.451636266007275e-12 	101324.9999999914
0.1714214214214209 	300.0000000000031 	5.054583085339543e-12 	101324.9999999911
0.1739239239239235 	299.9999999999905 	3.521912080018767e-12 	101324.9999999912
0.1764264264264259 	299.9999999999716 	5.51777159345179e-12 	101324.9999999913
0.1789289289289284 	300.0000000000069 	3.299230066704249e-12 	101324.9999999915
0.181431431431431 	299.999999999968 	5.464260211130118e-12 	101324.9999999918
0.1839339339339334 	299.9999999999691 	2.794228991212618e-12 	101324.9999999916
0.186436436436436 	299.9999999999364 	3.31461169387631e-12 	101324.9999999917
0.1889389389389385 	299.99999999998 	2.354726985206177e-12 	101324.9999999921
0.191441441441441 	299.999999999976 	1.800596279865383e-12 	101324.9999999923
0.1939439439439434 	299.9999999999266 	3.219047921197812e-12 	101324.9999999921
0.196446446446446 	299.9999999999496 	2.048311507017096e-12 	101324.9999999919
0.1989489489489485 	299.9999999999666 	4.571515502489616e-12 	101324.999999992
0.2014514514514509 	299.999999999986 	2.330047248630631e-12 	101324.9999999919
0.2039539539539535 	299.9999999999923 	4.26377434776822e-12 	101324.9999999918
0.2064564564564559 	299.9999999999575 	3.379383057128117e-12 	101324.9999999917
0.2089589589589585 	299.9999999999861 	4.081100146314154e-12 	101324.9999999919
0.211461461461461 	299.9999999999334 	3.75322169747343e-12 	101324.9999999917
0.2139639639639635 	299.9999999999784 	3.097395418744612e-12 	101324.999999992
0.2164664664664659 	299.9999999999986 	4.0075549337214e-12 	101324.9999999917
0.2189689689689684 	299.9999999999989 	1.714656073854174e-12 	101324.9999999917
0.221471471471471 	299.9999999999952 	4.198578116576385e-12 	101324.9999999917
0.2239739739739735 	299.9999999999602 	2.048573502576584e-12 	101324.9999999918
0.226476476476476 	299.9999999999792 	3.448440857979399e-12 	101324.999999992
0.2289789789789785 	299.999999999993 	1.889948311307645e-12 	101324.9999999917
0.231481481481481 	299.9999999999883 	1.935499973423666e-12 	101324.9999999919
0.2339839839839835 	299.9999999999874 	1.836467075342922e-12 	101324.9999999919
0.236486486486486 	300.0000000000243 	1.146804039414743e-12 	101324.9999999919
0.2389889889889885 	300.0000000000068 	2.19591913222893e-12 	101324.9999999915
0.241491491491491 	299.9999999999243 	4.717507666499293e-13 	101324.9999999917
0.2439939939939935 	299.9999999999804 	3.074001066056126e-12 	101324.9999999916
0.246496496496496 	299.9999999999929 	6.152947599597649e-13 	101324.9999999912
0.2489989989989985 	300.0000000000355 	1.443618880583283e-12 	101324.9999999912
0.251501501501501 	300.0000000000301 	3.865892804037782e-13 	101324.9999999912
0.2540040040040035 	299.9999999999942 	2.328983758376869e-13 	101324.9999999916
0.256506506506506 	300.000000000025 	1.342146998491611e-12 	101324.9999999916
0.2590090090090086 	299.999999999923 	9.408450284819412e-13 	101324.9999999919
0.261511511511511 	299.9999999999999 	3.857049195415042e-12 	101324.9999999921
0.2640140140140135 	299.9999999999909 	2.032481861941609e-12 	101324.9999999919
0.2665165165165161 	299.9999999999365 	4.370824083228214e-12 	101324.9999999917
0.2690190190190185 	300.0000000000082 	3.075788523256839e-12 	101324.9999999919
0.271521521521521 	300.0000000000165 	2.663510747514009e-12 	101324.9999999919
0.2740240240240235 	300.0000000000185 	1.900276698291018e-12 	101324.9999999916
0.276526526526526 	300.0000000000096 	4.403575258858727e-13 	101324.9999999914
0.2790290290290286 	299.9999999999467 	9.710402084745035e-13 	101324.9999999915
0.281531531531531 	299.9999999999285 	9.135941076896653e-13 	101324.9999999914
0.2840340340340335 	299.9999999999827 	1.585105609107666e-12 	101324.9999999917
0.2865365365365361 	299.9999999999642 	6.887803498575453e-13 	101324.9999999918
0.2890390390390385 	299.9999999999981 	1.737070543679038e-12 	101324.9999999916
0.291541541541541 	299.9999999999978 	1.71614508161543e-12 	101324.9999999916
0.2940440440440436 	299.9999999999904 	1.303705212837972e-12 	101324.9999999917
0.296546546546546 	299.999999999996 	2.264432769190523e-12 	101324.9999999917
0.2990490490490486 	299.9999999999467 	1.255858953074457e-12 	101324.9999999918
0.3015515515515511 	300.0000000000359 	4.174412607593521e-12 	101324.9999999917
0.3040540540540535 	299.9999999999966 	2.208460441601235e-12 	101324.9999999917
0.3065565565565562 	299.9999999999975 	5.067552100043418e-12 	101324.9999999916
0.3090590590590585 	299.9999999999897 	1.565294090042598e-12 	101324.9999999914
0.3115615615615611 	299.9999999999466 	4.020758145220871e-12 	101324.9999999916
0.3140640640640635 	300.0000000000093 	4.243789986089177e-13 	101324.9999999915
0.316566566566566 	299.9999999999965 	2.796921856068198e-12 	101324.9999999912
0.3190690690690687 	299.9999999999584 	6.598301627868471e-13 	101324.9999999909
0.3215715715715711 	300.0000000000127 	2.060075618181026e-12 	101324.999999991
0.3240740740740735 	299.9999999999977 	1.053443566917719e-12 	101324.9999999913
0.326576576576576 	299.9999999999093 	1.590434346560015e-12 	101324.9999999915
0.3290790790790786 	300.000000000007 	7.977469330092158e-13 	101324.9999999917
0.3315815815815811 	300.0000000000291 	1.653142683125236e-12 	101324.9999999918
0.3340840840840836 	299.9999999999885 	6.1052553623555e-13 	101324.9999999916
0.3365865865865861 	300.0000000000473 	1.436727103521621e-12 	101324.9999999912
0.3390890890890886 	300.0000000000446 	4.529292323661215e-13 	101324.9999999909
0.3415915915915911 	300.0000000000027 	1.139232630093349e-12 	101324.9999999906
0.3440940940940935 	299.9999999999595 	7.635575216586783e-13 	101324.9999999907
0.3465965965965962 	300.0000000000353 	1.327991092171445e-12 	101324.9999999907
0.3490990990990985 	300.0000000000265 	7.400241072162413e-13 	101324.9999999905
0.3516016016016011 	299.9999999999828 	1.36512507691876e-13 	101324.9999999904
0.3541041041041035 	300.0000000000022 	2.858093215361334e-13 	101324.9999999903
0.3566066066066061 	299.9999999999617 	9.395072766243044e-13 	101324.9999999906
0.3591091091091085 	299.999999999925 	1.250227603399364e-12 	101324.9999999908
0.3616116116116112 	299.9999999999467 	1.090695154052599e-12 	101324.9999999911
0.3641141141141137 	299.999999999938 	2.697823218825878e-12 	101324.9999999913
0.3666166166166161 	299.9999999999255 	1.709357808116525e-12 	101324.9999999914
0.3691191191191185 	300.000000000031 	3.386428751082912e-12 	101324.9999999911
0.371621621621621 	300.0000000000132 	1.847335513757181e-12 	101324.9999999908
0.3741241241241237 	300.0000000000434 	2.355383075462807e-12 	101324.9999999908
0.3766266266266261 	300.0000000000272 	1.352302129683572e-12 	101324.9999999906
0.3791291291291286 	299.999999999987 	2.050175703427698e-12 	101324.9999999903
0.3816316316316311 	299.9999999999224 	1.10078119007881e-12 	101324.9999999902
0.3841341341341336 	300.0000000000073 	2.062951190781903e-12 	101324.9999999901
0.3866366366366362 	299.9999999999956 	5.45251398882487e-13 	101324.9999999898
0.3891391391391387 	299.9999999999596 	1.879942694164814e-12 	101324.9999999899
0.391641641641641 	299.9999999999898 	7.853666611440629e-13 	101324.9999999899
0.3941441441441436 	300.0000000000013 	1.820701639158223e-12 	101324.9999999902
0.3966466466466462 	299.9999999999933 	3.923497301524822e-13 	101324.9999999904
0.3991491491491486 	299.9999999999467 	1.120268172447778e-12 	101324.9999999902
0.4016516516516512 	299.9999999999192 	4.809634861916828e-13 	101324.9999999904
0.4041541541541536 	299.9999999999558 	1.317907851502724e-12 	101324.9999999905
0.4066566566566561 	299.9999999999501 	9.778622608835252e-13 	101324.9999999906
0.4091591591591587 	299.9999999999858 	8.496776512087121e-13 	101324.9999999905
0.4116616616616612 	299.9999999999982 	5.883338030370425e-13 	101324.9999999903
0.4141641641641635 	300.0000000000381 	3.673835601071543e-13 	101324.9999999905
0.4166666666666662 	299.9999999999988 	7.804570217837726e-13 	101324.9999999907
0.4191691691691687 	299.9999999999472 	1.850980465016685e-12 	101324.9999999909
0.421671671671671 	300.0000000000094 	1.817338997058669e-12 	101324.999999991
0.4241741741741737 	299.9999999999794 	2.296798028487814e-12 	101324.9999999913
0.4266766766766761 	299.9999999999575 	2.856509045997166e-12 	101324.9999999915
0.4291791791791785 	300.0000000000192 	3.339297608556076e-12 	101324.9999999916
0.4316816816816812 	300.0000000000105 	2.665383944147418e-12 	101324.9999999918
0.4341841841841836 	299.9999999999866 	3.850529577133559e-12 	101324.9999999915
0.4366866866866862 	299.9999999999218 	8.8747113980995e-13 	101324.9999999913
0.4391891891891885 	299.9999999999865 	2.752021828902609e-12 	101324.9999999912
0.4416916916916913 	299.9999999999849 	9.108279794899409e-13 	101324.9999999909
0.4441941941941936 	299.9999999999909 	1.738561060900827e-12 	101324.9999999906
0.4466966966966961 	299.9999999999198 	3.544716111144828e-13 	101324.9999999904
0.4491991991991987 	299.9999999999754 	5.378479852267402e-13 	101324.9999999904
0.4517017017017012 	299.9999999999754 	3.440761691396685e-13 	101324.9999999905
0.4542042042042035 	299.9999999999932 	6.795838315696974e-13 	101324.9999999904
0.4567067067067062 	299.9999999999961 	1.403444213752672e-12 	101324.9999999905
0.4592092092092087 	299.9999999999307 	9.908147410139208e-13 	101324.9999999907
0.4617117117117112 	300.0000000000189 	8.628344188829043e-13 	101324.9999999906
0.4642142142142137 	299.9999999999624 	5.137854857892681e-13 	101324.9999999905
0.4667167167167162 	299.9999999999914 	1.29249299778104e-13 	101324.9999999906
0.4692192192192187 	299.9999999999588 	6.889406418303022e-14 	101324.9999999906
0.4717217217217212 	300.0000000000111 	3.383313211457164e-13 	101324.9999999907
0.4742242242242236 	299.9999999999604 	4.166827132719293e-13 	101324.9999999907
0.4767267267267262 	299.9999999999771 	6.250528103536141e-13 	101324.9999999907
0.4792292292292287 	300.0000000000153 	5.449762325508025e-13 	101324.9999999909
0.4817317317317312 	300.0000000000312 	1.032913932244159e-12 	101324.9999999909
0.4842342342342336 	299.9999999999845 	1.307349738736705e-12 	101324.9999999907
0.4867367367367362 	299.9999999999542 	1.602014092850784e-12 	101324.9999999906
0.4892392392392387 	300.0000000000252 	9.055409539702948e-13 	101324.9999999904
0.4917417417417412 	300.0000000000041 	2.668533164980015e-12 	101324.9999999902
0.4942442442442437 	299.9999999999135 	1.34694012460902e-12 	101324.9999999901
0.4967467467467462 	299.9999999999341 	2.439935226792768e-12 	101324.9999999899
0.4992492492492487 	299.9999999999253 	6.772886007111093e-13 	101324.9999999901
0.5017517517517511 	299.9999999999562 	1.715774326350779e-12 	101324.9999999904
0.5042542542542537 	299.9999999999653 	8.112051331907327e-13 	101324.9999999905
0.5067567567567562 	299.9999999999475 	9.776997133343736e-13 	101324.9999999908
0.5092592592592589 	299.99999999997 	1.087780017390478e-12 	101324.9999999911
0.5117617617617611 	299.9999999999625 	1.506646444951547e-12 	101324.9999999913
0.5142642642642637 	299.9999999999867 	1.653915744283503e-12 	101324.9999999913
0.5167667667667663 	299.9999999999741 	2.509497167385589e-12 	101324.9999999913
0.5192692692692688 	299.9999999999304 	3.822083672020098e-12 	101324.9999999916
0.5217717717717714 	299.99999999995 	2.780227667218536e-12 	101324.9999999916
0.5242742742742736 	299.9999999999518 	3.604028117322557e-12 	101324.9999999915
0.5267767767767763 	299.9999999999631 	2.046596381652745e-12 	101324.9999999916
0.5292792792792789 	299.9999999999432 	2.431895274080576e-12 	101324.9999999914
0.5317817817817813 	299.9999999999176 	1.585428567947252e-12 	101324.9999999915
0.5342842842842837 	300.0000000000192 	1.341601307925842e-12 	101324.9999999917
0.5367867867867864 	300.0000000000051 	9.141850384329906e-13 	101324.9999999919
0.5392892892892888 	299.9999999999633 	1.660636456878812e-12 	101324.9999999919
0.5417917917917912 	300.0000000000016 	4.994285615222477e-13 	101324.9999999916
0.5442942942942938 	299.9999999999861 	1.996152866535719e-12 	101324.9999999914
0.5467967967967964 	299.9999999999599 	1.274104387822381e-12 	101324.9999999913
0.5492992992992988 	299.9999999999503 	2.163416801057453e-12 	101324.9999999914
0.5518018018018012 	299.9999999999432 	1.269420543014417e-12 	101324.9999999913
0.5543043043043039 	300.0000000000171 	1.767216434769716e-12 	101324.9999999913
0.5568068068068063 	299.9999999999908 	8.614308101931628e-13 	101324.9999999914
0.5593093093093087 	299.999999999916 	1.48424785611226e-12 	101324.9999999913
0.5618118118118114 	299.9999999999663 	1.114065026730843e-12 	101324.9999999914
0.5643143143143137 	299.9999999999547 	4.665330918996182e-13 	101324.9999999915
0.5668168168168163 	299.9999999999873 	1.109770711078689e-12 	101324.9999999916
0.5693193193193188 	300.0000000000283 	1.064054621560787e-12 	101324.9999999918
0.5718218218218213 	300.0000000000236 	7.755192997351602e-13 	101324.9999999918
0.5743243243243239 	300.0000000000047 	1.68048065668568e-12 	101324.9999999918
0.5768268268268262 	300.0000000000061 	1.783919547467901e-12 	101324.9999999919
0.5793293293293288 	299.9999999999524 	2.098373942773892e-12 	101324.9999999917
0.5818318318318314 	299.9999999999258 	2.847163246748612e-12 	101324.9999999918
0.5843343343343338 	299.9999999999829 	3.345007535987404e-12 	101324.9999999916
0.5868368368368363 	299.9999999999778 	1.785046155735057e-12 	101324.9999999916
0.5893393393393387 	299.999999999952 	2.593635796916844e-12 	101324.9999999915
0.5918418418418413 	299.9999999999462 	1.262733556211468e-12 	101324.9999999914
0.5943443443443439 	300.0000000000139 	2.245976903301654e-12 	101324.9999999917
0.5968468468468463 	300.0000000000158 	1.069848699238747e-12 	101324.9999999918
0.5993493493493487 	300.0000000000285 	1.508772437013314e-12 	101324.9999999918
0.6018518518518514 	299.9999999999811 	6.409193978649943e-13 	101324.999999992
0.6043543543543537 	299.9999999999991 	1.396151644785328e-12 	101324.9999999922
0.6068568568568564 	299.9999999999886 	6.868853373597988e-13 	101324.9999999922
0.6093593593593587 	299.9999999999455 	1.419178888563599e-12 	101324.9999999923
0.6118618618618614 	299.999999999936 	7.838601020554983e-13 	101324.9999999923
0.6143643643643638 	300.0000000000195 	1.977554814698516e-12 	101324.9999999924
0.6168668668668662 	299.9999999999954 	1.547544658229829e-12 	101324.9999999923
0.6193693693693688 	299.9999999999659 	1.391493928491606e-12 	101324.999999992
0.6218718718718714 	299.9999999999713 	1.750025643482326e-12 	101324.9999999918
0.6243743743743737 	299.9999999999446 	9.492681294251842e-13 	101324.9999999918
0.6268768768768762 	299.9999999999366 	2.047373290668163e-12 	101324.9999999919
0.629379379379379 	299.9999999999608 	1.120771549217553e-12 	101324.999999992
0.6318818818818812 	299.9999999999844 	1.260733639873132e-12 	101324.9999999922
0.6343843843843838 	300.0000000000127 	1.358856195195885e-12 	101324.9999999923
0.6368868868868864 	299.9999999999831 	1.078366352614837e-12 	101324.999999992
0.6393893893893888 	299.9999999999309 	2.568390156607074e-12 	101324.9999999917
0.6418918918918912 	300.0000000000013 	2.291899749182633e-12 	101324.9999999916
0.6443943943943939 	299.9999999999757 	3.131095502659032e-12 	101324.9999999917
0.6468968968968963 	299.9999999999825 	3.393059711775911e-12 	101324.9999999917
0.6493993993993988 	299.9999999999731 	2.536568125538224e-12 	101324.9999999918
0.6519019019019012 	299.9999999999824 	3.288406168725773e-12 	101324.9999999919
0.6544044044044038 	299.9999999999167 	1.522975586716239e-12 	101324.9999999919
0.6569069069069065 	299.9999999999542 	3.367761593346828e-12 	101324.9999999922
0.6594094094094087 	299.9999999999638 	1.097566940587448e-12 	101324.9999999923
0.6619119119119113 	299.9999999999569 	2.349751435630406e-12 	101324.9999999924
0.664414414414414 	300.0000000000023 	9.06994585759169e-13 	101324.9999999926
0.6669169169169162 	300.0000000000159 	1.474627233885321e-12 	101324.9999999925
0.6694194194194188 	299.9999999999859 	1.068910790703654e-12 	101324.9999999925
0.6719219219219214 	299.99999999993 	5.398912886927839e-13 	101324.9999999924
0.674424424424424 	299.9999999999745 	1.369385065444428e-12 	101324.9999999923
0.6769269269269262 	299.9999999999332 	5.735319633842494e-13 	101324.9999999921
0.679429429429429 	300.0000000000069 	6.77844403379024e-13 	101324.9999999918
0.6819319319319311 	299.9999999999841 	1.368408998005721e-12 	101324.9999999916
0.6844344344344341 	299.9999999999941 	6.966858193852142e-13 	101324.9999999917
0.686936936936936 	299.9999999999959 	1.204495365429822e-12 	101324.9999999919
0.6894394394394392 	300 	6.538417234844718e-13 	101324.9999999921
0.6919419419419413 	299.9999999999873 	5.54310452737634e-13 	101324.9999999922
0.694444444444444 	299.9999999999375 	6.08172654665828e-13 	101324.9999999923
0.6969469469469463 	299.9999999999372 	5.991592274355048e-13 	101324.9999999925
0.6994494494494489 	299.9999999999294 	1.648111748395088e-12 	101324.9999999924
0.7019519519519515 	299.9999999999887 	1.235117752627989e-12 	101324.9999999926
0.7044544544544538 	299.9999999999608 	2.386519893789476e-12 	101324.9999999925
0.7069569569569564 	299.9999999999931 	1.565309965416238e-12 	101324.9999999925
0.7094594594594589 	299.9999999999706 	3.221475000813069e-12 	101324.9999999926
0.7119619619619615 	299.9999999999258 	1.220840359877373e-12 	101324.9999999926
0.7144644644644638 	299.9999999999526 	2.379810417319208e-12 	101324.9999999927
0.7169669669669665 	299.9999999999287 	1.139661685570347e-12 	101324.9999999928
0.7194694694694688 	299.9999999999882 	1.518520651698396e-12 	101324.9999999929
0.7219719719719715 	299.999999999981 	4.66884617670539e-13 	101324.9999999929
0.7244744744744737 	300.0000000000027 	3.845614195152532e-13 	101324.9999999928
0.7269769769769764 	299.9999999999956 	9.857044524103866e-13 	101324.9999999927
0.7294794794794791 	299.9999999999905 	1.731868349307663e-12 	101324.9999999927
0.7319819819819813 	299.9999999999847 	1.098623337822704e-12 	101324.9999999927
0.7344844844844839 	299.9999999999329 	2.007069281531007e-12 	101324.9999999928
0.7369869869869864 	299.9999999999571 	8.51463106896877e-13 	101324.999999993
0.739489489489489 	299.9999999999432 	7.267849540953685e-13 	101324.9999999929
0.7419919919919914 	299.9999999999313 	1.317820641307838e-12 	101324.9999999929
0.7444944944944939 	299.9999999999783 	1.778273061409964e-12 	101324.9999999929
0.7469969969969963 	299.9999999999753 	2.620227901443192e-12 	101324.9999999928
0.7494994994994989 	299.99999999995 	2.240682448654534e-12 	101324.9999999928
0.7520020020020015 	299.9999999999784 	2.699554267484611e-12 	101324.9999999927
0.7545045045045039 	299.9999999999769 	1.676554016512557e-12 	101324.9999999928
0.7570070070070062 	299.9999999999494 	2.036251051800395e-12 	101324.9999999925
0.7595095095095092 	299.9999999999317 	1.0343214812996e-12 	101324.9999999923
0.7620120120120112 	300.0000000000007 	1.926596928101259e-12 	101324.9999999922
0.7645145145145138 	299.9999999999881 	1.576907415487896e-12 	101324.9999999921
0.7670170170170165 	299.9999999999412 	1.309893416949477e-12 	101324.9999999924
0.7695195195195191 	299.9999999999332 	2.076058117202557e-12 	101324.9999999927
0.7720220220220213 	299.9999999999389 	1.176046949863188e-12 	101324.9999999929
0.7745245245245239 	299.9999999999457 	2.527041458843902e-12 	101324.999999993
0.7770270270270263 	299.9999999999756 	1.312186477123373e-12 	101324.9999999929
0.779529529529529 	299.9999999999812 	2.333382177354854e-12 	101324.9999999928
0.7820320320320313 	299.999999999972 	1.78618200394806e-12 	101324.9999999929
0.784534534534534 	299.9999999999962 	2.156187864188463e-12 	101324.999999993
0.7870370370370364 	299.9999999999914 	2.346643078948241e-12 	101324.9999999928
0.7895395395395389 	299.9999999999791 	1.777059526123764e-12 	101324.9999999925
0.7920420420420413 	299.9999999999758 	2.754297760629358e-12 	101324.9999999924
0.794544544544544 	299.9999999999791 	1.26489681293735e-12 	101324.9999999922
0.7970470470470463 	300.0000000000048 	2.936156694626375e-12 	101324.9999999921
0.799549549549549 	299.9999999999844 	1.884266488491785e-12 	101324.9999999922
0.8020520520520515 	299.9999999999942 	2.034729908354559e-12 	101324.9999999922
0.8045545545545539 	299.9999999999562 	7.137934000724979e-13 	101324.999999992
0.8070570570570563 	299.9999999999866 	9.441453176883895e-13 	101324.9999999921
0.8095595595595589 	299.9999999999635 	6.711778011886237e-13 	101324.999999992
0.8120620620620614 	299.9999999999411 	1.010649569040425e-12 	101324.999999992
0.8145645645645638 	299.9999999999952 	1.536626938673855e-12 	101324.9999999921
0.8170670670670666 	299.9999999999873 	1.721434701328266e-12 	101324.9999999922
0.8195695695695689 	299.9999999999752 	2.763662216495016e-12 	101324.9999999923
0.8220720720720714 	299.9999999999514 	1.121894926121956e-12 	101324.9999999923
0.8245745745745739 	300.0000000000016 	1.920110285193494e-12 	101324.9999999923
0.8270770770770765 	299.999999999982 	5.089730189527048e-13 	101324.9999999923
0.8295795795795788 	299.9999999999517 	1.18602431380102e-12 	101324.9999999921
0.8320820820820815 	300.0000000000144 	5.542284075107848e-13 	101324.999999992
0.834584584584584 	300.0000000000039 	3.463888676399417e-13 	101324.999999992
0.8370870870870865 	299.9999999999728 	4.024550275154553e-13 	101324.9999999919
0.8395895895895891 	299.9999999999366 	4.256922694505816e-13 	101324.999999992
0.8420920920920915 	299.9999999999434 	3.771029571001443e-13 	101324.9999999921
0.844594594594594 	299.999999999939 	3.905106307400418e-13 	101324.9999999921
0.8470970970970964 	299.9999999999485 	9.396798768597854e-13 	101324.999999992
0.8495995995995991 	299.999999999982 	9.096742136251469e-13 	101324.9999999921
0.8521021021021015 	299.9999999999774 	1.275755084390137e-12 	101324.9999999919
0.8546046046046039 	299.9999999999757 	2.036101381875597e-12 	101324.999999992
0.8571071071071066 	299.9999999999942 	1.640388554256875e-12 	101324.9999999921
0.8596096096096089 	299.9999999999594 	2.685102148227547e-12 	101324.999999992
0.8621121121121116 	299.9999999999307 	1.261945741406217e-12 	101324.9999999917
0.8646146146146139 	299.9999999999862 	2.334617785868971e-12 	101324.9999999917
0.8671171171171166 	299.9999999999711 	1.394926971624451e-12 	101324.9999999918
0.8696196196196189 	299.9999999999508 	1.48478437920046e-12 	101324.9999999919
0.8721221221221216 	299.9999999999745 	6.380662855594868e-13 	101324.9999999918
0.874624624624624 	299.9999999999991 	6.630492753024667e-13 	101324.9999999917
0.8771271271271264 	300.0000000000001 	1.544736041241968e-12 	101324.9999999916
0.879629629629629 	300.0000000000052 	1.975157339851331e-12 	101324.9999999918
0.8821321321321317 	299.9999999999854 	2.108954887379062e-12 	101324.9999999919
0.8846346346346339 	299.9999999999233 	1.96733819712845e-12 	101324.9999999919
0.8871371371371364 	299.9999999999552 	1.38832374476746e-12 	101324.9999999919
0.8896396396396391 	299.9999999999582 	1.132273768520005e-12 	101324.9999999919
0.8921421421421414 	299.9999999999616 	5.426389211334236e-13 	101324.999999992
0.8946446446446441 	299.9999999999851 	1.079109840612494e-12 	101324.9999999918
0.8971471471471464 	300.0000000000019 	7.085659856326373e-13 	101324.9999999917
0.8996496496496489 	299.9999999999781 	3.361247594702434e-13 	101324.9999999916
0.9021521521521517 	299.9999999999637 	3.039787442223004e-13 	101324.9999999914
0.9046546546546541 	299.9999999999911 	2.698935777731128e-13 	101324.9999999915
0.9071571571571564 	299.999999999954 	3.985333351773653e-13 	101324.9999999917
0.9096596596596589 	299.9999999999537 	5.892447532603895e-13 	101324.9999999918
0.9121621621621616 	300.0000000000058 	1.083052483425822e-12 	101324.9999999916
0.9146646646646639 	299.9999999999832 	1.401317986291367e-12 	101324.9999999913
0.9171671671671666 	299.9999999999522 	2.139626273838483e-12 	101324.9999999912
0.9196696696696689 	300.0000000000017 	1.918096863077248e-12 	101324.9999999911
0.9221721721721714 	300.0000000000048 	2.8327068107761e-12 	101324.9999999911
0.9246746746746741 	299.999999999951 	1.564957979771252e-12 	101324.9999999912
0.9271771771771765 	299.9999999999525 	2.396964099655196e-12 	101324.9999999913
0.9296796796796791 	299.9999999999919 	1.266413066501013e-12 	101324.9999999914
0.9321821821821816 	299.9999999999681 	2.179344252387238e-12 	101324.9999999914
0.9346846846846838 	299.9999999999466 	1.511195756556985e-12 	101324.9999999915
0.9371871871871866 	299.9999999999973 	2.056067481731985e-12 	101324.9999999917
0.9396896896896891 	299.9999999999981 	2.494378291983577e-12 	101324.9999999919
0.9421921921921914 	299.9999999999978 	2.509326082523376e-12 	101324.9999999919
0.9446946946946939 	299.9999999999646 	3.345181801073745e-12 	101324.9999999919
0.9471971971971965 	299.9999999999279 	1.58457062701633e-12 	101324.9999999918
0.9496996996996991 	299.999999999961 	2.40741211185326e-12 	101324.9999999919
0.9522022022022016 	299.9999999999716 	1.063899582554316e-12 	101324.9999999919
0.9547047047047038 	299.9999999999725 	1.253350127251957e-12 	101324.9999999917
0.9572072072072064 	299.9999999999673 	4.513748549607168e-13 	101324.9999999915
0.9597097097097093 	299.9999999999783 	4.16800541193232e-13 	101324.9999999913
0.9622122122122114 	299.9999999999695 	8.083577496106615e-13 	101324.9999999912
0.964714714714714 	299.9999999999676 	1.428871306857622e-12 	101324.9999999908
0.9672172172172167 	299.9999999999658 	1.346310982915064e-12 	101324.9999999906
0.969719719719719 	299.9999999999881 	1.695091518259205e-12 	101324.9999999906
0.9722222222222214 	299.9999999999804 	1.478849941589746e-12 	101324.9999999903
0.9747247247247239 	299.9999999999743 	1.532067734983056e-12 	101324.99999999
0.9772272272272267 	299.9999999999976 	2.473987224314422e-12 	101324.99999999
0.9797297297297292 	299.999999999991 	2.138055928390111e-12 	101324.99999999
0.9822322322322313 	299.9999999999958 	2.741182212054931e-12 	101324.9999999901
0.9847347347347344 	299.9999999999885 	2.479221227719757e-12 	101324.9999999903
0.9872372372372363 	299.9999999999568 	2.157294280437205e-12 	101324.9999999904
0.9897397397397389 	299.9999999999692 	1.374568499992948e-12 	101324.9999999904
0.9922422422422417 	299.999999999949 	1.575554807795061e-12 	101324.9999999906
0.9947447447447441 	299.9999999999557 	1.119100315113109e-12 	101324.9999999906
0.9972472472472468 	299.9999999999655 	1.872046682536768e-12 	101324.9999999907
0.999749749749749 	299.9999999999637 	1.536247889052028e-12 	101324.9999999906
1.002252252252252 	299.9999999999786 	1.710189534159021e-12 	101324.9999999906
1.004754754754754 	299.99999999998 	2.304395096713731e-12 	101324.9999999907
1.007257257257256 	299.9999999999623 	1.811544665025803e-12 	101324.9999999907
1.009759759759759 	299.9999999999543 	2.224673597574171e-12 	101324.9999999905
1.012262262262261 	299.9999999999607 	1.042710745533939e-12 	101324.9999999904
1.014764764764764 	299.9999999999289 	1.160255381338248e-12 	101324.9999999904
1.017267267267267 	299.9999999999194 	5.89620887540982e-13 	101324.9999999905
1.019769769769769 	299.9999999999691 	1.133847487484782e-12 	101324.9999999907
1.022272272272272 	299.999999999976 	5.973891374819775e-13 	101324.9999999907
1.024774774774774 	299.9999999999678 	4.65289500601061e-13 	101324.9999999908
1.027277277277277 	299.9999999999677 	5.769618278424485e-13 	101324.9999999907
1.029779779779779 	299.9999999999959 	6.051137509271976e-13 	101324.9999999908
1.032282282282282 	299.9999999999956 	5.075943953610174e-13 	101324.9999999907
1.034784784784784 	299.9999999999854 	7.169301932916979e-13 	101324.9999999908
1.037287287287286 	299.9999999999599 	1.003222234076298e-12 	101324.9999999908
1.039789789789789 	299.9999999999776 	1.261702217636632e-12 	101324.9999999908
1.042292292292291 	300.0000000000088 	1.369424035517991e-12 	101324.9999999909
1.044794794794794 	300.0000000000101 	2.00571191863083e-12 	101324.9999999908
1.047297297297296 	300.000000000031 	3.056868926886202e-12 	101324.9999999909
1.049799799799799 	299.999999999982 	2.404760443913856e-12 	101324.9999999907
1.052302302302302 	299.9999999999562 	2.920289135959715e-12 	101324.9999999905
1.054804804804804 	299.9999999999421 	1.885572160644673e-12 	101324.9999999905
1.057307307307306 	299.9999999999181 	2.732278724006089e-12 	101324.9999999905
1.059809809809809 	299.9999999999505 	2.344551423224955e-12 	101324.9999999906
1.062312312312312 	299.9999999999496 	2.48215880754456e-12 	101324.9999999907
1.064814814814814 	299.9999999999491 	2.189508948980509e-12 	101324.9999999906
1.067317317317317 	299.9999999999216 	2.290327165161531e-12 	101324.9999999905
1.069819819819819 	299.9999999999203 	1.967552380807471e-12 	101324.9999999904
1.072322322322321 	299.9999999999752 	1.216998530432545e-12 	101324.9999999903
1.074824824824824 	299.9999999999837 	2.164226551223492e-12 	101324.9999999903
1.077327327327327 	300.0000000000043 	1.587004398874375e-12 	101324.9999999902
1.079829829829829 	300.000000000023 	2.224928493778535e-12 	101324.99999999
1.082332332332332 	300.0000000000011 	2.181567757609379e-12 	101324.9999999898
1.084834834834834 	299.9999999999793 	2.125664724725838e-12 	101324.9999999895
1.087337337337337 	299.9999999999383 	3.56913802492504e-12 	101324.9999999893
1.089839839839839 	299.9999999999354 	2.940521166241331e-12 	101324.9999999892
1.092342342342342 	299.9999999999674 	3.185158645970919e-12 	101324.9999999893
1.094844844844844 	299.9999999999786 	3.493853588158228e-12 	101324.9999999896
1.097347347347347 	299.9999999999533 	3.243773417420145e-12 	101324.9999999898
1.099849849849849 	299.9999999999422 	2.906293649432358e-12 	101324.9999999898
1.102352352352352 	299.9999999999526 	2.474479419950815e-12 	101324.9999999899
1.104854854854854 	299.9999999999696 	2.100162977435764e-12 	101324.9999999898
1.107357357357357 	299.999999999964 	3.020564782160754e-12 	101324.9999999898
1.109859859859859 	299.9999999999426 	1.547088072002731e-12 	101324.9999999897
1.112362362362362 	300.000000000004 	1.941285846066576e-12 	101324.9999999896
1.114864864864865 	300.0000000000061 	1.764161250122403e-12 	101324.9999999895
1.117367367367367 	299.9999999999656 	1.257910307430893e-12 	101324.9999999895
1.119869869869869 	299.999999999932 	1.158018904738725e-12 	101324.9999999895
1.122372372372372 	299.9999999999421 	4.416787876668327e-13 	101324.9999999893
1.124874874874874 	299.9999999999404 	8.11834117979852e-13 	101324.9999999891
1.127377377377377 	299.9999999999627 	7.828136982413542e-13 	101324.9999999891
1.129879879879879 	300.0000000000206 	1.76671020449138e-12 	101324.9999999891
1.132382382382382 	300.0000000000223 	2.078370568293746e-12 	101324.9999999893
1.134884884884884 	299.9999999999976 	2.736454501432462e-12 	101324.9999999897
1.137387387387387 	300.0000000000057 	2.70183201987713e-12 	101324.9999999898
1.139889889889889 	299.9999999999569 	2.200794073464834e-12 	101324.9999999898
1.142392392392392 	299.9999999999495 	3.011428771411381e-12 	101324.99999999
1.144894894894894 	299.9999999999956 	2.578738030553037e-12 	101324.9999999899
1.147397397397397 	299.99999999998 	3.558215221281218e-12 	101324.9999999898
1.149899899899899 	299.9999999999321 	3.168695348668194e-12 	101324.9999999896
1.152402402402402 	299.999999999925 	3.194017646480282e-12 	101324.9999999896
1.154904904904904 	299.9999999999568 	2.488808553763539e-12 	101324.9999999898
1.157407407407407 	299.9999999999603 	2.739123276163513e-12 	101324.9999999898
1.159909909909909 	299.9999999999397 	2.766306683118014e-12 	101324.9999999898
1.162412412412412 	299.9999999999319 	2.125479064918646e-12 	101324.9999999897
1.164914914914914 	299.9999999999488 	3.121102740469541e-12 	101324.9999999897
1.167417417417417 	299.9999999999476 	3.037803084723443e-12 	101324.99999999
1.169919919919919 	299.999999999989 	4.282070244442377e-12 	101324.9999999902
1.172422422422422 	300.0000000000169 	4.178502221947063e-12 	101324.9999999901
1.174924924924925 	299.9999999999748 	4.445127539225326e-12 	101324.9999999901
1.177427427427427 	299.999999999948 	3.511718953129907e-12 	101324.9999999899
1.179929929929929 	299.9999999999912 	2.562537856582277e-12 	101324.9999999896
1.182432432432432 	300.0000000000177 	3.415184628329199e-12 	101324.9999999897
1.184934934934934 	299.9999999999994 	3.088885618781515e-12 	101324.9999999896
1.187437437437437 	299.9999999999798 	3.841640743268664e-12 	101324.9999999895
1.189939939939939 	299.9999999999658 	3.654973133443831e-12 	101324.9999999895
1.192442442442442 	299.9999999999324 	4.769127018567282e-12 	101324.9999999897
1.194944944944944 	299.9999999999334 	4.543499144351274e-12 	101324.99999999
1.197447447447447 	299.9999999999822 	5.192181291237384e-12 	101324.9999999902
1.199949949949949 	299.9999999999939 	5.430288056423754e-12 	101324.99999999
1.202452452452452 	299.9999999999503 	4.908451498136408e-12 	101324.9999999898
1.204954954954955 	299.9999999999447 	5.31405357591641e-12 	101324.9999999898
1.207457457457457 	299.9999999999646 	3.947258663737477e-12 	101324.9999999898
1.20995995995996 	299.9999999999616 	4.004108423106333e-12 	101324.9999999896
1.212462462462462 	299.9999999999769 	3.00871759395266e-12 	101324.9999999895
1.214964964964964 	299.9999999999832 	3.309246172184901e-12 	101324.9999999893
1.217467467467467 	299.999999999991 	2.995347727861128e-12 	101324.9999999893
1.219969969969969 	299.9999999999696 	4.578342168156894e-12 	101324.9999999895
1.222472472472472 	300.0000000000023 	4.815577834507444e-12 	101324.9999999896
1.224974974974975 	300.0000000000371 	4.715520417325428e-12 	101324.9999999896
1.227477477477477 	299.9999999999906 	5.731992586410486e-12 	101324.9999999898
1.229979979979979 	299.9999999999744 	4.892899828116652e-12 	101324.9999999899
1.232482482482482 	299.9999999999537 	5.734344029519302e-12 	101324.9999999898
1.234984984984984 	299.9999999999541 	4.787274604848098e-12 	101324.9999999896
1.237487487487487 	299.9999999999716 	5.405702144776913e-12 	101324.9999999893
1.239989989989989 	299.9999999999734 	4.831177560245265e-12 	101324.9999999893
1.242492492492492 	300.0000000000005 	4.271712617939037e-12 	101324.9999999893
1.244994994994994 	299.9999999999813 	4.946160440212107e-12 	101324.9999999891
1.247497497497497 	299.9999999999967 	4.163937163792345e-12 	101324.9999999891
1.249999999999999 	300.0000000000313 	4.885783130473738e-12 	101324.9999999891
