-1.25 	299.9970308874517 	0.9998103078658909 	101325
-1.247497497497497 	299.9941675203951 	0.9873305583944904 	101318.116402814
-1.244994994994995 	299.9885277782316 	0.966858715976688 	101311.4502657322
-1.242492492492492 	299.9830885968046 	0.9511460640742637 	101305.0096426379
-1.23998998998999 	299.9779474880179 	0.9362788798520258 	101298.9320818895
-1.237487487487487 	299.9732097829121 	0.9225859647763984 	101293.332520557
-1.234984984984985 	299.9689638926032 	0.9103151538434064 	101288.3142464419
-1.232482482482482 	299.9652877584484 	0.8996908134683563 	101283.9695950372
-1.22997997997998 	299.962248265552 	0.8909074241021608 	101280.3775601578
-1.227477477477477 	299.9599019096452 	0.8841273361045352 	101277.6046175495
-1.224974974974975 	299.9582922576629 	0.8794763610484972 	101275.7023014704
-1.222472472472472 	299.9574483968851 	0.8770387956344217 	101274.704996916
-1.21996996996997 	299.9573845614279 	0.8768573793260731 	101274.6298152428
-1.217467467467467 	299.9581027010834 	0.8789351755165867 	101275.4784279724
-1.214964964964965 	299.959589774816 	0.8832335276774892 	101277.2352644065
-1.212462462462462 	299.9618164837393 	0.8896710464614803 	101279.8665927803
-1.20995995995996 	299.9647417802708 	0.8981280603517139 	101283.3237099378
-1.207457457457457 	299.9683120967611 	0.9084489560555178 	101287.5432114881
-1.204954954954955 	299.9724614601125 	0.9204436099940261 	101292.4473042253
-1.202452452452452 	299.9771138633985 	0.9338919604063709 	101297.9461146044
-1.19994994994995 	299.982184219661 	0.9485480276950531 	101303.9392297929
-1.197447447447447 	299.9875796365512 	0.9641432488831694 	101310.3168297557
-1.194944944944945 	299.9932012296174 	0.9803919964798579 	101316.962050166
-1.192442442442442 	299.9989464539399 	0.996997902099833 	101323.7537828147
-1.18993993993994 	300.0047106420031 	1.013658097692206 	101330.568275034
-1.187437437437437 	300.0103880899024 	1.03006746525051 	101337.280594513
-1.184934934934935 	300.0158748557754 	1.045925636551945 	101343.7677313459
-1.182432432432432 	300.0210710511269 	1.06094376575957 	101349.9115899159
-1.17992992992993 	300.0258821929987 	1.07484861864954 	101355.6004293096
-1.177427427427427 	300.0302203867822 	1.087386273328022 	101360.7302623722
-1.174924924924925 	300.0340060533321 	1.09832691344412 	101365.2069448981
-1.172422422422422 	300.0371697870144 	1.107469754981583 	101368.9482211338
-1.16991991991992 	300.0396535259466 	1.114647458870203 	101371.885496448
-1.167417417417417 	300.0414121334456 	1.119729560504323 	101373.9653761919
-1.164914914914915 	300.0424140073525 	1.122623928289526 	101375.1502469009
-1.162412412412412 	300.0426408440574 	1.123276413713082 	101375.4181081635
-1.15990990990991 	300.042086182424 	1.121671255422242 	101374.7620407369
-1.157407407407407 	300.0407586436737 	1.117834973825059 	101373.1926821564
-1.154904904904904 	300.0386837338089 	1.111837690132956 	101370.7392616849
-1.152402402402403 	300.0358992421916 	1.103788454125097 	101367.4464463819
-1.1498998998999 	300.0324548999856 	1.09383257493018 	101363.3735358331
-1.147397397397397 	300.0284134676747 	1.082150843142011 	101358.5946034404
-1.144894894894895 	300.0238486009606 	1.068956229220724 	101353.1968977054
-1.142392392392392 	300.0188435645071 	1.054489623229956 	101347.2790054884
-1.13988988988989 	300.0134900726757 	1.039015867622763 	101340.9492969713
-1.137387387387387 	300.0078865104004 	1.022819496348654 	101334.3242263448
-1.134884884884885 	300.002136442983 	1.006199712602544 	101327.526247722
-1.132382382382382 	299.9963463803014 	0.9894643468197545 	101320.6813467581
-1.12987987987988 	299.9906235532198 	0.9729230906487085 	101313.9162164333
-1.127377377377377 	299.9850735679092 	0.9568813854724012 	101307.3556747742
-1.124874874874875 	299.9797987947997 	0.941635567745591 	101301.1208003586
-1.122372372372372 	299.9748970539771 	0.9274679347743968 	101295.327035538
-1.11986986986987 	299.9704590392734 	0.9146407924287286 	101290.0816301097
-1.117367367367367 	299.9665667233812 	0.9033906655252015 	101285.4811971276
-1.114864864864865 	299.9632913310131 	0.8939238681253331 	101281.6100251507
-1.112362362362362 	299.9606924311651 	0.8864128543028331 	101278.5385896672
-1.10985985985986 	299.9588169068119 	0.8809928444379386 	101276.322108961
-1.107357357357357 	299.9576978375886 	0.877759583189788 	101274.9996506452
-1.104854854854855 	299.9573543086078 	0.876768912850256 	101274.5938525491
-1.102352352352353 	299.9577922686012 	0.8780372217535763 	101275.1115874943
-1.09984984984985 	299.9590038428004 	0.8815394763959192 	101276.5430195705
-1.097347347347347 	299.9609647002359 	0.8872074719703418 	101278.8599890584
-1.094844844844845 	299.9636370265517 	0.8949329913353783 	101282.0181405429
-1.092342342342342 	299.9669713497784 	0.9045719193340227 	101285.9587387727
-1.08983983983984 	299.9709063279645 	0.9159470235528091 	101290.6094007835
-1.087337337337337 	299.9753702634483 	0.928850725861778 	101295.8853970884
-1.084834834834835 	299.9802818335579 	0.943047925937415 	101301.6907124541
-1.082332332332332 	299.9855514755426 	0.9582797585995406 	101307.9195115997
-1.07982982982983 	299.9910831368911 	0.9742687866966222 	101314.4583440286
-1.077327327327327 	299.9967763262617 	0.9907245606000383 	101321.188484893
-1.074824824824825 	300.0025279431555 	1.00734866133876 	101327.9879221616
-1.072322322322323 	300.0082334864319 	1.023839561210099 	101334.7333203147
-1.06981981981982 	300.0137894733048 	1.039897853582078 	101341.3021915501
-1.067317317317317 	300.0190949419999 	1.055231712082186 	101347.5751236746
-1.064814814814815 	300.0240532406916 	1.069562194848394 	101353.4379517046
-1.062312312312312 	300.0285742743911 	1.082628286139992 	101358.7838383616
-1.05980980980981 	300.0325754041765 	1.094191693327814 	101363.5152098496
-1.057307307307307 	300.0359836088013 	1.104041348664233 	101367.5456151466
-1.054804804804805 	300.0387367453455 	1.111997295483822 	101370.8013789219
-1.052302302302302 	300.0407841795685 	1.117913509459886 	101373.2227262065
-1.0497997997998 	300.0420878825387 	1.121679922020323 	101374.764557287
-1.047297297297297 	300.0426231128372 	1.123224223144198 	101375.3973200585
-1.044794794794795 	300.0423781433605 	1.122512740736378 	101375.1072366543
-1.042292292292292 	300.0413542060048 	1.119552715594842 	101373.8966562351
-1.03978978978979 	300.0395697515585 	1.114395190414539 	101371.7868456772
-1.037287287287287 	300.0370574040161 	1.107132562999746 	101368.8159459543
-1.034784784784785 	300.0338616020474 	1.097894543581154 	101365.0368494984
-1.032282282282283 	300.0300396706901 	1.08684698120303 	101360.5174216086
-1.02977977977978 	300.0256608559805 	1.074190266101557 	101355.3396937493
-1.027277277277277 	300.020805384222 	1.0601559878619 	101349.5984996557
-1.024774774774775 	300.0155626756645 	1.045002752113958 	101343.3997183799
-1.022272272272272 	300.0100299197503 	1.029011330993132 	101336.8582776443
-1.01976976976977 	300.0043100993997 	1.012479152975657 	101330.0959326828
-1.017267267267267 	299.9985097588215 	0.9957143050521488 	101323.2387553885
-1.014764764764765 	299.9927370947649 	0.979029426987533 	101316.4145982371
-1.012262262262262 	299.9870998009775 	0.962735860917044 	101309.7507752182
-1.00975975975976 	299.9817031693125 	0.9471378391419515 	101303.3717036673
-1.007257257257257 	299.9766477906145 	0.9325261761274468 	101297.3962905311
-1.004754754754755 	299.9720274688576 	0.919171865805661 	101291.9353090243
-1.002252252252252 	299.9679272060313 	0.9073206604978207 	101287.0891506012
-0.9997497497497498 	299.9644217467009 	0.8971888616852021 	101282.9461440094
-0.9972472472472473 	299.9615745560946 	0.8889598224661917 	101279.5811990364
-0.9947447447447449 	299.9594366192999 	0.8827807940787172 	101277.0544837443
-0.9922422422422421 	299.9580453672214 	0.8787601575592489 	101275.4102458635
-0.9897397397397399 	299.9574240758649 	0.8769657624561856 	101274.6761172814
-0.9872372372372376 	299.9575822035046 	0.8774254214332494 	101274.8633160606
-0.9847347347347346 	299.9585165831702 	0.8801266547224689 	101275.96728055
-0.9822322322322323 	299.9602077294288 	0.8850147306683938 	101277.9654522966
-0.9797297297297296 	299.9626221419074 	0.8919945058341061 	101280.8187163087
-0.9772272272272275 	299.9657146885597 	0.900934627586386 	101284.4735560281
-0.9747247247247248 	299.9694283617916 	0.9116699327288588 	101288.8625677743
-0.9722222222222224 	299.9736951391377 	0.9240038269797189 	101293.9054712714
-0.9697197197197196 	299.9784373187528 	0.9377117310548 	101299.5105001044
-0.9672172172172175 	299.983568975434 	0.9525451787168943 	101305.5761104205
-0.9647147147147147 	299.9889974542334 	0.9682362621855016 	101311.9928299759
-0.9622122122122124 	299.9946248003752 	0.9845020746053629 	101318.6450347053
-0.9597097097097099 	300.0003496947659 	1.001049214130402 	101325.4127794568
-0.9572072072072073 	300.0060685753592 	1.017578704629337 	101332.1737624974
-0.9547047047047047 	300.0116778757786 	1.03379156859627 	101338.8056295676
-0.9522022022022023 	300.0170764035108 	1.049394679639312 	101345.1884476192
-0.9496996996996998 	300.0221664282114 	1.06410613652478 	101351.206902488
-0.9471971971971973 	300.0268560421798 	1.077659940027544 	101356.7521373926
-0.9446946946946947 	300.0310602868656 	1.089810328080782 	101361.7235485372
-0.9421921921921923 	300.0347023478766 	1.100335912264628 	101366.0304866149
-0.93968968968969 	300.037715594758 	1.109043605638508 	101369.5938607662
-0.9371871871871872 	300.0400442271356 	1.115772241722576 	101372.3476618185
-0.9346846846846848 	300.0416444096828 	1.120395585024437 	101374.2401855396
-0.9321821821821823 	300.042485591936 	1.122824642258224 	101375.2349638896
-0.9296796796796799 	300.0425507184939 	1.123008551752357 	101375.3114210327
-0.9271771771771771 	300.0418340022971 	1.120935291917159 	101374.4640160612
-0.9246746746746748 	300.0403463959767 	1.116635359342116 	101372.7052370254
-0.9221721721721724 	300.0381142342605 	1.110182734309937 	101370.0657779046
-0.9196696696696698 	300.0351767209229 	1.101691155817468 	101366.5921203472
-0.9171671671671672 	300.0315861588566 	1.091311994513859 	101362.3461466837
-0.9146646646646649 	300.0274071068749 	1.079232816816022 	101357.404659585
-0.9121621621621623 	300.0227163312392 	1.065674381169781 	101351.8580673207
-0.9096596596596597 	300.0176000691868 	1.050886557728368 	101345.8086551932
-0.9071571571571573 	300.0121533037527 	1.035144098062229 	101339.3688441738
-0.9046546546546547 	300.0064784005197 	1.018741960485061 	101332.6593856992
-0.9021521521521524 	300.0006819853438 	1.001989095049286 	101325.8067923951
-0.8996496496496498 	299.9948736429283 	0.9852014248858554 	101318.9403168084
-0.8971471471471473 	299.9891627838023 	0.9686953565503069 	101312.1893629075
-0.894644644644645 	299.9836567044874 	0.9527812995429417 	101305.6809088088
-0.892142142142142 	299.9784586499881 	0.9377570522108704 	101299.5366750547
-0.8896396396396397 	299.9736650987192 	0.9239021324643834 	101293.8708619269
-0.8871371371371374 	299.9693647094501 	0.9114726260055026 	101288.7881817932
-0.8846346346346349 	299.9656362751326 	0.9006957985953563 	101284.3815093747
-0.8821321321321324 	299.9625466750041 	0.8917658322596571 	101280.7300708375
-0.8796296296296297 	299.9601508491516 	0.8848411858677094 	101277.8985978619
-0.8771271271271271 	299.9584904321378 	0.8800419696390649 	101275.9362018835
-0.8746246246246248 	299.9575927164926 	0.8774478430487905 	101274.8753022826
-0.8721221221221224 	299.9574710952919 	0.8770986936728487 	101274.731905295
-0.8696196196196196 	299.958127025971 	0.8789955546223349 	101275.5069875178
-0.8671171171171175 	299.9595462180306 	0.8830972661914975 	101277.1838203134
-0.8646146146146148 	299.9616991396114 	0.8893204268950254 	101279.7278298867
-0.8621121121121121 	299.9645442579069 	0.8975455343170212 	101283.0902671266
-0.8596096096096097 	299.9680293190455 	0.9076200146257528 	101287.2090541046
-0.857107107107107 	299.9720902407807 	0.9193588922255302 	101292.0085574666
-0.8546046046046049 	299.976652988489 	0.9325487229059655 	101297.4014706266
-0.8521021021021022 	299.9816359143161 	0.9469525113637509 	101303.2911422577
-0.8495995995995997 	299.986949565962 	0.9623116909096208 	101309.5720436994
-0.8470970970970974 	299.9924978578816 	0.9783490449090536 	101316.1306456141
-0.8445945945945946 	299.9981809462119 	0.9947760573649451 	101322.8488758439
-0.8420920920920922 	300.0038974269846 	1.011299100299711 	101329.6069135915
-0.8395895895895897 	300.0095447198244 	1.027621635360097 	101336.2835169812
-0.8370870870870872 	300.0150207326013 	1.043449132816271 	101342.7578683529
-0.8345845845845846 	300.0202272020077 	1.058497851905828 	101348.9138950556
-0.8320820820820823 	300.0250716050838 	1.072499082529606 	101354.6420625792
-0.8295795795795798 	300.0294661461542 	1.085199057562259 	101359.8384208632
-0.8270770770770772 	300.0333294668785 	1.096364520164363 	101364.4069670269
-0.8245745745745746 	300.0365916598535 	1.105792280946347 	101368.26463911
-0.8220720720720721 	300.0391937041124 	1.113310884192213 	101371.3418066696
-0.8195695695695699 	300.0410858917074 	1.118777113758484 	101373.579605278
-0.817067067067067 	300.0422297968701 	1.12208118262935 	101374.9323817091
-0.8145645645645651 	300.0426026651265 	1.123156375790516 	101375.373160015
-0.8120620620620621 	300.042195984418 	1.121976487886413 	101374.8918283117
-0.8095595595595597 	300.041011061162 	1.11855008064764 	101373.4910449298
-0.8070570570570572 	300.0390657190214 	1.112927223100384 	101371.1909653243
-0.8045545545545546 	300.0363949479226 	1.10520737921446 	101368.0326133309
-0.8020520520520523 	300.0330482203566 	1.095532675141273 	101364.0750822419
-0.7995495495495494 	300.0290844565409 	1.084073619410548 	101359.3880077375
-0.7970470470470474 	300.0245717498902 	1.071030059039476 	101354.0519075387
-0.7945445445445446 	300.0195936998027 	1.056644187408741 	101348.1659315775
-0.7920420420420423 	300.0142485204505 	1.041195415245308 	101341.8459887507
-0.7895395395395397 	300.0086373517249 	1.024975658790253 	101335.2118844392
-0.7870370370370371 	300.0028610008997 	1.008280251242519 	101328.3828421933
-0.7845345345345348 	299.9970276951682 	0.9914233367963585 	101321.4867111789
-0.7820320320320323 	299.9912546061113 	0.9747396046295229 	101314.6621806265
-0.7795295295295296 	299.9856553655623 	0.9585537032845255 	101308.0433769191
-0.7770270270270272 	299.9803291978689 	0.9431566579725263 	101301.7476712636
-0.7745245245245247 	299.97536896333 	0.9288220747966845 	101295.8848137676
-0.7720220220220222 	299.9708717794473 	0.9158274860163018 	101290.5693789629
-0.7695195195195199 	299.9669296951433 	0.9044324357524134 	101285.9102602683
-0.767017017017017 	299.9636116167334 	0.8948363780949886 	101281.9886831076
-0.7645145145145147 	299.9609632922976 	0.887180240446825 	101278.8587903529
-0.7620120120120122 	299.9590274074592 	0.8815902874890716 	101276.5709216463
-0.7595095095095097 	299.9578498902571 	0.8781909425475577 	101275.1792309794
-0.7570070070070072 	299.9574585599228 	0.8770566522232941 	101274.716967261
-0.7545045045045048 	299.9578466514952 	0.8781729563694701 	101275.1759081804
-0.7520020020020022 	299.9589874314483 	0.8814705362869841 	101276.5235418217
-0.7494994994994997 	299.9608587817725 	0.8868888833674144 	101278.7348582005
-0.7469969969969972 	299.9634469443121 	0.8943747827228317 	101281.793488452
-0.7444944944944945 	299.9667132163622 	0.9038085980969097 	101285.6536305952
-0.7419919919919924 	299.9705766441664 	0.9149671829981758 	101290.2197892081
-0.7394894894894897 	299.9749429018541 	0.9275916831090624 	101295.3802201448
-0.7369869869869872 	299.9797414121514 	0.9414761673647879 	101301.0519025125
-0.7344844844844846 	299.9849202540568 	0.9564520177473831 	101307.1734234807
-0.7319819819819822 	299.990400888246 	0.9722822702473304 	101313.6517836114
-0.7294794794794797 	299.996055708973 	0.9886128298002176 	101320.3365589306
-0.7269769769769773 	300.0017464671627 	1.005063758061737 	101327.0640731241
-0.7244744744744747 	300.0073770726125 	1.021357009825105 	101333.7207247993
-0.721971971971972 	300.0128940687145 	1.037316008929666 	101340.2435531524
-0.7194694694694695 	300.018230656781 	1.052729441178181 	101346.5531997284
-0.7169669669669674 	300.0232631086553 	1.067251332750892 	101352.5035999892
-0.7144644644644647 	300.0278421017684 	1.080478003701138 	101357.9181211689
-0.711961961961962 	300.0318665117128 	1.092128037070384 	101362.6769045419
-0.7094594594594597 	300.0353131389661 	1.102114378370071 	101366.752753716
-0.7069569569569573 	300.0381844021687 	1.110412800893761 	101370.1482358656
-0.7044544544544545 	300.0404293385745 	1.116871308004904 	101372.8030648941
-0.7019519519519523 	300.0419329745767 	1.121186999246853 	101374.5814351897
-0.6994494494494495 	300.0425936186841 	1.123096705654571 	101375.362579803
-0.6969469469469471 	300.0424056036841 	1.122582759374268 	101375.1396538308
-0.6944444444444446 	300.0414554977806 	1.119866513867092 	101374.0166119355
-0.6919419419419421 	300.0398374012462 	1.115181492926054 	101372.1034126799
-0.6894394394394396 	300.0375589618019 	1.108553146325518 	101369.4091594865
-0.6869369369369374 	300.0345519175975 	1.099824296462275 	101365.8532343718
-0.6844344344344344 	300.0307768552332 	1.088918368886673 	101361.3891850769
-0.6819319319319321 	300.0263198223126 	1.076081866322306 	101356.1189882813
-0.6794294294294296 	300.0213837012523 	1.061858972484311 	101350.2823663789
-0.6769269269269272 	300.0161753062214 	1.046805565907034 	101344.1241015296
-0.6744244244244245 	300.0107923447551 	1.031200624886905 	101337.759727351
-0.6719219219219222 	300.0052132506464 	1.015021176474932 	101331.1636915051
-0.6694194194194195 	299.9994010398609 	0.9982089726684107 	101324.2925007119
-0.6669169169169172 	299.9934306476779 	0.9809948939883373 	101317.2345091273
-0.6644144144144146 	299.9875255235073 	0.9639936007919182 	101310.254040709
-0.661911911911912 	299.9819706229026 	0.9479761376133036 	101303.6879165564
-0.6594094094094097 	299.9769685323924 	0.933495925569979 	101297.775393121
-0.656906906906907 	299.9725518382374 	0.92066178842732 	101292.5551103338
-0.6544044044044046 	299.9686210393519 	0.9092355297950808 	101287.9092259165
-0.6519019019019021 	299.9650774574391 	0.8989802452487425 	101283.7211222682
-0.6493993993993996 	299.9619521111684 	0.8899971749189033 	101280.0274736977
-0.6468968968968971 	299.9594350223851 	0.8828026296903636 	101277.052662331
-0.6443943943943946 	299.957784034086 	0.878088225178446 	101275.1014926784
-0.6418918918918921 	299.9571766849532 	0.8763284133087043 	101274.3839082544
-0.6393893893893897 	299.9576040518505 	0.8774979997871498 	101274.8893008348
-0.6368868868868871 	299.9588748381236 	0.8810800940876562 	101276.3905958498
-0.6343843843843846 	299.9607217636241 	0.8863605317420891 	101278.5729286202
-0.6318818818818821 	299.962955859634 	0.892828355686599 	101281.2131801096
-0.6293793793793795 	299.9655621401295 	0.9004353341194076 	101284.2933665286
-0.6268768768768773 	299.9686878481622 	0.9095681446472994 	101287.9874108715
-0.6243743743743745 	299.972535710264 	0.9207626106712805 	101292.5353929923
-0.6218718718718721 	299.977224520241 	0.9343234862723708 	101298.0771683767
-0.6193693693693696 	299.9826868590479 	0.9500516269976395 	101304.5333929705
-0.6168668668668671 	299.9886591696953 	0.9672146878961511 	101311.5929709031
-0.6143643643643645 	299.9947643514015 	0.9847685264387754 	101318.8099240586
-0.6118618618618621 	300.0006422603172 	1.001713828023477 	101325.7587047716
-0.6093593593593596 	300.0060679815653 	1.017418948519118 	101332.1731639244
-0.6068568568568571 	300.0110064134182 	1.03177338984362 	101338.0117620914
-0.6043543543543546 	300.0155879248056 	1.045122665629558 	101343.4286968053
-0.6018518518518521 	300.0200208063413 	1.058028263422158 	101348.6699287409
-0.5993493493493496 	300.0244787627192 	1.070960330400152 	101353.9410869833
-0.5968468468468471 	300.029010136087 	1.084043535252741 	101359.2992525689
-0.5943443443443446 	300.0334963645683 	1.096940726383776 	101364.6041911042
-0.591841841841842 	300.0376691733205 	1.10889848803878 	101369.5388675108
-0.5893393393393397 	300.0411747873976 	1.118922189176559 	101373.6845621259
-0.5868368368368371 	300.0436584060047 	1.126014406701477 	101376.621835264
-0.5843343343343346 	300.0448468288686 	1.129404113203462 	101378.0272652284
-0.5818318318318321 	300.0446058057433 	1.128707375306433 	101377.7410172084
-0.5793293293293297 	300.0429567482033 	1.123994419450505 	101375.7916559094
-0.5768268268268271 	300.0400794956021 	1.115764302051503 	101372.3898038849
-0.5743243243243245 	300.0362633685542 	1.104833226583252 	101367.8771434525
-0.5718218218218221 	300.0318517722411 	1.092178064781066 	101362.6603404098
-0.5693193193193196 	300.027190738621 	1.078785741344467 	101357.1487511015
-0.5668168168168171 	300.0225858205823 	1.06553167119884 	101351.7037049241
-0.5643143143143147 	300.018275236629 	1.053102400527948 	101346.606863058
-0.5618118118118121 	300.0144198074762 	1.041964927907183 	101342.0483378018
-0.5593093093093094 	300.0111059175703 	1.03237363463572 	101338.1302156017
-0.5568068068068072 	300.0083570068065 	1.02440206340342 	101334.8801605518
-0.5543043043043046 	300.0061493086864 	1.017987254378781 	101332.2700321374
-0.551801801801802 	300.0044282827074 	1.012976468280724 	101330.235317514
-0.5492992992992995 	300.0031232704384 	1.009169159267365 	101328.6924587174
-0.5467967967967969 	300.0021590318107 	1.006350250553302 	101327.552490043
-0.5442942942942947 	300.0014637702258 	1.004313475097111 	101326.7305228721
-0.5417917917917919 	300.0009739141163 	1.002875453449595 	101326.1513964613
-0.5392892892892895 	300.0006362873578 	1.001882250458728 	101325.7522419879
-0.536786786786787 	300.0004084177372 	1.001210523025465 	101325.4828464986
-0.5342842842842846 	300.000257687003 	1.000765262216695 	101325.3046473231
-0.531781781781782 	300.0001598897269 	1.00047576429566 	101325.1890279195
-0.5292792792792794 	300.0000976066354 	1.000291009804273 	101325.11539456
-0.526776776776777 	300.0000586472329 	1.000175200637538 	101325.0693352604
-0.5242742742742745 	300.0000346970942 	1.000103858836016 	101325.0410204389
-0.521771771771772 	300.0000202197004 	1.000060644127235 	101325.0239046259
-0.5192692692692695 	300.0000116102131 	1.000034891546721 	101325.01372614
-0.516766766766767 	300.0000065710257 	1.000019786967873 	101325.0077685685
-0.5142642642642645 	300.000003666741 	1.000011063667798 	101325.0043350446
-0.511761761761762 	300.0000020179828 	1.000006101090986 	101325.0023857966
-0.5092592592592596 	300.0000010956525 	1.000003319128059 	101325.0012953329
-0.506756756756757 	300.000000586985 	1.000001781826262 	101325.0006939887
-0.5042542542542544 	300.0000003104213 	1.000000944152896 	101325.000366991
-0.5017517517517521 	300.0000001620963 	1.000000493924383 	101325.0001915999
-0.4992492492492494 	300.0000000835873 	1.000000255165446 	101325.0000987801
-0.496746746746747 	300.0000000425605 	1.000000130206511 	101325.0000503001
-0.4942442442442445 	300.0000000213602 	1.000000065643073 	101325.0000253028
-0.4917417417417421 	300.000000010579 	1.000000032703521 	101325.0000125754
-0.4892392392392395 	300.0000000051679 	1.000000016104222 	101325.0000061746
-0.486736736736737 	300.0000000024903 	1.00000000784167 	101325.0000029957
-0.4842342342342345 	300.0000000011605 	1.000000003777136 	101325.0000014351
-0.481731731731732 	300.0000000005894 	1.00000000180211 	101325.0000006777
-0.4792292292292296 	300.0000000003004 	1.000000000850749 	101325.0000003146
-0.4767267267267268 	300.0000000000945 	1.000000000409663 	101325.0000001421
-0.4742242242242246 	300.0000000000305 	1.00000000018318 	101325.0000000609
-0.471721721721722 	299.9999999999682 	1.000000000086088 	101325.0000000227
-0.4692192192192195 	299.9999999999563 	1.000000000045514 	101325.0000000054
-0.4667167167167169 	299.9999999999289 	1.000000000023177 	101324.9999999979
-0.4642142142142145 	299.9999999999911 	1.000000000010791 	101324.999999994
-0.461711711711712 	300.0000000000105 	1.000000000005623 	101324.9999999922
-0.4592092092092094 	300.0000000000033 	1.000000000004667 	101324.9999999916
-0.456706706706707 	300.0000000000319 	1.000000000005582 	101324.9999999914
-0.4542042042042045 	299.9999999999722 	1.000000000005929 	101324.9999999914
-0.451701701701702 	299.9999999999618 	1.000000000005626 	101324.999999992
-0.4491991991991995 	299.9999999999489 	1.000000000005244 	101324.9999999922
-0.4466966966966969 	299.999999999939 	1.00000000000554 	101324.9999999919
-0.4441941941941945 	299.9999999999641 	1.000000000005558 	101324.9999999912
-0.441691691691692 	299.9999999999372 	1.000000000004769 	101324.9999999909
-0.4391891891891895 	299.9999999999599 	1.000000000002231 	101324.9999999911
-0.436686686686687 	299.9999999999576 	1.000000000013385 	101324.9999999914
-0.4341841841841846 	299.9999999999691 	0.9999999999982467 	101324.9999999918
-0.431681681681682 	299.9999999999588 	0.9999999999991129 	101324.999999992
-0.4291791791791794 	299.9999999999455 	1.000000000003875 	101324.9999999917
-0.426676676676677 	299.9999999999221 	1.000000000003843 	101324.9999999916
-0.4241741741741744 	299.9999999999399 	1.00000000000307 	101324.9999999913
-0.421671671671672 	299.999999999996 	1.000000000002841 	101324.9999999916
-0.4191691691691694 	300.0000000000248 	1.000000000002493 	101324.9999999915
-0.4166666666666669 	300.0000000000365 	1.000000000003075 	101324.9999999909
-0.4141641641641645 	299.9999999999704 	1.000000000003707 	101324.9999999908
-0.411661661661662 	299.999999999986 	1.000000000003417 	101324.9999999905
-0.4091591591591594 	299.9999999999898 	1.000000000004176 	101324.9999999901
-0.406656656656657 	299.9999999999429 	1.000000000005072 	101324.9999999903
-0.4041541541541545 	299.9999999999845 	1.000000000005107 	101324.999999991
-0.401651651651652 	299.9999999999484 	1.000000000004301 	101324.9999999912
-0.3991491491491494 	299.9999999999815 	1.000000000003399 	101324.999999991
-0.396646646646647 	299.9999999999623 	1.000000000014706 	101324.9999999906
-0.3941441441441444 	299.9999999999923 	0.9999999999972379 	101324.999999991
-0.3916416416416419 	299.9999999999607 	0.9999999999971563 	101324.999999991
-0.3891391391391395 	299.9999999999654 	1.000000000001834 	101324.9999999913
-0.3866366366366368 	299.9999999999811 	1.00000000000199 	101324.9999999911
-0.3841341341341344 	299.9999999999988 	1.000000000001844 	101324.9999999905
-0.381631631631632 	299.9999999999484 	1.000000000002281 	101324.9999999906
-0.3791291291291294 	299.9999999999751 	1.000000000002264 	101324.9999999908
-0.3766266266266269 	299.9999999999919 	1.000000000001971 	101324.9999999909
-0.3741241241241244 	300.0000000000144 	1.000000000001572 	101324.9999999907
-0.371621621621622 	300.0000000000073 	1.000000000000767 	101324.9999999904
-0.3691191191191194 	300.000000000018 	1.000000000013064 	101324.9999999904
-0.366616616616617 	300.0000000000176 	0.9999999999974685 	101324.9999999903
-0.3641141141141143 	299.9999999999624 	0.9999999999996672 	101324.9999999909
-0.3616116116116119 	299.9999999999597 	1.000000000004371 	101324.9999999916
-0.3591091091091095 	299.9999999999887 	1.000000000004251 	101324.9999999918
-0.356606606606607 	299.9999999999782 	1.000000000002673 	101324.9999999917
-0.3541041041041044 	299.9999999999945 	1.000000000001356 	101324.9999999917
-0.3516016016016019 	300.0000000000156 	1.000000000000639 	101324.9999999917
-0.3490990990990994 	300.0000000000118 	1.000000000000002 	101324.9999999923
-0.346596596596597 	300.0000000000348 	1.000000000006494 	101324.999999992
-0.3440940940940944 	300.0000000000388 	0.9999999999987998 	101324.9999999916
-0.3415915915915919 	300.0000000000271 	1.000000000000322 	101324.9999999914
-0.3390890890890895 	299.9999999999823 	1.000000000003551 	101324.9999999911
-0.3365865865865869 	300.0000000000026 	1.000000000002869 	101324.9999999906
-0.3340840840840844 	299.9999999999952 	1.000000000001492 	101324.9999999908
-0.3315815815815819 	300.000000000018 	1.000000000001129 	101324.9999999912
-0.3290790790790794 	300.0000000000214 	1.000000000001554 	101324.9999999911
-0.3265765765765769 	299.9999999999521 	1.000000000001659 	101324.9999999907
-0.3240740740740744 	299.9999999999882 	1.000000000001841 	101324.9999999905
-0.3215715715715718 	299.9999999999974 	1.000000000001455 	101324.9999999908
-0.3190690690690695 	299.9999999999484 	1.000000000001905 	101324.9999999914
-0.3165665665665668 	299.9999999999891 	1.000000000002045 	101324.999999991
-0.3140640640640644 	299.9999999999998 	1.000000000001827 	101324.9999999911
-0.311561561561562 	299.9999999999498 	1.000000000002225 	101324.9999999918
-0.3090590590590593 	299.9999999999913 	1.000000000001159 	101324.9999999918
-0.3065565565565568 	299.9999999999985 	1.000000000013544 	101324.999999992
-0.3040540540540545 	299.9999999999972 	0.9999999999968725 	101324.9999999915
-0.3015515515515518 	300.0000000000138 	0.9999999999994074 	101324.9999999912
-0.2990490490490494 	299.9999999999604 	1.000000000005187 	101324.9999999908
-0.2965465465465469 	299.9999999999824 	1.000000000004895 	101324.9999999908
-0.2940440440440444 	300.000000000006 	1.000000000003303 	101324.9999999909
-0.2915415415415418 	300.0000000000114 	1.000000000002867 	101324.9999999912
-0.2890390390390395 	300.0000000000147 	1.00000000000329 	101324.9999999913
-0.2865365365365368 	299.9999999999866 	1.000000000003793 	101324.9999999914
-0.2840340340340343 	299.9999999999918 	1.000000000010311 	101324.9999999918
-0.2815315315315318 	299.9999999999683 	1.00000000000173 	101324.9999999919
-0.2790290290290295 	299.9999999999517 	1.000000000002219 	101324.9999999916
-0.2765265265265269 	299.9999999999931 	1.000000000004529 	101324.9999999916
-0.2740240240240244 	300.0000000000273 	1.000000000004496 	101324.9999999921
-0.2715215215215219 	300.0000000000302 	1.000000000003491 	101324.9999999918
-0.2690190190190194 	299.9999999999683 	1.000000000003281 	101324.9999999915
-0.2665165165165169 	299.9999999999816 	1.000000000003588 	101324.9999999914
-0.2640140140140144 	299.9999999999681 	1.000000000003355 	101324.999999992
-0.2615115115115119 	299.9999999999876 	1.000000000009435 	101324.9999999919
-0.2590090090090094 	299.9999999999394 	1.000000000000554 	101324.999999992
-0.2565065065065068 	299.9999999999843 	1.000000000001549 	101324.999999992
-0.2540040040040044 	300.0000000000018 	1.000000000003862 	101324.9999999917
-0.2515015015015019 	300.0000000000328 	1.000000000004059 	101324.9999999915
-0.2489989989989994 	300.0000000000449 	1.000000000004446 	101324.9999999918
-0.2464964964964968 	300.0000000000048 	1.000000000003797 	101324.999999992
-0.2439939939939944 	299.9999999999966 	1.000000000010529 	101324.9999999919
-0.2414914914914919 	299.9999999999703 	1.00000000000088 	101324.9999999916
-0.2389889889889893 	299.9999999999812 	1.000000000001181 	101324.9999999916
-0.2364864864864869 	300.0000000000173 	1.000000000003652 	101324.9999999912
-0.2339839839839843 	299.999999999961 	1.000000000010369 	101324.999999991
-0.2314814814814819 	299.999999999971 	1.000000000000709 	101324.9999999909
-0.2289789789789792 	299.9999999999307 	1.000000000001841 	101324.9999999908
-0.2264764764764769 	299.9999999999341 	1.000000000004628 	101324.9999999907
-0.2239739739739743 	299.9999999999543 	1.000000000004741 	101324.9999999908
-0.2214714714714718 	299.999999999935 	1.000000000004389 	101324.9999999909
-0.2189689689689693 	299.999999999948 	1.000000000002271 	101324.9999999909
-0.2164664664664669 	299.9999999999719 	1.000000000007902 	101324.9999999911
-0.2139639639639643 	299.9999999999351 	0.9999999999978403 	101324.9999999913
-0.2114614614614618 	299.9999999999532 	1.000000000000072 	101324.9999999914
-0.2089589589589593 	299.9999999999949 	1.000000000003665 	101324.9999999914
-0.2064564564564568 	299.9999999999972 	1.000000000004525 	101324.9999999915
-0.2039539539539543 	299.9999999999268 	1.000000000004834 	101324.9999999919
-0.2014514514514518 	299.9999999999321 	1.000000000004057 	101324.9999999921
-0.1989489489489494 	299.9999999999604 	1.000000000009962 	101324.9999999922
-0.1964464464464468 	299.999999999997 	1.000000000000137 	101324.9999999913
-0.1939439439439443 	299.9999999999968 	1.000000000000876 	101324.9999999912
-0.1914414414414418 	299.9999999999459 	1.000000000002945 	101324.9999999918
-0.1889389389389393 	299.9999999999759 	1.000000000003334 	101324.9999999924
-0.1864364364364368 	300.0000000000278 	1.000000000003316 	101324.9999999923
-0.1839339339339343 	299.9999999999884 	1.00000000000329 	101324.9999999915
-0.1814314314314318 	299.9999999999859 	1.000000000002964 	101324.9999999911
-0.1789289289289293 	299.9999999999213 	1.000000000002446 	101324.9999999908
-0.1764264264264268 	299.9999999999486 	1.000000000002179 	101324.9999999904
-0.1739239239239243 	299.9999999999123 	1.000000000003107 	101324.9999999906
-0.1714214214214218 	299.9999999999673 	1.000000000003509 	101324.9999999912
-0.1689189189189193 	299.9999999999489 	1.000000000003228 	101324.9999999914
-0.1664164164164168 	299.999999999989 	1.000000000002972 	101324.9999999914
-0.1639139139139143 	300.0000000000001 	1.000000000001925 	101324.9999999915
-0.1614114114114118 	300.0000000000215 	1.000000000000331 	101324.9999999916
-0.1589089089089093 	300.0000000000161 	1.000000000014617 	101324.9999999917
-0.1564064064064068 	299.9999999999854 	0.9999999999954278 	101324.9999999918
-0.1539039039039043 	299.9999999999893 	1.000000000005268 	101324.9999999912
-0.1514014014014018 	300.000000000011 	1.000000000000173 	101324.9999999912
-0.1488988988988993 	299.9999999999977 	1.000000000008383 	101324.9999999911
-0.1463963963963968 	299.9999999999947 	1.000000000000319 	101324.9999999914
-0.1438938938938943 	299.9999999999606 	1.000000000002259 	101324.9999999914
-0.1413913913913918 	299.9999999999344 	1.000000000004379 	101324.9999999922
-0.1388888888888893 	299.9999999999619 	1.000000000003035 	101324.9999999925
-0.1363863863863868 	299.9999999999277 	1.000000000002381 	101324.9999999925
-0.1338838838838843 	299.9999999999039 	1.00000000000251 	101324.9999999919
-0.1313813813813818 	299.9999999999687 	1.000000000003556 	101324.9999999914
-0.1288788788788793 	299.9999999999483 	1.00000000000333 	101324.9999999917
-0.1263763763763768 	299.9999999999692 	1.000000000003249 	101324.9999999915
-0.1238738738738743 	299.9999999999447 	1.000000000002964 	101324.9999999908
-0.1213713713713717 	299.9999999999675 	1.000000000001825 	101324.9999999908
-0.1188688688688693 	300.0000000000093 	1.000000000000735 	101324.9999999911
-0.1163663663663668 	299.9999999999291 	1.000000000000128 	101324.9999999916
-0.1138638638638643 	299.9999999999687 	1.000000000007441 	101324.9999999918
-0.1113613613613618 	299.9999999999844 	0.999999999997234 	101324.9999999913
-0.1088588588588592 	299.9999999999839 	1.000000000005866 	101324.9999999909
-0.1063563563563568 	299.9999999999702 	0.9999999999983752 	101324.9999999906
-0.1038538538538543 	299.9999999999758 	1.000000000000175 	101324.9999999908
-0.1013513513513517 	299.9999999999993 	1.000000000002204 	101324.9999999908
-0.09884884884884926 	299.9999999999777 	1.000000000001791 	101324.9999999906
-0.09634634634634676 	299.9999999999233 	1.00000000000167 	101324.9999999909
-0.09384384384384425 	299.9999999998977 	1.00000000000227 	101324.9999999916
-0.09134134134134177 	299.9999999999912 	1.000000000002097 	101324.9999999924
-0.08883883883883925 	300.0000000000056 	1.000000000001529 	101324.9999999919
-0.08633633633633674 	299.9999999999557 	1.000000000001264 	101324.9999999917
-0.08383383383383426 	299.9999999999899 	1.000000000001691 	101324.9999999918
-0.08133133133133173 	299.9999999999766 	1.00000000000116 	101324.9999999914
-0.07882882882882926 	299.9999999999168 	1.000000000001222 	101324.9999999918
-0.07632632632632676 	299.9999999999484 	1.00000000000194 	101324.9999999916
-0.07382382382382424 	299.9999999999049 	1.00000000000123 	101324.9999999914
-0.07132132132132173 	299.9999999999678 	1.000000000001088 	101324.9999999918
-0.06881881881881925 	299.9999999999543 	1.000000000001186 	101324.9999999919
-0.06631631631631671 	299.9999999999052 	1.000000000001581 	101324.9999999923
-0.06381381381381425 	299.9999999999399 	1.000000000001002 	101324.9999999923
-0.06131131131131173 	299.9999999999509 	1.000000000001517 	101324.9999999919
-0.05880880880880923 	299.9999999999526 	1.000000000002417 	101324.9999999917
-0.05630630630630672 	299.9999999999473 	1.000000000002912 	101324.9999999918
-0.05380380380380424 	300.000000000018 	1.000000000002876 	101324.9999999912
-0.05130130130130173 	300.0000000000095 	1.000000000002219 	101324.9999999917
-0.04879879879879922 	299.9999999999238 	1.000000000002219 	101324.9999999915
-0.04629629629629672 	299.999999999922 	1.000000000003261 	101324.9999999915
-0.04379379379379422 	299.9999999999332 	1.000000000003425 	101324.9999999913
-0.04129129129129173 	299.999999999944 	1.000000000002878 	101324.9999999915
-0.03878878878878922 	299.9999999999973 	1.000000000001776 	101324.9999999916
-0.03628628628628671 	299.9999999999814 	1.000000000000224 	101324.9999999914
-0.03378378378378422 	299.9999999999239 	0.9999999999988043 	101324.9999999912
-0.03128128128128172 	299.9999999999435 	1.000000000000025 	101324.9999999916
-0.02877877877877922 	299.999999999994 	1.000000000002047 	101324.9999999917
-0.0262762762762767 	299.9999999999176 	1.000000000003146 	101324.9999999914
-0.02377377377377422 	299.9999999999686 	1.000000000003208 	101324.9999999919
-0.0212712712712717 	299.999999999904 	1.000000000001984 	101324.9999999914
-0.01876876876876921 	299.9999999999599 	1.000000000001111 	101324.9999999913
-0.01626626626626671 	299.9999999999839 	1.000000000001781 	101324.9999999915
-0.0137637637637642 	299.9999999999513 	1.000000000001623 	101324.9999999911
-0.0112612612612617 	299.9999999999761 	1.000000000000878 	101324.9999999912
-0.008758758758759198 	299.9999999999719 	1.000000000001377 	101324.9999999922
-0.006256256256256697 	299.9999999999322 	1.000000000001479 	101324.9999999925
-0.003753753753754195 	299.999999999935 	1.00000000000138 	101324.9999999925
-0.001251251251251693 	299.9999999999341 	1.000000000000439 	101324.999999992
0.00125125125125081 	299.9999999999202 	0.9999999999999778 	101324.9999999919
0.003753753753753312 	299.9999999999274 	0.999999999999068 	101324.9999999914
0.006256256256255817 	299.9999999999199 	0.9999999999976273 	101324.9999999917
0.008758758758758317 	299.9999999999334 	0.9999999999981893 	101324.9999999916
0.01126126126126082 	299.9999999999649 	0.9999999999989951 	101324.9999999914
0.01376376376376332 	299.9999999999446 	1.000000000000501 	101324.9999999913
0.01626626626626582 	299.9999999999778 	1.0000000000005 	101324.9999999912
0.01876876876876833 	299.9999999999778 	1.0000000000007 	101324.9999999913
0.02127127127127083 	299.9999999999271 	0.9999999999998325 	101324.9999999919
0.02377377377377332 	299.999999999979 	1.000000000000069 	101324.999999992
0.02627627627627583 	299.9999999999271 	1.000000000000637 	101324.9999999918
0.02877877877877833 	299.9999999999666 	1.000000000001101 	101324.9999999918
0.03128128128128083 	299.9999999999661 	1.000000000001177 	101324.9999999914
0.03378378378378333 	299.9999999999263 	1.000000000001277 	101324.9999999912
0.03628628628628584 	299.999999999945 	0.9999999999998388 	101324.999999991
0.03878878878878834 	299.9999999999888 	0.9999999999981338 	101324.9999999913
0.04129129129129084 	299.9999999999458 	0.9999999999981093 	101324.9999999918
0.04379379379379333 	299.9999999999455 	0.9999999999987378 	101324.9999999918
0.04629629629629585 	299.9999999999322 	0.9999999999986907 	101324.9999999914
0.04879879879879834 	299.9999999999194 	0.9999999999982365 	101324.9999999917
0.05130130130130085 	299.999999999992 	0.9999999999982381 	101324.9999999918
0.05380380380380335 	300.0000000000128 	0.9999999999974116 	101324.9999999919
0.05630630630630584 	299.9999999999861 	0.9999999999963425 	101324.9999999922
0.05880880880880836 	299.9999999999439 	0.9999999999960075 	101324.9999999916
0.06131131131131085 	299.9999999999552 	0.9999999999968393 	101324.9999999919
0.06381381381381336 	299.9999999999631 	0.9999999999975147 	101324.9999999918
0.06631631631631586 	299.9999999999216 	0.9999999999963348 	101324.9999999917
0.06881881881881835 	299.9999999999439 	0.999999999996839 	101324.9999999918
0.07132132132132088 	299.9999999999771 	0.9999999999979217 	101324.9999999913
0.07382382382382337 	299.9999999999242 	0.9999999999994749 	101324.9999999909
0.07632632632632587 	299.999999999954 	0.9999999999989109 	101324.9999999906
0.07882882882882837 	299.9999999999461 	0.9999999999982017 	101324.999999991
0.08133133133133086 	299.9999999999646 	0.999999999998348 	101324.999999991
0.08383383383383337 	299.999999999979 	0.9999999999981696 	101324.9999999911
0.08633633633633589 	299.9999999999204 	0.9999999999967044 	101324.9999999912
0.08883883883883838 	299.9999999999852 	0.9999999999974235 	101324.9999999912
0.09134134134134086 	299.9999999999827 	0.9999999999981842 	101324.9999999911
0.09384384384384339 	299.9999999999201 	0.9999999999975899 	101324.9999999913
0.09634634634634588 	299.9999999999505 	0.9999999999964695 	101324.9999999912
0.09884884884884838 	299.9999999999681 	0.9999999999962387 	101324.9999999917
0.1013513513513509 	300.0000000000228 	0.9999999999966257 	101324.9999999917
0.1038538538538534 	299.9999999999847 	0.9999999999964393 	101324.9999999911
0.1063563563563559 	299.9999999999935 	0.9999999999970692 	101324.9999999906
0.1088588588588584 	300.0000000000177 	0.9999999999982118 	101324.9999999906
0.1113613613613609 	299.99999999997 	0.9999999999982039 	101324.9999999907
0.1138638638638634 	299.9999999999354 	0.9999999999978658 	101324.999999991
0.1163663663663659 	299.9999999999379 	0.9999999999974493 	101324.9999999917
0.1188688688688684 	299.9999999999545 	0.9999999999980725 	101324.9999999918
0.1213713713713709 	299.9999999999916 	0.9999999999982555 	101324.9999999919
0.1238738738738734 	299.9999999999407 	0.9999999999986635 	101324.9999999911
0.1263763763763759 	299.9999999999797 	0.9999999999991134 	101324.9999999905
0.1288788788788784 	299.9999999999828 	0.9999999999970288 	101324.9999999907
0.1313813813813809 	299.9999999999824 	0.9999999999950734 	101324.9999999914
0.1338838838838834 	299.9999999999774 	0.9999999999953272 	101324.9999999916
0.1363863863863859 	300.000000000007 	0.9999999999966664 	101324.9999999909
0.1388888888888884 	300.0000000000259 	0.9999999999966364 	101324.9999999902
0.1413913913913909 	300.0000000000041 	0.9999999999975342 	101324.99999999
0.1438938938938934 	299.9999999999901 	0.9999999999976008 	101324.9999999897
0.1463963963963959 	299.9999999999616 	0.9999999999975098 	101324.99999999
0.1488988988988985 	299.9999999999188 	0.9999999999976709 	101324.9999999903
0.1514014014014009 	299.9999999999577 	0.9999999999973765 	101324.9999999906
0.1539039039039035 	299.9999999999566 	0.9999999999971055 	101324.9999999906
0.1564064064064059 	299.9999999999386 	1.000000000002424 	101324.9999999908
0.1589089089089084 	299.9999999999607 	0.9999999999916535 	101324.9999999913
0.1614114114114109 	299.999999999958 	0.9999999999936295 	101324.9999999914
0.1639139139139134 	299.9999999999275 	0.9999999999955191 	101324.9999999913
0.166416416416416 	299.9999999999604 	0.9999999999946442 	101324.9999999914
0.1689189189189185 	300.0000000000263 	0.9999999999955145 	101324.9999999909
0.1714214214214209 	300.0000000000127 	0.9999999999966273 	101324.9999999905
0.1739239239239235 	299.9999999999854 	0.9999999999973235 	101324.9999999905
0.1764264264264259 	299.9999999999727 	0.9999999999961749 	101324.9999999908
0.1789289289289284 	300.0000000000097 	1.000000000000742 	101324.9999999906
0.181431431431431 	299.9999999999911 	0.9999999999905178 	101324.9999999911
0.1839339339339334 	299.9999999999876 	0.9999999999938904 	101324.9999999913
0.186436436436436 	299.9999999999518 	0.99999999999746 	101324.9999999913
0.1889389389389385 	299.9999999999761 	0.9999999999981373 	101324.9999999909
0.191441441441441 	299.9999999999727 	0.9999999999977321 	101324.9999999905
0.1939439439439434 	299.9999999999447 	0.9999999999976337 	101324.9999999901
0.196446446446446 	299.9999999999379 	1.000000000002482 	101324.9999999902
0.1989489489489485 	299.9999999999637 	0.9999999999921219 	101324.9999999902
0.2014514514514509 	299.9999999999884 	0.9999999999948362 	101324.9999999905
0.2039539539539535 	299.9999999999851 	0.9999999999963884 	101324.9999999906
0.2064564564564559 	299.9999999999526 	0.9999999999944809 	101324.9999999908
0.2089589589589585 	299.9999999999737 	0.9999999999927739 	101324.9999999904
0.211461461461461 	299.9999999999494 	0.9999999999922401 	101324.9999999905
0.2139639639639635 	299.9999999999739 	0.9999999999935781 	101324.9999999901
0.2164664664664659 	300.0000000000138 	0.9999999999943991 	101324.9999999903
0.2189689689689684 	300.0000000000146 	0.9999999999997692 	101324.9999999907
0.221471471471471 	300.0000000000106 	0.9999999999914121 	101324.9999999911
0.2239739739739735 	299.9999999999686 	0.9999999999949019 	101324.9999999916
0.226476476476476 	299.9999999999854 	0.9999999999979006 	101324.9999999911
0.2289789789789785 	299.9999999999976 	0.9999999999969852 	101324.9999999906
0.231481481481481 	299.9999999999868 	0.9999999999962533 	101324.9999999908
0.2339839839839835 	299.9999999999721 	0.9999999999965048 	101324.9999999907
0.236486486486486 	300.0000000000055 	0.9999999999972963 	101324.9999999906
0.2389889889889885 	299.999999999999 	0.9999999999980114 	101324.9999999906
0.241491491491491 	299.9999999999398 	1.000000000003697 	101324.9999999905
0.2439939939939935 	299.9999999999733 	0.9999999999942369 	101324.9999999907
0.246496496496496 	299.9999999999883 	0.9999999999960761 	101324.9999999905
0.2489989989989985 	300.0000000000361 	0.9999999999977016 	101324.9999999904
0.251501501501501 	300.0000000000324 	0.9999999999982128 	101324.9999999905
0.2540040040040035 	300.000000000004 	0.9999999999991354 	101324.9999999899
0.256506506506506 	300.0000000000215 	0.9999999999998045 	101324.9999999896
0.2590090090090086 	299.9999999999422 	1.00000000000446 	101324.99999999
0.261511511511511 	299.9999999999842 	0.9999999999942387 	101324.9999999903
0.2640140140140135 	299.9999999999811 	0.9999999999962613 	101324.9999999905
0.2665165165165161 	299.9999999999422 	0.9999999999969947 	101324.9999999908
0.2690190190190185 	299.9999999999902 	0.9999999999966296 	101324.9999999909
0.271521521521521 	300.0000000000256 	0.9999999999965627 	101324.9999999909
0.2740240240240235 	300.0000000000308 	0.999999999997224 	101324.9999999911
0.276526526526526 	300.0000000000229 	0.9999999999980006 	101324.9999999908
0.2790290290290286 	299.9999999999652 	0.9999999999980292 	101324.9999999913
0.281531531531531 	299.9999999999396 	1.000000000002171 	101324.9999999911
0.2840340340340335 	299.9999999999685 	0.9999999999922461 	101324.999999991
0.2865365365365361 	299.9999999999744 	0.9999999999951901 	101324.9999999913
0.2890390390390385 	300.0000000000054 	0.9999999999979797 	101324.9999999914
0.291541541541541 	300.0000000000165 	0.999999999997948 	101324.9999999916
0.2940440440440436 	300.0000000000146 	0.9999999999985902 	101324.9999999911
0.296546546546546 	300.0000000000124 	0.9999999999999134 	101324.9999999907
0.2990490490490486 	299.9999999999686 	0.9999999999992438 	101324.999999991
0.3015515515515511 	300.0000000000045 	0.9999999999987477 	101324.9999999913
0.3040540540540535 	300.000000000001 	1.000000000007948 	101324.9999999909
0.3065565565565562 	300.0000000000062 	0.9999999999895599 	101324.9999999913
0.3090590590590585 	300.0000000000002 	0.9999999999956257 	101324.9999999915
0.3115615615615611 	299.9999999999571 	1.000000000001263 	101324.9999999913
0.3140640640640635 	300.0000000000016 	1.000000000000766 	101324.9999999909
0.316566566566566 	299.9999999999948 	1.000000000000212 	101324.9999999906
0.3190690690690687 	299.9999999999496 	0.9999999999991714 	101324.9999999905
0.3215715715715711 	299.9999999999925 	0.9999999999984823 	101324.9999999912
0.3240740740740735 	299.999999999993 	0.9999999999977209 	101324.9999999911
0.326576576576576 	299.9999999999422 	0.9999999999976871 	101324.999999991
0.3290790790790786 	300.0000000000041 	0.9999999999989263 	101324.9999999912
0.3315815815815811 	300.000000000022 	0.9999999999982044 	101324.9999999909
0.3340840840840836 	300.0000000000082 	0.9999999999982419 	101324.9999999908
0.3365865865865861 	300.0000000000318 	0.9999999999982305 	101324.999999991
0.3390890890890886 	300.0000000000464 	0.99999999999859 	101324.999999991
0.3415915915915911 	300.0000000000198 	0.9999999999990085 	101324.9999999904
0.3440940940940935 	299.9999999999471 	1.000000000003701 	101324.9999999901
0.3465965965965962 	299.9999999999991 	0.9999999999946133 	101324.9999999905
0.3490990990990985 	300.0000000000113 	0.9999999999970584 	101324.9999999909
0.3516016016016011 	300.0000000000183 	0.9999999999996423 	101324.9999999912
0.3541041041041035 	300.0000000000067 	0.9999999999992528 	101324.9999999913
0.3566066066066061 	299.9999999999407 	0.9999999999985174 	101324.999999991
0.3591091091091085 	299.9999999999505 	0.9999999999982019 	101324.999999991
0.3616116116116112 	299.9999999999681 	0.9999999999984986 	101324.9999999908
0.3641141141141137 	299.9999999999457 	0.9999999999998441 	101324.9999999909
0.3666166166166161 	299.9999999999105 	1.000000000008519 	101324.9999999914
0.3691191191191185 	299.999999999985 	0.9999999999912558 	101324.9999999912
0.371621621621621 	299.9999999999994 	0.9999999999964847 	101324.9999999909
0.3741241241241237 	300.0000000000221 	1.000000000001427 	101324.9999999911
0.3766266266266261 	300.0000000000131 	1.000000000001843 	101324.999999991
0.3791291291291286 	299.999999999995 	1.000000000001342 	101324.9999999905
0.3816316316316311 	299.9999999999554 	1.000000000001012 	101324.9999999903
0.3841341341341336 	299.9999999999841 	1.000000000000699 	101324.9999999909
0.3866366366366362 	299.99999999998 	1.000000000000414 	101324.9999999911
0.3891391391391387 	299.9999999999631 	1.000000000000447 	101324.9999999912
0.391641641641641 	299.9999999999928 	1.00000000000031 	101324.999999991
0.3941441441441436 	300.0000000000006 	1.000000000000073 	101324.9999999905
0.3966466466466462 	299.9999999999977 	0.9999999999997936 	101324.9999999903
0.3991491491491486 	299.9999999999768 	0.9999999999991995 	101324.9999999904
0.4016516516516512 	299.9999999999443 	0.9999999999984497 	101324.9999999904
0.4041541541541536 	299.9999999999654 	0.9999999999993825 	101324.9999999906
0.4066566566566561 	299.9999999999671 	1.000000000003736 	101324.9999999905
0.4091591591591587 	300.0000000000058 	0.999999999995671 	101324.9999999906
0.4116616616616612 	300.0000000000224 	0.9999999999984162 	101324.999999991
0.4141641641641635 	300.000000000038 	1.00000000000015 	101324.9999999914
0.4166666666666662 	300.000000000021 	0.9999999999995601 	101324.9999999913
0.4191691691691687 	299.9999999999484 	0.9999999999990805 	101324.9999999905
0.421671671671671 	299.9999999999828 	0.999999999999893 	101324.9999999904
0.4241741741741737 	299.9999999999689 	1.000000000000153 	101324.9999999904
0.4266766766766761 	299.9999999999426 	1.000000000000748 	101324.9999999905
0.4291791791791785 	299.999999999982 	1.000000000009043 	101324.9999999903
0.4316816816816812 	299.9999999999824 	0.9999999999926111 	101324.9999999904
0.4341841841841836 	299.9999999999998 	0.9999999999983307 	101324.9999999911
0.4366866866866862 	299.9999999999687 	1.000000000002461 	101324.9999999911
0.4391891891891885 	299.9999999999999 	1.000000000001456 	101324.9999999911
0.4416916916916913 	300.0000000000061 	1.00000000000068 	101324.9999999908
0.4441941941941936 	299.9999999999901 	0.9999999999992516 	101324.99999999
0.4466966966966961 	299.999999999925 	0.9999999999975964 	101324.999999989
0.4491991991991987 	299.9999999999698 	0.9999999999974492 	101324.9999999893
0.4517017017017012 	299.999999999961 	0.9999999999979927 	101324.9999999896
0.4542042042042035 	299.9999999999914 	0.9999999999985055 	101324.9999999897
0.4567067067067062 	300.0000000000021 	0.9999999999988216 	101324.9999999901
0.4592092092092087 	299.9999999999288 	0.9999999999986529 	101324.9999999903
0.4617117117117112 	299.9999999999716 	0.9999999999991404 	101324.9999999904
0.4642142142142137 	299.9999999999521 	0.9999999999996845 	101324.9999999903
0.4667167167167162 	299.999999999982 	0.999999999999598 	101324.9999999902
0.4692192192192187 	299.9999999999531 	0.9999999999991773 	101324.9999999906
0.4717217217217212 	299.9999999999963 	0.9999999999987427 	101324.9999999908
0.4742242242242236 	299.9999999999665 	0.9999999999980056 	101324.9999999904
0.4767267267267262 	299.9999999999531 	0.9999999999978534 	101324.9999999899
0.4792292292292287 	299.9999999999945 	0.9999999999974778 	101324.9999999895
0.4817317317317312 	300.0000000000151 	0.9999999999974563 	101324.9999999897
0.4842342342342336 	300.0000000000109 	0.9999999999978607 	101324.9999999904
0.4867367367367362 	299.999999999992 	0.9999999999987064 	101324.9999999908
0.4892392392392387 	300.0000000000075 	0.9999999999990692 	101324.9999999912
0.4917417417417412 	300.000000000035 	1.000000000000045 	101324.9999999915
0.4942442442442437 	299.9999999999793 	1.000000000001863 	101324.9999999916
0.4967467467467462 	299.9999999999324 	1.000000000005174 	101324.999999991
0.4992492492492487 	299.9999999999003 	0.9999999999972486 	101324.9999999906
0.5017517517517511 	299.999999999923 	0.999999999999662 	101324.9999999904
0.5042542542542537 	299.9999999999779 	1.000000000001298 	101324.9999999902
0.5067567567567562 	299.9999999999708 	1.000000000000653 	101324.9999999904
0.5092592592592589 	299.9999999999566 	0.9999999999996092 	101324.9999999905
0.5117617617617611 	299.9999999999787 	0.9999999999992341 	101324.9999999897
0.5142642642642637 	300.000000000013 	0.9999999999992897 	101324.99999999
0.5167667667667663 	300.0000000000013 	1.000000000001503 	101324.9999999904
0.5192692692692688 	299.9999999999364 	1.00000000000871 	101324.9999999907
0.5217717717717714 	299.9999999999544 	0.9999999999930811 	101324.9999999912
0.5242742742742736 	299.9999999999541 	0.9999999999979788 	101324.9999999916
0.5267767767767763 	299.9999999999476 	1.000000000001537 	101324.9999999916
0.5292792792792789 	299.9999999999503 	1.000000000000816 	101324.9999999915
0.5317817817817813 	299.9999999999288 	1.000000000000366 	101324.9999999913
0.5342842842842837 	299.9999999999736 	0.9999999999994054 	101324.9999999912
0.5367867867867864 	299.9999999999791 	0.9999999999983497 	101324.9999999909
0.5392892892892888 	299.9999999999432 	0.9999999999986449 	101324.999999991
0.5417917917917912 	299.9999999999582 	0.9999999999990072 	101324.9999999915
0.5442942942942938 	299.9999999999519 	0.9999999999990556 	101324.9999999915
0.5467967967967964 	299.9999999999675 	0.999999999999269 	101324.9999999914
0.5492992992992988 	299.999999999964 	0.9999999999995098 	101324.9999999913
0.5518018018018012 	299.9999999999554 	0.9999999999990117 	101324.9999999915
0.5543043043043039 	299.9999999999879 	0.9999999999985808 	101324.9999999911
0.5568068068068063 	299.9999999999816 	0.9999999999991303 	101324.9999999909
0.5593093093093087 	299.9999999999457 	1.000000000001811 	101324.9999999914
0.5618118118118114 	299.9999999999398 	0.9999999999939148 	101324.9999999916
0.5643143143143137 	299.9999999999235 	0.9999999999960087 	101324.9999999914
0.5668168168168163 	299.999999999955 	0.9999999999980292 	101324.999999991
0.5693193193193188 	300.0000000000007 	0.9999999999978066 	101324.9999999901
0.5718218218218213 	300.0000000000269 	0.9999999999977658 	101324.9999999903
0.5743243243243239 	300.0000000000285 	0.9999999999984922 	101324.9999999909
0.5768268268268262 	300.0000000000147 	0.9999999999990042 	101324.9999999911
0.5793293293293288 	299.9999999999724 	1.00000000000167 	101324.9999999912
0.5818318318318314 	299.999999999951 	1.000000000007325 	101324.9999999906
0.5843343343343338 	299.9999999999951 	0.9999999999914115 	101324.9999999904
0.5868368368368363 	299.9999999999853 	0.9999999999951098 	101324.9999999907
0.5893393393393387 	299.9999999999382 	0.9999999999980465 	101324.9999999906
0.5918418418418413 	299.999999999955 	0.9999999999968863 	101324.9999999909
0.5943443443443439 	299.9999999999959 	0.9999999999978182 	101324.9999999909
0.5968468468468463 	300.0000000000138 	1.000000000000658 	101324.9999999911
0.5993493493493487 	300.0000000000415 	1.000000000001558 	101324.9999999909
0.6018518518518514 	300.0000000000217 	1.000000000001357 	101324.9999999904
0.6043543543543537 	300.0000000000122 	1.000000000000749 	101324.9999999901
0.6068568568568564 	299.9999999999971 	1.00000000000044 	101324.9999999901
0.6093593593593587 	299.9999999999392 	1.000000000000531 	101324.9999999901
0.6118618618618614 	299.999999999932 	1.000000000000166 	101324.9999999908
0.6143643643643638 	299.999999999996 	0.9999999999997061 	101324.9999999913
0.6168668668668662 	299.9999999999965 	1.000000000000664 	101324.9999999914
0.6193693693693688 	299.9999999999769 	1.00000000000345 	101324.9999999912
0.6218718718718714 	299.9999999999877 	1.000000000006241 	101324.9999999905
0.6243743743743737 	299.9999999999744 	0.9999999999986199 	101324.9999999899
0.6268768768768762 	299.9999999999569 	1.000000000000983 	101324.99999999
0.629379379379379 	299.9999999999773 	1.000000000002933 	101324.9999999904
0.6318818818818812 	299.9999999999906 	1.000000000002645 	101324.9999999904
0.6343843843843838 	300.0000000000189 	1.000000000002189 	101324.9999999907
0.6368868868868864 	300.0000000000067 	1.00000000000243 	101324.9999999905
0.6393893893893888 	299.9999999999569 	1.000000000002607 	101324.9999999903
0.6418918918918912 	299.999999999976 	1.000000000004717 	101324.9999999899
0.6443943943943939 	299.9999999999648 	1.000000000008348 	101324.99999999
0.6468968968968963 	299.9999999999684 	0.9999999999935486 	101324.9999999904
0.6493993993993988 	299.9999999999697 	0.9999999999999234 	101324.9999999902
0.6519019019019012 	299.9999999999864 	1.000000000003544 	101324.9999999901
0.6544044044044038 	299.9999999999447 	1.000000000001822 	101324.99999999
0.6569069069069065 	299.9999999999371 	1.000000000000812 	101324.9999999899
0.6594094094094087 	299.9999999999599 	1.000000000001962 	101324.9999999906
0.6619119119119113 	299.9999999999758 	1.000000000003478 	101324.9999999915
0.664414414414414 	299.9999999999938 	1.000000000003937 	101324.9999999913
0.6669169169169162 	299.999999999999 	1.000000000003638 	101324.9999999908
0.6694194194194188 	299.9999999999823 	1.000000000002655 	101324.9999999904
0.6719219219219214 	299.9999999999492 	1.000000000002012 	101324.9999999905
0.674424424424424 	299.9999999999683 	1.000000000002121 	101324.9999999906
0.6769269269269262 	299.999999999944 	1.000000000002257 	101324.9999999907
0.679429429429429 	300.000000000001 	1.000000000002109 	101324.9999999904
0.6819319319319311 	300.0000000000153 	1.000000000003986 	101324.9999999903
0.6844344344344341 	300.0000000000225 	1.00000000000667 	101324.9999999905
0.686936936936936 	300.0000000000229 	0.999999999999721 	101324.9999999903
0.6894394394394392 	300.0000000000219 	1.000000000002419 	101324.99999999
0.6919419419419413 	300.0000000000074 	1.000000000004178 	101324.9999999904
0.694444444444444 	299.9999999999582 	1.00000000000356 	101324.9999999905
0.6969469469469463 	299.9999999999259 	1.000000000004099 	101324.9999999904
0.6994494494494489 	299.9999999999285 	1.000000000005103 	101324.9999999902
0.7019519519519515 	299.9999999999594 	1.000000000005412 	101324.9999999902
0.7044544544544538 	299.9999999999485 	1.000000000007098 	101324.9999999901
0.7069569569569564 	299.9999999999891 	1.000000000009192 	101324.9999999904
0.7094594594594589 	299.9999999999749 	0.999999999993977 	101324.9999999906
0.7119619619619615 	299.9999999999387 	0.9999999999993617 	101324.9999999902
0.7144644644644638 	299.9999999999573 	1.000000000003483 	101324.9999999898
0.7169669669669665 	299.9999999999501 	1.00000000000359 	101324.9999999901
0.7194694694694688 	300.0000000000061 	1.000000000004199 	101324.9999999908
0.7219719719719715 	300.0000000000089 	1.000000000004342 	101324.9999999912
0.7244744744744737 	300.0000000000012 	1.00000000000348 	101324.9999999909
0.7269769769769764 	300.0000000000026 	1.000000000005863 	101324.9999999905
0.7294794794794791 	299.9999999999945 	1.000000000009066 	101324.9999999903
0.7319819819819813 	299.9999999999802 	0.9999999999960421 	101324.9999999905
0.7344844844844839 	299.999999999928 	1.000000000002419 	101324.9999999902
0.7369869869869864 	299.9999999999363 	1.000000000006862 	101324.9999999897
0.739489489489489 	299.9999999999558 	1.000000000006087 	101324.9999999901
0.7419919919919914 	299.9999999999521 	1.000000000004434 	101324.9999999903
0.7444944944944939 	299.9999999999584 	1.000000000004832 	101324.9999999905
0.7469969969969963 	299.9999999999735 	1.000000000005921 	101324.9999999903
0.7494994994994989 	299.9999999999413 	1.000000000001991 	101324.99999999
0.7520020020020015 	299.999999999948 	1.000000000008123 	101324.9999999901
0.7545045045045039 	299.9999999999529 	0.9999999999963101 	101324.9999999901
0.7570070070070062 	299.9999999999483 	1.000000000000816 	101324.9999999899
0.7595095095095092 	299.9999999999534 	1.00000000000432 	101324.99999999
0.7620120120120112 	299.9999999999834 	1.000000000003973 	101324.99999999
0.7645145145145138 	299.9999999999832 	1.000000000003828 	101324.9999999901
0.7670170170170165 	299.9999999999518 	1.00000000000783 	101324.9999999903
0.7695195195195191 	299.9999999999247 	1.000000000010774 	101324.9999999905
0.7720220220220213 	299.9999999999415 	0.9999999999977034 	101324.9999999904
0.7745245245245239 	299.9999999999334 	1.000000000002945 	101324.9999999903
0.7770270270270263 	299.9999999999331 	1.000000000005297 	101324.9999999901
0.779529529529529 	299.9999999999555 	1.000000000004468 	101324.99999999
0.7820320320320313 	299.9999999999573 	1.000000000004949 	101324.9999999901
0.784534534534534 	299.9999999999898 	1.000000000005908 	101324.9999999906
0.7870370370370364 	299.9999999999848 	1.00000000000626 	101324.9999999905
0.7895395395395389 	299.9999999999729 	1.000000000006514 	101324.99999999
0.7920420420420413 	299.9999999999817 	1.000000000006018 	101324.9999999897
0.794544544544544 	299.9999999999826 	1.000000000008423 	101324.9999999896
0.7970470470470463 	300.0000000000059 	1.000000000010433 	101324.9999999902
0.799549549549549 	300.0000000000092 	0.9999999999972597 	101324.9999999901
0.8020520520520515 	299.9999999999887 	1.000000000002042 	101324.9999999899
0.8045545545545539 	299.9999999999436 	1.000000000004803 	101324.9999999899
0.8070570570570563 	299.9999999999568 	1.000000000003674 	101324.99999999
0.8095595595595589 	299.9999999999516 	1.000000000003465 	101324.9999999901
0.8120620620620614 	299.9999999999606 	1.000000000004491 	101324.9999999903
0.8145645645645638 	300.000000000004 	1.000000000004859 	101324.9999999902
0.8170670670670666 	300.000000000024 	1.000000000008513 	101324.99999999
0.8195695695695689 	300.0000000000044 	1.000000000010732 	101324.9999999902
0.8220720720720714 	299.9999999999544 	0.9999999999983594 	101324.9999999903
0.8245745745745739 	299.9999999999646 	1.000000000004466 	101324.9999999904
0.8270770770770765 	299.9999999999686 	1.000000000008145 	101324.9999999899
0.8295795795795788 	299.9999999999652 	1.000000000006377 	101324.9999999892
0.8320820820820815 	300.0000000000014 	1.000000000004339 	101324.9999999892
0.834584584584584 	300.0000000000016 	1.000000000005867 	101324.9999999899
0.8370870870870865 	299.9999999999695 	1.000000000006657 	101324.9999999898
0.8395895895895891 	299.9999999999355 	0.9999999999997714 	101324.9999999897
0.8420920920920915 	299.9999999999629 	1.000000000002558 	101324.9999999901
0.844594594594594 	299.9999999999602 	1.000000000005362 	101324.9999999902
0.8470970970970964 	299.9999999999555 	1.000000000005973 	101324.9999999903
0.8495995995995991 	299.999999999993 	1.000000000005558 	101324.9999999902
0.8521021021021015 	299.9999999999886 	1.000000000005398 	101324.9999999904
0.8546046046046039 	299.9999999999728 	1.000000000005055 	101324.9999999899
0.8571071071071066 	299.9999999999923 	1.000000000008328 	101324.9999999892
0.8596096096096089 	299.9999999999811 	1.00000000000885 	101324.9999999892
0.8621121121121116 	299.9999999999663 	0.9999999999956689 	101324.9999999894
0.8646146146146139 	300.0000000000018 	1.000000000000806 	101324.9999999892
0.8671171171171166 	299.9999999999793 	1.000000000004477 	101324.9999999892
0.8696196196196189 	299.9999999999419 	1.000000000004396 	101324.9999999898
0.8721221221221216 	299.9999999999706 	1.000000000004139 	101324.9999999904
0.874624624624624 	300.0000000000014 	1.000000000004691 	101324.9999999902
0.8771271271271264 	299.9999999999986 	1.00000000000535 	101324.9999999901
0.879629629629629 	299.9999999999976 	1.000000000009692 	101324.9999999899
0.8821321321321317 	299.9999999999847 	1.000000000010996 	101324.9999999893
0.8846346346346339 	299.9999999999468 	0.9999999999988625 	101324.9999999889
0.8871371371371364 	299.9999999999505 	1.000000000003929 	101324.9999999893
0.8896396396396391 	299.9999999999582 	1.000000000006997 	101324.9999999898
0.8921421421421414 	299.9999999999616 	1.000000000006559 	101324.9999999899
0.8946446446446441 	299.9999999999765 	1.000000000006157 	101324.9999999901
0.8971471471471464 	299.9999999999945 	1.000000000008111 	101324.9999999899
0.8996496496496489 	299.9999999999895 	1.000000000008048 	101324.99999999
0.9021521521521517 	299.999999999986 	1.000000000001422 	101324.9999999901
0.9046546546546541 	299.9999999999957 	1.00000000000349 	101324.9999999898
0.9071571571571564 	299.9999999999681 	1.000000000005243 	101324.9999999895
0.9096596596596589 	299.9999999999495 	1.000000000005057 	101324.9999999893
0.9121621621621616 	299.9999999999847 	1.000000000004252 	101324.9999999894
0.9146646646646639 	299.9999999999761 	1.000000000003807 	101324.99999999
0.9171671671671666 	299.9999999999517 	1.000000000003466 	101324.9999999903
0.9196696696696689 	299.9999999999776 	1.000000000008137 	101324.9999999898
0.9221721721721714 	299.999999999979 	1.000000000009581 	101324.9999999899
0.9246746746746741 	299.9999999999434 	0.9999999999981337 	101324.9999999901
0.9271771771771765 	299.9999999999578 	1.000000000003256 	101324.9999999901
0.9296796796796791 	299.9999999999783 	1.000000000005438 	101324.9999999902
0.9321821821821816 	299.9999999999668 	1.000000000003296 	101324.9999999897
0.9346846846846838 	299.9999999999561 	1.000000000002541 	101324.9999999896
0.9371871871871866 	299.999999999994 	1.000000000003582 	101324.9999999896
0.9396896896896891 	300.0000000000045 	1.000000000004418 	101324.9999999898
0.9421921921921914 	299.9999999999995 	1.000000000009463 	101324.99999999
0.9446946946946939 	299.9999999999856 	1.000000000010209 	101324.9999999903
0.9471971971971965 	299.9999999999583 	0.999999999998807 	101324.9999999901
0.9496996996996991 	299.9999999999516 	1.000000000003666 	101324.9999999898
0.9522022022022016 	299.9999999999744 	1.000000000006159 	101324.9999999894
0.9547047047047038 	299.9999999999915 	1.00000000000613 	101324.9999999893
0.9572072072072064 	299.9999999999861 	1.000000000005711 	101324.9999999895
0.9597097097097093 	299.9999999999716 	1.000000000007556 	101324.9999999893
0.9622122122122114 	299.9999999999599 	1.000000000007751 	101324.9999999892
0.964714714714714 	299.9999999999515 	1.000000000002177 	101324.9999999893
0.9672172172172167 	299.9999999999413 	1.000000000005169 	101324.9999999891
0.969719719719719 	299.9999999999634 	1.000000000007614 	101324.9999999889
0.9722222222222214 	299.9999999999728 	1.000000000007591 	101324.9999999886
0.9747247247247239 	299.9999999999715 	1.000000000006367 	101324.9999999887
0.9772272272272267 	299.9999999999927 	1.000000000005755 	101324.9999999891
0.9797297297297292 	299.9999999999833 	1.000000000005359 	101324.9999999891
0.9822322322322313 	299.9999999999776 	1.000000000009966 	101324.9999999889
0.9847347347347344 	299.9999999999746 	1.000000000009018 	101324.9999999888
0.9872372372372363 	299.9999999999433 	0.9999999999966962 	101324.9999999889
0.9897397397397389 	299.9999999999421 	1.00000000000102 	101324.9999999891
0.9922422422422417 	299.999999999939 	1.000000000003644 	101324.9999999892
0.9947447447447441 	299.9999999999632 	1.000000000003677 	101324.9999999892
0.9972472472472468 	299.9999999999732 	1.000000000004927 	101324.9999999893
0.999749749749749 	299.9999999999681 	1.000000000006007 	101324.9999999893
1.002252252252252 	299.9999999999726 	1.000000000006299 	101324.9999999893
1.004754754754754 	299.9999999999893 	1.000000000011484 	101324.9999999891
1.007257257257256 	299.9999999999802 	1.000000000010402 	101324.9999999891
1.009759759759759 	299.9999999999679 	0.9999999999986977 	101324.9999999892
1.012262262262261 	299.9999999999664 	1.000000000004203 	101324.9999999895
1.014764764764764 	299.999999999948 	1.000000000007785 	101324.9999999899
1.017267267267267 	299.9999999999322 	1.000000000007119 	101324.99999999
1.019769769769769 	299.9999999999572 	1.000000000005278 	101324.9999999898
1.022272272272272 	299.9999999999807 	1.000000000006862 	101324.9999999889
1.024774774774774 	299.999999999987 	1.000000000005864 	101324.9999999881
1.027277277277277 	299.9999999999843 	1.000000000000414 	101324.9999999881
1.029779779779779 	300.0000000000036 	1.000000000003929 	101324.9999999886
1.032282282282282 	300.0000000000061 	1.000000000006523 	101324.9999999889
1.034784784784784 	300.0000000000022 	1.000000000006628 	101324.9999999891
1.037287287287286 	299.9999999999843 	1.000000000005882 	101324.9999999892
1.039789789789789 	299.9999999999832 	1.000000000005075 	101324.999999989
1.042292292292291 	300.0000000000126 	1.000000000004088 	101324.9999999888
1.044794794794794 	300.0000000000323 	1.000000000008997 	101324.9999999887
1.047297297297296 	300.0000000000414 	1.000000000008379 	101324.9999999887
1.049799799799799 	300.0000000000126 	0.9999999999983276 	101324.9999999889
1.052302302302302 	299.9999999999833 	1.00000000000363 	101324.9999999892
1.054804804804804 	299.9999999999554 	1.000000000006559 	101324.9999999892
1.057307307307306 	299.9999999999343 	1.000000000006042 	101324.9999999889
1.059809809809809 	299.999999999956 	1.000000000006027 	101324.9999999887
1.062312312312312 	299.9999999999622 	1.000000000006173 	101324.9999999887
1.064814814814814 	299.9999999999617 	1.000000000005466 	101324.9999999883
1.067317317317317 	299.9999999999417 	1.000000000010529 	101324.9999999881
1.069819819819819 	299.9999999999285 	1.000000000008293 	101324.9999999881
1.072322322322321 	299.9999999999717 	0.9999999999970541 	101324.999999988
1.074824824824824 	300.0000000000109 	1.000000000002284 	101324.9999999879
1.077327327327327 	300.0000000000289 	1.000000000005457 	101324.999999988
1.079829829829829 	300.0000000000394 	1.00000000000524 	101324.9999999881
1.082332332332332 	300.0000000000136 	1.000000000004716 	101324.9999999882
1.084834834834834 	299.9999999999825 	1.000000000010355 	101324.9999999882
1.087337337337337 	299.9999999999463 	1.000000000008835 	101324.9999999883
1.089839839839839 	299.9999999999233 	0.99999999999884 	101324.9999999884
1.092342342342342 	299.9999999999477 	1.000000000004008 	101324.9999999888
1.094844844844844 	299.9999999999543 	1.000000000011998 	101324.999999989
1.097347347347347 	299.9999999999364 	1.000000000009309 	101324.9999999888
1.099849849849849 	299.9999999999303 	0.9999999999986671 	101324.9999999889
1.102352352352352 	299.9999999999548 	1.000000000003469 	101324.9999999887
1.104854854854854 	299.9999999999764 	1.00000000000626 	101324.9999999885
1.107357357357357 	299.9999999999638 	1.000000000006237 	101324.9999999881
1.109859859859859 	299.9999999999511 	1.00000000000581 	101324.999999988
1.112362362362362 	299.9999999999922 	1.000000000011437 	101324.9999999881
1.114864864864865 	300 	1.000000000008957 	101324.999999988
1.117367367367367 	299.999999999969 	0.9999999999983398 	101324.9999999877
1.119869869869869 	299.9999999999378 	1.000000000003697 	101324.9999999877
1.122372372372372 	299.9999999999527 	1.00000000000699 	101324.9999999878
1.124874874874874 	299.9999999999598 	1.000000000006686 	101324.999999988
1.127377377377377 	299.9999999999538 	1.000000000006537 	101324.9999999883
1.129879879879879 	299.9999999999816 	1.000000000007039 	101324.9999999885
1.132382382382382 	300.0000000000263 	1.000000000006783 	101324.9999999884
1.134884884884884 	300.000000000022 	1.000000000012939 	101324.9999999887
1.137387387387387 	300.0000000000135 	1.000000000011142 	101324.9999999888
1.139889889889889 	299.9999999999742 	1.000000000001173 	101324.9999999887
1.142392392392392 	299.9999999999552 	1.000000000005853 	101324.9999999885
1.144894894894894 	299.9999999999927 	1.000000000008147 	101324.9999999883
1.147397397397397 	299.9999999999948 	1.000000000007196 	101324.9999999881
1.149899899899899 	299.9999999999617 	1.000000000006444 	101324.9999999882
1.152402402402402 	299.9999999999408 	1.000000000006686 	101324.9999999881
1.154904904904904 	299.999999999958 	1.000000000006702 	101324.9999999878
1.157407407407407 	299.9999999999608 	1.000000000012277 	101324.9999999876
1.159909909909909 	299.9999999999415 	1.00000000000968 	101324.999999988
1.162412412412412 	299.9999999999353 	1.000000000000791 	101324.9999999884
1.164914914914914 	299.999999999955 	1.000000000005786 	101324.9999999888
1.167417417417417 	299.9999999999542 	1.000000000007312 	101324.9999999886
1.169919919919919 	299.9999999999859 	1.000000000006633 	101324.999999988
1.172422422422422 	300.0000000000239 	1.000000000007439 	101324.9999999878
1.174924924924925 	300.0000000000097 	1.000000000014167 	101324.9999999882
1.177427427427427 	299.9999999999789 	1.000000000010536 	101324.9999999886
1.179929929929929 	299.9999999999943 	1.000000000001119 	101324.9999999884
1.182432432432432 	300.0000000000301 	1.00000000000633 	101324.9999999881
1.184934934934934 	300.0000000000108 	1.000000000008601 	101324.9999999879
1.187437437437437 	299.9999999999837 	1.000000000008086 	101324.9999999881
1.189939939939939 	299.9999999999769 	1.000000000007647 	101324.9999999882
1.192442442442442 	299.9999999999499 	1.000000000007248 	101324.9999999876
1.194944944944944 	299.9999999999351 	1.000000000006354 	101324.9999999873
1.197447447447447 	299.9999999999804 	1.000000000012301 	101324.9999999875
1.199949949949949 	300.0000000000128 	1.000000000009096 	101324.9999999877
1.202452452452452 	299.9999999999758 	1.000000000000274 	101324.999999988
1.204954954954955 	299.9999999999562 	1.000000000005699 	101324.999999988
1.207457457457457 	299.99999999997 	1.00000000000804 	101324.9999999879
1.20995995995996 	299.9999999999748 	1.000000000007673 	101324.999999988
1.212462462462462 	299.9999999999831 	1.000000000007985 	101324.9999999882
1.214964964964964 	299.9999999999862 	1.000000000008701 	101324.9999999882
1.217467467467467 	299.9999999999881 	1.000000000008187 	101324.9999999884
1.219969969969969 	299.9999999999632 	1.000000000012993 	101324.9999999882
1.222472472472472 	299.9999999999833 	1.000000000008396 	101324.9999999877
1.224974974974975 	300.0000000000203 	1.000000000000113 	101324.9999999875
1.227477477477477 	299.999999999997 	1.000000000005571 	101324.9999999878
1.229979979979979 	299.9999999999836 	1.000000000008394 	101324.9999999883
1.232482482482482 	299.9999999999613 	1.000000000008761 	101324.9999999889
1.234984984984984 	299.999999999954 	1.00000000000822 	101324.9999999891
1.237487487487487 	299.9999999999768 	1.000000000014261 	101324.9999999888
1.239989989989989 	299.9999999999911 	1.000000000010068 	101324.9999999887
1.242492492492492 	300.0000000000111 	1.000000000001662 	101324.9999999887
1.244994994994994 	299.9999999999882 	1.000000000007509 	101324.9999999887
1.247497497497497 	299.9999999999915 	1.000000000009903 	101324.9999999887
1.249999999999999 	299.9999999999257 	1.000000000009181 	101324.9999999888
