-1.25 	300.03954602625 	1.118187564965813 	101372.5528258148
-1.247497497497497 	300.0383764227673 	1.112716109386788 	101370.4181536457
-1.244994994994995 	300.0355812528881 	1.102648206954772 	101367.038824231
-1.242492492492492 	300.0320435195348 	1.092564889212471 	101362.8865616888
-1.23998998998999 	300.0279436324395 	1.080760104860682 	101358.0388271394
-1.237487487487487 	300.0233323799282 	1.06742775072284 	101352.586335181
-1.234984984984985 	300.0182924820453 	1.05286267402449 	101346.6272587371
-1.232482482482482 	300.0129168530364 	1.03732651514037 	101340.2716266062
-1.22997997997998 	300.0073030975906 	1.021102279970455 	101333.6346902726
-1.227477477477477 	300.0015544567973 	1.004487739648814 	101326.838480603
-1.224974974974975 	299.9957765942431 	0.9877875631914669 	101320.0079825775
-1.222472472472472 	299.9900746503384 	0.9713085420014897 	101313.2675214743
-1.21996996996997 	299.9845552860571 	0.9553539035701404 	101306.7431792148
-1.217467467467467 	299.9793165676653 	0.9402151484471067 	101300.5508419855
-1.214964964964965 	299.9744599097003 	0.9261763467330503 	101294.8103686637
-1.212462462462462 	299.970071121833 	0.9134914203773281 	101289.6231004513
-1.20995995995996 	299.9662305814767 	0.9023948597011276 	101285.0839504786
-1.207457457457457 	299.9630145052663 	0.893095018361362 	101281.2829462696
-1.204954954954955 	299.9604723117026 	0.8857536832317894 	101278.2784851875
-1.202452452452452 	299.9586609414227 	0.8805184568285225 	101276.1377734434
-1.19994994994995 	299.9576101054766 	0.8774768072971424 	101274.8958619813
-1.197447447447447 	299.9573271045517 	0.8766723592061776 	101274.5616834388
-1.194944944944945 	299.9578387395507 	0.8781466254768624 	101275.1664200968
-1.192442442442442 	299.9591206239845 	0.8818469690719923 	101276.6808993926
-1.18993993993994 	299.9611378343076 	0.8876954754591125 	101279.0645516573
-1.187437437437437 	299.9638874290771 	0.8956320842416583 	101282.3140289804
-1.184934934934935 	299.9672909697596 	0.9054606112258525 	101286.3364424867
-1.182432432432432 	299.9712651994509 	0.916976988093241 	101291.0334761438
-1.17992992992993 	299.9757978987519 	0.9300700376892104 	101296.3907673301
-1.177427427427427 	299.9807830038533 	0.9444487306528893 	101302.2830470296
-1.174924924924925 	299.9860621821853 	0.9597419878518174 	101308.5231475411
-1.172422422422422 	299.9916169201721 	0.9758206139795874 	101315.0892804644
-1.16991991991992 	299.9973937805012 	0.9924584236341637 	101321.9183574283
-1.167417417417417 	300.0031489305027 	1.009081019760802 	101328.7221212281
-1.164914914914915 	300.0087565315995 	1.025379765457671 	101335.3517004183
-1.162412412412412 	300.0143305550073 	1.041504427306418 	101341.9418770974
-1.15990990990991 	300.0197949164399 	1.057167418170197 	101348.402821308
-1.157407407407407 	300.0247322560816 	1.071380235145637 	101354.2408916345
-1.154904904904904 	300.0289226139034 	1.083643085066643 	101359.1958216597
-1.152402402402403 	300.03267231474 	1.094633497208154 	101363.6298459506
-1.1498998998999 	300.0362908561199 	1.104997579701048 	101367.908993225
-1.147397397397397 	300.0394695299671 	1.113930793572452 	101371.6680581494
-1.144894894894895 	300.0415109049259 	1.119732906836792 	101374.0822565902
-1.142392392392392 	300.0421395699222 	1.121744936227789 	101374.8255654298
-1.13988988988989 	300.0418559837549 	1.121216592307675 	101374.4902222875
-1.137387387387387 	300.0414224061203 	1.120056001922552 	101373.9777794268
-1.134884884884885 	300.0410874565232 	1.118890503613593 	101373.5816394378
-1.132382382382382 	300.0403424326047 	1.116413036817597 	101372.700014091
-1.12987987987988 	300.0383545021028 	1.110459969947972 	101370.3492714981
-1.127377377377377 	300.0346174417729 	1.099694529784186 	101365.93067976
-1.124874874874875 	300.0292991998829 	1.084557006978287 	101359.6420610958
-1.122372372372372 	300.0231280192265 	1.067013623020419 	101352.3449678502
-1.11986986986987 	300.0170117396602 	1.049560827837525 	101345.1130927489
-1.117367367367367 	300.0116771630589 	1.034243023729019 	101338.8057515023
-1.114864864864865 	300.0074996559105 	1.022155543368817 	101333.8666325465
-1.112362362362362 	300.0045207515887 	1.013462349833816 	101330.3447183038
-1.10985985985986 	300.002566039681 	1.007705901179024 	101328.0337245979
-1.107357357357357 	300.0013759422477 	1.0041679805528 	101326.626720418
-1.104854854854855 	300.0006991217091 	1.002136540818396 	101325.8265445973
-1.102352352352353 	300.0003375642623 	1.001040835271189 	101325.39909039
-1.09984984984985 	300.0001552891731 	1.000483109690811 	101325.1835936117
-1.097347347347347 	300.0000682235163 	1.000214148286275 	101325.0806588805
-1.094844844844845 	300.0000286858805 	1.000090847098475 	101325.0339147048
-1.092342342342342 	300.0000115662519 	1.000036955302919 	101325.0136745937
-1.08983983983984 	300.0000044800507 	1.000014440486047 	101325.0052967238
-1.087337337337337 	300.0000016697477 	1.000005429168676 	101325.001974142
-1.084834834834835 	300.0000005997261 	1.000001966902954 	101325.0007090595
-1.082332332332332 	300.0000002078727 	1.000000687595208 	101325.0002457677
-1.07982982982983 	300.0000000696279 	1.000000232242784 	101325.0000823122
-1.077327327327327 	300.0000000225638 	1.000000075883678 	101325.0000266696
-1.074824824824825 	300.0000000070824 	1.000000024011116 	101325.0000083685
-1.072322322322323 	300.0000000021549 	1.000000007366936 	101325.0000025457
-1.06981981981982 	300.000000000642 	1.000000002193345 	101325.0000007513
-1.067317317317317 	300.000000000188 	1.000000000633887 	101325.000000215
-1.064814814814815 	300.0000000000505 	1.000000000179656 	101325.0000000591
-1.062312312312312 	300.0000000000099 	1.000000000049864 	101325.0000000146
-1.05980980980981 	299.9999999999961 	1.000000000013165 	101325.0000000027
-1.057307307307307 	299.9999999999866 	1.000000000003267 	101325
-1.054804804804805 	299.999999999991 	1.000000000001419 	101324.9999999993
-1.052302302302302 	299.9999999999983 	1.000000000001348 	101324.9999999991
-1.0497997997998 	300.0000000000029 	1.000000000001175 	101324.9999999991
-1.047297297297297 	300.0000000000093 	1.000000000001089 	101324.9999999989
-1.044794794794795 	300.000000000011 	1.000000000001197 	101324.9999999987
-1.042292292292292 	300.0000000000049 	1.000000000001642 	101324.9999999984
-1.03978978978979 	300.0000000000012 	1.000000000001604 	101324.9999999985
-1.037287287287287 	299.999999999995 	1.000000000001495 	101324.9999999986
-1.034784784784785 	299.999999999998 	1.000000000001712 	101324.9999999987
-1.032282282282283 	300.0000000000044 	1.000000000001858 	101324.9999999986
-1.02977977977978 	300.0000000000055 	1.000000000002191 	101324.9999999989
-1.027277277277277 	299.9999999999961 	1.00000000000273 	101324.9999999991
-1.024774774774775 	299.9999999999907 	1.000000000002502 	101324.999999999
-1.022272272272272 	299.9999999999935 	1.000000000001917 	101324.9999999991
-1.01976976976977 	299.9999999999953 	1.000000000001666 	101324.9999999992
-1.017267267267267 	299.9999999999899 	1.000000000001315 	101324.9999999991
-1.014764764764765 	299.9999999999918 	1.000000000000886 	101324.9999999989
-1.012262262262262 	299.9999999999905 	1.000000000000286 	101324.9999999986
-1.00975975975976 	299.9999999999922 	1.000000000002245 	101324.9999999985
-1.007257257257257 	299.9999999999989 	0.9999999999999664 	101324.9999999986
-1.004754754754755 	300.0000000000036 	0.9999999999990969 	101324.9999999986
-1.002252252252252 	299.9999999999955 	1.000000000000306 	101324.9999999985
-0.9997497497497498 	299.9999999999962 	1.000000000000635 	101324.9999999987
-0.9972472472472473 	299.999999999995 	1.000000000001353 	101324.9999999989
-0.9947447447447449 	299.9999999999916 	1.00000000000134 	101324.9999999986
-0.9922422422422421 	299.9999999999941 	1.00000000000053 	101324.9999999983
-0.9897397397397399 	299.9999999999939 	0.9999999999995163 	101324.9999999984
-0.9872372372372376 	299.9999999999918 	1.000000000001593 	101324.9999999987
-0.9847347347347346 	299.9999999999912 	0.9999999999999368 	101324.9999999986
-0.9822322322322323 	299.9999999999962 	0.9999999999996985 	101324.9999999985
-0.9797297297297296 	299.9999999999972 	1.00000000000089 	101324.9999999983
-0.9772272272272275 	299.999999999999 	1.000000000000447 	101324.9999999982
-0.9747247247247248 	300.0000000000008 	1.000000000000322 	101324.9999999983
-0.9722222222222224 	299.9999999999923 	1.000000000000673 	101324.9999999988
-0.9697197197197196 	299.9999999999928 	1.000000000000868 	101324.999999999
-0.9672172172172175 	299.9999999999868 	1.000000000000606 	101324.9999999988
-0.9647147147147147 	299.9999999999853 	1.000000000001119 	101324.9999999986
-0.9622122122122124 	299.9999999999928 	0.9999999999992346 	101324.9999999989
-0.9597097097097099 	299.9999999999972 	0.9999999999983188 	101324.9999999988
-0.9572072072072073 	299.9999999999952 	0.9999999999989591 	101324.9999999985
-0.9547047047047047 	300.0000000000044 	0.9999999999995512 	101324.9999999982
-0.9522022022022023 	299.9999999999936 	1.000000000000254 	101324.9999999982
-0.9496996996996998 	299.9999999999896 	1.000000000000766 	101324.9999999985
-0.9471971971971973 	300.0000000000023 	1.000000000003305 	101324.9999999985
-0.9446946946946947 	299.9999999999943 	1.000000000000262 	101324.9999999983
-0.9421921921921923 	299.9999999999936 	0.999999999998987 	101324.9999999984
-0.93968968968969 	300.0000000000035 	0.9999999999999238 	101324.9999999985
-0.9371871871871872 	300.0000000000065 	0.9999999999994007 	101324.9999999983
-0.9346846846846848 	299.9999999999984 	0.9999999999989706 	101324.9999999981
-0.9321821821821823 	299.9999999999894 	0.999999999998924 	101324.9999999982
-0.9296796796796799 	299.9999999999921 	0.9999999999993369 	101324.9999999985
-0.9271771771771771 	299.99999999999 	0.9999999999993607 	101324.9999999987
-0.9246746746746748 	299.999999999997 	1.000000000001454 	101324.9999999989
-0.9221721721721724 	300.000000000002 	0.9999999999983609 	101324.9999999988
-0.9196696696696698 	300.0000000000003 	0.9999999999974283 	101324.9999999987
-0.9171671671671672 	299.9999999999892 	0.9999999999984377 	101324.9999999985
-0.9146646646646649 	299.9999999999934 	0.9999999999986888 	101324.9999999987
-0.9121621621621623 	299.9999999999991 	0.999999999999274 	101324.9999999989
-0.9096596596596597 	299.999999999991 	0.9999999999995935 	101324.999999999
-0.9071571571571573 	299.9999999999944 	1.000000000000035 	101324.9999999987
-0.9046546546546547 	299.9999999999994 	1.000000000000432 	101324.9999999983
-0.9021521521521524 	299.9999999999985 	1.000000000001766 	101324.9999999981
-0.8996496496496498 	299.9999999999944 	1.000000000000552 	101324.999999998
-0.8971471471471473 	300.000000000002 	1.000000000000297 	101324.9999999982
-0.894644644644645 	299.9999999999998 	1.000000000000434 	101324.9999999982
-0.892142142142142 	300.0000000000036 	0.9999999999998589 	101324.9999999978
-0.8896396396396397 	300.0000000000099 	1.000000000000378 	101324.9999999974
-0.8871371371371374 	299.999999999996 	1.000000000001276 	101324.9999999975
-0.8846346346346349 	299.9999999999918 	1.000000000003531 	101324.9999999977
-0.8821321321321324 	299.9999999999944 	1.000000000000172 	101324.9999999981
-0.8796296296296297 	299.9999999999914 	1.000000000000268 	101324.9999999981
-0.8771271271271271 	299.999999999986 	0.9999999999988965 	101324.9999999981
-0.8746246246246248 	299.9999999999898 	0.9999999999994664 	101324.9999999982
-0.8721221221221224 	299.9999999999907 	0.9999999999989163 	101324.9999999983
-0.8696196196196196 	299.9999999999922 	0.9999999999990259 	101324.9999999984
-0.8671171171171175 	299.999999999994 	0.9999999999996028 	101324.9999999986
-0.8646146146146148 	299.9999999999887 	1.000000000001578 	101324.9999999984
-0.8621121121121121 	299.9999999999939 	1.00000000000063 	101324.9999999982
-0.8596096096096097 	299.9999999999997 	0.999999999998175 	101324.9999999978
-0.857107107107107 	299.999999999996 	1.000000000000157 	101324.9999999979
-0.8546046046046049 	299.9999999999994 	1.00000000000164 	101324.9999999983
-0.8521021021021022 	300.0000000000039 	1.000000000001323 	101324.999999998
-0.8495995995995997 	300.0000000000048 	1.000000000001276 	101324.9999999979
-0.8470970970970974 	299.9999999999944 	1.000000000001493 	101324.9999999979
-0.8445945945945946 	299.9999999999886 	1.000000000001285 	101324.9999999982
-0.8420920920920922 	300.0000000000028 	1.000000000001253 	101324.9999999984
-0.8395895895895897 	300.0000000000092 	1.000000000003829 	101324.9999999981
-0.8370870870870872 	299.9999999999996 	1.000000000000741 	101324.9999999979
-0.8345845845845846 	299.9999999999966 	1.0000000000007 	101324.9999999982
-0.8320820820820823 	299.9999999999935 	1.000000000001872 	101324.9999999984
-0.8295795795795798 	299.9999999999862 	1.000000000001995 	101324.9999999982
-0.8270770770770772 	299.9999999999866 	1.000000000001625 	101324.9999999984
-0.8245745745745746 	299.9999999999872 	1.000000000000532 	101324.9999999987
-0.8220720720720721 	299.9999999999947 	1.00000000000001 	101324.9999999984
-0.8195695695695699 	299.9999999999989 	1.00000000000044 	101324.9999999986
-0.817067067067067 	299.9999999999951 	1.000000000003129 	101324.9999999984
-0.8145645645645651 	299.9999999999808 	0.9999999999992271 	101324.9999999983
-0.8120620620620621 	299.9999999999911 	0.9999999999987896 	101324.9999999981
-0.8095595595595597 	300.0000000000009 	0.9999999999999967 	101324.9999999977
-0.8070570570570572 	299.9999999999977 	0.9999999999999294 	101324.999999998
-0.8045545545545546 	299.9999999999823 	0.9999999999995628 	101324.9999999983
-0.8020520520520523 	299.9999999999944 	0.9999999999992439 	101324.9999999983
-0.7995495495495494 	300.0000000000032 	1.000000000001678 	101324.9999999983
-0.7970470470470474 	299.9999999999956 	0.9999999999983225 	101324.9999999982
-0.7945445445445446 	299.9999999999968 	0.999999999999303 	101324.999999998
-0.7920420420420423 	300.0000000000002 	0.9999999999992306 	101324.999999998
-0.7895395395395397 	300.0000000000041 	1.000000000000738 	101324.9999999982
-0.7870370370370371 	299.9999999999984 	0.9999999999996588 	101324.9999999984
-0.7845345345345348 	299.9999999999982 	0.9999999999997697 	101324.9999999985
-0.7820320320320323 	299.9999999999995 	1.000000000000609 	101324.9999999984
-0.7795295295295296 	299.9999999999899 	1.000000000002725 	101324.9999999983
-0.7770270270270272 	299.9999999999879 	0.9999999999992117 	101324.9999999984
-0.7745245245245247 	299.9999999999869 	0.9999999999994217 	101324.9999999985
-0.7720220220220222 	299.9999999999909 	0.9999999999999496 	101324.9999999984
-0.7695195195195199 	299.9999999999845 	0.9999999999992952 	101324.9999999983
-0.767017017017017 	299.9999999999882 	0.9999999999994906 	101324.9999999983
-0.7645145145145147 	299.9999999999964 	0.9999999999997438 	101324.9999999983
-0.7620120120120122 	299.9999999999979 	0.9999999999993165 	101324.9999999985
-0.7595095095095097 	299.9999999999917 	1.000000000002956 	101324.9999999983
-0.7570070070070072 	299.9999999999832 	0.9999999999971251 	101324.9999999982
-0.7545045045045048 	299.999999999988 	0.999999999999442 	101324.9999999985
-0.7520020020020022 	299.9999999999826 	0.9999999999976439 	101324.9999999983
-0.7494994994994997 	299.99999999999 	0.9999999999988118 	101324.9999999982
-0.7469969969969972 	299.999999999996 	0.9999999999978023 	101324.9999999984
-0.7444944944944945 	299.9999999999886 	0.9999999999974598 	101324.9999999984
-0.7419919919919924 	299.9999999999943 	0.9999999999983475 	101324.9999999986
-0.7394894894894897 	299.9999999999842 	0.9999999999985523 	101324.9999999983
-0.7369869869869872 	299.9999999999897 	0.9999999999977972 	101324.999999998
-0.7344844844844846 	299.999999999994 	0.9999999999979491 	101324.9999999981
-0.7319819819819822 	299.999999999999 	1.000000000001454 	101324.9999999982
-0.7294794794794797 	300.0000000000019 	0.9999999999980714 	101324.9999999984
-0.7269769769769773 	300.000000000002 	0.999999999998022 	101324.9999999983
-0.7244744744744747 	299.9999999999983 	0.9999999999991454 	101324.9999999981
-0.721971971971972 	299.9999999999936 	0.9999999999991093 	101324.9999999981
-0.7194694694694695 	299.9999999999932 	0.9999999999990847 	101324.9999999984
-0.7169669669669674 	299.9999999999863 	0.9999999999987986 	101324.9999999983
-0.7144644644644647 	299.9999999999986 	0.999999999997897 	101324.9999999983
-0.711961961961962 	300.0000000000057 	0.9999999999974392 	101324.9999999983
-0.7094594594594597 	300.0000000000031 	0.9999999999992589 	101324.9999999983
-0.7069569569569573 	299.9999999999969 	0.9999999999980903 	101324.9999999982
-0.7044544544544545 	299.9999999999999 	0.9999999999990568 	101324.9999999982
-0.7019519519519523 	300.0000000000024 	0.9999999999997814 	101324.9999999983
-0.6994494494494495 	299.9999999999915 	0.9999999999992581 	101324.9999999984
-0.6969469469469471 	299.9999999999953 	0.9999999999986855 	101324.9999999983
-0.6944444444444446 	300.0000000000003 	0.9999999999981545 	101324.9999999986
-0.6919419419419421 	300.0000000000038 	0.9999999999978547 	101324.9999999986
-0.6894394394394396 	299.9999999999939 	0.999999999997506 	101324.9999999986
-0.6869369369369374 	299.9999999999976 	0.99999999999775 	101324.9999999989
-0.6844344344344344 	299.9999999999999 	0.9999999999991522 	101324.999999999
-0.6819319319319321 	299.999999999987 	0.999999999999253 	101324.9999999991
-0.6794294294294296 	299.9999999999906 	0.999999999998901 	101324.9999999991
-0.6769269269269272 	299.999999999987 	0.9999999999985894 	101324.9999999987
-0.6744244244244245 	299.9999999999976 	0.9999999999988299 	101324.9999999988
-0.6719219219219222 	299.9999999999875 	0.9999999999991527 	101324.9999999992
-0.6694194194194195 	299.9999999999963 	0.9999999999994574 	101324.9999999989
-0.6669169169169172 	300.0000000000008 	0.9999999999996829 	101324.9999999985
-0.6644144144144146 	300.0000000000001 	0.9999999999996927 	101324.9999999982
-0.661911911911912 	299.9999999999998 	0.9999999999996644 	101324.9999999985
-0.6594094094094097 	299.9999999999931 	0.9999999999999243 	101324.9999999987
-0.656906906906907 	299.9999999999909 	0.9999999999997309 	101324.9999999985
-0.6544044044044046 	299.9999999999806 	0.9999999999987668 	101324.9999999981
-0.6519019019019021 	299.9999999999861 	0.9999999999984437 	101324.9999999982
-0.6493993993993996 	299.9999999999987 	0.9999999999979193 	101324.9999999984
-0.6468968968968971 	300.000000000003 	0.9999999999997755 	101324.9999999986
-0.6443943943943946 	300.0000000000048 	0.9999999999958747 	101324.9999999984
-0.6418918918918921 	300.0000000000065 	0.9999999999976422 	101324.9999999981
-0.6393893893893897 	300.0000000000072 	1.000000000000321 	101324.9999999984
-0.6368868868868871 	300.0000000000071 	1.000000000000359 	101324.9999999988
-0.6343843843843846 	300.0000000000071 	0.9999999999994467 	101324.999999999
-0.6318818818818821 	299.9999999999952 	0.9999999999997942 	101324.9999999986
-0.6293793793793795 	299.999999999999 	1.000000000000786 	101324.9999999983
-0.6268768768768773 	299.9999999999999 	1.00000000000115 	101324.9999999987
-0.6243743743743745 	299.9999999999904 	1.000000000001605 	101324.9999999988
-0.6218718718718721 	299.9999999999946 	0.9999999999987778 	101324.999999999
-0.6193693693693696 	299.9999999999894 	0.9999999999988111 	101324.999999999
-0.6168668668668671 	299.999999999998 	0.9999999999990754 	101324.9999999989
-0.6143643643643645 	300.0000000000005 	0.999999999999677 	101324.9999999989
-0.6118618618618621 	300.0000000000049 	1.000000000000056 	101324.9999999987
-0.6093593593593596 	300.0000000000091 	1.000000000000167 	101324.9999999991
-0.6068568568568571 	299.9999999999945 	1.000000000000933 	101324.9999999989
-0.6043543543543546 	299.9999999999932 	1.00000000000116 	101324.9999999987
-0.6018518518518521 	299.999999999989 	1.000000000000971 	101324.999999999
-0.5993493493493496 	299.9999999999952 	1.000000000000606 	101324.999999999
-0.5968468468468471 	299.9999999999977 	1.000000000000116 	101324.9999999989
-0.5943443443443446 	299.999999999997 	1.000000000000021 	101324.9999999987
-0.591841841841842 	299.9999999999862 	1.000000000000558 	101324.9999999986
-0.5893393393393397 	299.9999999999907 	1.000000000000782 	101324.9999999986
-0.5868368368368371 	299.999999999999 	1.000000000000208 	101324.9999999992
-0.5843343343343346 	300.0000000000077 	1.000000000002553 	101324.9999999992
-0.5818318318318321 	300.0000000000085 	0.9999999999988347 	101324.9999999989
-0.5793293293293297 	299.9999999999922 	1 	101324.9999999987
-0.5768268268268271 	299.9999999999935 	1.00000000000115 	101324.9999999985
-0.5743243243243245 	299.9999999999991 	1.000000000001207 	101324.9999999989
-0.5718218218218221 	299.9999999999989 	1.00000000000073 	101324.9999999989
-0.5693193193193196 	300.0000000000057 	1.000000000001199 	101324.999999999
-0.5668168168168171 	300.0000000000027 	1.00000000000163 	101324.9999999986
-0.5643143143143147 	299.9999999999854 	1.000000000001195 	101324.9999999983
-0.5618118118118121 	299.9999999999975 	1.00000000000258 	101324.9999999984
-0.5593093093093094 	300.0000000000026 	1.000000000001066 	101324.9999999984
-0.5568068068068072 	300.0000000000031 	1.000000000001615 	101324.9999999986
-0.5543043043043046 	300.0000000000028 	1.000000000001968 	101324.9999999986
-0.551801801801802 	299.9999999999874 	1.000000000001999 	101324.9999999984
-0.5492992992992995 	299.9999999999974 	1.000000000001843 	101324.9999999982
-0.5467967967967969 	300.0000000000031 	1.000000000001488 	101324.999999998
-0.5442942942942947 	300.0000000000051 	1.000000000001721 	101324.9999999981
-0.5417917917917919 	299.9999999999887 	1.000000000002184 	101324.9999999984
-0.5392892892892895 	299.9999999999878 	1.000000000001622 	101324.9999999985
-0.536786786786787 	299.9999999999893 	1.000000000001646 	101324.9999999986
-0.5342842842842846 	299.9999999999881 	1.000000000001812 	101324.9999999988
-0.531781781781782 	299.9999999999797 	1.000000000000811 	101324.9999999988
-0.5292792792792794 	299.9999999999821 	1.000000000000605 	101324.9999999985
-0.526776776776777 	299.9999999999851 	1.000000000001108 	101324.9999999983
-0.5242742742742745 	299.9999999999881 	1.0000000000017 	101324.9999999978
-0.521771771771772 	299.9999999999963 	1.000000000004816 	101324.9999999983
-0.5192692692692695 	299.9999999999945 	1.000000000000555 	101324.9999999985
-0.516766766766767 	299.9999999999985 	1.000000000003386 	101324.9999999988
-0.5142642642642645 	299.9999999999869 	1.000000000000931 	101324.9999999986
-0.511761761761762 	299.999999999997 	1.000000000001359 	101324.9999999984
-0.5092592592592596 	300.000000000003 	0.9999999999992195 	101324.9999999986
-0.506756756756757 	299.999999999993 	1.00000000000014 	101324.9999999982
-0.5042542542542544 	300.0000000000034 	1.000000000000417 	101324.9999999978
-0.5017517517517521 	300.0000000000078 	1.000000000000028 	101324.9999999983
-0.4992492492492494 	300.0000000000034 	1.000000000000076 	101324.9999999986
-0.496746746746747 	299.9999999999999 	1.000000000001335 	101324.999999999
-0.4942442442442445 	299.9999999999866 	1.000000000001483 	101324.9999999989
-0.4917417417417421 	299.9999999999879 	1.000000000001066 	101324.9999999986
-0.4892392392392395 	299.9999999999852 	1.000000000000519 	101324.9999999983
-0.486736736736737 	299.999999999993 	1.000000000000044 	101324.9999999985
-0.4842342342342345 	299.9999999999918 	0.9999999999997299 	101324.9999999987
-0.481731731731732 	300.0000000000057 	0.9999999999999828 	101324.9999999988
-0.4792292292292296 	300.0000000000082 	0.9999999999997923 	101324.9999999986
-0.4767267267267268 	299.9999999999897 	1.00000000000272 	101324.9999999981
-0.4742242242242246 	299.9999999999948 	0.9999999999985842 	101324.9999999984
-0.471721721721722 	299.9999999999858 	0.999999999999146 	101324.9999999985
-0.4692192192192195 	299.9999999999883 	0.9999999999995239 	101324.9999999981
-0.4667167167167169 	299.9999999999861 	0.9999999999998173 	101324.9999999985
-0.4642142142142145 	300.0000000000027 	1.000000000000133 	101324.9999999987
-0.461711711711712 	300.0000000000029 	0.9999999999996584 	101324.9999999984
-0.4592092092092094 	299.9999999999978 	0.9999999999993586 	101324.9999999982
-0.456706706706707 	300.0000000000081 	0.9999999999994953 	101324.9999999987
-0.4542042042042045 	299.9999999999938 	0.9999999999996608 	101324.9999999989
-0.451701701701702 	299.9999999999953 	1.000000000000094 	101324.9999999989
-0.4491991991991995 	299.9999999999876 	0.9999999999995739 	101324.9999999986
-0.4466966966966969 	299.9999999999873 	0.9999999999997194 	101324.9999999985
-0.4441941941941945 	299.9999999999922 	1.000000000000064 	101324.9999999985
-0.441691691691692 	299.9999999999841 	0.9999999999997242 	101324.9999999987
-0.4391891891891895 	299.9999999999933 	0.9999999999992997 	101324.9999999987
-0.436686686686687 	299.9999999999899 	1.000000000001901 	101324.9999999986
-0.4341841841841846 	299.9999999999938 	0.9999999999964444 	101324.9999999986
-0.431681681681682 	299.9999999999906 	0.9999999999971768 	101324.9999999987
-0.4291791791791794 	299.9999999999893 	0.9999999999983654 	101324.999999999
-0.426676676676677 	299.9999999999828 	0.9999999999983852 	101324.999999999
-0.4241741741741744 	299.9999999999949 	0.9999999999986211 	101324.9999999985
-0.421671671671672 	300.000000000002 	0.9999999999986546 	101324.9999999985
-0.4191691691691694 	300.0000000000017 	0.9999999999986122 	101324.9999999983
-0.4166666666666669 	300.0000000000048 	0.9999999999984414 	101324.999999998
-0.4141641641641645 	299.9999999999903 	0.9999999999982246 	101324.9999999982
-0.411661661661662 	299.9999999999967 	0.9999999999981574 	101324.9999999982
-0.4091591591591594 	299.9999999999948 	0.9999999999985981 	101324.9999999982
-0.406656656656657 	299.9999999999839 	0.9999999999991253 	101324.9999999985
-0.4041541541541545 	300.0000000000013 	0.9999999999990116 	101324.9999999984
-0.401651651651652 	299.9999999999876 	0.9999999999984128 	101324.9999999987
-0.3991491491491494 	299.9999999999962 	0.999999999998165 	101324.9999999988
-0.396646646646647 	299.9999999999957 	1.000000000001205 	101324.9999999983
-0.3941441441441444 	300.0000000000026 	0.9999999999963001 	101324.9999999985
-0.3916416416416419 	299.999999999994 	0.999999999998 	101324.9999999985
-0.3891391391391395 	299.9999999999987 	0.9999999999988002 	101324.9999999992
-0.3866366366366368 	300.0000000000008 	0.9999999999986381 	101324.9999999994
-0.3841341341341344 	300.0000000000005 	0.9999999999983589 	101324.9999999992
-0.381631631631632 	299.9999999999844 	0.9999999999976563 	101324.9999999994
-0.3791291291291294 	299.9999999999998 	0.999999999997518 	101324.9999999993
-0.3766266266266269 	299.9999999999972 	0.9999999999978864 	101324.9999999991
-0.3741241241241244 	300.0000000000081 	0.9999999999981209 	101324.9999999991
-0.371621621621622 	299.9999999999981 	0.9999999999977223 	101324.9999999993
-0.3691191191191194 	300.0000000000052 	1.000000000000826 	101324.9999999992
-0.366616616616617 	300.0000000000044 	0.9999999999956503 	101324.9999999989
-0.3641141141141143 	299.9999999999853 	0.9999999999981563 	101324.9999999988
-0.3616116116116119 	299.9999999999961 	0.999999999999428 	101324.9999999985
-0.3591091091091095 	300.0000000000047 	0.9999999999991432 	101324.9999999987
-0.356606606606607 	299.9999999999919 	0.9999999999987085 	101324.9999999986
-0.3541041041041044 	300.0000000000005 	0.9999999999987075 	101324.9999999984
-0.3516016016016019 	300.0000000000015 	0.9999999999989969 	101324.9999999985
-0.3490990990990994 	300.0000000000014 	0.9999999999988001 	101324.9999999986
-0.346596596596597 	300.0000000000046 	1.000000000000313 	101324.9999999985
-0.3440940940940944 	300.0000000000052 	0.9999999999981313 	101324.9999999982
-0.3415915915915919 	300.0000000000013 	0.9999999999994902 	101324.9999999981
-0.3390890890890895 	299.9999999999912 	1.000000000000111 	101324.9999999984
-0.3365865865865869 	299.9999999999978 	0.9999999999997109 	101324.9999999985
-0.3340840840840844 	299.999999999998 	0.9999999999993689 	101324.9999999988
-0.3315815815815819 	300.0000000000068 	0.9999999999998771 	101324.9999999987
-0.3290790790790794 	300.0000000000063 	1.000000000000635 	101324.9999999985
-0.3265765765765769 	299.9999999999883 	1.000000000000834 	101324.9999999985
-0.3240740740740744 	299.9999999999969 	1.000000000000733 	101324.9999999986
-0.3215715715715718 	300.0000000000006 	1.000000000000745 	101324.9999999985
-0.3190690690690695 	299.9999999999898 	1.00000000000082 	101324.9999999989
-0.3165665665665668 	299.999999999998 	1.000000000000575 	101324.9999999985
-0.3140640640640644 	300.000000000004 	1.000000000000599 	101324.9999999988
-0.311561561561562 	299.9999999999907 	1.00000000000039 	101324.9999999989
-0.3090590590590593 	299.9999999999981 	1.000000000000079 	101324.9999999986
-0.3065565565565568 	300.0000000000031 	1.000000000003135 	101324.9999999984
-0.3040540540540545 	299.9999999999952 	0.9999999999974664 	101324.9999999987
-0.3015515515515518 	300.0000000000005 	0.9999999999992693 	101324.9999999987
-0.2990490490490494 	299.9999999999916 	1.000000000000371 	101324.9999999983
-0.2965465465465469 	299.9999999999982 	1.000000000000575 	101324.9999999987
-0.2940440440440444 	300.0000000000053 	1.000000000000827 	101324.999999999
-0.2915415415415418 	300.0000000000053 	1.000000000000998 	101324.9999999994
-0.2890390390390395 	299.999999999998 	1.000000000000789 	101324.9999999993
-0.2865365365365368 	299.9999999999994 	1.000000000000339 	101324.9999999988
-0.2840340340340343 	299.9999999999977 	1.000000000001757 	101324.999999999
-0.2815315315315318 	299.9999999999962 	0.9999999999992687 	101324.9999999989
-0.2790290290290295 	299.9999999999865 	1.000000000000103 	101324.9999999985
-0.2765265265265269 	299.9999999999974 	1.00000000000028 	101324.9999999989
-0.2740240240240244 	300.0000000000105 	1.000000000000187 	101324.9999999991
-0.2715215215215219 	300.0000000000081 	1.000000000001364 	101324.9999999989
-0.2690190190190194 	299.9999999999848 	1.000000000002835 	101324.9999999987
-0.2665165165165169 	299.9999999999994 	1.000000000002725 	101324.9999999989
-0.2640140140140144 	299.9999999999956 	1.000000000001915 	101324.9999999988
-0.2615115115115119 	300.0000000000037 	1.000000000003552 	101324.9999999991
-0.2590090090090094 	299.9999999999882 	1.000000000001375 	101324.9999999992
-0.2565065065065068 	299.9999999999952 	1.000000000002385 	101324.999999999
-0.2540040040040044 	300.0000000000032 	1.000000000002319 	101324.9999999988
-0.2515015015015019 	300.0000000000108 	1.000000000002727 	101324.9999999985
-0.2489989989989994 	300.0000000000062 	1.000000000002667 	101324.9999999987
-0.2464964964964968 	299.9999999999991 	1.000000000002265 	101324.9999999985
-0.2439939939939944 	300.0000000000031 	1.000000000003938 	101324.9999999986
-0.2414914914914919 	299.9999999999942 	1.000000000001518 	101324.9999999988
-0.2389889889889893 	299.9999999999976 	1.000000000002755 	101324.9999999992
-0.2364864864864869 	300.0000000000086 	1.000000000002374 	101324.999999999
-0.2339839839839843 	299.9999999999859 	1.000000000003753 	101324.9999999984
-0.2314814814814819 	300.0000000000009 	1.000000000001214 	101324.9999999982
-0.2289789789789792 	299.9999999999797 	1.000000000002422 	101324.9999999979
-0.2264764764764769 	299.9999999999914 	1.000000000001928 	101324.999999998
-0.2239739739739743 	299.9999999999935 	1.000000000001575 	101324.9999999984
-0.2214714714714718 	299.9999999999811 	1.000000000001952 	101324.9999999981
-0.2189689689689693 	299.9999999999935 	1.000000000001853 	101324.9999999982
-0.2164664664664669 	300.0000000000021 	1.000000000002817 	101324.9999999987
-0.2139639639639643 	299.9999999999898 	0.999999999999843 	101324.9999999987
-0.2114614614614618 	299.999999999997 	1.000000000001027 	101324.9999999982
-0.2089589589589593 	299.9999999999984 	1.000000000001079 	101324.9999999984
-0.2064564564564568 	299.9999999999965 	1.000000000001166 	101324.9999999985
-0.2039539539539543 	299.999999999986 	1.000000000001302 	101324.9999999984
-0.2014514514514518 	299.9999999999901 	1.00000000000137 	101324.9999999981
-0.1989489489489494 	299.999999999987 	1.000000000002929 	101324.999999998
-0.1964464464464468 	299.999999999995 	0.999999999999624 	101324.9999999979
-0.1939439439439443 	299.9999999999961 	1.000000000000395 	101324.999999998
-0.1914414414414418 	299.9999999999838 	1.0000000000005 	101324.9999999984
-0.1889389389389393 	300.0000000000031 	1.000000000000915 	101324.9999999983
-0.1864364364364368 	300.0000000000054 	1.000000000001452 	101324.9999999982
-0.1839339339339343 	300.0000000000006 	1.000000000001984 	101324.9999999981
-0.1814314314314318 	300.0000000000044 	1.000000000001561 	101324.9999999981
-0.1789289289289293 	299.9999999999851 	1.000000000001336 	101324.9999999983
-0.1764264264264268 	299.9999999999898 	1.000000000000441 	101324.9999999979
-0.1739239239239243 	299.9999999999845 	1.00000000000032 	101324.9999999981
-0.1714214214214218 	299.9999999999922 	1.000000000001239 	101324.999999998
-0.1689189189189193 	299.9999999999847 	1.000000000001672 	101324.999999998
-0.1664164164164168 	299.9999999999987 	1.000000000001701 	101324.9999999978
-0.1639139139139143 	300.0000000000014 	1.000000000001796 	101324.9999999977
-0.1614114114114118 	300.0000000000012 	1.000000000001176 	101324.9999999979
-0.1589089089089093 	299.9999999999944 	1.000000000004678 	101324.9999999977
-0.1564064064064068 	299.9999999999953 	0.9999999999985537 	101324.9999999976
-0.1539039039039043 	299.9999999999944 	1.000000000002093 	101324.9999999974
-0.1514014014014018 	299.9999999999984 	0.9999999999999424 	101324.9999999971
-0.1488988988988993 	299.9999999999997 	1.000000000003393 	101324.9999999975
-0.1463963963963968 	300.0000000000031 	1.000000000001067 	101324.9999999978
-0.1438938938938943 	299.9999999999894 	1.000000000001441 	101324.9999999978
-0.1413913913913918 	299.9999999999918 	1.00000000000095 	101324.9999999977
-0.1388888888888893 	299.9999999999915 	1.000000000001159 	101324.9999999975
-0.1363863863863868 	299.9999999999886 	1.000000000000747 	101324.9999999974
-0.1338838838838843 	299.99999999998 	1.000000000001477 	101324.9999999972
-0.1313813813813818 	299.999999999993 	1.000000000001622 	101324.9999999976
-0.1288788788788793 	299.9999999999835 	1.000000000000999 	101324.9999999979
-0.1263763763763768 	299.9999999999912 	1.00000000000159 	101324.9999999978
-0.1238738738738743 	299.9999999999841 	1.000000000001741 	101324.9999999973
-0.1213713713713717 	299.9999999999908 	1.000000000001795 	101324.9999999977
-0.1188688688688693 	300.0000000000021 	1.000000000001717 	101324.9999999978
-0.1163663663663668 	299.9999999999806 	1.000000000001698 	101324.9999999969
-0.1138638638638643 	299.9999999999927 	1.000000000002622 	101324.9999999968
-0.1113613613613618 	299.9999999999956 	0.9999999999995904 	101324.9999999971
-0.1088588588588592 	299.9999999999961 	1.000000000002463 	101324.9999999974
-0.1063563563563568 	299.9999999999881 	0.9999999999991601 	101324.9999999971
-0.1038538538538543 	299.9999999999965 	1.000000000000441 	101324.9999999975
-0.1013513513513517 	300.0000000000067 	1.000000000001461 	101324.9999999972
-0.09884884884884926 	299.9999999999887 	1.000000000001204 	101324.9999999969
-0.09634634634634676 	299.9999999999843 	1.000000000000735 	101324.9999999965
-0.09384384384384425 	299.9999999999754 	1.000000000001075 	101324.9999999971
-0.09134134134134177 	300.0000000000004 	1.000000000001197 	101324.9999999969
-0.08883883883883925 	300.0000000000047 	1.000000000000534 	101324.9999999972
-0.08633633633633674 	299.9999999999848 	1.000000000000298 	101324.9999999969
-0.08383383383383426 	299.9999999999975 	1.000000000001701 	101324.999999997
-0.08133133133133173 	299.999999999998 	1.000000000002922 	101324.9999999976
-0.07882882882882926 	299.9999999999845 	1.000000000002361 	101324.9999999973
-0.07632632632632676 	299.9999999999895 	1.00000000000117 	101324.999999997
-0.07382382382382424 	299.9999999999834 	1.00000000000086 	101324.9999999968
-0.07132132132132173 	299.9999999999953 	1.000000000000734 	101324.9999999971
-0.06881881881881925 	299.9999999999865 	1.000000000001336 	101324.9999999971
-0.06631631631631671 	299.9999999999829 	1.000000000000754 	101324.9999999974
-0.06381381381381425 	299.9999999999927 	1.000000000000371 	101324.9999999973
-0.06131131131131173 	299.9999999999916 	1.000000000000741 	101324.9999999968
-0.05880880880880923 	299.9999999999907 	1.000000000001253 	101324.9999999973
-0.05630630630630672 	299.9999999999932 	1.000000000001637 	101324.9999999972
-0.05380380380380424 	300.0000000000046 	1.000000000001599 	101324.9999999971
-0.05130130130130173 	299.9999999999971 	1.000000000001089 	101324.9999999971
-0.04879879879879922 	299.9999999999782 	1.000000000001612 	101324.9999999971
-0.04629629629629672 	299.9999999999819 	1.000000000001355 	101324.999999997
-0.04379379379379422 	299.9999999999872 	1.000000000000991 	101324.999999997
-0.04129129129129173 	299.9999999999849 	1.000000000001162 	101324.9999999967
-0.03878878878878922 	300.0000000000004 	1.000000000001698 	101324.9999999972
-0.03628628628628671 	299.9999999999868 	1.000000000001611 	101324.999999997
-0.03378378378378422 	299.9999999999841 	1.000000000000932 	101324.9999999968
-0.03128128128128172 	299.9999999999915 	1.000000000000551 	101324.9999999971
-0.02877877877877922 	300.000000000002 	1.000000000000453 	101324.9999999975
-0.0262762762762767 	299.9999999999769 	1.000000000000636 	101324.9999999974
-0.02377377377377422 	299.9999999999964 	1.00000000000121 	101324.9999999977
-0.0212712712712717 	299.9999999999752 	1.00000000000052 	101324.9999999969
-0.01876876876876921 	299.9999999999955 	0.9999999999999186 	101324.9999999969
-0.01626626626626671 	299.9999999999969 	1.000000000000686 	101324.9999999967
-0.0137637637637642 	299.9999999999855 	1.000000000000517 	101324.9999999966
-0.0112612612612617 	299.999999999995 	0.999999999999972 	101324.9999999966
-0.008758758758759198 	299.999999999994 	0.9999999999995955 	101324.9999999969
-0.006256256256256697 	299.9999999999853 	0.9999999999996448 	101324.9999999969
-0.003753753753754195 	299.9999999999854 	1.000000000000096 	101324.9999999972
-0.001251251251251693 	299.9999999999823 	1.000000000000486 	101324.9999999971
0.00125125125125081 	299.9999999999795 	1.000000000000262 	101324.9999999971
0.003753753753753312 	299.9999999999839 	0.9999999999999343 	101324.9999999969
0.006256256256255817 	299.9999999999829 	0.9999999999996019 	101324.9999999969
0.008758758758758317 	299.9999999999877 	0.9999999999997516 	101324.9999999971
0.01126126126126082 	299.9999999999911 	0.9999999999999054 	101324.9999999973
0.01376376376376332 	299.9999999999887 	1.000000000000082 	101324.9999999976
0.01626626626626582 	299.999999999996 	0.9999999999995999 	101324.9999999973
0.01876876876876833 	299.9999999999922 	0.999999999999621 	101324.9999999968
0.02127127127127083 	299.9999999999824 	1.000000000000197 	101324.9999999966
0.02377377377377332 	299.999999999991 	0.9999999999997613 	101324.9999999972
0.02627627627627583 	299.9999999999771 	0.9999999999996895 	101324.9999999971
0.02877877877877833 	299.9999999999928 	0.9999999999996245 	101324.9999999967
0.03128128128128083 	299.9999999999926 	0.9999999999990483 	101324.9999999966
0.03378378378378333 	299.9999999999787 	0.9999999999989995 	101324.9999999973
0.03628628628628584 	299.9999999999914 	0.9999999999994117 	101324.9999999973
0.03878878878878834 	300.0000000000026 	0.9999999999995925 	101324.999999997
0.04129129129129084 	299.9999999999845 	0.9999999999996048 	101324.9999999969
0.04379379379379333 	299.999999999992 	0.9999999999990273 	101324.9999999969
0.04629629629629585 	299.9999999999847 	0.9999999999986999 	101324.9999999974
0.04879879879879834 	299.9999999999816 	0.9999999999993459 	101324.9999999976
0.05130130130130085 	300.0000000000077 	0.9999999999995787 	101324.9999999971
0.05380380380380335 	300.0000000000078 	0.9999999999986949 	101324.9999999969
0.05630630630630584 	299.9999999999865 	0.9999999999981943 	101324.9999999969
0.05880880880880836 	299.9999999999918 	0.9999999999989476 	101324.999999997
0.06131131131131085 	299.9999999999922 	0.9999999999997853 	101324.9999999968
0.06381381381381336 	299.999999999997 	0.9999999999995428 	101324.999999997
0.06631631631631586 	299.9999999999857 	0.9999999999995424 	101324.9999999973
0.06881881881881835 	299.9999999999947 	0.9999999999999432 	101324.9999999975
0.07132132132132088 	299.9999999999989 	0.9999999999994917 	101324.9999999972
0.07382382382382337 	299.9999999999825 	0.9999999999998128 	101324.9999999966
0.07632632632632587 	299.999999999988 	0.9999999999992426 	101324.9999999968
0.07882882882882837 	299.9999999999923 	0.999999999999143 	101324.9999999969
0.08133133133133086 	299.9999999999926 	0.9999999999992735 	101324.999999997
0.08383383383383337 	299.999999999996 	0.9999999999988152 	101324.9999999976
0.08633633633633589 	299.9999999999843 	0.9999999999990025 	101324.9999999974
0.08883883883883838 	299.9999999999938 	0.9999999999993288 	101324.9999999969
0.09134134134134086 	299.9999999999893 	0.9999999999993395 	101324.9999999975
0.09384384384384339 	299.9999999999778 	0.9999999999980853 	101324.9999999971
0.09634634634634588 	299.9999999999907 	0.9999999999974346 	101324.9999999973
0.09884884884884838 	299.9999999999928 	0.9999999999980718 	101324.9999999971
0.1013513513513509 	300.0000000000011 	0.9999999999989932 	101324.9999999974
0.1038538538538534 	299.9999999999974 	0.9999999999989108 	101324.9999999972
0.1063563563563559 	299.9999999999916 	0.9999999999991162 	101324.9999999978
0.1088588588588584 	300.0000000000104 	0.9999999999995351 	101324.9999999976
0.1113613613613609 	299.999999999988 	1.000000000000313 	101324.9999999975
0.1138638638638634 	299.9999999999828 	0.9999999999998503 	101324.9999999977
0.1163663663663659 	299.9999999999858 	0.9999999999991197 	101324.9999999972
0.1188688688688684 	299.9999999999957 	0.9999999999984625 	101324.9999999974
0.1213713713713709 	300.0000000000039 	0.9999999999981465 	101324.999999998
0.1238738738738734 	299.9999999999883 	0.9999999999984147 	101324.9999999978
0.1263763763763759 	299.999999999991 	0.999999999998736 	101324.9999999976
0.1288788788788784 	299.9999999999894 	0.9999999999991686 	101324.9999999974
0.1313813813813809 	299.999999999991 	0.9999999999986544 	101324.9999999971
0.1338838838838834 	299.9999999999968 	0.999999999997816 	101324.9999999975
0.1363863863863859 	299.9999999999935 	0.9999999999981165 	101324.9999999975
0.1388888888888884 	300.0000000000053 	0.9999999999984104 	101324.9999999975
0.1413913913913909 	300.0000000000036 	0.9999999999982253 	101324.9999999974
0.1438938938938934 	300.0000000000015 	0.9999999999983507 	101324.9999999973
0.1463963963963959 	299.9999999999827 	0.9999999999981739 	101324.9999999977
0.1488988988988985 	299.9999999999894 	0.999999999998445 	101324.9999999975
0.1514014014014009 	299.9999999999903 	0.9999999999982774 	101324.9999999975
0.1539039039039035 	299.9999999999932 	0.9999999999984037 	101324.9999999975
0.1564064064064059 	299.9999999999878 	0.9999999999995282 	101324.9999999978
0.1589089089089084 	299.9999999999942 	0.999999999996483 	101324.9999999981
0.1614114114114109 	299.9999999999971 	0.99999999999815 	101324.9999999985
0.1639139139139134 	299.9999999999795 	0.9999999999980861 	101324.9999999984
0.166416416416416 	299.9999999999998 	0.9999999999986687 	101324.9999999983
0.1689189189189185 	300.0000000000013 	0.9999999999987017 	101324.9999999978
0.1714214214214209 	299.9999999999995 	0.9999999999983998 	101324.9999999978
0.1739239239239235 	299.9999999999881 	0.9999999999991569 	101324.9999999975
0.1764264264264259 	299.9999999999978 	0.9999999999986047 	101324.9999999978
0.1789289289289284 	299.999999999998 	0.9999999999988618 	101324.9999999976
0.181431431431431 	299.9999999999906 	0.9999999999959382 	101324.9999999979
0.1839339339339334 	299.9999999999907 	0.9999999999981363 	101324.9999999982
0.186436436436436 	299.9999999999853 	0.9999999999984263 	101324.9999999985
0.1889389389389385 	299.9999999999924 	0.9999999999981871 	101324.9999999984
0.191441441441441 	299.9999999999927 	0.999999999998472 	101324.9999999981
0.1939439439439434 	299.9999999999882 	0.9999999999979043 	101324.9999999976
0.196446446446446 	299.9999999999844 	0.9999999999982188 	101324.9999999978
0.1989489489489485 	299.9999999999888 	0.9999999999951811 	101324.9999999985
0.2014514514514509 	299.999999999995 	0.9999999999972855 	101324.9999999983
0.2039539539539535 	300.0000000000016 	0.9999999999978241 	101324.999999998
0.2064564564564559 	299.9999999999905 	0.999999999997409 	101324.9999999986
0.2089589589589585 	299.9999999999967 	0.999999999997546 	101324.9999999989
0.211461461461461 	299.9999999999835 	0.9999999999977198 	101324.9999999987
0.2139639639639635 	299.9999999999935 	0.999999999997413 	101324.9999999984
0.2164664664664659 	300.0000000000002 	0.9999999999974808 	101324.9999999987
0.2189689689689684 	299.9999999999999 	0.9999999999984275 	101324.9999999985
0.221471471471471 	299.9999999999989 	0.9999999999954494 	101324.9999999986
0.2239739739739735 	299.999999999991 	0.9999999999975255 	101324.9999999985
0.226476476476476 	299.9999999999946 	0.9999999999980911 	101324.9999999989
0.2289789789789785 	299.9999999999996 	0.9999999999983218 	101324.9999999989
0.231481481481481 	299.9999999999975 	0.9999999999987046 	101324.9999999985
0.2339839839839835 	299.9999999999946 	0.9999999999982702 	101324.9999999982
0.236486486486486 	300.0000000000048 	0.999999999998091 	101324.9999999981
0.2389889889889885 	300.000000000001 	0.9999999999984406 	101324.9999999985
0.241491491491491 	299.9999999999865 	0.9999999999993306 	101324.9999999985
0.2439939939939935 	299.9999999999932 	0.9999999999962703 	101324.9999999985
0.246496496496496 	300.000000000003 	0.9999999999980274 	101324.9999999987
0.2489989989989985 	300.0000000000149 	0.999999999998107 	101324.9999999984
0.251501501501501 	300.0000000000129 	0.9999999999980625 	101324.9999999986
0.2540040040040035 	300.0000000000021 	0.9999999999981988 	101324.9999999987
0.256506506506506 	300.0000000000052 	0.9999999999993973 	101324.9999999987
0.2590090090090086 	299.9999999999848 	1.000000000001063 	101324.9999999988
0.261511511511511 	299.9999999999998 	0.9999999999978691 	101324.9999999985
0.2640140140140135 	299.9999999999986 	0.9999999999993453 	101324.9999999987
0.2665165165165161 	299.9999999999887 	0.9999999999991525 	101324.9999999986
0.2690190190190185 	300.000000000005 	0.9999999999985062 	101324.999999999
0.271521521521521 	300.0000000000106 	0.9999999999984691 	101324.9999999986
0.2740240240240235 	300.0000000000095 	0.9999999999986965 	101324.9999999986
0.276526526526526 	299.9999999999997 	0.9999999999988003 	101324.9999999989
0.2790290290290286 	299.999999999989 	0.9999999999995662 	101324.9999999988
0.281531531531531 	299.9999999999896 	1.000000000001212 	101324.9999999985
0.2840340340340335 	299.9999999999891 	0.9999999999979703 	101324.9999999988
0.2865365365365361 	299.9999999999984 	0.9999999999986703 	101324.9999999984
0.2890390390390385 	300.0000000000077 	0.9999999999981835 	101324.999999999
0.291541541541541 	300.000000000008 	0.9999999999981111 	101324.9999999992
0.2940440440440436 	300.0000000000072 	0.9999999999988451 	101324.9999999992
0.296546546546546 	300.000000000002 	0.999999999999666 	101324.9999999987
0.2990490490490486 	299.999999999994 	0.9999999999999464 	101324.9999999985
0.3015515515515511 	299.9999999999996 	1.000000000000653 	101324.9999999987
0.3040540540540535 	299.9999999999948 	1.00000000000317 	101324.9999999987
0.3065565565565562 	300.0000000000007 	0.9999999999974675 	101324.9999999987
0.3090590590590585 	299.9999999999962 	0.9999999999994811 	101324.9999999989
0.3115615615615611 	299.9999999999807 	0.9999999999999692 	101324.9999999989
0.3140640640640635 	299.9999999999991 	0.9999999999996133 	101324.9999999988
0.316566566566566 	300.0000000000009 	0.9999999999995545 	101324.999999999
0.3190690690690687 	299.9999999999824 	0.9999999999994063 	101324.9999999989
0.3215715715715711 	299.9999999999974 	0.9999999999993511 	101324.9999999988
0.3240740740740735 	299.9999999999958 	0.9999999999993473 	101324.9999999987
0.326576576576576 	299.9999999999882 	0.999999999999412 	101324.9999999985
0.3290790790790786 	300.0000000000086 	0.9999999999997717 	101324.9999999988
0.3315815815815811 	300.0000000000084 	1.000000000000296 	101324.999999999
0.3340840840840836 	300.0000000000024 	1.000000000000732 	101324.9999999986
0.3365865865865861 	300.0000000000084 	1.000000000001368 	101324.9999999986
0.3390890890890886 	300.0000000000041 	1.000000000001709 	101324.9999999984
0.3415915915915911 	299.9999999999973 	1.000000000001423 	101324.999999999
0.3440940940940935 	299.999999999987 	1.000000000001705 	101324.9999999995
0.3465965965965962 	300.0000000000036 	0.9999999999992712 	101324.9999999991
0.3490990990990985 	300.0000000000028 	1.000000000000817 	101324.9999999989
0.3516016016016011 	300.0000000000065 	1.000000000000983 	101324.9999999987
0.3541041041041035 	300.0000000000026 	1.000000000001251 	101324.999999999
0.3566066066066061 	299.9999999999847 	1.000000000001722 	101324.9999999992
0.3591091091091085 	299.9999999999931 	1.000000000001136 	101324.9999999991
0.3616116116116112 	299.9999999999941 	1.000000000000565 	101324.9999999991
0.3641141141141137 	299.9999999999818 	1.000000000000753 	101324.9999999989
0.3666166166166161 	299.9999999999793 	1.000000000002167 	101324.9999999986
0.3691191191191185 	300.0000000000008 	0.9999999999971506 	101324.9999999985
0.371621621621621 	300.0000000000005 	1.000000000000352 	101324.9999999987
0.3741241241241237 	300.0000000000053 	1.000000000000467 	101324.999999999
0.3766266266266261 	299.9999999999986 	1.000000000000308 	101324.9999999992
0.3791291291291286 	299.9999999999959 	1.000000000000387 	101324.9999999992
0.3816316316316311 	299.9999999999922 	1.000000000000663 	101324.9999999988
0.3841341341341336 	299.9999999999997 	1.000000000000549 	101324.9999999986
0.3866366366366362 	299.9999999999949 	1.000000000000664 	101324.9999999985
0.3891391391391387 	299.9999999999878 	1.000000000000814 	101324.9999999982
0.391641641641641 	300.0000000000005 	1.000000000000706 	101324.9999999984
0.3941441441441436 	299.9999999999959 	1.000000000001225 	101324.9999999986
0.3966466466466462 	299.9999999999972 	1.000000000001881 	101324.9999999989
0.3991491491491486 	299.9999999999959 	1.000000000001965 	101324.9999999985
0.4016516516516512 	299.999999999992 	1.000000000002198 	101324.9999999983
0.4041541541541536 	299.9999999999965 	1.000000000001453 	101324.9999999986
0.4066566566566561 	299.9999999999959 	1.000000000001467 	101324.9999999985
0.4091591591591587 	300.0000000000039 	0.9999999999994061 	101324.9999999988
0.4116616616616612 	300.0000000000043 	1.000000000001404 	101324.9999999987
0.4141641641641635 	300.000000000009 	1.00000000000176 	101324.9999999986
0.4166666666666662 	300.0000000000039 	1.000000000001529 	101324.9999999986
0.4191691691691687 	299.9999999999854 	1.000000000001131 	101324.9999999986
0.421671671671671 	299.9999999999984 	1.000000000000865 	101324.9999999988
0.4241741741741737 	299.9999999999903 	1.000000000000913 	101324.9999999988
0.4266766766766761 	299.9999999999871 	1.000000000001983 	101324.9999999984
0.4291791791791785 	299.9999999999978 	1.000000000004226 	101324.9999999981
0.4316816816816812 	299.9999999999972 	0.9999999999988214 	101324.9999999983
0.4341841841841836 	300.0000000000009 	1.000000000000503 	101324.9999999983
0.4366866866866862 	299.9999999999924 	1.000000000000313 	101324.9999999978
0.4391891891891885 	300.000000000003 	1.000000000000544 	101324.9999999979
0.4416916916916913 	300.0000000000035 	1.000000000001195 	101324.9999999983
0.4441941941941936 	299.999999999996 	1.000000000001857 	101324.9999999986
0.4466966966966961 	299.99999999998 	1.000000000002009 	101324.9999999989
0.4491991991991987 	299.9999999999986 	1.000000000001653 	101324.9999999985
0.4517017017017012 	299.999999999992 	1.000000000001868 	101324.9999999987
0.4542042042042035 	300.0000000000043 	1.000000000002362 	101324.9999999989
0.4567067067067062 	300.0000000000016 	1.000000000002371 	101324.9999999987
0.4592092092092087 	299.9999999999799 	1.000000000001542 	101324.9999999981
0.4617117117117112 	299.9999999999961 	1.000000000000785 	101324.9999999982
0.4642142142142137 	299.9999999999897 	1.000000000000171 	101324.9999999984
0.4667167167167162 	300.0000000000006 	1.000000000000353 	101324.9999999985
0.4692192192192187 	299.9999999999878 	1.000000000000698 	101324.9999999983
0.4717217217217212 	299.9999999999997 	1.000000000000326 	101324.9999999986
0.4742242242242236 	299.9999999999898 	1.000000000000182 	101324.9999999986
0.4767267267267262 	299.9999999999901 	1.000000000000048 	101324.9999999983
0.4792292292292287 	300.0000000000028 	0.9999999999996236 	101324.9999999985
0.4817317317317312 	300.0000000000027 	1.000000000000285 	101324.9999999989
0.4842342342342336 	300.0000000000034 	1.000000000000995 	101324.9999999988
0.4867367367367362 	300 	1.000000000001919 	101324.9999999984
0.4892392392392387 	299.9999999999998 	1.000000000002003 	101324.999999998
0.4917417417417412 	300.0000000000073 	1.000000000001615 	101324.9999999982
0.4942442442442437 	299.9999999999922 	1.000000000001291 	101324.999999998
0.4967467467467462 	299.999999999981 	1.00000000000142 	101324.9999999979
0.4992492492492487 	299.9999999999778 	0.99999999999948 	101324.9999999983
0.5017517517517511 	299.9999999999847 	1.000000000001024 	101324.9999999981
0.5042542542542537 	300.0000000000006 	1.000000000001077 	101324.9999999983
0.5067567567567562 	299.9999999999972 	1.00000000000077 	101324.9999999984
0.5092592592592589 	299.9999999999899 	1.000000000000508 	101324.9999999984
0.5117617617617611 	300.0000000000005 	1.000000000000378 	101324.9999999982
0.5142642642642637 	300.0000000000043 	1.000000000000957 	101324.9999999984
0.5167667667667663 	299.9999999999991 	1.000000000001614 	101324.9999999983
0.5192692692692688 	299.9999999999814 	1.000000000002219 	101324.9999999981
0.5217717717717714 	299.9999999999969 	0.9999999999971463 	101324.999999998
0.5242742742742736 	299.9999999999947 	0.9999999999996787 	101324.9999999978
0.5267767767767763 	299.9999999999873 	0.9999999999999876 	101324.9999999979
0.5292792792792789 	299.9999999999898 	0.9999999999997645 	101324.9999999977
0.5317817817817813 	299.999999999984 	0.9999999999995064 	101324.9999999978
0.5342842842842837 	299.9999999999956 	0.9999999999996627 	101324.999999998
0.5367867867867864 	299.9999999999941 	0.9999999999999298 	101324.9999999984
0.5392892892892888 	299.999999999984 	1.000000000000109 	101324.9999999983
0.5417917917917912 	299.9999999999909 	1.000000000000826 	101324.9999999983
0.5442942942942938 	299.9999999999888 	1.000000000001191 	101324.9999999983
0.5467967967967964 	299.9999999999936 	1.000000000000691 	101324.9999999982
0.5492992992992988 	299.9999999999941 	0.9999999999996644 	101324.9999999981
0.5518018018018012 	299.9999999999906 	0.9999999999985624 	101324.9999999982
0.5543043043043039 	299.9999999999974 	0.9999999999986423 	101324.9999999982
0.5568068068068063 	299.9999999999947 	0.9999999999997039 	101324.9999999985
0.5593093093093087 	299.9999999999853 	0.9999999999998124 	101324.9999999987
0.5618118118118114 	299.9999999999854 	0.9999999999971355 	101324.9999999985
0.5643143143143137 	299.9999999999843 	0.9999999999989096 	101324.9999999983
0.5668168168168163 	299.9999999999985 	0.9999999999991986 	101324.9999999981
0.5693193193193188 	299.9999999999995 	0.9999999999987422 	101324.999999998
0.5718218218218213 	300.0000000000033 	0.9999999999987437 	101324.999999998
0.5743243243243239 	300.0000000000039 	0.9999999999996125 	101324.9999999983
0.5768268268268262 	299.9999999999986 	1.000000000000502 	101324.9999999983
0.5793293293293288 	299.9999999999903 	1.000000000001411 	101324.9999999981
0.5818318318318314 	299.9999999999905 	1.000000000002024 	101324.9999999979
0.5843343343343338 	300.0000000000043 	0.9999999999972818 	101324.9999999981
0.5868368368368363 	299.9999999999985 	0.999999999999557 	101324.9999999982
0.5893393393393387 	299.9999999999829 	1.000000000000124 	101324.9999999984
0.5918418418418413 	299.9999999999939 	0.9999999999998119 	101324.9999999984
0.5943443443443439 	299.9999999999979 	0.9999999999996995 	101324.9999999981
0.5968468468468463 	300.0000000000013 	1.000000000000323 	101324.9999999979
0.5993493493493487 	300.0000000000081 	1.000000000000322 	101324.9999999978
0.6018518518518514 	300.0000000000063 	0.999999999999489 	101324.999999998
0.6043543543543537 	300.0000000000049 	0.9999999999986567 	101324.999999998
0.6068568568568564 	299.9999999999997 	0.9999999999989886 	101324.9999999981
0.6093593593593587 	299.9999999999815 	0.9999999999994036 	101324.9999999978
0.6118618618618614 	299.9999999999908 	0.9999999999998268 	101324.9999999979
0.6143643643643638 	300.0000000000021 	1.000000000000711 	101324.9999999984
0.6168668668668662 	300.0000000000013 	1.000000000001444 	101324.9999999982
0.6193693693693688 	299.9999999999986 	1.000000000001808 	101324.9999999977
0.6218718718718714 	300.0000000000007 	1.000000000002219 	101324.9999999976
0.6243743743743737 	299.9999999999969 	1.000000000000056 	101324.9999999979
0.6268768768768762 	299.9999999999928 	1.000000000000652 	101324.9999999977
0.629379379379379 	299.9999999999979 	1.000000000000583 	101324.9999999978
0.6318818818818812 	300.0000000000014 	1.000000000000296 	101324.9999999979
0.6343843843843838 	300.0000000000041 	0.9999999999997753 	101324.9999999978
0.6368868868868864 	300.0000000000009 	1.000000000000143 	101324.999999998
0.6393893893893888 	299.9999999999862 	1.000000000000626 	101324.9999999981
0.6418918918918912 	299.9999999999934 	1.000000000001239 	101324.9999999979
0.6443943943943939 	299.9999999999913 	1.0000000000016 	101324.9999999979
0.6468968968968963 	299.9999999999977 	0.9999999999972339 	101324.9999999978
0.6493993993993988 	299.9999999999945 	1.000000000000268 	101324.9999999977
0.6519019019019012 	300.0000000000028 	1.000000000000641 	101324.9999999978
0.6544044044044038 	299.9999999999901 	1.000000000000393 	101324.9999999982
0.6569069069069065 	299.999999999986 	1.000000000000495 	101324.9999999982
0.6594094094094087 	299.9999999999949 	1.000000000000319 	101324.9999999981
0.6619119119119113 	300.0000000000026 	1.00000000000073 	101324.9999999981
0.664414414414414 	300.0000000000019 	1.000000000001157 	101324.9999999981
0.6669169169169162 	299.999999999996 	1.00000000000159 	101324.9999999983
0.6694194194194188 	299.9999999999942 	1.000000000001515 	101324.9999999983
0.6719219219219214 	299.9999999999885 	1.000000000001028 	101324.9999999983
0.674424424424424 	299.9999999999953 	1.000000000000559 	101324.9999999984
0.6769269269269262 	299.999999999991 	1.000000000000807 	101324.9999999982
0.679429429429429 	300.0000000000034 	1.000000000001686 	101324.9999999981
0.6819319319319311 	300.0000000000064 	1.00000000000258 	101324.9999999977
0.6844344344344341 	300.0000000000072 	1.000000000002565 	101324.999999998
0.686936936936936 	300.0000000000061 	0.999999999999954 	101324.9999999979
0.6894394394394392 	300.0000000000054 	1.00000000000105 	101324.9999999978
0.6919419419419413 	300.0000000000014 	1.000000000001602 	101324.9999999977
0.694444444444444 	299.9999999999866 	1.000000000001085 	101324.9999999979
0.6969469469469463 	299.9999999999834 	1.000000000000207 	101324.9999999981
0.6994494494494489 	299.99999999999 	0.9999999999997944 	101324.9999999983
0.7019519519519515 	299.9999999999909 	0.9999999999999062 	101324.9999999981
0.7044544544544538 	299.9999999999874 	1.000000000001002 	101324.9999999983
0.7069569569569564 	300.0000000000018 	1.000000000002192 	101324.9999999984
0.7094594594594589 	299.9999999999944 	0.9999999999986262 	101324.9999999981
0.7119619619619615 	299.9999999999908 	1.000000000001141 	101324.9999999979
0.7144644644644638 	299.9999999999984 	1.000000000001378 	101324.999999998
0.7169669669669665 	299.9999999999926 	1.00000000000089 	101324.999999998
0.7194694694694688 	300.0000000000051 	1.000000000000396 	101324.9999999984
0.7219719719719715 	300.0000000000016 	1.000000000000003 	101324.9999999985
0.7244744744744737 	299.999999999998 	0.9999999999997361 	101324.9999999981
0.7269769769769764 	300.0000000000035 	1.000000000001128 	101324.999999998
0.7294794794794791 	300.0000000000021 	1.000000000002314 	101324.9999999981
0.7319819819819813 	299.999999999993 	0.9999999999982905 	101324.999999998
0.7344844844844839 	299.9999999999787 	1.000000000000083 	101324.9999999979
0.7369869869869864 	299.999999999987 	1.000000000000028 	101324.9999999978
0.739489489489489 	299.9999999999949 	0.9999999999997754 	101324.9999999977
0.7419919919919914 	299.9999999999885 	1.000000000000211 	101324.9999999978
0.7444944944944939 	299.9999999999882 	1.000000000000597 	101324.9999999977
0.7469969969969963 	299.9999999999952 	1.000000000000663 	101324.9999999977
0.7494994994994989 	299.9999999999832 	0.9999999999996387 	101324.9999999977
0.7520020020020015 	299.9999999999885 	1.000000000001034 	101324.9999999974
0.7545045045045039 	299.9999999999898 	0.9999999999974758 	101324.9999999975
0.7570070070070062 	299.9999999999903 	0.999999999999844 	101324.9999999978
0.7595095095095092 	299.9999999999915 	1.00000000000043 	101324.9999999979
0.7620120120120112 	299.9999999999962 	0.9999999999999194 	101324.999999998
0.7645145145145138 	299.9999999999946 	0.9999999999992503 	101324.9999999979
0.7670170170170165 	299.9999999999871 	1.000000000000183 	101324.9999999978
0.7695195195195191 	299.999999999984 	1.000000000000929 	101324.9999999977
0.7720220220220213 	299.9999999999905 	0.9999999999973206 	101324.9999999978
0.7745245245245239 	299.9999999999832 	0.9999999999992157 	101324.999999998
0.7770270270270263 	299.9999999999881 	0.9999999999993459 	101324.9999999981
0.779529529529529 	299.9999999999934 	0.999999999998594 	101324.9999999979
0.7820320320320313 	299.9999999999889 	0.9999999999980291 	101324.9999999977
0.784534534534534 	300 	0.9999999999985767 	101324.9999999975
0.7870370370370364 	299.999999999995 	0.9999999999990472 	101324.9999999974
0.7895395395395389 	299.9999999999918 	0.9999999999988153 	101324.9999999976
0.7920420420420413 	299.9999999999999 	0.9999999999985522 	101324.9999999979
0.794544544544544 	299.9999999999966 	1.000000000000046 	101324.9999999979
0.7970470470470463 	300.0000000000014 	1.000000000001042 	101324.9999999977
0.799549549549549 	300.0000000000012 	0.9999999999983482 	101324.9999999976
0.8020520520520515 	299.999999999994 	1.000000000000689 	101324.9999999977
0.8045545545545539 	299.9999999999841 	1.000000000000615 	101324.9999999976
0.8070570570570563 	299.9999999999914 	1.000000000000393 	101324.9999999976
0.8095595595595589 	299.999999999989 	1.00000000000075 	101324.9999999978
0.8120620620620614 	299.9999999999943 	1.000000000000706 	101324.9999999976
0.8145645645645638 	300.0000000000027 	1.000000000000528 	101324.9999999978
0.8170670670670666 	300.0000000000094 	1.000000000001804 	101324.9999999978
0.8195695695695689 	299.9999999999993 	1.000000000002002 	101324.9999999977
0.8220720720720714 	299.9999999999832 	0.9999999999987226 	101324.9999999975
0.8245745745745739 	299.9999999999936 	1.000000000000856 	101324.9999999974
0.8270770770770765 	299.9999999999943 	1.000000000001079 	101324.9999999977
0.8295795795795788 	299.9999999999952 	1.000000000000637 	101324.9999999975
0.8320820820820815 	300.0000000000033 	1.000000000000009 	101324.9999999973
0.834584584584584 	300.0000000000002 	1.000000000000578 	101324.9999999976
0.8370870870870865 	299.9999999999889 	1.000000000001082 	101324.9999999976
0.8395895895895891 	299.9999999999844 	0.9999999999991392 	101324.9999999978
0.8420920920920915 	299.9999999999977 	0.9999999999997199 	101324.9999999983
0.844594594594594 	299.9999999999915 	0.9999999999997069 	101324.999999998
0.8470970970970964 	299.9999999999877 	0.9999999999998292 	101324.9999999977
0.8495995995995991 	300.0000000000042 	0.9999999999999771 	101324.9999999978
0.8521021021021015 	299.9999999999995 	0.9999999999995723 	101324.999999998
0.8546046046046039 	299.9999999999922 	0.9999999999992423 	101324.9999999978
0.8571071071071066 	299.9999999999989 	1.000000000000914 	101324.9999999977
0.8596096096096089 	299.9999999999962 	1.000000000001387 	101324.9999999978
0.8621121121121116 	299.9999999999931 	0.9999999999977773 	101324.9999999976
0.8646146146146139 	300.0000000000044 	0.9999999999994112 	101324.9999999974
0.8671171171171166 	299.9999999999972 	0.9999999999993541 	101324.9999999978
0.8696196196196189 	299.9999999999863 	0.9999999999992836 	101324.9999999984
0.8721221221221216 	299.9999999999955 	0.9999999999990613 	101324.9999999984
0.874624624624624 	300.0000000000025 	0.9999999999990635 	101324.999999998
0.8771271271271264 	299.9999999999977 	0.9999999999997464 	101324.9999999975
0.879629629629629 	299.9999999999952 	1.000000000001662 	101324.9999999975
0.8821321321321317 	299.9999999999957 	1.000000000001465 	101324.9999999973
0.8846346346346339 	299.99999999999 	0.9999999999979399 	101324.9999999976
0.8871371371371364 	299.9999999999907 	0.9999999999997844 	101324.9999999978
0.8896396396396391 	299.9999999999887 	0.9999999999995799 	101324.9999999978
0.8921421421421414 	299.9999999999884 	0.9999999999996545 	101324.9999999975
0.8946446446446441 	299.9999999999956 	0.9999999999999896 	101324.9999999976
0.8971471471471464 	299.9999999999985 	1.000000000000446 	101324.999999998
0.8996496496496489 	300.0000000000015 	1.000000000000306 	101324.9999999982
0.9021521521521517 	299.9999999999974 	0.999999999998914 	101324.9999999979
0.9046546546546541 	299.9999999999943 	0.9999999999999596 	101324.9999999977
0.9071571571571564 	299.9999999999894 	1.000000000000452 	101324.9999999983
0.9096596596596589 	299.9999999999867 	1.000000000000577 	101324.9999999987
0.9121621621621616 	299.9999999999976 	1.000000000000493 	101324.9999999986
0.9146646646646639 	299.9999999999916 	1.000000000000305 	101324.9999999983
0.9171671671671666 	299.9999999999837 	0.9999999999999009 	101324.9999999981
0.9196696696696689 	299.999999999993 	1.000000000001239 	101324.999999998
0.9221721721721714 	299.9999999999932 	1.000000000001041 	101324.9999999978
0.9246746746746741 	299.9999999999862 	0.9999999999976149 	101324.9999999981
0.9271771771771765 	299.9999999999915 	0.9999999999994125 	101324.999999998
0.9296796796796791 	299.9999999999918 	0.9999999999998507 	101324.9999999977
0.9321821821821816 	299.9999999999914 	1.00000000000039 	101324.9999999978
0.9346846846846838 	299.9999999999931 	1.000000000000197 	101324.9999999978
0.9371871871871866 	300.0000000000036 	0.9999999999992646 	101324.9999999978
0.9396896896896891 	300.0000000000017 	0.9999999999991718 	101324.9999999979
0.9421921921921914 	299.9999999999993 	1.000000000001196 	101324.9999999979
0.9446946946946939 	299.9999999999993 	1.000000000001186 	101324.9999999978
0.9471971971971965 	299.999999999992 	0.9999999999975104 	101324.9999999981
0.9496996996996991 	299.9999999999902 	0.9999999999988914 	101324.9999999983
0.9522022022022016 	299.9999999999978 	0.9999999999989535 	101324.9999999985
0.9547047047047038 	300.0000000000028 	0.9999999999989139 	101324.9999999986
0.9572072072072064 	299.9999999999974 	0.9999999999991485 	101324.9999999985
0.9597097097097093 	299.9999999999908 	1.000000000000219 	101324.9999999985
0.9622122122122114 	299.9999999999883 	1.000000000000391 	101324.9999999985
0.964714714714714 	299.9999999999858 	0.9999999999990301 	101324.9999999984
0.9672172172172167 	299.9999999999876 	0.9999999999998463 	101324.9999999982
0.969719719719719 	299.9999999999948 	0.9999999999995794 	101324.999999998
0.9722222222222214 	299.9999999999922 	0.9999999999992202 	101324.9999999979
0.9747247247247239 	299.999999999992 	0.9999999999990729 	101324.9999999979
0.9772272272272267 	299.999999999999 	0.9999999999991515 	101324.999999998
0.9797297297297292 	299.9999999999939 	0.9999999999991017 	101324.999999998
0.9822322322322313 	299.9999999999956 	1.000000000000307 	101324.9999999985
0.9847347347347344 	299.999999999993 	0.9999999999995096 	101324.9999999986
0.9872372372372363 	299.9999999999833 	0.9999999999966735 	101324.9999999982
0.9897397397397389 	299.9999999999864 	0.9999999999990734 	101324.9999999979
0.9922422422422417 	299.9999999999872 	0.9999999999994409 	101324.9999999976
0.9947447447447441 	299.9999999999948 	0.9999999999988348 	101324.999999998
0.9972472472472468 	299.9999999999954 	0.9999999999987007 	101324.9999999985
0.999749749749749 	299.9999999999932 	0.9999999999990046 	101324.9999999983
1.002252252252252 	299.9999999999953 	0.9999999999991401 	101324.999999998
1.004754754754754 	300.0000000000023 	1.000000000000458 	101324.9999999982
1.007257257257256 	300.0000000000002 	1.000000000000105 	101324.9999999982
1.009759759759759 	299.9999999999972 	0.9999999999974631 	101324.9999999985
1.012262262262261 	299.9999999999952 	0.9999999999993676 	101324.9999999985
1.014764764764764 	299.9999999999894 	0.9999999999992795 	101324.9999999983
1.017267267267267 	299.9999999999877 	0.9999999999987553 	101324.9999999981
1.019769769769769 	299.9999999999969 	0.9999999999985709 	101324.999999998
1.022272272272272 	300.0000000000006 	0.9999999999994376 	101324.9999999981
1.024774774774774 	300.0000000000003 	0.9999999999995886 	101324.9999999982
1.027277277277277 	299.9999999999981 	0.9999999999985063 	101324.9999999981
1.029779779779779 	300.0000000000026 	0.9999999999988827 	101324.9999999982
1.032282282282282 	300.0000000000026 	0.9999999999981699 	101324.9999999983
1.034784784784784 	300.0000000000032 	0.9999999999984386 	101324.9999999981
1.037287287287286 	299.9999999999994 	0.999999999999021 	101324.9999999982
1.039789789789789 	299.9999999999986 	0.9999999999991781 	101324.9999999985
1.042292292292291 	300.0000000000048 	0.9999999999993501 	101324.9999999983
1.044794794794794 	300.0000000000095 	1.000000000001266 	101324.999999998
1.047297297297296 	300.0000000000081 	1.000000000001045 	101324.9999999981
1.049799799799799 	300.0000000000015 	0.9999999999986495 	101324.9999999983
1.052302302302302 	299.9999999999958 	1.000000000000296 	101324.9999999983
1.054804804804804 	299.9999999999909 	1.000000000000074 	101324.9999999983
1.057307307307306 	299.9999999999865 	0.9999999999998148 	101324.9999999981
1.059809809809809 	299.9999999999928 	1.000000000000006 	101324.9999999978
1.062312312312312 	299.9999999999959 	0.9999999999997451 	101324.9999999976
1.064814814814814 	299.9999999999945 	0.9999999999990794 	101324.9999999977
1.067317317317317 	299.9999999999907 	1.00000000000049 	101324.9999999982
1.069819819819819 	299.9999999999916 	1.000000000000181 	101324.9999999986
1.072322322322321 	300.0000000000018 	0.9999999999979063 	101324.9999999983
1.074824824824824 	300.0000000000049 	0.9999999999997331 	101324.9999999982
1.077327327327327 	300.0000000000069 	1.000000000000083 	101324.9999999985
1.079829829829829 	300.0000000000083 	1.000000000000633 	101324.9999999984
1.082332332332332 	300.0000000000007 	1.000000000000868 	101324.9999999985
1.084834834834834 	299.9999999999927 	1.00000000000186 	101324.9999999985
1.087337337337337 	299.9999999999872 	1.000000000000071 	101324.9999999982
1.089839839839839 	299.999999999984 	0.9999999999969962 	101324.9999999982
1.092342342342342 	299.9999999999901 	0.9999999999986965 	101324.9999999982
1.094844844844844 	299.9999999999897 	1.000000000000292 	101324.9999999983
1.097347347347347 	299.9999999999853 	0.9999999999990812 	101324.9999999983
1.099849849849849 	299.9999999999814 	0.9999999999969278 	101324.9999999984
1.102352352352352 	299.9999999999924 	0.9999999999993254 	101324.9999999983
1.104854854854854 	300.0000000000008 	0.9999999999994075 	101324.9999999986
1.107357357357357 	299.999999999994 	0.99999999999916 	101324.9999999988
1.109859859859859 	299.9999999999928 	0.99999999999911 	101324.9999999986
1.112362362362362 	300.0000000000027 	1.000000000000737 	101324.9999999984
1.114864864864865 	300.000000000002 	1.000000000000097 	101324.9999999981
1.117367367367367 	299.9999999999916 	0.9999999999976555 	101324.999999998
1.119869869869869 	299.9999999999845 	0.9999999999990778 	101324.9999999983
1.122372372372372 	299.9999999999936 	0.9999999999988304 	101324.9999999984
1.124874874874874 	299.9999999999939 	0.9999999999984512 	101324.9999999982
1.127377377377377 	299.9999999999919 	0.9999999999983895 	101324.9999999981
1.129879879879879 	299.9999999999977 	0.9999999999988406 	101324.9999999982
1.132382382382382 	300.0000000000082 	0.9999999999998636 	101324.9999999984
1.134884884884884 	300.0000000000042 	1.000000000002256 	101324.9999999986
1.137387387387387 	300.0000000000006 	1.0000000000012 	101324.9999999985
1.139889889889889 	299.9999999999922 	0.9999999999985616 	101324.9999999981
1.142392392392392 	299.9999999999889 	0.9999999999998991 	101324.9999999978
1.144894894894894 	300.0000000000022 	1.000000000000132 	101324.9999999981
1.147397397397397 	300.0000000000033 	1.000000000000721 	101324.9999999985
1.149899899899899 	299.9999999999946 	1.000000000001514 	101324.9999999987
1.152402402402402 	299.99999999999 	1.000000000001527 	101324.9999999986
1.154904904904904 	299.9999999999949 	1.000000000001054 	101324.9999999984
1.157407407407407 	299.9999999999952 	1.00000000000307 	101324.9999999982
1.159909909909909 	299.9999999999874 	1.000000000001972 	101324.9999999983
1.162412412412412 	299.9999999999848 	0.9999999999989353 	101324.9999999984
1.164914914914914 	299.9999999999933 	1.000000000000011 	101324.9999999982
1.167417417417417 	299.9999999999941 	1.000000000000196 	101324.9999999981
1.169919919919919 	300.0000000000011 	1.000000000000564 	101324.999999998
1.172422422422422 	300.0000000000089 	1.000000000001086 	101324.9999999981
1.174924924924925 	300.0000000000033 	1.000000000003174 	101324.9999999981
1.177427427427427 	299.9999999999953 	1.000000000002133 	101324.9999999979
1.179929929929929 	300.0000000000024 	0.9999999999997254 	101324.9999999978
1.182432432432432 	300.0000000000113 	1.000000000000975 	101324.9999999978
1.184934934934934 	300.0000000000043 	1.000000000001179 	101324.9999999979
1.187437437437437 	299.9999999999974 	1.00000000000178 	101324.999999998
1.189939939939939 	299.9999999999947 	1.000000000002482 	101324.9999999978
1.192442442442442 	299.9999999999889 	1.000000000002339 	101324.9999999979
1.194944944944944 	299.9999999999915 	1.000000000001462 	101324.9999999978
1.197447447447447 	300.0000000000028 	1.000000000003148 	101324.9999999976
1.199949949949949 	300.0000000000053 	1.000000000002385 	101324.9999999976
1.202452452452452 	299.9999999999941 	1.000000000000385 	101324.9999999978
1.204954954954955 	299.9999999999916 	1.000000000002377 	101324.999999998
1.207457457457457 	299.9999999999976 	1.000000000002879 	101324.9999999979
1.20995995995996 	299.999999999998 	1.000000000003017 	101324.9999999978
1.212462462462462 	299.9999999999959 	1.000000000003132 	101324.9999999978
1.214964964964964 	299.9999999999948 	1.000000000002981 	101324.9999999979
1.217467467467467 	299.9999999999986 	1.000000000002742 	101324.999999998
1.219969969969969 	299.999999999993 	1.00000000000411 	101324.9999999977
1.222472472472472 	299.9999999999962 	1.000000000002482 	101324.9999999976
1.224974974974975 	300.0000000000019 	1.000000000000545 	101324.9999999976
1.227477477477477 	299.9999999999972 	1.000000000002153 	101324.9999999975
1.229979979979979 	299.999999999997 	1.000000000002215 	101324.9999999974
1.232482482482482 	299.9999999999897 	1.000000000002387 	101324.9999999974
1.234984984984984 	299.9999999999874 	1.000000000002873 	101324.9999999976
1.237487487487487 	299.9999999999947 	1.000000000005066 	101324.9999999977
1.239989989989989 	299.9999999999981 	1.000000000003743 	101324.9999999976
1.242492492492492 	300.000000000003 	1.000000000001769 	101324.9999999975
1.244994994994994 	299.9999999999993 	1.000000000003474 	101324.9999999976
1.247497497497497 	299.9999999999999 	1.000000000003907 	101324.9999999976
1.249999999999999 	299.9999999999551 	1.000000000003834 	101324.9999999975
