-1.25 	300 	0.1203999040360185 	101275.8856374636
-1.247497497497497 	299.9572781036299 	0.1199348330471214 	101276.0127989242
-1.244994994994995 	299.9586585985096 	0.1196146748176603 	101276.1537690977
-1.242492492492492 	299.9588020786219 	0.1194250034652095 	101276.3036512581
-1.23998998998999 	299.958935666768 	0.1189348039970515 	101276.4624030643
-1.237487487487487 	299.9590774778435 	0.1185627668597225 	101276.6300263104
-1.234984984984985 	299.9592269298902 	0.1181283284717423 	101276.8066582618
-1.232482482482482 	299.9593841276137 	0.1176715354292917 	101276.9924434943
-1.22997997997998 	299.9595487922193 	0.1171952851056726 	101277.1870538077
-1.227477477477477 	299.9597206794907 	0.1166999491563232 	101277.3902006641
-1.224974974974975 	299.9598998248705 	0.1161816577703593 	101277.6019253797
-1.222472472472472 	299.9600863123551 	0.1156398593870774 	101277.8223266994
-1.21996996996997 	299.9602802683034 	0.1150739479097254 	101278.0515542954
-1.217467467467467 	299.9604815563215 	0.1144865986769805 	101278.2894471657
-1.214964964964965 	299.9606899490918 	0.1138854511001736 	101278.5357378207
-1.212462462462462 	299.9609056651667 	0.113262230284534 	101278.7906833355
-1.20995995995996 	299.9611290393128 	0.1126161920101297 	101279.0546791397
-1.207457457457457 	299.9613598033202 	0.1119470255561642 	101279.3274087432
-1.204954954954955 	299.9615974795966 	0.1112570085454853 	101279.6083081169
-1.202452452452452 	299.9618418371424 	0.110552628401138 	101279.8971051383
-1.19994994994995 	299.9620929809192 	0.1098259354703173 	101280.1939219681
-1.197447447447447 	299.9623513490066 	0.1090769632500685 	101280.4992765132
-1.194944944944945 	299.9626168102857 	0.1083047153779328 	101280.8130147227
-1.192442442442442 	299.9628888712023 	0.107511829877369 	101281.1345532104
-1.18993993993994 	299.9631676154585 	0.1067058414117013 	101281.4639918419
-1.187437437437437 	299.9634534216563 	0.1058796411314423 	101281.8017770956
-1.184934934934935 	299.9637464723934 	0.1050328325183295 	101282.1481244715
-1.182432432432432 	299.9640463728489 	0.1041658351415464 	101282.5025678212
-1.17992992992993 	299.9643524559511 	0.1032781533249939 	101282.864319022
-1.177427427427427 	299.964664639193 	0.1023732328429348 	101283.2332811074
-1.174924924924925 	299.9649834986441 	0.1014496956351919 	101283.6101341863
-1.172422422422422 	299.9653090833406 	0.1005076741634783 	101283.9949355606
-1.16991991991992 	299.9656408318311 	0.0995455799616157 	101284.3870215307
-1.167417417417417 	299.9659787063714 	0.09856420316169484 	101284.7863494206
-1.164914914914915 	299.9663228958117 	0.09756578926165857 	101285.1931446436
-1.162412412412412 	299.9666735327 	0.09655013604861998 	101285.6075620447
-1.15990990990991 	299.9670307885762 	0.09551825098110263 	101286.0298011318
-1.157407407407407 	299.9673940079023 	0.09446707103972499 	101286.4590851929
-1.154904904904904 	299.9677626855075 	0.09339703218355862 	101286.8948190823
-1.152402402402403 	299.9681374316114 	0.0923107692051358 	101287.3377294449
-1.1498998998999 	299.9685181960521 	0.09120808901347655 	101287.7877602151
-1.147397397397397 	299.9689044826786 	0.09008993540425217 	101288.2443233871
-1.144894894894895 	299.9692964452437 	0.08895424540292735 	101288.7075957386
-1.142392392392392 	299.9696940084382 	0.0878008372292115 	101289.1774833669
-1.13988988988989 	299.9700972016552 	0.08663105522745838 	101289.6540186129
-1.137387387387387 	299.9705063929142 	0.08544630421406188 	101290.13763856
-1.134884884884885 	299.970921152971 	0.08424694783542327 	101290.62783986
-1.132382382382382 	299.9713410068223 	0.08303043975253738 	101291.1240627507
-1.12987987987988 	299.9717659806273 	0.08179890683749795 	101291.626340357
-1.127377377377377 	299.9721961462253 	0.08055129700254578 	101292.1347589462
-1.124874874874875 	299.972631409426 	0.07928931616214269 	101292.6492066136
-1.122372372372372 	299.9730714332513 	0.07801708924764768 	101293.1692855583
-1.11986986986987 	299.9735160564655 	0.07672889775444222 	101293.6948046995
-1.117367367367367 	299.9739661027954 	0.07542424964590683 	101294.2267361103
-1.114864864864865 	299.9744213266334 	0.07410289577315991 	101294.7647890288
-1.112362362362362 	299.9748808305521 	0.07276921381053768 	101295.3079034565
-1.10985985985986 	299.9753451157898 	0.07142749655672841 	101295.8566725162
-1.107357357357357 	299.9758146738296 	0.07006983142847485 	101296.4116753038
-1.104854854854855 	299.9762880882815 	0.06869817663706383 	101296.9712375848
-1.102352352352353 	299.9767651533509 	0.06731263743977467 	101297.5351172087
-1.09984984984985 	299.9772468719484 	0.06591499975774075 	101298.1044997924
-1.097347347347347 	299.9777332156162 	0.06450994537228609 	101298.679351526
-1.094844844844845 	299.9782230146432 	0.06309244189476319 	101299.2582888926
-1.092342342342342 	299.9787163442828 	0.06166312799988555 	101299.8414019142
-1.08983983983984 	299.979214095147 	0.06021875179351295 	101300.4297438421
-1.087337337337337 	299.9797167655185 	0.0587608807764548 	101301.0239024934
-1.084834834834835 	299.9802232156297 	0.05729639007350566 	101301.6225306887
-1.082332332332332 	299.9807322814132 	0.0558224596479085 	101302.2242527682
-1.07982982982983 	299.9812443960421 	0.05433885300483453 	101302.8295813702
-1.077327327327327 	299.9817604575705 	0.05284367185941082 	101303.4395783086
-1.074824824824825 	299.9822802136731 	0.05133706098045674 	101304.0539447348
-1.072322322322323 	299.9828033008915 	0.04982231114582736 	101304.6722508097
-1.06981981981982 	299.9833294409262 	0.04829901663859154 	101305.2941676192
-1.067317317317317 	299.9838581183627 	0.04676809468117762 	101305.9190865964
-1.064814814814815 	299.9843892457185 	0.04522861354471788 	101306.546904209
-1.062312312312312 	299.9849232116344 	0.04368045870165047 	101307.1780802038
-1.05980980980981 	299.9854606817483 	0.04212261023689811 	101307.8134016909
-1.057307307307307 	299.9860024416272 	0.0405534704797465 	101308.453796202
-1.054804804804805 	299.9865477167155 	0.03897624858723061 	101309.0983476589
-1.052302302302302 	299.9870939311087 	0.03739425078105468 	101309.744011274
-1.0497997997998 	299.9876396619557 	0.03581208618609974 	101310.3891059011
-1.047297297297297 	299.9881858961575 	0.03422902198712752 	101311.0347996901
-1.044794794794795 	299.988735188769 	0.03263713339538778 	101311.6841135812
-1.042292292292292 	299.9892902540177 	0.03103005692578548 	101312.3402552553
-1.03978978978979 	299.9898512406716 	0.02940598001006526 	101313.0033986061
-1.037287287287287 	299.9904144430602 	0.02777391270657265 	101313.6691609835
-1.034784784784785 	299.9909760737741 	0.02614630261396118 	101314.3330655433
-1.032282282282283 	299.9915344956179 	0.024528927768051 	101314.9931806474
-1.02977977977978 	299.9920908514059 	0.02291708889704172 	101315.6508598813
-1.027277277277277 	299.9926487344607 	0.02129919250471037 	101316.310349167
-1.024774774774775 	299.9932117450025 	0.01966819535002178 	101316.9759029649
-1.022272272272272 	299.9937806746481 	0.01801975666077568 	101317.6484573277
-1.01976976976977 	299.994355264282 	0.01635738180664582 	101318.3277058341
-1.017267267267267 	299.9949325568516 	0.01468905476847134 	101319.010151222
-1.014764764764765 	299.9955082785122 	0.01301941908200024 	101319.6907385705
-1.012262262262262 	299.9960804038843 	0.01135922434162348 	101320.3670743552
-1.00975975975976 	299.9966491434731 	0.009710874257627946 	101321.0394140398
-1.007257257257257 	299.9972136254965 	0.008072917797082114 	101321.70672793
-1.004754754754755 	299.9977770981702 	0.006442549947711144 	101322.3728512545
-1.002252252252252 	299.9983417234936 	0.004807978086701415 	101323.0403366472
-0.9997497497497498 	299.9989088035177 	0.003163763943070843 	101323.7107281281
-0.9972472472472473 	299.999481040338 	0.00150666244890335 	101324.3872257011
-0.9947447447447449 	300.0000579266165 	0.0008341583285483359 	101325.0692261087
-0.9922422422422421 	300.0006360352099 	0.001836229045744336 	101325.7526690036
-0.9897397397397399 	300.0012132106835 	0.00350801461375239 	101326.4350020757
-0.9872372372372376 	300.0017890968014 	0.005176271932866738 	101327.1158108287
-0.9847347347347346 	300.0023637924892 	0.006841135447415443 	101327.7952236307
-0.9822322322322323 	300.002937431829 	0.008502965140159843 	101328.473402445
-0.9797297297297296 	300.0035101159464 	0.01016202063566297 	101329.1504568343
-0.9772272272272275 	300.0040818952766 	0.01181841472508923 	101329.8264328173
-0.9747247247247248 	300.0046527639902 	0.0134721272280679 	101330.5013214035
-0.9722222222222224 	300.005222669087 	0.01512303782258708 	101331.1750724211
-0.9697197197197196 	300.0057915312826 	0.01677095744459938 	101331.8476075814
-0.9672172172172175 	300.0063592664358 	0.01841565169229151 	101332.5188306782
-0.9647147147147147 	300.0069257948579 	0.02005685924240358 	101333.1886346997
-0.9622122122122124 	300.0074910358608 	0.02169430334453169 	101333.8569063624
-0.9597097097097099 	300.0080548972064 	0.02332769795885012 	101334.5235288788
-0.9572072072072073 	300.0086172704245 	0.02495675238904824 	101335.1883835416
-0.9547047047047047 	300.0091780384554 	0.02658117345139793 	101335.8513506323
-0.9522022022022023 	300.0097370877155 	0.02820066658480017 	101336.512310019
-0.9496996996996998 	300.0102943172903 	0.02981493750958333 	101337.1711414829
-0.9471971971971973 	300.0108496382468 	0.03142369202565855 	101337.8277249185
-0.9446946946946947 	300.011402964945 	0.03302663596935779 	101338.4819404661
-0.9421921921921923 	300.0119542056016 	0.03462347672079933 	101339.1336685081
-0.93968968968969 	300.0125032564953 	0.03621392230745927 	101339.7827897338
-0.9371871871871872 	300.0130500047163 	0.03779768101279686 	101340.4291852674
-0.9346846846846848 	300.0135943357596 	0.03937446284719837 	101341.0727366811
-0.9321821821821823 	300.014136140251 	0.04094397917612601 	101341.7133260569
-0.9296796796796799 	300.0146753177335 	0.04250594228807941 	101342.3508360277
-0.9271771771771771 	300.0152117759552 	0.04406006603921998 	101342.9851497121
-0.9246746746746748 	300.0157454280191 	0.04560606556332078 	101343.6161507961
-0.9221721721721724 	300.01627618829 	0.04714365726299284 	101344.2437235816
-0.9196696696696698 	300.0168039675672 	0.04867255945278764 	101344.8677529405
-0.9171671671671672 	300.0173286716015 	0.0501924917584118 	101345.4881244192
-0.9146646646646649 	300.0178502014251 	0.05170317552193408 	101346.1047242464
-0.9121621621621623 	300.0183684555112 	0.0532043340665212 	101346.7174392861
-0.9096596596596597 	300.018883332729 	0.05469569193011067 	101347.3261571726
-0.9071571571571573 	300.0193947333263 	0.05617697568336444 	101347.9307662738
-0.9046546546546547 	300.0199025595256 	0.05764791396286202 	101348.5311556119
-0.9021521521521524 	300.0204067157297 	0.05910823680792159 	101349.1272150767
-0.8996496496496498 	300.0209071086951 	0.0605576766749357 	101349.7188354305
-0.8971471471471473 	300.021403646751 	0.06199596826143794 	101350.3059081681
-0.894644644644645 	300.021896239342 	0.06342284760518208 	101350.8883256293
-0.892142142142142 	300.0223847972425 	0.06483805308356494 	101351.4659809707
-0.8896396396396397 	300.0228692318116 	0.06624132537449866 	101352.038768128
-0.8871371371371374 	300.0233494551426 	0.06763240696418907 	101352.6065820533
-0.8846346346346349 	300.0238253802561 	0.06901104286829075 	101353.1693185793
-0.8821321321321324 	300.0242969202493 	0.07037698005554202 	101353.7268742235
-0.8796296296296297 	300.0247639891291 	0.07172996744911393 	101354.2791465408
-0.8771271271271271 	300.0252265015542 	0.07306975692840008 	101354.8260341946
-0.8746246246246248 	300.025684372969 	0.07439610288675906 	101355.3674367211
-0.8721221221221224 	300.02613751954 	0.07570876187289934 	101355.9032547511
-0.8696196196196196 	300.026585858253 	0.07700749338491505 	101356.4333900259
-0.8671171171171175 	300.0270293070452 	0.07829205909259561 	101356.957745123
-0.8646146146146148 	300.0274677843865 	0.07956222329598481 	101357.4762237626
-0.8621121121121121 	300.0279012102124 	0.08081775348588885 	101357.9887309647
-0.8596096096096097 	300.0283295050706 	0.08205841940883105 	101358.495172675
-0.857107107107107 	300.0287525901847 	0.08328399379902814 	101358.9954559617
-0.8546046046046049 	300.0291703884753 	0.08449425243323562 	101359.489489266
-0.8521021021021022 	300.0295828231926 	0.08568897292246849 	101359.9771819312
-0.8495995995995997 	300.0299898185194 	0.08686793590186412 	101360.4584442695
-0.8470970970970974 	300.0303913000321 	0.0880309255775201 	101360.9331881316
-0.8445945945945946 	300.0307871942937 	0.08917772864672791 	101361.4013266389
-0.8420920920920922 	300.0311774288396 	0.09030813500743082 	101361.8627738643
-0.8395895895895897 	300.0315619318886 	0.09142193799880063 	101362.3174451846
-0.8370870870870872 	300.0319406330059 	0.09251893325638849 	101362.7652570985
-0.8345845845845846 	300.0323134623601 	0.09359891939063522 	101363.2061269113
-0.8320820820820823 	300.0326803511924 	0.09466169856629017 	101363.6399734033
-0.8295795795795798 	300.0330412326681 	0.09570707629269466 	101364.0667172401
-0.8270770770770772 	300.0333960407057 	0.09673486103425018 	101364.4862803679
-0.8245745745745746 	300.0337447103172 	0.09774486369822202 	101364.8985858622
-0.8220720720720721 	300.0340871778283 	0.09873689832026721 	101365.3035583308
-0.8195695695695699 	300.0344233806024 	0.09971078259356861 	101365.7011236629
-0.817067067067067 	300.034753256727 	0.1006663372240835 	101366.0912085873
-0.8145645645645651 	300.0350767452686 	0.1016033867487728 	101366.4737410358
-0.8120620620620621 	300.0353937869365 	0.1025217599488186 	101366.8486506563
-0.8095595595595597 	300.0357043234247 	0.1034212883106867 	101367.2158686034
-0.8070570570570572 	300.0360082975147 	0.104301806343365 	101367.5753272641
-0.8045545545545546 	300.0363056537481 	0.1051631526571893 	101367.9269607171
-0.8020520520520523 	300.0365963378715 	0.1060051702166462 	101368.2707048816
-0.7995495495495494 	300.0368802963729 	0.1068277056467124 	101368.606496394
-0.7970470470470474 	300.0371574759853 	0.1076306075356749 	101368.9342722654
-0.7945445445445446 	300.037427825277 	0.1084137278644374 	101369.2539716238
-0.7920420420420423 	300.0376912951361 	0.1091769231706719 	101369.5655362502
-0.7895395395395397 	300.0379478368457 	0.1099200516684756 	101369.8689086023
-0.7870370370370371 	300.0381974026601 	0.1106429744169432 	101370.1640320716
-0.7845345345345348 	300.0384399477973 	0.1113455601123043 	101370.4508536574
-0.7820320320320323 	300.0386754292407 	0.1120276810130609 	101370.7293224832
-0.7795295295295296 	300.0389038027459 	0.1126892079184791 	101370.9993861841
-0.7770270270270272 	300.03912502517 	0.1133300165577061 	101371.2609936784
-0.7745245245245247 	300.0393390577905 	0.1139499935562445 	101371.5140989453
-0.7720220220220222 	300.0395458617369 	0.1145490278409351 	101371.7586561809
-0.7695195195195199 	300.0397453955419 	0.1151270048794236 	101371.9946163423
-0.767017017017017 	300.0399376217243 	0.1156838186219135 	101372.2219348842
-0.7645145145145147 	300.0401225086924 	0.1162193754403315 	101372.4405745648
-0.7620120120120122 	300.0403000222144 	0.11673357537344 	101372.6504947322
-0.7595095095095097 	300.0404701239439 	0.1172263108169141 	101372.8516501594
-0.7570070070070072 	300.0406327839989 	0.1176974915215504 	101373.044005395
-0.7545045045045048 	300.0407879797559 	0.1181470424154997 	101373.2275336014
-0.7520020020020022 	300.0409356800878 	0.1185748735969516 	101373.4021980904
-0.7494994994994997 	300.0410758492479 	0.118980889594867 	101373.567956096
-0.7469969969969972 	300.0412084647396 	0.1193650262859728 	101373.7247813795
-0.7444944944944945 	300.0413335119501 	0.1197272353124553 	101373.8726567546
-0.7419919919919924 	300.0414509609698 	0.1200674366955927 	101374.0115467728
-0.7394894894894897 	300.0415607768912 	0.1203855413594746 	101374.1414100714
-0.7369869869869872 	300.0416629488006 	0.1206815084932334 	101374.262233268
-0.7344844844844846 	300.0417574742024 	0.1209553129518387 	101374.3740136919
-0.7319819819819822 	300.0418443243811 	0.1212068757138151 	101374.4767173552
-0.7294794794794797 	300.0419234620447 	0.121436108011443 	101374.5703006247
-0.7269769769769773 	300.0419948858282 	0.1216429989727575 	101374.6547617469
-0.7244744744744747 	300.0420586079516 	0.1218275635925318 	101374.7301147416
-0.721971971971972 	300.0421145999822 	0.1219897323390962 	101374.796325754
-0.7194694694694695 	300.0421628182356 	0.1221294078402292 	101374.8533430316
-0.7169669669669674 	300.0422032713849 	0.1222466041737855 	101374.9011774681
-0.7144644644644647 	300.0422359957212 	0.1223413870754325 	101374.9398722038
-0.711961961961962 	300.0422609687399 	0.1224136962141834 	101374.9694004838
-0.7094594594594597 	300.0422781296641 	0.1224634000471005 	101374.9896901801
-0.7069569569569573 	300.0422874870593 	0.1224905218849264 	101375.000750747
-0.7044544544544545 	300.0422891091506 	0.1224952064826561 	101375.0026624096
-0.7019519519519523 	300.0422829901665 	0.1224774372736547 	101374.9954197245
-0.6994494494494495 	300.0422690422513 	0.1224370257523365 	101374.9789196865
-0.6969469469469471 	300.0422472539037 	0.1223739526880265 	101374.9531478302
-0.6944444444444446 	300.0422177337197 	0.1222884568665954 	101374.9182324678
-0.6919419419419421 	300.0421805340799 	0.1221806445438585 	101374.8742349032
-0.6894394394394396 	300.0421355469484 	0.1220502802966827 	101374.8210271676
-0.6869369369369374 	300.0420826893018 	0.1218972011525061 	101374.7585109283
-0.6844344344344344 	300.0420220808176 	0.1217216895383291 	101374.6868284766
-0.6819319319319321 	300.0419538781558 	0.1215240885983503 	101374.6061657821
-0.6794294294294296 	300.0418780082975 	0.1213042261326433 	101374.5164366178
-0.6769269269269272 	300.0417942757322 	0.1210616802082897 	101374.4174097359
-0.6744244244244245 	300.0417027196225 	0.1207965694689593 	101374.3091309654
-0.6719219219219222 	300.0416036198105 	0.1205095345290554 	101374.191930703
-0.6694194194194195 	300.0414970750649 	0.1202007844439319 	101374.0659249733
-0.6669169169169172 	300.0413828206073 	0.1198697217879694 	101373.9308007555
-0.6644144144144146 	300.0412606504812 	0.1195159163793858 	101373.7863154089
-0.661911911911912 	300.0411308230189 	0.1191399936799429 	101373.632775255
-0.6594094094094097 	300.0409937504849 	0.1187428938920221 	101373.4706683024
-0.656906906906907 	300.040849370321 	0.1183244535316235 	101373.2999205252
-0.6544044044044046 	300.0406971942339 	0.1178835670345798 	101373.1199541298
-0.6519019019019021 	300.0405370736335 	0.1174199509598654 	101372.9305933422
-0.6493993993993996 	300.0403695560764 	0.1169349099749251 	101372.7324852611
-0.6468968968968971 	300.0401951857729 	0.1164296851321509 	101372.5262726837
-0.6443943943943946 	300.0400136837899 	0.1159035942873743 	101372.3116250191
-0.6418918918918921 	300.0398242774444 	0.1153548642961127 	101372.0876285091
-0.6393893893893897 	300.03962685709 	0.1147833249778032 	101371.8541545385
-0.6368868868868871 	300.0394223222743 	0.1141911397400395 	101371.6122677014
-0.6343843843843846 	300.0392114630284 	0.1135801346253552 	101371.3629021606
-0.6318818818818821 	300.0389938148868 	0.1129491602976584 	101371.1055085573
-0.6293793793793795 	300.038768169772 	0.1122953850897733 	101370.8386585621
-0.6268768768768773 	300.0385342527025 	0.1116182681809041 	101370.5620275153
-0.6243743743743745 	300.0382932901875 	0.1109209259214953 	101370.2771233069
-0.6218718718718721 	300.0380467188699 	0.1102065608402799 	101369.9855494504
-0.6193693693693696 	300.0377941950482 	0.1094741968805027 	101369.6868643512
-0.6168668668668671 	300.0375338070812 	0.1087194581648751 	101369.3789151224
-0.6143643643643645 	300.0372645802507 	0.1079400818475238 	101369.060532592
-0.6118618618618621 	300.0369878832118 	0.1071394760978839 	101368.7333187515
-0.6093593593593596 	300.0367060778484 	0.1063233697469169 	101368.4000659471
-0.6068568568568571 	300.0364197121721 	0.1054929803830714 	101368.0614205097
-0.6043543543543546 	300.0361266148608 	0.1046429386506616 	101367.714813594
-0.6018518518518521 	300.0358242667357 	0.1037671721912734 	101367.3572671165
-0.5993493493493496 	300.0355129116881 	0.1028664685617462 	101366.9890718748
-0.5968468468468471 	300.0351957216739 	0.1019487330532201 	101366.613979525
-0.5943443443443446 	300.0348754951696 	0.1010207901355539 	101366.2352978098
-0.591841841841842 	300.0345513992231 	0.1000804235197304 	101365.8520394268
-0.5893393393393397 	300.0342195176984 	0.09911788101143448 	101365.45957286
-0.5868368368368371 	300.0338769551915 	0.09812611761099277 	101365.0544765237
-0.5843343343343346 	300.033525255258 	0.09710920344414409 	101364.6385787708
-0.5818318318318321 	300.0331693185195 	0.09607947347417239 	101364.2176751031
-0.5793293293293297 	300.032812594514 	0.09504545568560828 	101363.7958420138
-0.5768268268268271 	300.0324533394086 	0.0940025831080743 	101363.3710139709
-0.5743243243243245 	300.0320859193433 	0.09293661572043709 	101362.9365285201
-0.5718218218218221 	300.0317062060796 	0.0918372947806283 	101362.4875072411
-0.5693193193193196 	300.0313159395038 	0.0907092760019734 	101362.0260114366
-0.5668168168168171 	300.03092167491 	0.08956932152966339 	101361.55979402
-0.5643143143143147 	300.0305289834361 	0.08843151375661076 	101361.0954395847
-0.5618118118118121 	300.0301371442879 	0.08729380795136873 	101360.6320910697
-0.5593093093093094 	300.0297393152915 	0.08613858959818482 	101360.1616560506
-0.5568068068068072 	300.0293283104343 	0.08494753495352485 	101359.6756398839
-0.5543043043043046 	300.02890307427 	0.08371818338677504 	101359.1727998003
-0.551801801801802 	300.0284701763059 	0.08246766697172364 	101358.6609077006
-0.5492992992992995 	300.0280388067958 	0.08121973417832869 	101358.1508291898
-0.5467967967967969 	300.0276132709118 	0.07998537029587753 	101357.6476498312
-0.5442942942942947 	300.0271891483603 	0.07875291348606818 	101357.1461377267
-0.5417917917917919 	300.0267563466566 	0.07749605293606082 	101356.6343582727
-0.5392892892892895 	300.0263067997975 	0.07619389861569603 	101356.1027782143
-0.536786786786787 	300.0258409322164 	0.07484780402158098 	101355.5519058675
-0.5342842842842846 	300.0253679131249 	0.07348196012373048 	101354.9925872567
-0.531781781781782 	300.0248993768324 	0.07212691687715142 	101354.4385773488
-0.5292792792792794 	300.0244411306095 	0.07079782540615939 	101353.8967365684
-0.526776776776777 	300.0239887934827 	0.0694829665364677 	101353.3618783751
-0.5242742742742745 	300.0235304227156 	0.06815068826519824 	101352.8198792376
-0.521771771771772 	300.0230543356909 	0.06677011405424982 	101352.2569292551
-0.5192692692692695 	300.0225569344818 	0.06533188338573709 	101351.6687816939
-0.516766766766767 	300.0220454427866 	0.06385539791869758 	101351.0639839101
-0.5142642642642645 	300.0215338026093 	0.06237790720396651 	101350.4590226295
-0.511761761761762 	300.0210343386089 	0.06093230971515391 	101349.8684658495
-0.5092592592592596 	300.0205503425184 	0.05952732576171805 	101349.2961980478
-0.506756756756757 	300.0200739528711 	0.05814174819753427 	101348.7329176555
-0.5042542542542544 	300.0195903843246 	0.05673574747161306 	101348.1611409937
-0.5017517517517521 	300.0190859705023 	0.0552725309176082 	101347.5647135828
-0.4992492492492494 	300.0185556012097 	0.05373843043767294 	101346.9376010889
-0.496746746746747 	300.0180056676647 	0.05215088159782104 	101346.2873676388
-0.4942442442442445 	300.0174510998229 	0.05055044385413762 	101345.6316690663
-0.4917417417417421 	300.0169081541889 	0.04898130687138278 	101344.9897238728
-0.4892392392392395 	300.0163866708319 	0.04747025978696158 	101344.3731597164
-0.486736736736737 	300.0158855091242 	0.04601416303764868 	101343.7806200195
-0.4842342342342345 	300.0153930340381 	0.04458113836302165 	101343.1983426503
-0.481731731731732 	300.0148920888864 	0.04312410038242453 	101342.6060413947
-0.4792292292292296 	300.0143670859053 	0.04160023111759834 	101341.9852907544
-0.4767267267267268 	300.0138102838256 	0.03998829383313811 	101341.3269453027
-0.4742242242242246 	300.01322489156 	0.03829722670021234 	101340.6348065877
-0.471721721721722 	300.0126239889901 	0.03656321664130657 	101339.9243449337
-0.4692192192192195 	300.0120258787522 	0.03483693929155383 	101339.2172007349
-0.4667167167167169 	300.0114477805135 	0.03316619678885318 	101338.5337297152
-0.4642142142142145 	300.0109002400569 	0.03158037005675997 	101337.8863933584
-0.461711711711712 	300.0103839976654 	0.03008158292507949 	101337.2760597305
-0.4592092092092094 	300.0098899754939 	0.0286445326820932 	101336.6919898759
-0.456706706706707 	300.0094020223599 	0.02722398951456111 	101336.11508502
-0.4542042042042045 	300.0089012381216 	0.02576685315472818 	101335.523000207
-0.451701701701702 	300.0083705636073 	0.02422509108137912 	101334.8955695701
-0.4491991991991995 	300.0077985838118 	0.02256652576648056 	101334.2193032355
-0.4466966966966969 	300.0071818658161 	0.02078149098545225 	101333.4901491856
-0.4441941941941945 	300.0065255399066 	0.01888451570050301 	101332.714179018
-0.441691691691692 	300.0058422027458 	0.01691125776957552 	101331.9062903589
-0.4391891891891895 	300.0051495297254 	0.01491178831431955 	101331.087382354
-0.436686686686687 	300.0044671962495 	0.01294196542451596 	101330.2807163804
-0.4341841841841846 	300.0038138573832 	0.0110550496459768 	101329.5083449535
-0.431681681681682 	300.0032049913045 	0.009295535197554513 	101328.7885635962
-0.4291791791791794 	300.0026518315028 	0.007695903043843837 	101328.1346487223
-0.426676676676677 	300.0021611123665 	0.00627578107756644 	101327.5545578164
-0.4241741741741744 	300.0017353803483 	0.005042772179497348 	101327.0512977577
-0.421671671671672 	300.0013736611675 	0.003994326695851418 	101326.6237139125
-0.4191691691691694 	300.001072298355 	0.003120125834400657 	101326.2674814089
-0.4166666666666669 	300.0008258167754 	0.002404553999942341 	101325.9761261148
-0.4141641641641645 	300.0006277107806 	0.001828966351504876 	101325.7419564075
-0.411661661661662 	300.0004710997108 	0.001373580570489648 	101325.5568371629
-0.4091591591591594 	300.0003492247463 	0.001018922213676245 	101325.4127786129
-0.406656656656657 	300.0002557938432 	0.000746826953545154 	101325.3023425843
-0.4041541541541545 	300.0001851888067 	0.0005410493675910583 	101325.2188874286
-0.401651651651652 	300.0001325612733 	0.0003875521350541537 	101325.1566824192
-0.3991491491491494 	300.000093848728 	0.0002745559061790319 	101325.1109248709
-0.396646646646647 	300.0000657314062 	0.0001924257022979389 	101325.0776910719
-0.3941441441441444 	300.0000455584608 	0.0001334579993733928 	101325.0538473757
-0.3916416416416419 	300.000031255537 	9.161929332802087e-05 	101325.0369420305
-0.3891391391391395 	300.0000212302108 	6.227241467241888e-05 	101325.0250925917
-0.3866366366366368 	300.0000142807156 	4.191517691310876e-05 	101325.0168787052
-0.3841341341341344 	300.0000095150664 	2.794530630416057e-05 	101325.0112459674
-0.381631631631632 	300.0000062809057 	1.845861154526949e-05 	101325.0074235059
-0.3791291291291294 	300.0000041084919 	1.208169202723453e-05 	101325.0048558119
-0.3766266266266269 	300.0000026635702 	7.83749108099742e-06 	101325.003148017
-0.3741241241241244 	300.0000017117754 	5.03993650017756e-06 	101325.0020230784
-0.371621621621622 	300.0000010906903 	3.2132616913113e-06 	101325.0012890298
-0.3691191191191194 	300.0000006891244 	2.031478011466657e-06 	101325.0008144394
-0.366616616616617 	300.0000004318376 	1.273765581173496e-06 	101325.0005103496
-0.3641141141141143 	300.0000002683597 	7.922208837915836e-07 	101325.0003172153
-0.3616116116116119 	300.0000001654458 	4.888102799426099e-07 	101325.0001956052
-0.3591091091091095 	300.0000001012568 	2.992528267099315e-07 	101325.0001196749
-0.356606606606607 	300.0000000614575 	1.817989754365509e-07 	101325.0000726572
-0.3541041041041044 	300.0000000370305 	1.096127365523962e-07 	101325.0000437782
-0.3516016016016019 	300.0000000221606 	6.560003085755692e-08 	101325.0000261809
-0.3490990990990994 	300.0000000131446 	3.89722663882616e-08 	101325.0000155414
-0.346596596596597 	300.0000000078145 	2.298949363232595e-08 	101325.0000091581
-0.3440940940940944 	300.0000000046081 	1.346270173026526e-08 	101325.000005357
-0.3415915915915919 	300.0000000026619 	7.832393832442333e-09 	101325.0000031101
-0.3390890890890895 	300.0000000014978 	4.5224911051302e-09 	101325.0000017914
-0.3365865865865869 	300.0000000009012 	2.596661643427255e-09 	101325.000001023
-0.3340840840840844 	300.0000000005106 	1.478906207467717e-09 	101325.0000005785
-0.3315815815815819 	300.0000000003096 	8.39543995348716e-10 	101325.0000003227
-0.3290790790790794 	300.0000000001784 	4.723057665973937e-10 	101325.0000001767
-0.3265765765765769 	299.9999999999956 	2.664558480226302e-10 	101325.000000094
-0.3240740740740744 	300.0000000000413 	1.46516051921121e-10 	101325.0000000474
-0.3215715715715718 	300.0000000000355 	8.355296238542048e-11 	101325.0000000213
-0.3190690690690695 	299.9999999999226 	4.443256495401722e-11 	101325.0000000069
-0.3165665665665668 	299.9999999999994 	2.778090517953559e-11 	101324.9999999988
-0.3140640640640644 	300.0000000000103 	1.353412281838017e-11 	101324.9999999946
-0.311561561561562 	299.9999999999065 	1.195206999516139e-11 	101324.9999999921
-0.3090590590590593 	299.9999999999923 	3.785436150121217e-12 	101324.9999999908
-0.3065565565565568 	300.0000000000001 	7.889518630373319e-12 	101324.9999999901
-0.3040540540540545 	300.0000000000256 	1.546666807239042e-12 	101324.9999999896
-0.3015515515515518 	300.0000000000475 	5.997742390830137e-12 	101324.9999999892
-0.2990490490490494 	299.9999999999284 	1.035864697518572e-12 	101324.9999999892
-0.2965465465465469 	299.9999999999787 	2.868182358120077e-12 	101324.9999999893
-0.2940440440440444 	299.9999999999998 	5.29453098929838e-13 	101324.9999999892
-0.2915415415415418 	299.9999999999962 	1.764212257131366e-12 	101324.9999999892
-0.2890390390390395 	299.9999999999983 	1.502089291784228e-12 	101324.9999999895
-0.2865365365365368 	299.9999999999743 	1.666004747465777e-12 	101324.9999999894
-0.2840340340340343 	300.0000000000011 	2.922767802537636e-12 	101324.9999999896
-0.2815315315315318 	299.9999999999098 	1.507487906554936e-12 	101324.9999999899
-0.2790290290290295 	299.999999999951 	2.390584217334378e-12 	101324.9999999897
-0.2765265265265269 	300.0000000000176 	1.852002617393918e-12 	101324.9999999897
-0.2740240240240244 	300.0000000000373 	2.546657432610416e-12 	101324.9999999897
-0.2715215215215219 	300.0000000000177 	2.716246655569697e-12 	101324.9999999897
-0.2690190190190194 	299.9999999999307 	2.607625561264706e-12 	101324.9999999897
-0.2665165165165169 	299.9999999999989 	3.669716300611462e-12 	101324.9999999898
-0.2640140140140144 	299.9999999999575 	3.286204805868917e-12 	101324.9999999902
-0.2615115115115119 	299.9999999999992 	5.149042595014614e-12 	101324.9999999902
-0.2590090090090094 	299.9999999999201 	3.492241036695692e-12 	101324.9999999902
-0.2565065065065068 	299.9999999999981 	3.416102952429459e-12 	101324.9999999901
-0.2540040040040044 	300.0000000000065 	3.619485652047891e-12 	101324.99999999
-0.2515015015015019 	300.0000000000525 	2.894655577897497e-12 	101324.9999999899
-0.2489989989989994 	300.0000000000617 	5.38588465346068e-12 	101324.9999999901
-0.2464964964964968 	299.999999999993 	2.395859001551375e-12 	101324.9999999898
-0.2439939939939944 	300.0000000000004 	6.998644229313818e-12 	101324.9999999897
-0.2414914914914919 	299.9999999999701 	2.73363821524057e-12 	101324.9999999896
-0.2389889889889893 	300.0000000000051 	7.470884653254976e-12 	101324.9999999896
-0.2364864864864869 	300.0000000000267 	3.480204128620257e-12 	101324.9999999898
-0.2339839839839843 	299.9999999999098 	8.693260658948776e-12 	101324.9999999894
-0.2314814814814819 	299.9999999999775 	4.359850585400672e-12 	101324.9999999894
-0.2289789789789792 	299.9999999999026 	8.102104229746398e-12 	101324.9999999893
-0.2264764764764769 	299.9999999999326 	4.72320374020172e-12 	101324.9999999891
-0.2239739739739743 	299.9999999999429 	6.625124678440992e-12 	101324.999999989
-0.2214714714714718 	299.999999999921 	5.061175282352489e-12 	101324.999999989
-0.2189689689689693 	299.999999999959 	5.040678780856517e-12 	101324.9999999887
-0.2164664664664669 	299.9999999999748 	5.647295193039705e-12 	101324.9999999886
-0.2139639639639643 	299.9999999999084 	4.156825545559167e-12 	101324.9999999889
-0.2114614614614618 	299.9999999999661 	4.644023581114376e-12 	101324.9999999891
-0.2089589589589593 	299.9999999999907 	4.134554595458661e-12 	101324.9999999895
-0.2064564564564568 	299.9999999999895 	2.890545835305539e-12 	101324.9999999896
-0.2039539539539543 	299.999999999883 	2.997080522556534e-12 	101324.9999999899
-0.2014514514514518 	299.9999999999441 	1.064296339608803e-12 	101324.9999999901
-0.1989489489489494 	299.9999999999707 	2.325752489708439e-12 	101324.9999999901
-0.1964464464464468 	299.9999999999899 	1.411048483753328e-12 	101324.9999999899
-0.1939439439439443 	299.9999999999836 	3.394398955931769e-12 	101324.9999999898
-0.1914414414414418 	299.9999999998985 	6.248052657632226e-13 	101324.9999999898
-0.1889389389389393 	300.0000000000077 	2.657638951895204e-12 	101324.9999999898
-0.1864364364364368 	300.0000000000518 	4.725207326528058e-13 	101324.9999999897
-0.1839339339339343 	299.9999999999665 	2.884963479950341e-12 	101324.9999999898
-0.1814314314314318 	299.9999999999946 	1.104218682232341e-12 	101324.9999999898
-0.1789289289289293 	299.9999999998824 	4.241473437048948e-12 	101324.9999999897
-0.1764264264264268 	299.9999999999727 	1.124967894325384e-12 	101324.9999999897
-0.1739239239239243 	299.9999999998702 	5.375283397038604e-12 	101324.9999999895
-0.1714214214214218 	299.9999999999883 	8.890219212456411e-13 	101324.9999999896
-0.1689189189189193 	299.9999999999405 	7.564735186864529e-12 	101324.9999999893
-0.1664164164164168 	300.000000000006 	6.864459202428969e-13 	101324.9999999889
-0.1639139139139143 	299.9999999999874 	9.096638075233905e-12 	101324.9999999889
-0.1614114114114118 	300.0000000000371 	1.87082585023024e-12 	101324.9999999889
-0.1589089089089093 	300.0000000000011 	1.072922467971696e-11 	101324.999999989
-0.1564064064064068 	299.9999999999825 	3.479012270651969e-12 	101324.9999999891
-0.1539039039039043 	299.9999999999897 	1.046095210945222e-11 	101324.9999999892
-0.1514014014014018 	300.0000000000335 	2.689983061941727e-12 	101324.9999999895
-0.1488988988988993 	299.9999999999931 	1.057824791195851e-11 	101324.9999999898
-0.1463963963963968 	300.0000000000011 	1.063567377518541e-12 	101324.9999999897
-0.1438938938938943 	299.9999999999359 	9.575210253102538e-12 	101324.9999999897
-0.1413913913913918 	299.9999999999068 	1.06311102134247e-12 	101324.9999999899
-0.1388888888888893 	299.999999999974 	6.98946324150987e-12 	101324.9999999902
-0.1363863863863868 	299.9999999998628 	9.724278096162358e-13 	101324.9999999901
-0.1338838838838843 	299.999999999901 	5.13885431933923e-12 	101324.9999999902
-0.1313813813813818 	299.9999999999914 	1.26937646978879e-12 	101324.9999999903
-0.1288788788788793 	299.9999999999551 	5.579704043274804e-12 	101324.99999999
-0.1263763763763768 	299.9999999999613 	9.424400290605561e-13 	101324.9999999899
-0.1238738738738743 	299.9999999999106 	5.512002154244304e-12 	101324.9999999899
-0.1213713713713717 	299.9999999999692 	1.040815861078561e-12 	101324.9999999898
-0.1188688688688693 	300.0000000000053 	7.255202575655656e-12 	101324.9999999898
-0.1163663663663668 	299.9999999998836 	2.005481600774641e-12 	101324.9999999896
-0.1138638638638643 	299.9999999999881 	8.047481298459792e-12 	101324.9999999894
-0.1113613613613618 	299.9999999999864 	1.416820831781204e-12 	101324.9999999894
-0.1088588588588592 	299.999999999971 	8.012523120837167e-12 	101324.9999999893
-0.1063563563563568 	299.9999999999366 	9.585594223649988e-13 	101324.9999999893
-0.1038538538538543 	299.9999999999632 	6.025252692129344e-12 	101324.9999999895
-0.1013513513513517 	300.000000000018 	1.581523289869988e-12 	101324.9999999895
-0.09884884884884926 	299.9999999999296 	6.404923282069134e-12 	101324.9999999894
-0.09634634634634676 	299.9999999998637 	2.959673136443133e-12 	101324.9999999894
-0.09384384384384425 	299.9999999999154 	5.044645648255676e-12 	101324.9999999892
-0.09134134134134177 	300.0000000000348 	2.201237868230116e-12 	101324.9999999893
-0.08883883883883925 	300.0000000000054 	4.268356785248859e-12 	101324.999999989
-0.08633633633633674 	299.9999999999484 	2.162068843108581e-12 	101324.9999999889
-0.08383383383383426 	300.0000000000132 	2.677362067902619e-12 	101324.9999999894
-0.08133133133133173 	299.999999999954 	2.131324929611249e-12 	101324.9999999894
-0.07882882882882926 	299.9999999998572 	1.525193693615019e-12 	101324.9999999893
-0.07632632632632676 	299.9999999999478 	6.968244169513358e-13 	101324.9999999896
-0.07382382382382424 	299.9999999998658 	4.331194127619933e-13 	101324.9999999897
-0.07132132132132173 	300.0000000000168 	3.158700961909724e-13 	101324.9999999896
-0.06881881881881925 	299.9999999999489 	5.893728697029459e-13 	101324.9999999893
-0.06631631631631671 	299.9999999998707 	4.946044884640774e-13 	101324.9999999893
-0.06381381381381425 	299.9999999999441 	4.882465792210067e-13 	101324.9999999893
-0.06131131131131173 	299.9999999999471 	8.361637568665945e-13 	101324.9999999894
-0.05880880880880923 	299.9999999998908 	6.471492051646497e-13 	101324.9999999893
-0.05630630630630672 	299.9999999999584 	7.197290907335017e-13 	101324.9999999891
-0.05380380380380424 	300.0000000000217 	3.04466385670602e-13 	101324.999999989
-0.05130130130130173 	300.0000000000137 	5.122799088241694e-13 	101324.9999999891
-0.04879879879879922 	299.9999999999272 	1.320854321328371e-12 	101324.9999999895
-0.04629629629629672 	299.9999999999181 	5.506591863157025e-13 	101324.9999999894
-0.04379379379379422 	299.9999999998968 	1.187350080247768e-12 	101324.9999999894
-0.04129129129129173 	299.9999999999767 	6.477056895513287e-13 	101324.9999999895
-0.03878878878878922 	299.9999999999827 	1.243837920535412e-12 	101324.9999999896
-0.03628628628628671 	299.9999999999778 	9.439567241487452e-13 	101324.9999999895
-0.03378378378378422 	299.9999999999004 	8.642238778807154e-13 	101324.9999999896
-0.03128128128128172 	299.9999999999554 	2.386711900090953e-13 	101324.9999999895
-0.02877877877877922 	299.9999999999562 	8.016194522513991e-14 	101324.9999999893
-0.0262762762762767 	299.9999999998782 	6.155667261154974e-13 	101324.999999989
-0.02377377377377422 	300.0000000000291 	4.535355883228942e-13 	101324.999999989
-0.0212712712712717 	299.9999999998807 	6.969679133970611e-14 	101324.9999999892
-0.01876876876876921 	299.9999999999598 	6.245761632475167e-13 	101324.9999999891
-0.01626626626626671 	300.0000000000185 	5.411688333505467e-13 	101324.9999999892
-0.0137637637637642 	299.9999999999555 	1.309028200468836e-12 	101324.9999999893
-0.0112612612612617 	300.0000000000214 	1.459928642445662e-12 	101324.999999989
-0.008758758758759198 	299.9999999999918 	1.277889475039671e-12 	101324.9999999889
-0.006256256256256697 	299.9999999998569 	7.863509667224092e-13 	101324.9999999889
-0.003753753753754195 	299.9999999999487 	1.023843585056562e-12 	101324.9999999891
-0.001251251251251693 	299.9999999999132 	1.567096501381666e-12 	101324.9999999892
0.00125125125125081 	299.9999999999486 	2.549626076651235e-12 	101324.999999989
0.003753753753753312 	299.9999999999519 	1.869570987144981e-12 	101324.999999989
0.006256256256255817 	299.9999999998619 	2.057514891452357e-12 	101324.9999999892
0.008758758758758317 	299.9999999999856 	1.29635319928009e-12 	101324.999999989
0.01126126126126082 	300.0000000000086 	1.29089233393813e-12 	101324.9999999888
0.01376376376376332 	299.9999999999633 	1.363656233269039e-12 	101324.9999999893
0.01626626626626582 	300.0000000000138 	1.906308709264876e-12 	101324.9999999892
0.01876876876876833 	299.999999999946 	1.760770744261731e-12 	101324.9999999893
0.02127127127127083 	299.9999999999576 	1.723010381941737e-12 	101324.9999999892
0.02377377377377332 	299.999999999996 	9.961386882988716e-13 	101324.9999999893
0.02627627627627583 	299.9999999998731 	1.168766344500353e-12 	101324.9999999892
0.02877877877877833 	300.0000000000097 	1.653872393744463e-12 	101324.9999999893
0.03128128128128083 	299.9999999999334 	9.855601070436121e-13 	101324.9999999893
0.03378378378378333 	299.9999999998772 	1.657356661935909e-12 	101324.9999999895
0.03628628628628584 	299.999999999958 	1.452338180715549e-12 	101324.9999999894
0.03878878878878834 	299.9999999999762 	1.65660448697308e-12 	101324.9999999894
0.04129129129129084 	299.9999999999746 	1.303788676287615e-12 	101324.9999999896
0.04379379379379333 	299.9999999999338 	1.352866390104961e-12 	101324.9999999892
0.04629629629629585 	299.9999999998601 	3.86090025136407e-13 	101324.9999999892
0.04879879879879834 	299.9999999999436 	8.493418178705329e-13 	101324.999999989
0.05130130130130085 	300.0000000000169 	9.227094208023376e-13 	101324.9999999891
0.05380380380380335 	300.0000000000251 	1.007059998357395e-12 	101324.9999999893
0.05630630630630584 	299.999999999993 	4.411702187361299e-13 	101324.999999989
0.05880880880880836 	299.999999999899 	8.163854553870477e-13 	101324.9999999888
0.06131131131131085 	299.9999999999619 	9.965645936510646e-13 	101324.9999999888
0.06381381381381336 	299.9999999999529 	1.083567796940784e-12 	101324.9999999887
0.06631631631631586 	299.9999999998626 	4.124958558908523e-13 	101324.9999999886
0.06881881881881835 	299.999999999944 	9.179760400804925e-13 	101324.9999999889
0.07132132132132088 	299.9999999999802 	2.209736387282417e-14 	101324.9999999889
0.07382382382382337 	299.9999999998722 	3.823236048892563e-13 	101324.999999989
0.07632632632632587 	299.9999999999677 	3.75843313082695e-13 	101324.9999999891
0.07882882882882837 	299.9999999999219 	2.725992882847152e-13 	101324.9999999891
0.08133133133133086 	299.9999999999772 	5.45471010201176e-14 	101324.9999999889
0.08383383383383337 	299.9999999999814 	4.92317835503376e-13 	101324.9999999886
0.08633633633633589 	299.9999999998778 	2.84002470230825e-13 	101324.9999999885
0.08883883883883838 	300.0000000000061 	3.969066902823248e-13 	101324.9999999883
0.09134134134134086 	299.9999999999729 	4.488246473020111e-13 	101324.9999999886
0.09384384384384339 	299.999999999864 	1.22458550842527e-12 	101324.9999999887
0.09634634634634588 	299.99999999995 	1.777866298017599e-12 	101324.9999999886
0.09884884884884838 	299.9999999999723 	1.710809644660373e-12 	101324.9999999887
0.1013513513513509 	300.0000000000285 	7.575664757809343e-13 	101324.9999999888
0.1038538538538534 	299.9999999999465 	3.248321440466585e-13 	101324.9999999891
0.1063563563563559 	300.0000000000109 	2.518396473648402e-13 	101324.999999989
0.1088588588588584 	300.0000000000296 	2.657601481610229e-13 	101324.9999999889
0.1113613613613609 	299.9999999999031 	8.342947611206964e-13 	101324.9999999889
0.1138638638638634 	299.9999999999315 	1.902962727776145e-12 	101324.9999999891
0.1163663663663659 	299.9999999999329 	2.714129960376399e-12 	101324.9999999896
0.1188688688688684 	299.9999999999673 	3.649578863112716e-12 	101324.9999999897
0.1213713713713709 	299.9999999999945 	3.697389940027881e-12 	101324.9999999896
0.1238738738738734 	299.9999999999081 	4.973799266168799e-12 	101324.9999999895
0.1263763763763759 	299.999999999981 	4.764605540677364e-12 	101324.9999999896
0.1288788788788784 	299.999999999982 	4.388497990627858e-12 	101324.9999999895
0.1313813813813809 	299.9999999999768 	3.679455837439761e-12 	101324.9999999894
0.1338838838838834 	299.9999999999693 	4.133323477082956e-12 	101324.9999999895
0.1363863863863859 	300.0000000000225 	3.001669356293483e-12 	101324.9999999894
0.1388888888888884 	300.0000000000582 	2.935836393554725e-12 	101324.9999999895
0.1413913913913909 	300.000000000005 	1.114266454779098e-12 	101324.9999999893
0.1438938938938934 	299.9999999999904 	1.816787323505724e-12 	101324.9999999893
0.1463963963963959 	299.9999999999481 	8.264192764247301e-13 	101324.9999999894
0.1488988988988985 	299.9999999998914 	4.869853899560094e-13 	101324.9999999894
0.1514014014014009 	299.9999999999639 	2.108661299318895e-12 	101324.9999999895
0.1539039039039035 	299.9999999999589 	5.351716332502259e-13 	101324.9999999896
0.1564064064064059 	299.9999999999086 	2.065256158908679e-12 	101324.9999999893
0.1589089089089084 	299.9999999999662 	2.380239938189374e-12 	101324.9999999893
0.1614114114114109 	299.9999999999603 	6.329182111546943e-13 	101324.9999999889
0.1639139139139134 	299.9999999998896 	2.135907682416464e-12 	101324.9999999889
0.166416416416416 	300.0000000000074 	8.698432276817532e-13 	101324.9999999891
0.1689189189189185 	300.000000000041 	4.172742848445639e-13 	101324.9999999893
0.1714214214214209 	300.0000000000011 	4.314777212194337e-13 	101324.9999999894
0.1739239239239235 	299.9999999999874 	3.918381271058941e-13 	101324.9999999892
0.1764264264264259 	299.9999999999625 	1.841607926903241e-12 	101324.9999999889
0.1789289289289284 	300.0000000000097 	4.472238409017149e-13 	101324.999999989
0.181431431431431 	299.9999999999557 	2.364174634862455e-12 	101324.999999989
0.1839339339339334 	299.9999999999584 	1.204301574967176e-12 	101324.999999989
0.186436436436436 	299.9999999999154 	2.608135739491871e-12 	101324.999999989
0.1889389389389385 	299.9999999999733 	2.133968961224553e-12 	101324.9999999889
0.191441441441441 	299.9999999999687 	1.666716106144813e-12 	101324.9999999889
0.1939439439439434 	299.9999999998957 	2.047694164462178e-12 	101324.9999999891
0.196446446446446 	299.999999999934 	9.063483611454141e-13 	101324.9999999891
0.1989489489489485 	299.9999999999548 	3.378932657406489e-12 	101324.9999999893
0.2014514514514509 	299.9999999999781 	1.896388705649735e-12 	101324.9999999892
0.2039539539539535 	299.9999999999898 	3.53542880752773e-12 	101324.9999999891
0.2064564564564559 	299.9999999999434 	2.696288567228088e-12 	101324.9999999889
0.2089589589589585 	299.9999999999835 	3.037845326833767e-12 	101324.9999999889
0.211461461461461 	299.9999999999084 	3.438875060326167e-12 	101324.999999989
0.2139639639639635 	299.9999999999701 	2.897900372153738e-12 	101324.9999999892
0.2164664664664659 	300.000000000002 	3.043934093355008e-12 	101324.9999999893
0.2189689689689684 	300.0000000000028 	7.02003644086768e-13 	101324.9999999893
0.221471471471471 	299.9999999999974 	2.64410553698727e-12 	101324.9999999896
0.2239739739739735 	299.9999999999436 	3.808562176153685e-13 	101324.9999999894
0.226476476476476 	299.9999999999693 	1.409837909793149e-12 	101324.9999999894
0.2289789789789785 	299.9999999999962 	9.277132246690189e-14 	101324.9999999892
0.231481481481481 	299.9999999999866 	7.480935103895717e-13 	101324.9999999893
0.2339839839839835 	299.9999999999824 	1.614831465706005e-12 	101324.9999999892
0.236486486486486 	300.0000000000342 	8.753417046149176e-13 	101324.9999999893
0.2389889889889885 	300.0000000000108 	1.810360802219138e-12 	101324.9999999894
0.241491491491491 	299.9999999998976 	3.839578802035532e-13 	101324.9999999891
0.2439939939939935 	299.9999999999804 	3.084331972979001e-12 	101324.9999999891
0.246496496496496 	299.9999999999885 	1.712246500609285e-12 	101324.9999999891
0.2489989989989985 	300.0000000000439 	3.218977247102801e-12 	101324.9999999889
0.251501501501501 	300.0000000000391 	2.206948623360942e-12 	101324.9999999888
0.2540040040040035 	299.9999999999914 	2.189664701199985e-12 	101324.9999999886
0.256506506506506 	300.0000000000367 	2.677445796181611e-12 	101324.9999999885
0.2590090090090086 	299.9999999998914 	1.449980010962946e-12 	101324.9999999887
0.261511511511511 	299.9999999999998 	3.416382903972169e-12 	101324.9999999889
0.2640140140140135 	299.9999999999896 	1.138178254157733e-12 	101324.9999999889
0.2665165165165161 	299.9999999999101 	2.539068909248375e-12 	101324.999999989
0.2690190190190185 	300.0000000000211 	1.85055775285181e-12 	101324.999999989
0.271521521521521 	300.0000000000264 	2.045873168655913e-12 	101324.9999999889
0.2740240240240235 	300.0000000000264 	1.592634856459545e-12 	101324.9999999888
0.276526526526526 	300.000000000015 	2.680871810442126e-13 	101324.9999999887
0.2790290290290286 	299.9999999999247 	7.854224956193087e-13 	101324.9999999885
0.281531531531531 	299.9999999999143 	1.034859141378068e-12 	101324.9999999886
0.2840340340340335 	299.9999999999803 	6.711276550267525e-13 	101324.9999999888
0.2865365365365361 	299.9999999999496 	5.727911859486232e-13 	101324.9999999888
0.2890390390390385 	299.9999999999978 	1.682171618480159e-12 	101324.9999999891
0.291541541541541 	299.9999999999972 	2.004433933778355e-12 	101324.9999999891
0.2940440440440436 	299.9999999999886 	8.948850899949115e-13 	101324.9999999891
0.296546546546546 	299.9999999999917 	2.550547210057825e-12 	101324.9999999891
0.2990490490490486 	299.9999999999187 	1.233510054885595e-12 	101324.9999999893
0.3015515515515511 	300.0000000000459 	3.947817075461066e-12 	101324.9999999891
0.3040540540540535 	300.0000000000006 	3.487057720569023e-12 	101324.9999999888
0.3065565565565562 	299.999999999996 	3.625239651476877e-12 	101324.9999999886
0.3090590590590585 	299.9999999999889 	3.36240390955862e-12 	101324.9999999883
0.3115615615615611 	299.9999999999288 	2.840096667005653e-12 	101324.9999999884
0.3140640640640635 	300.00000000001 	2.513460362258756e-12 	101324.9999999885
0.316566566566566 	299.9999999999977 	1.81333516142597e-12 	101324.9999999886
0.3190690690690687 	299.9999999999405 	2.205265136867851e-12 	101324.9999999883
0.3215715715715711 	300.0000000000156 	2.016000672114827e-12 	101324.9999999884
0.3240740740740735 	299.9999999999957 	1.75094461964137e-12 	101324.9999999886
0.326576576576576 	299.9999999998766 	1.568811005025319e-12 	101324.9999999888
0.3290790790790786 	300.0000000000161 	1.351898638251517e-12 	101324.9999999888
0.3315815815815811 	300.0000000000467 	7.313839273343e-13 	101324.999999989
0.3340840840840836 	299.9999999999818 	1.55191007726517e-12 	101324.9999999893
0.3365865865865861 	300.0000000000667 	7.22910068006252e-13 	101324.9999999892
0.3390890890890886 	300.0000000000592 	1.658814623802167e-12 	101324.9999999891
0.3415915915915911 	300.0000000000031 	5.666858251691433e-13 	101324.999999989
0.3440940940940935 	299.999999999947 	2.099925891642432e-12 	101324.9999999887
0.3465965965965962 	300.000000000043 	3.731550550058896e-13 	101324.9999999888
0.3490990990990985 	300.0000000000349 	1.549639935560765e-12 	101324.9999999887
0.3516016016016011 	299.9999999999883 	2.678602294255088e-13 	101324.9999999888
0.3541041041041035 	300.0000000000102 	3.306422712793122e-13 	101324.9999999888
0.3566066066066061 	299.9999999999477 	4.751883060690415e-13 	101324.9999999888
0.3591091091091085 	299.9999999999034 	1.390734621311079e-12 	101324.9999999885
0.3616116116116112 	299.999999999927 	1.216994340302405e-12 	101324.9999999883
0.3641141141141137 	299.9999999999184 	3.342248940486355e-12 	101324.9999999881
0.3666166166166161 	299.9999999999061 	1.090627631157097e-12 	101324.9999999881
0.3691191191191185 	300.0000000000458 	4.735210744720078e-12 	101324.999999988
0.371621621621621 	300.0000000000176 	9.773900256722861e-13 	101324.999999988
0.3741241241241237 	300.0000000000625 	3.545579595796004e-12 	101324.9999999878
0.3766266266266261 	300.0000000000389 	7.917978772407716e-13 	101324.9999999878
0.3791291291291286 	299.9999999999807 	2.745478706390174e-12 	101324.999999988
0.3816316316316311 	299.9999999999014 	9.707652531999821e-13 	101324.9999999882
0.3841341341341336 	300.0000000000202 	2.283614406739746e-12 	101324.9999999882
0.3866366366366362 	300.000000000002 	8.9146362000612e-13 	101324.9999999884
0.3891391391391387 	299.9999999999536 	1.649068585311379e-12 	101324.9999999882
0.391641641641641 	299.9999999999961 	5.518060931173033e-13 	101324.9999999884
0.3941441441441436 	300.0000000000085 	1.279462011287024e-12 	101324.9999999884
0.3966466466466462 	299.9999999999987 	8.056434253972985e-13 	101324.9999999884
0.3991491491491486 	299.9999999999378 	9.299485136322534e-13 	101324.9999999887
0.4016516516516512 	299.9999999998961 	9.242723428649527e-13 	101324.9999999889
0.4041541541541536 	299.9999999999409 	1.110760886481174e-12 	101324.9999999891
0.4066566566566561 	299.9999999999325 	1.020853517032768e-12 	101324.9999999891
0.4091591591591587 	299.9999999999759 	1.372397219705537e-12 	101324.999999989
0.4116616616616612 	299.9999999999891 	7.502470495861849e-13 	101324.999999989
0.4141641641641635 	300.0000000000553 	1.458904065582235e-12 	101324.9999999891
0.4166666666666662 	299.999999999998 	1.473473114634624e-12 	101324.9999999891
0.4191691691691687 	299.9999999999328 	8.348106744616475e-13 	101324.9999999891
0.421671671671671 	300.0000000000165 	3.3631051559378e-12 	101324.9999999891
0.4241741741741737 	299.9999999999777 	1.526621870058665e-12 	101324.9999999894
0.4266766766766761 	299.9999999999451 	4.09399313506491e-12 	101324.9999999897
0.4291791791791785 	300.0000000000268 	2.716878736896815e-12 	101324.9999999896
0.4316816816816812 	300.0000000000191 	3.715744748645957e-12 	101324.9999999895
0.4341841841841836 	299.9999999999857 	3.172227692687456e-12 	101324.9999999895
0.4366866866866862 	299.9999999999028 	2.20126039577294e-12 	101324.99999999
0.4391891891891885 	299.9999999999816 	2.360304894977452e-12 	101324.9999999902
0.4416916916916913 	299.9999999999751 	1.948366161632404e-12 	101324.9999999903
0.4441941941941936 	299.9999999999852 	1.771367347942657e-12 	101324.9999999902
0.4466966966966961 	299.9999999998979 	1.161715329132958e-12 	101324.9999999901
0.4491991991991987 	299.9999999999728 	5.195150377959785e-13 	101324.99999999
0.4517017017017012 	299.9999999999716 	2.700291207940657e-13 	101324.99999999
0.4542042042042035 	299.9999999999912 	5.67337658511446e-13 	101324.9999999898
0.4567067067067062 	299.9999999999909 	2.897550177356767e-13 	101324.9999999894
0.4592092092092087 	299.9999999999093 	8.115261354737373e-13 	101324.9999999892
0.4617117117117112 	300.0000000000221 	1.094977231010702e-12 	101324.9999999892
0.4642142142142137 	299.9999999999532 	1.30248121883207e-12 	101324.9999999893
0.4667167167167162 	299.9999999999852 	1.388306538255159e-12 	101324.9999999895
0.4692192192192187 	299.9999999999455 	1.274063302576727e-12 	101324.9999999897
0.4717217217217212 	300.0000000000185 	7.792198037747546e-13 	101324.9999999896
0.4742242242242236 	299.9999999999475 	4.498659476192386e-13 	101324.9999999899
0.4767267267267262 	299.9999999999736 	4.846756916254454e-13 	101324.9999999903
0.4792292292292287 	300.00000000002 	4.238209261077294e-13 	101324.9999999902
0.4817317317317312 	300.0000000000385 	5.17681920534768e-13 	101324.9999999903
0.4842342342342336 	299.9999999999873 	5.389862282223802e-13 	101324.9999999903
0.4867367367367362 	299.9999999999458 	6.617974624817996e-13 	101324.9999999904
0.4892392392392387 	300.0000000000331 	2.309505556137095e-12 	101324.9999999905
0.4917417417417412 	300.0000000000109 	1.151772347621905e-12 	101324.9999999903
0.4942442442442437 	299.9999999998957 	2.395394975677556e-12 	101324.9999999902
0.4967467467467462 	299.9999999999134 	1.339565027742613e-12 	101324.9999999904
0.4992492492492487 	299.999999999903 	2.822224565654902e-12 	101324.9999999907
0.5017517517517511 	299.9999999999465 	1.537553965928863e-12 	101324.9999999907
0.5042542542542537 	299.9999999999608 	1.565649951443516e-12 	101324.9999999906
0.5067567567567562 	299.99999999994 	1.350457158264492e-12 	101324.9999999903
0.5092592592592589 	299.9999999999639 	8.803430441075208e-13 	101324.9999999904
0.5117617617617611 	299.9999999999536 	1.976247456233096e-12 	101324.9999999902
0.5142642642642637 	299.9999999999807 	1.391323214074688e-12 	101324.9999999903
0.5167667667667663 	299.9999999999648 	3.868327613585532e-12 	101324.9999999904
0.5192692692692688 	299.9999999999047 	2.171089416916401e-12 	101324.9999999903
0.5217717717717714 	299.9999999999327 	5.863858895029353e-12 	101324.99999999
0.5242742742742736 	299.9999999999296 	2.177493978455302e-12 	101324.99999999
0.5267767767767763 	299.9999999999515 	6.354064585108089e-12 	101324.9999999901
0.5292792792792789 	299.9999999999315 	2.375305361952268e-12 	101324.9999999904
0.5317817817817813 	299.9999999998955 	5.256201742408456e-12 	101324.9999999905
0.5342842842842837 	300.0000000000144 	2.895586500193968e-12 	101324.9999999904
0.5367867867867864 	300.0000000000003 	5.101407608407141e-12 	101324.9999999901
0.5392892892892888 	299.9999999999519 	4.179940515930019e-12 	101324.9999999903
0.5417917917917912 	300.0000000000025 	6.153787829136226e-12 	101324.9999999904
0.5442942942942938 	299.9999999999801 	5.147542573604092e-12 	101324.9999999905
0.5467967967967964 	299.9999999999453 	6.842017331985677e-12 	101324.9999999906
0.5492992992992988 	299.9999999999388 	5.322258839269438e-12 	101324.9999999908
0.5518018018018012 	299.9999999999373 	5.962811414300117e-12 	101324.999999991
0.5543043043043039 	300.0000000000205 	4.508149884141041e-12 	101324.9999999911
0.5568068068068063 	299.9999999999898 	5.258160569751088e-12 	101324.9999999908
0.5593093093093087 	299.9999999998972 	3.245396319934065e-12 	101324.9999999906
0.5618118118118114 	299.9999999999493 	5.266568490962542e-12 	101324.9999999904
0.5643143143143137 	299.9999999999363 	4.331417864223837e-12 	101324.9999999901
0.5668168168168163 	299.9999999999919 	6.127216880081565e-12 	101324.9999999901
0.5693193193193188 	300.0000000000368 	6.336460705535198e-12 	101324.9999999899
0.5718218218218213 	300.0000000000307 	5.736579532148781e-12 	101324.9999999898
0.5743243243243239 	300.0000000000099 	6.469828273716895e-12 	101324.9999999896
0.5768268268268262 	300.0000000000011 	4.981397575471579e-12 	101324.9999999896
0.5793293293293288 	299.9999999999332 	7.629867299790374e-12 	101324.9999999899
0.5818318318318314 	299.9999999999051 	4.856821856528526e-12 	101324.9999999905
0.5843343343343338 	299.9999999999822 	9.21021104127963e-12 	101324.9999999906
0.5868368368368363 	299.9999999999737 	5.056202561037975e-12 	101324.9999999906
0.5893393393393387 	299.9999999999355 	8.779450270775454e-12 	101324.9999999911
0.5918418418418413 	299.999999999935 	6.346185254534057e-12 	101324.9999999912
0.5943443443443439 	300.0000000000173 	9.217633984892954e-12 	101324.9999999914
0.5968468468468463 	300.0000000000229 	7.47507926848015e-12 	101324.9999999914
0.5993493493493487 	300.0000000000424 	8.969796191303102e-12 	101324.9999999914
0.6018518518518514 	299.999999999985 	6.911642307781341e-12 	101324.9999999914
0.6043543543543537 	300.0000000000001 	8.615281630873916e-12 	101324.9999999914
0.6068568568568564 	299.9999999999839 	7.013306453035864e-12 	101324.9999999916
0.6093593593593587 	299.9999999999217 	8.27392620688783e-12 	101324.9999999916
0.6118618618618614 	299.9999999999181 	6.782707352057229e-12 	101324.9999999912
0.6143643643643638 	300.0000000000213 	8.25483191568984e-12 	101324.9999999912
0.6168668668668662 	299.9999999999943 	6.290617144037418e-12 	101324.9999999914
0.6193693693693688 	299.9999999999619 	7.353901891043096e-12 	101324.9999999913
0.6218718718718714 	299.9999999999603 	4.977819054225556e-12 	101324.9999999914
0.6243743743743737 	299.9999999999209 	7.014016224386711e-12 	101324.9999999917
0.6268768768768762 	299.999999999917 	5.79084057816497e-12 	101324.9999999915
0.629379379379379 	299.9999999999611 	6.798040118806095e-12 	101324.9999999912
0.6318818818818812 	299.9999999999777 	5.474297845163789e-12 	101324.9999999914
0.6343843843843838 	300.0000000000219 	4.798653788127054e-12 	101324.9999999918
0.6368868868868864 	299.9999999999854 	5.227800487107729e-12 	101324.9999999916
0.6393893893893888 	299.9999999999114 	4.106605041538518e-12 	101324.9999999916
0.6418918918918912 	300.0000000000029 	7.084925212604952e-12 	101324.9999999915
0.6443943943943939 	299.9999999999689 	3.887228168686673e-12 	101324.9999999913
0.6468968968968963 	299.9999999999794 	8.649479144856601e-12 	101324.9999999911
0.6493993993993988 	299.9999999999729 	4.554624253504262e-12 	101324.999999991
0.6519019019019012 	299.9999999999774 	8.329196082674653e-12 	101324.9999999913
0.6544044044044038 	299.99999999989 	5.7742592119908e-12 	101324.9999999914
0.6569069069069065 	299.9999999999407 	9.307594042197259e-12 	101324.9999999915
0.6594094094094087 	299.9999999999553 	6.554798485454178e-12 	101324.9999999918
0.6619119119119113 	299.9999999999504 	8.752391530119669e-12 	101324.9999999918
0.664414414414414 	300.0000000000074 	6.704002377399892e-12 	101324.9999999915
0.6669169169169162 	300.0000000000238 	8.48287364047026e-12 	101324.9999999915
0.6694194194194188 	299.9999999999847 	7.537692777553467e-12 	101324.9999999912
0.6719219219219214 	299.9999999999108 	9.854100555243799e-12 	101324.9999999908
0.674424424424424 	299.9999999999645 	8.446073894947229e-12 	101324.9999999907
0.6769269269269262 	299.9999999999043 	9.312138230295911e-12 	101324.9999999905
0.679429429429429 	300.0000000000023 	8.088664458083517e-12 	101324.9999999909
0.6819319319319311 	299.9999999999836 	8.69312990404951e-12 	101324.9999999909
0.6844344344344341 	299.999999999999 	7.533848044852711e-12 	101324.9999999913
0.686936936936936 	299.9999999999945 	9.420861466184906e-12 	101324.9999999914
0.6894394394394392 	299.9999999999918 	9.285855751750653e-12 	101324.9999999913
0.6919419419419413 	299.9999999999844 	9.669844811129497e-12 	101324.9999999915
0.694444444444444 	299.9999999999095 	9.86358676432469e-12 	101324.9999999918
0.6969469469469463 	299.9999999999127 	1.002154074488335e-11 	101324.999999992
0.6994494494494489 	299.9999999999163 	1.126895496812218e-11 	101324.9999999922
0.7019519519519515 	299.9999999999847 	1.036571792469561e-11 	101324.9999999925
0.7044544544544538 	299.9999999999461 	1.208767807523479e-11 	101324.9999999927
0.7069569569569564 	300.0000000000043 	9.438160091081857e-12 	101324.999999993
0.7094594594594589 	299.9999999999658 	1.169973702583716e-11 	101324.9999999931
0.7119619619619615 	299.9999999999023 	8.515053161458468e-12 	101324.9999999931
0.7144644644644638 	299.9999999999494 	1.069556433851394e-11 	101324.999999993
0.7169669669669665 	299.9999999999151 	9.420937885691953e-12 	101324.9999999927
0.7194694694694688 	299.999999999996 	1.061819374877957e-11 	101324.9999999928
0.7219719719719715 	299.9999999999899 	9.745298699409663e-12 	101324.9999999928
0.7244744744744737 	300.0000000000083 	9.33052427304218e-12 	101324.999999993
0.7269769769769764 	300 	9.504022158373838e-12 	101324.9999999932
0.7294794794794791 	299.999999999986 	8.108552384854613e-12 	101324.9999999932
0.7319819819819813 	299.9999999999771 	1.056860271370952e-11 	101324.999999993
0.7344844844844839 	299.9999999999083 	9.045011801961568e-12 	101324.999999993
0.7369869869869864 	299.9999999999454 	1.100618244351321e-11 	101324.9999999935
0.739489489489489 	299.9999999999336 	1.04602923895715e-11 	101324.9999999937
0.7419919919919914 	299.9999999999158 	1.028518519464084e-11 	101324.9999999937
0.7444944944944939 	299.9999999999789 	1.089391950062195e-11 	101324.9999999935
0.7469969969969963 	299.9999999999742 	8.930194088917062e-12 	101324.9999999933
0.7494994994994989 	299.9999999999338 	1.158723278301819e-11 	101324.9999999931
0.7520020020020015 	299.9999999999654 	8.612055606092908e-12 	101324.9999999931
0.7545045045045039 	299.9999999999615 	1.241571188543339e-11 	101324.9999999931
0.7570070070070062 	299.9999999999333 	9.01967602785497e-12 	101324.9999999932
0.7595095095095092 	299.9999999999262 	1.11557561518512e-11 	101324.9999999933
0.7620120120120112 	300.0000000000116 	1.005299982576969e-11 	101324.9999999932
0.7645145145145138 	299.9999999999901 	1.035101187891784e-11 	101324.9999999933
0.7670170170170165 	299.9999999999238 	1.049856408434509e-11 	101324.9999999934
0.7695195195195191 	299.9999999999142 	8.937319051192123e-12 	101324.9999999934
0.7720220220220213 	299.9999999999249 	1.100797407137376e-11 	101324.9999999935
0.7745245245245239 	299.9999999999158 	8.476446867979756e-12 	101324.9999999934
0.7770270270270263 	299.9999999999595 	1.06717478628079e-11 	101324.9999999935
0.779529529529529 	299.9999999999799 	9.941540042205765e-12 	101324.9999999936
0.7820320320320313 	299.9999999999656 	1.107580268245359e-11 	101324.9999999935
0.784534534534534 	300.0000000000078 	1.163791573133895e-11 	101324.9999999933
0.7870370370370364 	299.999999999994 	1.189608644709988e-11 	101324.9999999933
0.7895395395395389 	299.999999999979 	1.354568516467782e-11 	101324.9999999933
0.7920420420420413 	299.9999999999809 	1.250656565107371e-11 	101324.999999993
0.794544544544544 	299.9999999999742 	1.470324857184455e-11 	101324.999999993
0.7970470470470463 	300.0000000000027 	1.233683352456496e-11 	101324.9999999931
0.799549549549549 	299.9999999999853 	1.56762656515657e-11 	101324.9999999931
0.8020520520520515 	299.9999999999777 	1.212159189480138e-11 	101324.999999993
0.8045545545545539 	299.9999999999314 	1.442550685125955e-11 	101324.999999993
0.8070570570570563 	299.9999999999746 	1.306756578819412e-11 	101324.9999999933
0.8095595595595589 	299.9999999999453 	1.4397837855621e-11 	101324.9999999934
0.8120620620620614 	299.9999999999349 	1.469347316594724e-11 	101324.9999999935
0.8145645645645638 	300.0000000000024 	1.477145410155412e-11 	101324.9999999939
0.8170670670670666 	300.0000000000009 	1.553229336442689e-11 	101324.9999999943
0.8195695695695689 	299.9999999999786 	1.35752302855926e-11 	101324.9999999945
0.8220720720720714 	299.9999999999359 	1.596012670917345e-11 	101324.9999999944
0.8245745745745739 	299.9999999999949 	1.252571666224362e-11 	101324.9999999942
0.8270770770770765 	299.9999999999696 	1.412324604181085e-11 	101324.999999994
0.8295795795795788 	299.99999999995 	1.251448512762158e-11 	101324.9999999939
0.8320820820820815 	300.0000000000165 	1.334353967529159e-11 	101324.9999999942
0.834584584584584 	300.0000000000047 	1.278698509506026e-11 	101324.9999999944
0.8370870870870865 	299.9999999999555 	1.240787931131577e-11 	101324.9999999945
0.8395895895895891 	299.9999999999194 	1.311257240708954e-11 	101324.9999999947
0.8420920920920915 	299.9999999999449 	1.249405462149849e-11 	101324.9999999945
0.844594594594594 	299.9999999999337 	1.306548115214162e-11 	101324.9999999945
0.8470970970970964 	299.9999999999395 	1.352266676340593e-11 	101324.9999999945
0.8495995995995991 	299.9999999999945 	1.363284514549136e-11 	101324.9999999944
0.8521021021021015 	299.9999999999794 	1.462086006619072e-11 	101324.9999999944
0.8546046046046039 	299.9999999999629 	1.425484538534609e-11 	101324.9999999943
0.8571071071071066 	299.9999999999941 	1.609402655705955e-11 	101324.9999999944
0.8596096096096089 	299.9999999999567 	1.435344386548187e-11 	101324.9999999944
0.8621121121121116 	299.9999999999231 	1.810606798038636e-11 	101324.9999999943
0.8646146146146139 	299.999999999998 	1.507167339129664e-11 	101324.9999999944
0.8671171171171166 	299.999999999976 	1.655814341769771e-11 	101324.9999999946
0.8696196196196189 	299.9999999999428 	1.528282291459563e-11 	101324.9999999947
0.8721221221221216 	299.999999999977 	1.614790537037558e-11 	101324.9999999947
0.874624624624624 	300.0000000000094 	1.639485300508244e-11 	101324.999999995
0.8771271271271264 	300.0000000000027 	1.689022320499875e-11 	101324.999999995
0.879629629629629 	300.0000000000032 	1.827034084495656e-11 	101324.9999999952
0.8821321321321317 	299.9999999999834 	1.61826945145682e-11 	101324.9999999954
0.8846346346346339 	299.9999999999176 	1.8682887085576e-11 	101324.9999999953
0.8871371371371364 	299.999999999957 	1.529278291521957e-11 	101324.9999999952
0.8896396396396391 	299.9999999999644 	1.695138801569686e-11 	101324.9999999951
0.8921421421421414 	299.9999999999694 	1.575087427146301e-11 	101324.9999999951
0.8946446446446441 	299.9999999999862 	1.720566434837535e-11 	101324.9999999953
0.8971471471471464 	300.0000000000058 	1.687835007088035e-11 	101324.9999999955
0.8996496496496489 	299.9999999999759 	1.6290449111634e-11 	101324.9999999955
0.9021521521521517 	299.9999999999562 	1.676182290346564e-11 	101324.9999999952
0.9046546546546541 	299.9999999999924 	1.561526952042634e-11 	101324.9999999953
0.9071571571571564 	299.9999999999418 	1.668063999071534e-11 	101324.9999999956
0.9096596596596589 	299.9999999999387 	1.642535832857726e-11 	101324.9999999957
0.9121621621621616 	300.000000000007 	1.645114217078738e-11 	101324.9999999959
0.9146646646646639 	299.9999999999756 	1.630392393444132e-11 	101324.999999996
0.9171671671671666 	299.9999999999422 	1.605062298406694e-11 	101324.999999996
0.9196696696696689 	300.0000000000011 	1.688678981758798e-11 	101324.9999999962
0.9221721721721714 	299.9999999999977 	1.508210747368079e-11 	101324.9999999962
0.9246746746746741 	299.9999999999353 	1.802622653939237e-11 	101324.9999999959
0.9271771771771765 	299.9999999999491 	1.583090630295674e-11 	101324.9999999957
0.9296796796796791 	299.9999999999935 	1.819922734320614e-11 	101324.9999999955
0.9321821821821816 	299.9999999999589 	1.699579460166384e-11 	101324.9999999957
0.9346846846846838 	299.9999999999434 	1.823556776062177e-11 	101324.9999999962
0.9371871871871866 	300.0000000000192 	1.726947374099469e-11 	101324.9999999965
0.9396896896896891 	300.0000000000193 	1.703876675114545e-11 	101324.9999999965
0.9421921921921914 	300.000000000016 	1.703626393251295e-11 	101324.9999999965
0.9446946946946939 	299.999999999968 	1.494718223377315e-11 	101324.9999999966
0.9471971971971965 	299.9999999999151 	1.671060318416674e-11 	101324.9999999968
0.9496996996996991 	299.9999999999545 	1.393496618998708e-11 	101324.9999999969
0.9522022022022016 	299.9999999999763 	1.599701436804127e-11 	101324.9999999973
0.9547047047047038 	299.9999999999789 	1.465315291953523e-11 	101324.9999999974
0.9572072072072064 	299.9999999999616 	1.611500685495662e-11 	101324.9999999972
0.9597097097097093 	299.9999999999611 	1.590855410181633e-11 	101324.9999999969
0.9622122122122114 	299.9999999999545 	1.599523573772561e-11 	101324.999999997
0.964714714714714 	299.9999999999477 	1.753952728786199e-11 	101324.9999999971
0.9672172172172167 	299.9999999999545 	1.700252707348938e-11 	101324.9999999969
0.969719719719719 	299.9999999999848 	1.75819711475269e-11 	101324.999999997
0.9722222222222214 	299.999999999975 	1.625378105675169e-11 	101324.9999999973
0.9747247247247239 	299.9999999999696 	1.589898300335253e-11 	101324.9999999976
0.9772272272272267 	300.0000000000079 	1.519045819356407e-11 	101324.9999999979
0.9797297297297292 	299.9999999999883 	1.474474069446297e-11 	101324.9999999981
0.9822322322322313 	299.9999999999882 	1.567526613334344e-11 	101324.9999999982
0.9847347347347344 	299.9999999999894 	1.470659580185655e-11 	101324.9999999984
0.9872372372372363 	299.9999999999438 	1.825727229561282e-11 	101324.9999999982
0.9897397397397389 	299.9999999999707 	1.644897387191198e-11 	101324.9999999979
0.9922422422422417 	299.9999999999476 	1.932297444853115e-11 	101324.9999999978
0.9947447447447441 	299.999999999953 	1.828349802705063e-11 	101324.9999999978
0.9972472472472468 	299.9999999999698 	1.933500390729416e-11 	101324.9999999977
0.999749749749749 	299.9999999999602 	1.84846976937721e-11 	101324.9999999973
1.002252252252252 	299.9999999999675 	1.901554727294735e-11 	101324.9999999971
1.004754754754754 	299.9999999999911 	1.898484091544753e-11 	101324.9999999971
1.007257257257256 	299.9999999999731 	1.784569599306002e-11 	101324.9999999971
1.009759759759759 	299.9999999999562 	1.987920048113889e-11 	101324.9999999971
1.012262262262261 	299.9999999999478 	1.76786556484647e-11 	101324.9999999972
1.014764764764764 	299.9999999999217 	1.992236266962019e-11 	101324.9999999974
1.017267267267267 	299.9999999999153 	1.895794487293336e-11 	101324.9999999975
1.019769769769769 	299.9999999999619 	2.022818782094108e-11 	101324.9999999976
1.022272272272272 	299.9999999999763 	1.99656071159587e-11 	101324.9999999976
1.024774774774774 	299.9999999999824 	2.031262068244603e-11 	101324.9999999976
1.027277277277277 	299.9999999999764 	2.123083631768667e-11 	101324.9999999975
1.029779779779779 	300.0000000000101 	2.005760755572819e-11 	101324.9999999975
1.032282282282282 	300.0000000000099 	2.076183525893189e-11 	101324.9999999977
1.034784784784784 	300.0000000000007 	1.990970779137738e-11 	101324.9999999979
1.037287287287286 	299.9999999999698 	2.068326837876753e-11 	101324.999999998
1.039789789789789 	299.9999999999706 	2.08989827517005e-11 	101324.9999999981
1.042292292292291 	300.0000000000055 	2.161402774200669e-11 	101324.9999999983
1.044794794794794 	300.0000000000315 	2.219914277075689e-11 	101324.9999999986
1.047297297297296 	300.0000000000569 	2.095012247580723e-11 	101324.9999999987
1.049799799799799 	299.9999999999964 	2.273647877692156e-11 	101324.9999999986
1.052302302302302 	299.9999999999478 	2.009090589517977e-11 	101324.9999999985
1.054804804804804 	299.9999999999255 	2.211276368415437e-11 	101324.9999999987
1.057307307307306 	299.9999999999158 	2.079723357870866e-11 	101324.9999999987
1.059809809809809 	299.9999999999559 	2.209814413073727e-11 	101324.9999999987
1.062312312312312 	299.9999999999507 	2.148955410734848e-11 	101324.9999999987
1.064814814814814 	299.9999999999457 	2.172049047437951e-11 	101324.9999999988
1.067317317317317 	299.9999999999196 	2.096027548171501e-11 	101324.9999999988
1.069819819819819 	299.9999999999183 	2.075957433478489e-11 	101324.9999999988
1.072322322322321 	299.9999999999946 	2.357235539695771e-11 	101324.9999999989
1.074824824824824 	300.0000000000302 	2.166283261825873e-11 	101324.9999999988
1.077327327327327 	300.0000000000502 	2.311375865000702e-11 	101324.9999999987
1.079829829829829 	300.0000000000522 	2.124172719807019e-11 	101324.9999999983
1.082332332332332 	300.0000000000095 	2.188819527806738e-11 	101324.9999999981
1.084834834834834 	299.99999999998 	2.117453069736016e-11 	101324.9999999979
1.087337337337337 	299.9999999999384 	2.121224919898578e-11 	101324.9999999977
1.089839839839839 	299.9999999999223 	2.263931798354582e-11 	101324.9999999978
1.092342342342342 	299.9999999999669 	2.124142452603517e-11 	101324.9999999981
1.094844844844844 	299.9999999999657 	2.333122286011042e-11 	101324.9999999981
1.097347347347347 	299.9999999999316 	2.225863177058114e-11 	101324.9999999981
1.099849849849849 	299.9999999999135 	2.561801353711777e-11 	101324.9999999981
1.102352352352352 	299.9999999999481 	2.297222471124332e-11 	101324.9999999983
1.104854854854854 	299.9999999999784 	2.539067391785243e-11 	101324.9999999985
1.107357357357357 	299.9999999999627 	2.373874420748633e-11 	101324.9999999983
1.109859859859859 	299.9999999999469 	2.578587075029428e-11 	101324.999999998
1.112362362362362 	300.0000000000136 	2.452416075031272e-11 	101324.9999999979
1.114864864864865 	300.0000000000164 	2.415705797640348e-11 	101324.9999999981
1.117367367367367 	299.9999999999601 	2.45068500823183e-11 	101324.9999999983
1.119869869869869 	299.9999999999177 	2.253532552172727e-11 	101324.9999999983
1.122372372372372 	299.9999999999563 	2.470625537352396e-11 	101324.9999999985
1.124874874874874 	299.9999999999642 	2.403144545798697e-11 	101324.9999999986
1.127377377377377 	299.9999999999809 	2.530396487472316e-11 	101324.9999999988
1.129879879879879 	300.0000000000281 	2.402438459190305e-11 	101324.9999999992
1.132382382382382 	300.0000000000424 	2.413664119126972e-11 	101324.9999999998
1.134884884884884 	300.0000000000119 	2.305260994518941e-11 	101325.0000000001
1.137387387387387 	300.0000000000243 	2.255145611998357e-11 	101324.9999999999
1.139889889889889 	299.9999999999641 	2.359930088063587e-11 	101324.9999999995
1.142392392392392 	299.9999999999525 	2.178635173233165e-11 	101324.9999999997
1.144894894894894 	300.0000000000251 	2.372611401379337e-11 	101324.9999999998
1.147397397397397 	300.0000000000061 	2.268378844738122e-11 	101324.9999999999
1.149899899899899 	299.999999999935 	2.378973472081335e-11 	101325.0000000002
1.152402402402402 	299.9999999999201 	2.325357118500112e-11 	101325.0000000003
1.154904904904904 	299.9999999999694 	2.474127553272561e-11 	101325
1.157407407407407 	299.9999999999696 	2.44953982045146e-11 	101324.9999999997
1.159909909909909 	299.9999999999337 	2.495649734230092e-11 	101324.9999999997
1.162412412412412 	299.9999999999251 	2.663336131856065e-11 	101324.9999999995
1.164914914914914 	299.9999999999626 	2.492210060240548e-11 	101324.9999999992
1.167417417417417 	299.999999999955 	2.716005725205066e-11 	101324.999999999
1.169919919919919 	300.0000000000027 	2.603100479965942e-11 	101324.9999999993
1.172422422422422 	300.0000000000502 	2.739247953232299e-11 	101324.9999999994
1.174924924924925 	299.9999999999923 	2.600821385694644e-11 	101324.9999999994
1.177427427427427 	299.9999999999611 	2.629845547027501e-11 	101324.9999999994
1.179929929929929 	300.0000000000213 	2.675777939035704e-11 	101324.9999999992
1.182432432432432 	300.0000000000551 	2.447810819873731e-11 	101324.9999999991
1.184934934934934 	300.0000000000168 	2.573287545530613e-11 	101324.9999999992
1.187437437437437 	299.9999999999878 	2.432378870773927e-11 	101324.9999999995
1.189939939939939 	299.9999999999766 	2.498876610309567e-11 	101324.9999999996
1.192442442442442 	299.9999999999307 	2.385893779702592e-11 	101324.9999999999
1.194944944944944 	299.9999999999312 	2.580396115425414e-11 	101324.9999999999
1.197447447447447 	299.9999999999964 	2.522325219683324e-11 	101324.9999999996
1.199949949949949 	300.0000000000146 	2.560726977027427e-11 	101324.9999999997
1.202452452452452 	299.9999999999541 	2.715354810630104e-11 	101324.9999999999
1.204954954954955 	299.9999999999463 	2.560514431790787e-11 	101325.0000000001
1.207457457457457 	299.9999999999795 	2.705700972190849e-11 	101325.0000000003
1.20995995995996 	299.9999999999766 	2.604552693352703e-11 	101325.0000000003
1.212462462462462 	299.9999999999928 	2.742319078547151e-11 	101325
1.214964964964964 	299.999999999991 	2.640871075023461e-11 	101324.9999999999
1.217467467467467 	299.9999999999798 	2.80881972176799e-11 	101325.0000000002
1.219969969969969 	299.999999999965 	2.721789530970117e-11 	101325.0000000003
1.222472472472472 	300.0000000000283 	2.74826089571383e-11 	101325.0000000003
1.224974974974975 	300.0000000000617 	2.834250300646548e-11 	101325.0000000003
1.227477477477477 	299.9999999999967 	2.637970491314307e-11 	101325.0000000003
1.229979979979979 	299.9999999999782 	2.777078521225595e-11 	101325.0000000003
1.232482482482482 	299.9999999999495 	2.638724129722675e-11 	101325.0000000001
1.234984984984984 	299.9999999999517 	2.8215022326232e-11 	101325.0000000001
1.237487487487487 	299.9999999999801 	2.648564315644302e-11 	101325.0000000003
1.239989989989989 	299.9999999999811 	2.725296447326501e-11 	101325.0000000002
1.242492492492492 	300.0000000000186 	2.804042667354474e-11 	101325
1.244994994994994 	299.9999999999843 	2.654751339417087e-11 	101324.9999999999
1.247497497497497 	299.9999999999808 	2.846928590821349e-11 	101325
1.249999999999999 	300 	2.77494771455997e-11 	101325.0000000002
