-1.25 	300 	0.03047685363690954 	101312.5655056418
-1.247497497497497 	299.9890168288567 	0.02903744477502241 	101313.2217492606
-1.244994994994995 	299.9905790552048 	0.02710921641370376 	101313.8823325961
-1.242492492492492 	299.9911572555018 	0.02568531795700128 	101314.5461484294
-1.23998998998999 	299.9917157588677 	0.02397475384203789 	101315.2070988929
-1.237487487487487 	299.9922820707741 	0.02236851605502001 	101315.8765775599
-1.234984984984985 	299.9928529094119 	0.02072031641657035 	101316.5513809823
-1.232482482482482 	299.9934179063462 	0.01908060319491749 	101317.219279946
-1.22997997997998 	299.993980497571 	0.01745084876436408 	101317.8843423387
-1.227477477477477 	299.9945456914111 	0.0158152559464732 	101318.5524875384
-1.224974974974975 	299.9951127194191 	0.01416700159435624 	101319.2228024942
-1.222472472472472 	299.9956831518181 	0.01251066381426956 	101319.8971448315
-1.21996996996997 	299.9962609974386 	0.01083708887566696 	101320.5802570951
-1.217467467467467 	299.9968433238452 	0.009149235515429205 	101321.2686651426
-1.214964964964965 	299.9974222568424 	0.007478245189259537 	101321.9530590314
-1.212462462462462 	299.9979923909472 	0.005829350102377878 	101322.6270544961
-1.20995995995996 	299.9985553705155 	0.004195180127029297 	101323.2925984731
-1.207457457457457 	299.9991198217893 	0.002560379808693726 	101323.9598899742
-1.204954954954955 	299.9996894050876 	0.0009081312231936801 	101324.6332552377
-1.202452452452452 	300.0002645824448 	0.0008611010614345879 	101325.3132337227
-1.19994994994995 	300.0008420212424 	0.002425991728330908 	101325.9958843399
-1.197447447447447 	300.0014173009184 	0.004092753073082118 	101326.6759864942
-1.194944944944945 	300.0019914240059 	0.00575608167227351 	101327.3547250049
-1.192442442442442 	300.002564773829 	0.007417114926158723 	101328.0325526251
-1.18993993993994 	300.0031374830182 	0.009076249785854529 	101328.7096261805
-1.187437437437437 	300.003709545929 	0.01073348604922645 	101329.3859388537
-1.184934934934935 	300.0042808940833 	0.0123886378803694 	101330.0614095955
-1.182432432432432 	300.0048514348052 	0.01404144925467214 	101330.7359287307
-1.17992992992993 	300.0054210669788 	0.01569163865888099 	101331.4093770142
-1.177427427427427 	300.0059896871505 	0.01733891082418709 	101332.0816326714
-1.174924924924925 	300.0065571925901 	0.01898296374141013 	101332.7525735656
-1.172422422422422 	300.0071234811916 	0.02062349598265806 	101333.4220776613
-1.16991991991992 	300.0076884498024 	0.0222602071696153 	101334.0900229864
-1.167417417417417 	300.0082519933637 	0.02389279473859852 	101334.7562875144
-1.164914914914915 	300.0088140068782 	0.02552095619106679 	101335.4207491777
-1.162412412412412 	300.0093743884798 	0.02714439253679301 	101336.0832859911
-1.15990990990991 	300.0099330386465 	0.02876280623104293 	101336.7437761878
-1.157407407407407 	300.0104898565652 	0.03037589838265077 	101337.402098311
-1.154904904904904 	300.0110447375598 	0.03198337152356195 	101338.058131328
-1.152402402402403 	300.0115975751663 	0.03358493151210217 	101338.7117546446
-1.1498998998999 	300.0121482654092 	0.03518028393666599 	101339.3628481007
-1.147397397397397 	300.0126967085184 	0.03676913373836393 	101340.0112919758
-1.144894894894895 	300.0132428079683 	0.03835118921029788 	101340.6569670243
-1.142392392392392 	300.013786467443 	0.03992616116891021 	101341.2997545034
-1.13988988988989 	300.0143275886228 	0.04149375917402871 	101341.9395362109
-1.137387387387387 	300.0148660708563 	0.04305369420230497 	101342.5761945519
-1.134884884884885 	300.0154018124113 	0.04460568064958596 	101343.2096125006
-1.132382382382382 	300.015934712469 	0.04614943352460499 	101343.8396736144
-1.12987987987988 	300.0164646714138 	0.04768466824018654 	101344.4662620288
-1.127377377377377 	300.0169915912447 	0.04921110335056801 	101345.089262578
-1.124874874874875 	300.0175153753139 	0.05072845949994152 	101345.708560855
-1.122372372372372 	300.0180359277912 	0.05223645675588615 	101346.3240431083
-1.11986986986987 	300.0185531536354 	0.05373481795305325 	101346.9355962343
-1.117367367367367 	300.0190669581453 	0.05522326939652324 	101347.5431077722
-1.114864864864865 	300.0195772472958 	0.05670153726025621 	101348.1464660576
-1.112362362362362 	300.0200839276811 	0.05816934927590799 	101348.7455602839
-1.10985985985986 	300.0205869064226 	0.0596264368670604 	101349.3402804955
-1.107357357357357 	300.0210860915078 	0.06107253289718495 	101349.930517533
-1.104854854854855 	300.0215813912004 	0.06250737123376746 	101350.5161629503
-1.102352352352353 	300.0220727146079 	0.06393068898664112 	101351.0971091675
-1.09984984984985 	300.0225599716807 	0.06534222547045658 	101351.6732494631
-1.097347347347347 	300.0230430728498 	0.06674172075266356 	101352.2444780537
-1.094844844844845 	300.0235219295107 	0.06812891812999514 	101352.8106900885
-1.092342342342342 	300.0239964537821 	0.06950356389176453 	101353.3717815372
-1.08983983983984 	300.0244665585645 	0.07086540479007147 	101353.9276493131
-1.087337337337337 	300.0249321573802 	0.07221419047019295 	101354.4781911758
-1.084834834834835 	300.0253931646746 	0.07354967428778925 	101355.0233058904
-1.082332332332332 	300.0258494959367 	0.07487161041966175 	101355.5628933216
-1.07982982982983 	300.0263010672114 	0.07617975550442861 	101356.0968543015
-1.077327327327327 	300.0267477956356 	0.07747387034438664 	101356.6250907886
-1.074824824824825 	300.0271895992694 	0.07875371750122784 	101357.147505766
-1.072322322322323 	300.0276263970655 	0.08001906186175761 	101357.6640033488
-1.06981981981982 	300.0280581089967 	0.08126967180583643 	101358.1744887861
-1.067317317317317 	300.0284846556739 	0.08250531788223518 	101358.678868314
-1.064814814814815 	300.028905959143 	0.08372577331586298 	101359.1770494893
-1.062312312312312 	300.0293219421659 	0.08493081507759867 	101359.6689409432
-1.05980980980981 	300.0297325283006 	0.08612022238685652 	101360.1544523671
-1.057307307307307 	300.0301376424708 	0.08729377634889017 	101360.6334947517
-1.054804804804805 	300.0305372103044 	0.08845126209579182 	101361.1059800859
-1.052302302302302 	300.0309311585373 	0.08959246829132921 	101361.5718217344
-1.0497997997998 	300.0313194149361 	0.09071718523569604 	101362.0309343703
-1.047297297297297 	300.0317019084447 	0.09182520662435818 	101362.4832336579
-1.044794794794795 	300.0320785690803 	0.09291632989241988 	101362.9286366383
-1.042292292292292 	300.0324493272592 	0.09399035430267202 	101363.3670614103
-1.03978978978979 	300.032814114879 	0.09504708297529137 	101363.7984274818
-1.037287287287287 	300.0331728658638 	0.09608632312018955 	101364.2226560763
-1.034784784784785 	300.0335255145374 	0.09710788361496003 	101364.6396692055
-1.032282282282283 	300.0338719953945 	0.09811157707170205 	101365.0493901546
-1.02977977977978 	300.0342122444811 	0.09909721984737063 	101365.4517437493
-1.027277277277277 	300.034546200254 	0.100064630303534 	101365.8466559502
-1.024774774774775 	300.0348738023392 	0.1010136315882565 	101366.2340546043
-1.022272272272272 	300.0351949896351 	0.101944050668131 	101366.6138687587
-1.01976976976977 	300.035509701827 	0.1028557160434642 	101366.9860283373
-1.017267267267267 	300.0358178826368 	0.1037484605591655 	101367.3504652349
-1.014764764764765 	300.0361194773767 	0.1046221205898796 	101367.7071123325
-1.012262262262262 	300.0364144291389 	0.1054765347048038 	101368.0559036696
-1.00975975975976 	300.0367026811916 	0.1063115466781835 	101368.3967756507
-1.007257257257257 	300.0369841807692 	0.1071270042002494 	101368.7296657343
-1.004754754754755 	300.0372588802154 	0.1079227577067041 	101369.0545128499
-1.002252252252252 	300.0375267319102 	0.1086986618819009 	101369.3712579341
-0.9997497497497498 	300.0377876823135 	0.1094545737046786 	101369.6798421237
-0.9972472472472473 	300.0380416777524 	0.1101903531069281 	101369.9802081893
-0.9947447447447449 	300.0382886729845 	0.1109058654077355 	101370.2723014533
-0.9922422422422421 	300.0385286295291 	0.1116009788589594 	101370.5560676486
-0.9897397397397399 	300.0387615078141 	0.1122755652908978 	101370.8314544502
-0.9872372372372376 	300.0389872605851 	0.1129295020866505 	101371.0984120871
-0.9847347347347346 	300.0392058363081 	0.1135626690173308 	101371.3568909413
-0.9822322322322323 	300.039417192157 	0.1141749498501655 	101371.6068436539
-0.9797297297297296 	300.0396212990192 	0.1147662343630465 	101371.8482256548
-0.9772272272272275 	300.0398181302255 	0.1153364136913221 	101372.0809918314
-0.9747247247247248 	300.0400076506475 	0.1158853815737061 	101372.3050987468
-0.9722222222222224 	300.0401898154882 	0.1164130378316364 	101372.5205060759
-0.9697197197197196 	300.0403645773805 	0.1169192845341366 	101372.7271732305
-0.9672172172172175 	300.040531901099 	0.1174040276502003 	101372.9250615742
-0.9647147147147147 	300.0406917682869 	0.1178671803208533 	101373.1141363463
-0.9622122122122124 	300.0408441641561 	0.1183086567489026 	101373.2943621552
-0.9597097097097099 	300.0409890656859 	0.1187283732011451 	101373.4657042815
-0.9572072072072073 	300.0411264388798 	0.1191262536705884 	101373.6281322999
-0.9547047047047047 	300.0412562422997 	0.1195022242339556 	101373.7816159982
-0.9522022022022023 	300.0413784386699 	0.1198562128968096 	101373.9261252568
-0.9496996996996998 	300.0414930077242 	0.1201881572124763 	101374.0616349487
-0.9471971971971973 	300.0415999423095 	0.1204979981446313 	101374.188121441
-0.9446946946946947 	300.041699236778 	0.1207856751664359 	101374.3055593981
-0.9421921921921923 	300.0417908818496 	0.1210511353307157 	101374.4139270408
-0.93968968968969 	300.0418748589064 	0.1212943319506421 	101374.5132059292
-0.9371871871871872 	300.0419511385257 	0.121515216876642 	101374.603376069
-0.9346846846846848 	300.0420196908961 	0.1217137467797926 	101374.6844191772
-0.9321821821821823 	300.0420804952854 	0.1218898876958653 	101374.7563220073
-0.9296796796796799 	300.0421335397929 	0.1220436074910334 	101374.81907176
-0.9271771771771771 	300.0421788195016 	0.1221748742327788 	101374.8726546051
-0.9246746746746748 	300.0422163375063 	0.1222836636628204 	101374.9170605774
-0.9221721721721724 	300.0422461011053 	0.1223699598015063 	101374.9522839337
-0.9196696696696698 	300.0422681128243 	0.1224337468618294 	101374.9783181398
-0.9171671671671672 	300.0422823686768 	0.1224750083808868 	101374.9951556599
-0.9146646646646649 	300.0422888636871 	0.1224937377786659 	101375.0027938937
-0.9121621621621623 	300.0422875936565 	0.1224899356982112 	101375.0012344949
-0.9096596596596597 	300.042278547905 	0.122463594746813 	101374.9904735717
-0.9071571571571573 	300.0422617184089 	0.1224147095626266 	101374.9705072176
-0.9046546546546547 	300.0422371087338 	0.122343298063008 	101374.941343754
-0.9021521521521524 	300.0422047269755 	0.1222493845563188 	101374.9029959507
-0.8996496496496498 	300.0421645717073 	0.1221329725146519 	101374.8554632483
-0.8971471471471473 	300.0421166431151 	0.1219940713799478 	101374.7987458701
-0.894644644644645 	300.0420609615836 	0.1218327289541483 	101374.7328672791
-0.892142142142142 	300.0419975453773 	0.1216489856983716 	101374.6578478854
-0.8896396396396397 	300.0419263892371 	0.1214428387926369 	101374.5736802354
-0.8871371371371374 	300.0418475002318 	0.1212143151428201 	101374.4803716303
-0.8846346346346349 	300.0417609183927 	0.1209635055455618 	101374.3779683093
-0.8821321321321324 	300.0416666634194 	0.1206904572491797 	101374.2664927613
-0.8796296296296297 	300.0415647179603 	0.1203951496951723 	101374.1459239162
-0.8771271271271271 	300.0414551013909 	0.1200776435548859 	101374.016284291
-0.8746246246246248 	300.0413378803456 	0.1197380891667695 	101373.8776523206
-0.8721221221221224 	300.0412130703568 	0.119376528585259 	101373.7300462173
-0.8696196196196196 	300.0410806337979 	0.1189929068692723 	101373.573421376
-0.8671171171171175 	300.0409406071855 	0.1185873283373707 	101373.407820922
-0.8646146146146148 	300.0407930944886 	0.118160024934605 	101373.2333678547
-0.8621121121121121 	300.0406381046714 	0.1177110258207514 	101373.0500725574
-0.8596096096096097 	300.0404755644836 	0.1172402060515532 	101372.8578484858
-0.857107107107107 	300.0403055249259 	0.1167477105160174 	101372.6567562243
-0.8546046046046049 	300.0401281479925 	0.1162338985779661 	101372.4469871731
-0.8521021021021022 	300.039943446006 	0.1156988034201415 	101372.2285558413
-0.8495995995995997 	300.0397512835527 	0.1151421693877774 	101372.0013022358
-0.8470970970970974 	300.0395517030409 	0.114564136209906 	101371.7652766869
-0.8445945945945946 	300.0393449563034 	0.1139652662825381 	101371.5207769658
-0.8420920920920922 	300.039131104303 	0.113345690782765 	101371.2678749755
-0.8395895895895897 	300.0389099175992 	0.112704942798344 	101371.0062995795
-0.8370870870870872 	300.0386813538627 	0.1120429934471735 	101370.7360009434
-0.8345845845845846 	300.0384457740316 	0.1113606676155003 	101370.457405995
-0.8320820820820823 	300.0382034032551 	0.1106584491264306 	101370.1707808156
-0.8295795795795798 	300.0379539343065 	0.1099356715485544 	101369.8757618779
-0.8270770770770772 	300.0376970809643 	0.1091917761059508 	101369.5720110677
-0.8245745745745746 	300.0374332240175 	0.1084276792658 	101369.259979156
-0.8220720720720721 	300.0371629406641 	0.1076446619668366 	101368.9403484067
-0.8195695695695699 	300.0368860585314 	0.1068423089582542 	101368.6129145501
-0.817067067067067 	300.0366018825404 	0.1060191106924889 	101368.2768559147
-0.8145645645645651 	300.0363104287101 	0.1051752198413619 	101367.9321920924
-0.8120620620620621 	300.0360126597836 	0.1043128668146514 	101367.5800617015
-0.8095595595595597 	300.0357091011425 	0.1034331883862469 	101367.221085398
-0.8070570570570572 	300.0353989167496 	0.1025342428665592 	101366.8542741344
-0.8045545545545546 	300.0350811186831 	0.101613872240298 	101366.4784602406
-0.8020520520520523 	300.034756292499 	0.1006735792790591 	101366.0943372367
-0.7995495495495494 	300.0344260818617 	0.0997171836017727 	101365.7038487088
-0.7970470470470474 	300.0340908466222 	0.09874540500918336 	101365.3074189015
-0.7945445445445446 	300.0337489000115 	0.09775426833478831 	101364.9030526191
-0.7920420420420423 	300.0333988085295 	0.09674057700924842 	101364.4890560509
-0.7895395395395397 	300.0330417512541 	0.09570731052658812 	101364.0668251167
-0.7870370370370371 	300.0326803788085 	0.09466073807930693 	101363.6394938469
-0.7845345345345348 	300.0323152792739 	0.09360207615781228 	101363.2077555208
-0.7820320320320323 	300.0319438080608 	0.09252493345744014 	101362.7684818633
-0.7795295295295296 	300.0315633238578 	0.09142317159366706 	101362.3185514075
-0.7770270270270272 	300.0311749739271 	0.09029983226133063 	101361.8593233786
-0.7745245245245247 	300.0307829162671 	0.08916501550567331 	101361.3957147641
-0.7720220220220222 	300.0303893790287 	0.08802390637226867 	101360.9303574518
-0.7695195195195199 	300.0299914971359 	0.08686932880268305 	101360.4598610034
-0.767017017017017 	300.029584232082 	0.08568907541396539 	101359.9782685104
-0.7645145145145147 	300.0291664463602 	0.08448070524313939 	101359.4842390342
-0.7620120120120122 	300.0287430058062 	0.08325643288482694 	101358.9835288801
-0.7595095095095097 	300.0283199170792 	0.08203098495036062 	101358.4832385975
-0.7570070070070072 	300.0278975126782 	0.0808048701018384 	101357.9837563827
-0.7545045045045048 	300.0274693693519 	0.07956195695939826 	101357.4774847412
-0.7520020020020022 	300.0270287182726 	0.0782855638298879 	101356.9564231844
-0.7494994994994997 	300.0265759331356 	0.0769770275670129 	101356.4210192781
-0.7469969969969972 	300.0261190932026 	0.07565686401631987 	101355.880829001
-0.7444944944944945 	300.0256664838427 	0.07434581354782858 	101355.3456458173
-0.7419919919919924 	300.0252182095256 	0.07304380288763072 	101354.8155865425
-0.7394894894894897 	300.024765309523 	0.07172790414642542 	101354.2800524447
-0.7369869869869872 	300.0242976735921 	0.0703725423622189 	101353.727092269
-0.7344844844844846 	300.0238136497621 	0.06897389117744263 	101353.1547604473
-0.7319819819819822 	300.023322438143 	0.0675558061329922 	101352.5739403222
-0.7294794794794797 	300.0228367474398 	0.06615092183778291 	101351.9996568668
-0.7269769769769773 	300.0223619118266 	0.06477272345092282 	101351.4382092987
-0.7244744744744747 	300.0218908284392 	0.0634025717334335 	101350.8811920728
-0.721971971971972 	300.0214091080408 	0.0620030947757348 	101350.3115909385
-0.7194694694694695 	300.0209063964542 	0.06054758925348602 	101349.717169988
-0.7169669669669674 	300.0203849361888 	0.05904224253966554 	101349.1005901735
-0.7144644644644647 	300.0198586483554 	0.05752367261476213 	101348.4783160542
-0.711961961961962 	300.019343336557 	0.05603331957293377 	101347.8690299866
-0.7094594594594597 	300.0188452890434 	0.05458756018263151 	101347.2801577508
-0.7069569569569573 	300.0183564919727 	0.0531650431026401 	101346.7022153729
-0.7044544544544545 	300.0178596329603 	0.05171983948890154 	101346.1147312468
-0.7019519519519523 	300.0173393267399 	0.05021119874328007 	101345.4995204853
-0.6994494494494495 	300.0167921828065 	0.04863032361266016 	101344.8525846546
-0.6969469469469471 	300.0162293972429 	0.04700729078053307 	101344.187169653
-0.6944444444444446 	300.015670414263 	0.04539420958467643 	101343.5262666779
-0.6919419419419421 	300.0151317265847 	0.04383533523372347 	101342.8893692906
-0.6894394394394396 	300.0146175476559 	0.04234196523603925 	101342.2814490618
-0.6869369369369374 	300.0141174404174 	0.04088583959581892 	101341.6901570403
-0.6844344344344344 	300.0136116693832 	0.03941343040568814 	101341.0921568941
-0.6819319319319321 	300.0130810284288 	0.03787257911590111 	101340.4647454771
-0.6794294294294296 	300.0125161465534 	0.03623787721610536 	101339.7968527227
-0.6769269269269272 	300.0119220086376 	0.03452305543976143 	101339.0943824624
-0.6744244244244245 	300.0113158980675 	0.03277545628908945 	101338.3777749882
-0.6719219219219222 	300.0107200364361 	0.03105605579584823 	101337.673302777
-0.6694194194194195 	300.0101525005655 	0.02941465016769208 	101337.0023315301
-0.6669169169169172 	300.0096203455411 	0.02787079647049115 	101336.3731929961
-0.6644144144144146 	300.0091172755508 	0.0264071506886433 	101335.778434734
-0.661911911911912 	300.0086261131481 	0.02497601722448074 	101335.1977423613
-0.6594094094094097 	300.0081245037983 	0.02351503740656585 	101334.6046858036
-0.656906906906907 	300.0075915740242 	0.02196580965874325 	101333.9745908052
-0.6544044044044046 	300.0070135971194 	0.02028987222471153 	101333.2912358123
-0.6519019019019021 	300.0063874044931 	0.01847838066982202 	101332.5508833483
-0.6493993993993996 	300.0057210217878 	0.01655395770913291 	101331.7630297943
-0.6468968968968971 	300.0050316957178 	0.01456519413535569 	101330.9480707019
-0.6443943943943946 	300.0043420498256 	0.01257591674727526 	101330.1327547251
-0.6418918918918921 	300.0036755106214 	0.01065253770440247 	101329.3447760654
-0.6393893893893897 	300.0030524317947 	0.008853265961137526 	101328.6081937098
-0.6368868868868871 	300.0024879021291 	0.007221621905120281 	101327.940841054
-0.6343843843843846 	300.0019910609756 	0.005784222897823097 	101327.3535176145
-0.6318818818818821 	300.0015654230544 	0.004551573601864891 	101326.850374056
-0.6293793793793795 	300.0012098133442 	0.00352066046216617 	101326.4300173774
-0.6268768768768773 	300.0009195795263 	0.002678396550645635 	101326.0869451465
-0.6243743743743745 	300.0006877998225 	0.002005168956644478 	101325.8130138679
-0.6218718718718721 	300.000506510779 	0.001478020715723769 	101325.5987478126
-0.6193693693693696 	300.0003674894319 	0.001073211373248707 	101325.4343770667
-0.6168668668668671 	300.0002627687262 	0.0007680264991052373 	101325.3105816594
-0.6143643643643645 	300.0001852550247 	0.0005419371936039104 	101325.2189619012
-0.6118618618618621 	300.0001288360738 	0.0003772159085743577 	101325.1522764285
-0.6093593593593596 	300.0000884198819 	0.0002591034407980919 	101325.1045061274
-0.6068568568568571 	300.0000599057552 	0.0001756954455985065 	101325.0708038986
-0.6043543543543546 	300.0000400819548 	0.0001176541768594184 	101325.0473734255
-0.6018518518518521 	300.0000264936901 	7.78329733753406e-05 	101325.0313130492
-0.5993493493493496 	300.000017305733 	5.088279434950297e-05 	101325.0204536414
-0.5968468468468471 	300.0000111743905 	3.288220570514134e-05 	101325.0132069316
-0.5943443443443446 	300.0000071345706 	2.101146498805431e-05 	101325.0084322139
-0.591841841841842 	300.0000045053702 	1.327922126163982e-05 	101325.0053248224
-0.5893393393393397 	300.0000028146602 	8.302704782630232e-06 	101325.0033266112
-0.5868368368368371 	300.0000017400911 	5.13690121928235e-06 	101325.002056537
-0.5843343343343346 	300.0000010647677 	3.145701317244687e-06 	101325.0012583682
-0.5818318318318321 	300.0000006450218 	1.907047685462589e-06 	101325.0007622716
-0.5793293293293297 	300.0000003868688 	1.14478981414697e-06 	101325.0004572274
-0.5768268268268271 	300.0000002298387 	6.806016714478347e-07 	101325.0002716188
-0.5743243243243245 	300.0000001352732 	4.008207415003285e-07 	101325.0001598357
-0.5718218218218221 	300.0000000788755 	2.338681789266078e-07 	101325.0000931858
-0.5693193193193196 	300.000000045603 	1.352187208350713e-07 	101325.0000538339
-0.5668168168168171 	300.0000000260706 	7.748556248400559e-08 	101325.0000308217
-0.5643143143143147 	300.0000000147513 	4.401349294404144e-08 	101325.0000174905
-0.5618118118118121 	300.0000000083466 	2.478777753014281e-08 	101325.0000098389
-0.5593093093093094 	300.0000000046847 	1.384222745102924e-08 	101325.0000054868
-0.5568068068068072 	300.0000000025934 	7.668033515473152e-09 	101325.0000030329
-0.5543043043043046 	300.0000000014352 	4.212715009724973e-09 	101325.0000016612
-0.551801801801802 	300.0000000007232 	2.297505151402928e-09 	101325.000000901
-0.5492992992992995 	300.0000000004121 	1.241639669538485e-09 	101325.0000004831
-0.5467967967967969 	300.0000000002371 	6.674511735003e-10 	101325.000000255
-0.5442942942942947 	300.0000000001272 	3.54859951789955e-10 	101325.0000001315
-0.5417917917917919 	300.0000000000225 	1.893295720755142e-10 	101325.0000000654
-0.5392892892892895 	299.9999999999602 	9.773867471116506e-11 	101325.0000000301
-0.536786786786787 	299.9999999999674 	5.289463267377947e-11 	101325.0000000115
-0.5342842842842846 	299.999999999964 	2.524699803426376e-11 	101325.0000000016
-0.531781781781782 	299.9999999999328 	1.580583759367815e-11 	101324.9999999966
-0.5292792792792794 	299.9999999999254 	5.170022996121363e-12 	101324.9999999942
-0.526776776776777 	299.9999999999105 	6.887110285377927e-12 	101324.9999999932
-0.5242742742742745 	299.9999999999769 	3.350498776734601e-12 	101324.9999999925
-0.521771771771772 	300.0000000000242 	7.018160564806402e-12 	101324.9999999922
-0.5192692692692695 	299.9999999999597 	4.320019383828536e-12 	101324.999999992
-0.516766766766767 	300.0000000000038 	7.179521980335687e-12 	101324.9999999917
-0.5142642642642645 	299.9999999999775 	3.928565910421901e-12 	101324.9999999915
-0.511761761761762 	299.999999999953 	5.941895921828673e-12 	101324.9999999914
-0.5092592592592596 	299.9999999999681 	3.347636625928527e-12 	101324.9999999911
-0.506756756756757 	299.9999999999339 	4.888236988783388e-12 	101324.9999999908
-0.5042542542542544 	299.9999999999915 	2.232723534158098e-12 	101324.9999999908
-0.5017517517517521 	300.0000000000254 	4.540388255559394e-12 	101324.9999999909
-0.4992492492492494 	300.0000000000315 	1.604218942733707e-12 	101324.9999999913
-0.496746746746747 	299.9999999999863 	3.382891603247998e-12 	101324.9999999916
-0.4942442442442445 	299.9999999999458 	1.035110992510613e-12 	101324.9999999919
-0.4917417417417421 	299.9999999999428 	4.107433155635375e-12 	101324.9999999918
-0.4892392392392395 	299.9999999999571 	1.970883981075674e-12 	101324.9999999916
-0.486736736736737 	299.9999999999604 	4.61456914629235e-12 	101324.9999999915
-0.4842342342342345 	299.9999999999258 	2.178027188194362e-12 	101324.9999999916
-0.481731731731732 	300.0000000000297 	5.499865228909464e-12 	101324.9999999914
-0.4792292292292296 	300.0000000000188 	2.945345334046804e-12 	101324.9999999915
-0.4767267267267268 	299.9999999999455 	7.020725713708965e-12 	101324.9999999914
-0.4742242242242246 	299.9999999999886 	2.086165542674181e-12 	101324.9999999915
-0.471721721721722 	299.9999999999509 	5.734532509645083e-12 	101324.9999999917
-0.4692192192192195 	299.9999999999665 	1.859174784517894e-12 	101324.9999999918
-0.4667167167167169 	299.9999999999119 	4.154723349753824e-12 	101324.9999999917
-0.4642142142142145 	299.9999999999955 	1.32532783745032e-12 	101324.9999999918
-0.461711711711712 	300.0000000000149 	4.404934740389243e-12 	101324.999999992
-0.4592092092092094 	300.0000000000124 	2.42212235766344e-12 	101324.9999999922
-0.456706706706707 	300.0000000000488 	4.142029587385134e-12 	101324.9999999921
-0.4542042042042045 	299.9999999999383 	2.625400948546631e-12 	101324.9999999918
-0.451701701701702 	299.9999999999534 	4.131664856854433e-12 	101324.9999999917
-0.4491991991991995 	299.9999999999573 	2.485722839463442e-12 	101324.9999999916
-0.4466966966966969 	299.9999999999432 	4.599850571376405e-12 	101324.9999999917
-0.4441941941941945 	299.9999999999934 	2.230619770646934e-12 	101324.9999999914
-0.441691691691692 	299.9999999999566 	5.486089930911397e-12 	101324.9999999916
-0.4391891891891895 	299.9999999999846 	1.361902166730473e-12 	101324.9999999915
-0.436686686686687 	299.9999999999667 	5.713592774629405e-12 	101324.9999999915
-0.4341841841841846 	299.9999999999968 	1.822472696052966e-12 	101324.9999999915
-0.431681681681682 	299.9999999999503 	5.181899958127419e-12 	101324.9999999917
-0.4291791791791794 	299.9999999999093 	1.329288954951915e-12 	101324.9999999919
-0.426676676676677 	299.9999999999166 	4.428326290741663e-12 	101324.9999999918
-0.4241741741741744 	299.9999999999666 	1.749999531857617e-12 	101324.9999999916
-0.421671671671672 	300.0000000000031 	3.704705175641207e-12 	101324.9999999915
-0.4191691691691694 	300.000000000045 	1.810753731329854e-12 	101324.9999999914
-0.4166666666666669 	300.0000000000528 	3.951977903675705e-12 	101324.9999999913
-0.4141641641641645 	299.9999999999347 	2.631257882749894e-12 	101324.9999999912
-0.411661661661662 	300.0000000000043 	3.209533167659363e-12 	101324.9999999915
-0.4091591591591594 	300.0000000000063 	2.224728130242048e-12 	101324.9999999913
-0.406656656656657 	299.9999999999392 	3.601165071597834e-12 	101324.9999999912
-0.4041541541541545 	300.0000000000117 	1.679174242151461e-12 	101324.9999999915
-0.401651651651652 	299.9999999999227 	3.687734672190575e-12 	101324.9999999914
-0.3991491491491494 	300.0000000000007 	1.631953853841495e-12 	101324.9999999914
-0.396646646646647 	299.9999999999563 	4.020163799609834e-12 	101324.9999999913
-0.3941441441441444 	299.9999999999739 	2.506804228082253e-12 	101324.9999999912
-0.3916416416416419 	299.9999999999313 	4.02806544003859e-12 	101324.9999999909
-0.3891391391391395 	299.9999999999579 	1.235268656328636e-12 	101324.9999999908
-0.3866366366366368 	299.9999999999562 	2.982541554630621e-12 	101324.9999999909
-0.3841341341341344 	299.9999999999966 	1.574773178876709e-12 	101324.999999991
-0.381631631631632 	299.9999999999548 	2.968561817846612e-12 	101324.9999999911
-0.3791291291291294 	300.000000000004 	2.059889257861004e-12 	101324.9999999915
-0.3766266266266269 	300.0000000000184 	1.735915941387527e-12 	101324.9999999916
-0.3741241241241244 	300.0000000000221 	2.789985532038007e-12 	101324.9999999918
-0.371621621621622 	300.0000000000153 	1.68380769867128e-12 	101324.9999999918
-0.3691191191191194 	300.0000000000038 	4.9448644417693e-12 	101324.9999999918
-0.366616616616617 	300.0000000000084 	2.499175240129154e-12 	101324.9999999919
-0.3641141141141143 	299.9999999999691 	5.00907766596498e-12 	101324.9999999922
-0.3616116116116119 	299.9999999999486 	2.700775620372781e-12 	101324.9999999921
-0.3591091091091095 	299.9999999999872 	3.35530199885942e-12 	101324.9999999919
-0.356606606606607 	299.9999999999866 	2.427892687285678e-12 	101324.9999999919
-0.3541041041041044 	299.9999999999827 	2.111816459376148e-12 	101324.9999999921
-0.3516016016016019 	300.0000000000031 	3.088574707515071e-12 	101324.9999999921
-0.3490990990990994 	299.9999999999852 	2.37754163185113e-12 	101324.9999999919
-0.346596596596597 	300.0000000000398 	4.924096361399519e-12 	101324.9999999917
-0.3440940940940944 	300.0000000000494 	3.344491620696181e-12 	101324.9999999915
-0.3415915915915919 	300.0000000000172 	5.831782772707347e-12 	101324.9999999917
-0.3390890890890895 	299.9999999999803 	3.294955775213325e-12 	101324.9999999918
-0.3365865865865869 	300.0000000000202 	4.721304696271628e-12 	101324.9999999921
-0.3340840840840844 	300.0000000000046 	3.86974904146041e-12 	101324.9999999921
-0.3315815815815819 	300.0000000000258 	5.222594748106669e-12 	101324.999999992
-0.3290790790790794 	300.0000000000149 	4.849992319024922e-12 	101324.9999999918
-0.3265765765765769 	299.9999999999326 	5.530368118089406e-12 	101324.9999999915
-0.3240740740740744 	299.9999999999964 	3.387470251126801e-12 	101324.9999999918
-0.3215715715715718 	300.0000000000071 	5.181745484715347e-12 	101324.9999999918
-0.3190690690690695 	299.999999999929 	3.261670287256001e-12 	101324.9999999917
-0.3165665665665668 	299.9999999999894 	5.136138654330045e-12 	101324.9999999917
-0.3140640640640644 	300.0000000000006 	2.824840539558748e-12 	101324.9999999916
-0.311561561561562 	299.9999999999276 	6.08858164062821e-12 	101324.9999999918
-0.3090590590590593 	299.9999999999944 	1.253517798283888e-12 	101324.9999999919
-0.3065565565565568 	300.0000000000032 	6.661233445837644e-12 	101324.9999999919
-0.3040540540540545 	300.0000000000155 	1.473800898659303e-12 	101324.9999999918
-0.3015515515515518 	300.0000000000291 	5.714223231894529e-12 	101324.9999999917
-0.2990490490490494 	299.9999999999449 	1.481249298750821e-12 	101324.9999999916
-0.2965465465465469 	299.9999999999829 	3.730151695497641e-12 	101324.9999999914
-0.2940440440440444 	299.9999999999989 	1.941202439998055e-12 	101324.9999999914
-0.2915415415415418 	300.000000000001 	3.008128935306772e-12 	101324.9999999914
-0.2890390390390395 	300.0000000000014 	3.271641194520898e-12 	101324.9999999914
-0.2865365365365368 	299.9999999999771 	2.889482704918131e-12 	101324.9999999914
-0.2840340340340343 	300.0000000000024 	4.199488320134533e-12 	101324.9999999914
-0.2815315315315318 	299.9999999999323 	2.064543372493148e-12 	101324.9999999915
-0.2790290290290295 	299.99999999996 	3.466311823720654e-12 	101324.9999999917
-0.2765265265265269 	300.0000000000125 	2.697631174653045e-12 	101324.9999999914
-0.2740240240240244 	300.0000000000284 	3.228986780383272e-12 	101324.9999999914
-0.2715215215215219 	300.0000000000126 	2.971893981274504e-12 	101324.9999999913
-0.2690190190190194 	299.9999999999465 	2.599980846134859e-12 	101324.9999999913
-0.2665165165165169 	299.9999999999964 	3.227372380976842e-12 	101324.9999999916
-0.2640140140140144 	299.999999999969 	1.830033909898627e-12 	101324.9999999918
-0.2615115115115119 	299.9999999999966 	3.666366631885833e-12 	101324.9999999917
-0.2590090090090094 	299.9999999999366 	1.511073916352659e-12 	101324.999999992
-0.2565065065065068 	299.9999999999936 	2.106220862938624e-12 	101324.999999992
-0.2540040040040044 	299.999999999999 	1.810963012774628e-12 	101324.9999999919
-0.2515015015015019 	300.0000000000381 	2.032015579035633e-12 	101324.9999999919
-0.2489989989989994 	300.0000000000446 	4.574272466400554e-12 	101324.9999999917
-0.2464964964964968 	299.9999999999941 	2.655001994254005e-12 	101324.9999999915
-0.2439939939939944 	299.9999999999988 	6.30857403333362e-12 	101324.9999999913
-0.2414914914914919 	299.9999999999738 	1.990496769715556e-12 	101324.9999999914
-0.2389889889889893 	300.000000000004 	5.868422012502694e-12 	101324.9999999915
-0.2364864864864869 	300.0000000000194 	1.676586974118708e-12 	101324.9999999918
-0.2339839839839843 	299.9999999999303 	5.630213799916907e-12 	101324.9999999916
-0.2314814814814819 	299.99999999998 	1.462781591099964e-12 	101324.9999999916
-0.2289789789789792 	299.9999999999254 	4.677211873728585e-12 	101324.9999999917
-0.2264764764764769 	299.9999999999499 	2.237037705401885e-12 	101324.999999992
-0.2239739739739743 	299.9999999999641 	4.096680243657292e-12 	101324.9999999917
-0.2214714714714718 	299.9999999999434 	2.628082972457836e-12 	101324.9999999917
-0.2189689689689693 	299.9999999999749 	1.935244764723674e-12 	101324.9999999916
-0.2164664664664669 	299.9999999999806 	2.84579923258783e-12 	101324.9999999918
-0.2139639639639643 	299.9999999999336 	8.682032820356595e-13 	101324.999999992
-0.2114614614614618 	299.9999999999763 	1.384423286775794e-12 	101324.9999999918
-0.2089589589589593 	299.9999999999949 	1.37231719685966e-12 	101324.9999999918
-0.2064564564564568 	299.9999999999919 	1.706363851224789e-12 	101324.9999999919
-0.2039539539539543 	299.9999999999122 	2.906867884702209e-12 	101324.9999999917
-0.2014514514514518 	299.9999999999524 	1.101759884060671e-12 	101324.9999999916
-0.1989489489489494 	299.9999999999753 	3.655889455473679e-12 	101324.9999999917
-0.1964464464464468 	299.9999999999945 	7.379935337569607e-13 	101324.9999999921
-0.1939439439439443 	299.9999999999841 	4.000604360877558e-12 	101324.999999992
-0.1914414414414418 	299.9999999999229 	1.092827521493759e-12 	101324.9999999923
-0.1889389389389393 	300.0000000000068 	2.729063147895615e-12 	101324.999999992
-0.1864364364364368 	300.0000000000386 	1.67207620377157e-12 	101324.9999999919
-0.1839339339339343 	299.9999999999761 	3.413952233546317e-12 	101324.9999999916
-0.1814314314314318 	299.9999999999949 	2.432164630352579e-12 	101324.9999999919
-0.1789289289289293 	299.999999999913 	3.762257666283272e-12 	101324.999999992
-0.1764264264264268 	299.9999999999788 	1.141517710572162e-12 	101324.9999999919
-0.1739239239239243 	299.9999999999051 	2.991424406529081e-12 	101324.9999999919
-0.1714214214214218 	299.999999999986 	8.088721672458064e-13 	101324.999999992
-0.1689189189189193 	299.999999999962 	4.259252585349768e-12 	101324.999999992
-0.1664164164164168 	300.0000000000092 	1.607435311239238e-12 	101324.9999999922
-0.1639139139139143 	299.999999999991 	5.636756662139367e-12 	101324.9999999924
-0.1614114114114118 	300.0000000000331 	2.974275768670469e-12 	101324.9999999924
-0.1589089089089093 	299.9999999999987 	7.237183598513585e-12 	101324.9999999925
-0.1564064064064068 	299.9999999999883 	4.746749344698636e-12 	101324.9999999925
-0.1539039039039043 	299.9999999999953 	7.341048566838399e-12 	101324.9999999923
-0.1514014014014018 	300.0000000000257 	4.132025616899361e-12 	101324.9999999924
-0.1488988988988993 	299.9999999999959 	6.553004028102618e-12 	101324.9999999924
-0.1463963963963968 	300.0000000000065 	3.362471594006524e-12 	101324.9999999925
-0.1438938938938943 	299.999999999958 	5.732970971644296e-12 	101324.9999999925
-0.1413913913913918 	299.9999999999321 	1.418886241362333e-12 	101324.9999999926
-0.1388888888888893 	299.9999999999829 	3.73006127831631e-12 	101324.9999999924
-0.1363863863863868 	299.9999999998981 	4.907611620246095e-13 	101324.9999999924
-0.1338838838838843 	299.9999999999239 	2.321802924280184e-12 	101324.9999999926
-0.1313813813813818 	299.9999999999926 	4.983015598597313e-13 	101324.9999999928
-0.1288788788788793 	299.9999999999741 	2.595439368107282e-12 	101324.999999993
-0.1263763763763768 	299.9999999999727 	3.756951860276721e-13 	101324.999999993
-0.1238738738738743 	299.9999999999334 	3.066253114224997e-12 	101324.9999999929
-0.1213713713713717 	299.9999999999802 	5.717121737945132e-13 	101324.9999999928
-0.1188688688688693 	300.0000000000061 	4.189169303717531e-12 	101324.9999999925
-0.1163663663663668 	299.9999999999137 	4.01274725417116e-13 	101324.9999999923
-0.1138638638638643 	299.9999999999952 	5.691184530140819e-12 	101324.9999999921
-0.1113613613613618 	299.9999999999859 	5.300580209587087e-13 	101324.9999999921
-0.1088588588588592 	299.9999999999766 	5.797703481199477e-12 	101324.9999999922
-0.1063563563563568 	299.9999999999491 	3.049500804435639e-13 	101324.9999999924
-0.1038538538538543 	299.9999999999762 	4.513492182096372e-12 	101324.9999999924
-0.1013513513513517 	300.0000000000148 	3.298855304890339e-13 	101324.9999999923
-0.09884884884884926 	299.9999999999371 	3.399894696621708e-12 	101324.9999999925
-0.09634634634634676 	299.9999999999034 	1.450113363324604e-13 	101324.9999999923
-0.09384384384384425 	299.999999999934 	2.501154606301529e-12 	101324.9999999924
-0.09134134134134177 	300.0000000000242 	1.490120460559046e-12 	101324.9999999922
-0.08883883883883925 	300.0000000000043 	3.981837705915894e-12 	101324.999999992
-0.08633633633633674 	299.999999999955 	2.950450162994704e-12 	101324.9999999915
-0.08383383383383426 	300.0000000000062 	3.75194303957027e-12 	101324.9999999914
-0.08133133133133173 	299.9999999999648 	3.93909869710476e-12 	101324.9999999915
-0.07882882882882926 	299.9999999998935 	3.325571404161829e-12 	101324.9999999915
-0.07632632632632676 	299.9999999999602 	2.540115074305424e-12 	101324.9999999916
-0.07382382382382424 	299.9999999999039 	2.337155400902801e-12 	101324.9999999919
-0.07132132132132173 	300.0000000000156 	1.967878500012995e-12 	101324.9999999919
-0.06881881881881925 	299.9999999999661 	2.0359938202986e-12 	101324.9999999922
-0.06631631631631671 	299.9999999999059 	1.721744872574806e-12 	101324.9999999922
-0.06381381381381425 	299.9999999999588 	1.748287320418331e-12 	101324.9999999922
-0.06131131131131173 	299.9999999999603 	1.415559121674909e-12 	101324.9999999922
-0.05880880880880923 	299.9999999999187 	1.471591314015379e-12 	101324.9999999926
-0.05630630630630672 	299.9999999999702 	1.529756189569796e-12 	101324.9999999926
-0.05380380380380424 	300.0000000000163 	1.632706826762777e-12 	101324.9999999925
-0.05130130130130173 	300.0000000000108 	1.717024807085205e-12 	101324.9999999925
-0.04879879879879922 	299.9999999999447 	1.775664715692804e-12 	101324.9999999927
-0.04629629629629672 	299.9999999999345 	1.079659464357759e-12 	101324.9999999926
-0.04379379379379422 	299.9999999999175 	1.387411899560366e-12 	101324.9999999924
-0.04129129129129173 	299.9999999999838 	1.396148503570815e-12 	101324.9999999924
-0.03878878878878922 	299.9999999999865 	2.48930558681787e-12 	101324.9999999923
-0.03628628628628671 	299.9999999999853 	2.219060740499117e-12 	101324.9999999923
-0.03378378378378422 	299.9999999999256 	2.440563737723357e-12 	101324.9999999922
-0.03128128128128172 	299.9999999999665 	1.823971110255392e-12 	101324.9999999919
-0.02877877877877922 	299.9999999999673 	2.502626068508644e-12 	101324.9999999919
-0.0262762762762767 	299.9999999999053 	1.610672928099551e-12 	101324.9999999918
-0.02377377377377422 	300.0000000000194 	2.057740406796576e-12 	101324.9999999917
-0.0212712712712717 	299.9999999999098 	2.217028776746721e-12 	101324.9999999914
-0.01876876876876921 	299.9999999999686 	2.265458135060815e-12 	101324.9999999917
-0.01626626626626671 	300.0000000000123 	2.675329017331704e-12 	101324.9999999917
-0.0137637637637642 	299.9999999999687 	1.823171961012643e-12 	101324.9999999916
-0.0112612612612617 	300.000000000018 	9.414870711446763e-13 	101324.9999999919
-0.008758758758759198 	299.9999999999962 	1.326632222648861e-13 	101324.9999999922
-0.006256256256256697 	299.9999999998889 	4.849837477474476e-13 	101324.9999999921
-0.003753753753754195 	299.9999999999595 	1.05285643673738e-12 	101324.9999999924
-0.001251251251251693 	299.9999999999308 	2.364931053527043e-13 	101324.9999999923
0.00125125125125081 	299.9999999999571 	1.12387902577266e-12 	101324.9999999922
0.003753753753753312 	299.9999999999653 	1.472366043020853e-12 	101324.9999999924
0.006256256256255817 	299.9999999998972 	2.215604357455435e-12 	101324.9999999923
0.008758758758758317 	299.9999999999893 	2.017123333263517e-12 	101324.999999992
0.01126126126126082 	300.0000000000019 	2.325479078818308e-12 	101324.999999992
0.01376376376376332 	299.9999999999728 	2.598627565988522e-12 	101324.9999999918
0.01626626626626582 	300.0000000000097 	2.413690666864873e-12 	101324.9999999922
0.01876876876876833 	299.9999999999571 	2.080183217284389e-12 	101324.9999999926
0.02127127127127083 	299.9999999999697 	1.907961501017989e-12 	101324.9999999929
0.02377377377377332 	299.9999999999931 	1.183695500391188e-12 	101324.9999999929
0.02627627627627583 	299.9999999999078 	6.088775392036279e-14 	101324.9999999927
0.02877877877877833 	300.0000000000099 	4.281256243311263e-13 	101324.9999999924
0.03128128128128083 	299.9999999999535 	2.600916108711018e-13 	101324.9999999924
0.03378378378378333 	299.9999999999068 	1.613932569516059e-12 	101324.9999999923
0.03628628628628584 	299.9999999999696 	1.888772619345798e-12 	101324.9999999922
0.03878878878878834 	299.9999999999829 	2.156657466186054e-12 	101324.9999999919
0.04129129129129084 	299.9999999999822 	1.599624761043997e-12 	101324.999999992
0.04379379379379333 	299.9999999999512 	2.115371182010106e-12 	101324.9999999921
0.04629629629629585 	299.9999999998966 	1.638225833687098e-12 	101324.9999999919
0.04879879879879834 	299.9999999999594 	1.977687628564859e-12 	101324.9999999919
0.05130130130130085 	300.0000000000103 	7.595829377060123e-13 	101324.9999999918
0.05380380380380335 	300.0000000000178 	2.902039504139818e-13 	101324.9999999916
0.05630630630630584 	299.9999999999937 	2.817257974433932e-13 	101324.9999999919
0.05880880880880836 	299.9999999999261 	9.740198499967648e-13 	101324.9999999918
0.06131131131131085 	299.9999999999679 	1.243301533829368e-12 	101324.9999999917
0.06381381381381336 	299.9999999999657 	1.413266311133326e-12 	101324.9999999918
0.06631631631631586 	299.9999999998988 	1.676615882452075e-12 	101324.9999999919
0.06881881881881835 	299.9999999999573 	2.432655281139021e-12 	101324.9999999921
0.07132132132132088 	299.999999999981 	2.229695432575033e-12 	101324.9999999924
0.07382382382382337 	299.9999999999074 	2.926905507766408e-12 	101324.9999999922
0.07632632632632587 	299.9999999999682 	3.438004506639372e-12 	101324.9999999924
0.07882882882882837 	299.9999999999407 	3.580411827785222e-12 	101324.9999999921
0.08133133133133086 	299.9999999999762 	3.427474497296262e-12 	101324.9999999922
0.08383383383383337 	299.9999999999862 	2.611083148927565e-12 	101324.9999999918
0.08633633633633589 	299.9999999999118 	2.433488354912018e-12 	101324.9999999918
0.08883883883883838 	300.0000000000039 	2.711602075667828e-12 	101324.9999999918
0.09134134134134086 	299.9999999999796 	2.851747347211394e-12 	101324.9999999916
0.09384384384384339 	299.9999999999028 	4.225883647955991e-12 	101324.9999999918
0.09634634634634588 	299.9999999999699 	4.637168527093862e-12 	101324.9999999917
0.09884884884884838 	299.9999999999803 	4.984241111561297e-12 	101324.9999999919
0.1013513513513509 	300.0000000000154 	4.978859129940164e-12 	101324.9999999921
0.1038538538538534 	299.9999999999622 	4.761742977373768e-12 	101324.9999999922
0.1063563563563559 	300.000000000007 	4.823023070508082e-12 	101324.9999999923
0.1088588588588584 	300.0000000000258 	4.1692829446512e-12 	101324.9999999919
0.1113613613613609 	299.9999999999255 	3.90191535054446e-12 	101324.9999999923
0.1138638638638634 	299.9999999999447 	3.434039725143479e-12 	101324.9999999923
0.1163663663663659 	299.9999999999558 	2.510848793551841e-12 	101324.9999999918
0.1188688688688684 	299.9999999999762 	1.975557472846782e-12 	101324.9999999914
0.1213713713713709 	300.0000000000001 	1.872777610036853e-12 	101324.9999999914
0.1238738738738734 	299.9999999999329 	1.73438323085683e-12 	101324.9999999916
0.1263763763763759 	299.999999999985 	1.483755159095046e-12 	101324.9999999917
0.1288788788788784 	299.9999999999861 	9.854269673202913e-13 	101324.9999999919
0.1313813813813809 	299.9999999999826 	7.114144527702477e-13 	101324.9999999918
0.1338838838838834 	299.9999999999794 	8.45249024466934e-13 	101324.9999999918
0.1363863863863859 	300.0000000000103 	7.23503120938839e-13 	101324.9999999916
0.1388888888888884 	300.0000000000394 	1.675960477174002e-12 	101324.9999999917
0.1413913913913909 	300.0000000000079 	1.303876643650912e-12 	101324.9999999919
0.1438938938938934 	299.9999999999928 	2.208242665187748e-12 	101324.9999999921
0.1463963963963959 	299.9999999999567 	1.63212468069863e-12 	101324.9999999922
0.1488988988988985 	299.9999999999181 	3.919900660334256e-12 	101324.9999999919
0.1514014014014009 	299.9999999999715 	2.806086090061524e-12 	101324.999999992
0.1539039039039035 	299.9999999999687 	5.14300835627078e-12 	101324.999999992
0.1564064064064059 	299.9999999999321 	2.356858728291547e-12 	101324.999999992
0.1589089089089084 	299.9999999999766 	5.767163578467727e-12 	101324.999999992
0.1614114114114109 	299.999999999972 	2.713641171422805e-12 	101324.9999999916
0.1639139139139134 	299.999999999913 	4.805458341738573e-12 	101324.9999999916
0.166416416416416 	300.0000000000051 	4.657340489747632e-12 	101324.9999999915
0.1689189189189185 	300.0000000000255 	5.200952474147814e-12 	101324.9999999915
0.1714214214214209 	300.0000000000036 	6.340454780737938e-12 	101324.9999999916
0.1739239239239235 	299.9999999999827 	4.162038013039629e-12 	101324.9999999915
0.1764264264264259 	299.9999999999744 	5.899136411810554e-12 	101324.9999999914
0.1789289289289284 	300.0000000000002 	2.645138643744352e-12 	101324.9999999914
0.181431431431431 	299.9999999999631 	4.384754287319824e-12 	101324.9999999914
0.1839339339339334 	299.9999999999721 	1.289192385821643e-12 	101324.9999999912
0.186436436436436 	299.9999999999362 	1.926876209328766e-12 	101324.9999999915
0.1889389389389385 	299.9999999999763 	1.57286628774604e-12 	101324.9999999917
0.191441441441441 	299.9999999999746 	1.94430958594809e-12 	101324.9999999919
0.1939439439439434 	299.9999999999299 	3.707720344900739e-12 	101324.999999992
0.196446446446446 	299.9999999999544 	2.499517000677172e-12 	101324.9999999923
0.1989489489489485 	299.9999999999649 	4.750267807835804e-12 	101324.9999999923
0.2014514514514509 	299.9999999999853 	3.054127333179577e-12 	101324.9999999923
0.2039539539539535 	299.9999999999973 	4.764653358915688e-12 	101324.9999999923
0.2064564564564559 	299.9999999999583 	4.051250817701797e-12 	101324.9999999924
0.2089589589589585 	299.9999999999891 	4.469092218835119e-12 	101324.9999999922
0.211461461461461 	299.9999999999347 	4.817582856889684e-12 	101324.9999999919
0.2139639639639635 	299.9999999999779 	4.209484050298729e-12 	101324.9999999916
0.2164664664664659 	300.0000000000003 	4.933139991984766e-12 	101324.9999999914
0.2189689689689684 	300.0000000000003 	2.284421378688927e-12 	101324.9999999914
0.221471471471471 	299.9999999999927 	3.532811705853325e-12 	101324.9999999911
0.2239739739739735 	299.9999999999598 	8.79804268906194e-13 	101324.9999999911
0.226476476476476 	299.9999999999798 	2.405699229665375e-12 	101324.9999999913
0.2289789789789785 	299.9999999999928 	1.740390337949233e-12 	101324.9999999914
0.231481481481481 	299.9999999999897 	2.499633614621247e-12 	101324.9999999918
0.2339839839839835 	299.9999999999879 	3.184858551426838e-12 	101324.9999999918
0.236486486486486 	300.0000000000285 	2.394398908310506e-12 	101324.9999999918
0.2389889889889885 	300.0000000000072 	3.232694337125393e-12 	101324.9999999916
0.241491491491491 	299.9999999999259 	8.557254345460401e-13 	101324.9999999916
0.2439939939939935 	299.9999999999791 	3.560170766108833e-12 	101324.9999999918
0.246496496496496 	299.9999999999952 	1.442285092027893e-12 	101324.9999999918
0.2489989989989985 	300.0000000000371 	2.400945908360022e-12 	101324.9999999919
0.251501501501501 	300.000000000033 	1.629314408588051e-12 	101324.999999992
0.2540040040040035 	299.9999999999964 	1.558504908123955e-12 	101324.9999999919
0.256506506506506 	300.0000000000306 	2.198523325390836e-12 	101324.9999999918
0.2590090090090086 	299.9999999999234 	8.97452527759875e-13 	101324.9999999917
0.261511511511511 	299.9999999999986 	4.00975073190156e-12 	101324.9999999915
0.2640140140140135 	299.9999999999911 	1.74981660075788e-12 	101324.9999999916
0.2665165165165161 	299.9999999999374 	3.927420481060878e-12 	101324.9999999914
0.2690190190190185 	300.0000000000136 	2.627957363967862e-12 	101324.9999999913
0.271521521521521 	300.0000000000173 	2.808882918864899e-12 	101324.9999999912
0.2740240240240235 	300.000000000018 	2.543042350659394e-12 	101324.9999999916
0.276526526526526 	300.0000000000102 	1.203677775914307e-12 	101324.9999999921
0.2790290290290286 	299.9999999999487 	2.319636695579433e-12 	101324.999999992
0.281531531531531 	299.999999999935 	9.998663522311119e-13 	101324.9999999919
0.2840340340340335 	299.9999999999843 	3.589013271746038e-12 	101324.9999999918
0.2865365365365361 	299.9999999999649 	2.596746696703949e-12 	101324.9999999918
0.2890390390390385 	299.9999999999962 	3.136643857621112e-12 	101324.9999999917
0.291541541541541 	299.9999999999961 	2.528059836700994e-12 	101324.9999999915
0.2940440440440436 	299.9999999999894 	2.029662055348717e-12 	101324.9999999913
0.296546546546546 	299.9999999999903 	3.167530005009386e-12 	101324.9999999914
0.2990490490490486 	299.9999999999458 	1.113118759206103e-12 	101324.9999999915
0.3015515515515511 	300.000000000034 	4.727747273453775e-12 	101324.9999999913
0.3040540540540535 	299.999999999997 	1.554000756544125e-12 	101324.9999999913
0.3065565565565562 	299.9999999999986 	4.765619844743342e-12 	101324.9999999914
0.3090590590590585 	299.999999999991 	2.387717871880051e-12 	101324.9999999914
0.3115615615615611 	299.9999999999472 	2.755790221368308e-12 	101324.9999999916
0.3140640640640635 	300.0000000000118 	1.931524396168125e-12 	101324.9999999913
0.316566566566566 	299.9999999999962 	1.178959338581137e-12 	101324.9999999911
0.3190690690690687 	299.9999999999573 	1.764841292837431e-12 	101324.9999999909
0.3215715715715711 	300.0000000000127 	1.688117188317366e-12 	101324.9999999909
0.3240740740740735 	299.9999999999965 	8.472462452979656e-13 	101324.9999999908
0.326576576576576 	299.9999999999044 	2.367106106136696e-12 	101324.9999999907
0.3290790790790786 	300.0000000000073 	1.441704022977099e-12 	101324.9999999907
0.3315815815815811 	300.0000000000326 	2.726926526246071e-12 	101324.9999999909
0.3340840840840836 	299.9999999999873 	2.152735701816052e-12 	101324.9999999911
0.3365865865865861 	300.0000000000514 	2.798346837746249e-12 	101324.9999999913
0.3390890890890886 	300.0000000000476 	1.020079440868017e-12 	101324.9999999915
0.3415915915915911 	299.9999999999995 	1.904905484254108e-12 	101324.9999999916
0.3440940940940935 	299.9999999999562 	3.151261300907614e-13 	101324.9999999916
0.3465965965965962 	300.0000000000366 	1.113949218458867e-12 	101324.9999999914
0.3490990990990985 	300.0000000000288 	7.703195032385364e-13 	101324.9999999912
0.3516016016016011 	299.9999999999869 	3.306022904374282e-13 	101324.9999999913
0.3541041041041035 	300.0000000000047 	4.526428903445768e-13 	101324.9999999911
0.3566066066066061 	299.9999999999611 	7.701984676954038e-13 	101324.9999999908
0.3591091091091085 	299.9999999999239 	1.45998455110512e-12 	101324.9999999905
0.3616116116116112 	299.9999999999452 	1.283205161839703e-12 	101324.9999999908
0.3641141141141137 	299.9999999999364 	2.590347437717988e-12 	101324.9999999907
0.3666166166166161 	299.9999999999281 	1.469685513719409e-12 	101324.9999999911
0.3691191191191185 	300.0000000000366 	3.520680953012423e-12 	101324.9999999913
0.371621621621621 	300.0000000000181 	1.714795096055481e-12 	101324.9999999911
0.3741241241241237 	300.0000000000456 	2.216992000463168e-12 	101324.9999999912
0.3766266266266261 	300.000000000029 	1.511927589386036e-12 	101324.9999999913
0.3791291291291286 	299.9999999999861 	1.697054047273215e-12 	101324.9999999913
0.3816316316316311 	299.9999999999208 	1.106170677199537e-12 	101324.9999999911
0.3841341341341336 	300.0000000000089 	1.532455080696843e-12 	101324.9999999909
0.3866366366366362 	299.9999999999969 	7.68843665607147e-13 	101324.9999999907
0.3891391391391387 	299.9999999999583 	1.668234705305947e-12 	101324.9999999906
0.391641641641641 	299.999999999989 	3.082169266469294e-13 	101324.9999999905
0.3941441441441436 	300.0000000000032 	1.01617679734333e-12 	101324.9999999906
0.3966466466466462 	299.9999999999964 	6.762420721743629e-13 	101324.9999999904
0.3991491491491486 	299.9999999999504 	7.430940225350322e-13 	101324.9999999904
0.4016516516516512 	299.9999999999192 	1.288650978436822e-12 	101324.9999999905
0.4041541541541536 	299.9999999999554 	1.22562521873408e-12 	101324.9999999905
0.4066566566566561 	299.9999999999529 	1.320797454109788e-12 	101324.999999991
0.4091591591591587 	299.9999999999856 	7.327157724355143e-13 	101324.9999999913
0.4116616616616612 	299.999999999993 	1.15190343403132e-12 	101324.9999999915
0.4141641641641635 	300.0000000000386 	3.723964918175593e-13 	101324.9999999915
0.4166666666666662 	299.9999999999956 	6.168427187467593e-13 	101324.9999999914
0.4191691691691687 	299.9999999999471 	1.898182881488335e-12 	101324.9999999914
0.421671671671671 	300.0000000000109 	1.177811962895701e-12 	101324.9999999914
0.4241741741741737 	299.999999999976 	2.788916546880062e-12 	101324.9999999915
0.4266766766766761 	299.9999999999567 	2.214714699204678e-12 	101324.9999999915
0.4291791791791785 	300.0000000000203 	3.348124815467257e-12 	101324.9999999916
0.4316816816816812 	300.0000000000098 	2.805915271725179e-12 	101324.9999999916
0.4341841841841836 	299.9999999999875 	3.007112582810671e-12 	101324.9999999915
0.4366866866866862 	299.9999999999253 	1.320766699896461e-12 	101324.9999999914
0.4391891891891885 	299.9999999999879 	2.561151337003359e-12 	101324.9999999915
0.4416916916916913 	299.999999999982 	8.766397950252633e-13 	101324.9999999914
0.4441941941941936 	299.9999999999885 	1.896093777907984e-12 	101324.999999991
0.4466966966966961 	299.9999999999238 	3.161536513362158e-13 	101324.9999999908
0.4491991991991987 	299.9999999999798 	3.174073424989081e-13 	101324.999999991
0.4517017017017012 	299.9999999999799 	3.78222449799927e-14 	101324.9999999908
0.4542042042042035 	299.9999999999971 	3.517586714289921e-13 	101324.9999999904
0.4567067067067062 	299.9999999999948 	1.076427052869628e-12 	101324.9999999903
0.4592092092092087 	299.9999999999332 	7.221292103917119e-13 	101324.9999999905
0.4617117117117112 	300.0000000000232 	8.874395379387911e-13 	101324.9999999907
0.4642142142142137 	299.9999999999633 	1.152956979280125e-12 	101324.9999999906
0.4667167167167162 	299.999999999989 	1.593714023084753e-12 	101324.9999999907
0.4692192192192187 	299.9999999999638 	1.746454780288947e-12 	101324.9999999907
0.4717217217217212 	300.0000000000146 	1.951102130811689e-12 	101324.9999999907
0.4742242242242236 	299.9999999999646 	1.906882231658475e-12 	101324.9999999906
0.4767267267267262 	299.9999999999671 	1.493258103605997e-12 	101324.9999999904
0.4792292292292287 	300.0000000000121 	1.285940015436293e-12 	101324.9999999904
0.4817317317317312 	300.0000000000297 	1.432074111604065e-12 	101324.9999999902
0.4842342342342336 	299.9999999999858 	1.035517873743177e-12 	101324.9999999904
0.4867367367367362 	299.9999999999585 	1.974085164423779e-12 	101324.9999999906
0.4892392392392387 	300.0000000000284 	1.474569763402036e-12 	101324.9999999906
0.4917417417417412 	300.0000000000058 	3.024769243102719e-12 	101324.9999999908
0.4942442442442437 	299.9999999999187 	1.73651384723254e-12 	101324.9999999911
0.4967467467467462 	299.999999999938 	3.134700653237777e-12 	101324.9999999912
0.4992492492492487 	299.9999999999287 	1.367032608032816e-12 	101324.9999999912
0.5017517517517511 	299.9999999999616 	2.653602325552749e-12 	101324.9999999911
0.5042542542542537 	299.9999999999706 	2.273812065126779e-12 	101324.9999999911
0.5067567567567562 	299.9999999999528 	2.051247041042553e-12 	101324.9999999911
0.5092592592592589 	299.9999999999734 	1.833876358974318e-12 	101324.999999991
0.5117617617617611 	299.9999999999628 	7.797350457155298e-13 	101324.9999999908
0.5142642642642637 	299.9999999999877 	1.942153198067408e-12 	101324.9999999906
0.5167667667667663 	299.9999999999741 	1.917458863857248e-12 	101324.9999999905
0.5192692692692688 	299.9999999999266 	3.599054506660417e-12 	101324.9999999907
0.5217717717717714 	299.9999999999461 	3.147930585143199e-12 	101324.9999999909
0.5242742742742736 	299.9999999999466 	3.181974911760749e-12 	101324.9999999911
0.5267767767767763 	299.9999999999623 	2.135951794656519e-12 	101324.9999999912
0.5292792792792789 	299.9999999999449 	2.831512535849017e-12 	101324.9999999911
0.5317817817817813 	299.9999999999172 	1.229880450024184e-12 	101324.9999999912
0.5342842842842837 	300.0000000000168 	1.314869898071458e-12 	101324.999999991
0.5367867867867864 	300.0000000000036 	1.183788428238198e-12 	101324.9999999909
0.5392892892892888 	299.9999999999661 	1.245892540933124e-12 	101324.9999999911
0.5417917917917912 	300.0000000000056 	8.822450368111554e-13 	101324.9999999909
0.5442942942942938 	299.9999999999854 	1.235683138000452e-12 	101324.9999999911
0.5467967967967964 	299.9999999999529 	5.352761201700913e-13 	101324.9999999911
0.5492992992992988 	299.9999999999515 	1.403052951786591e-12 	101324.9999999912
0.5518018018018012 	299.999999999949 	5.280254174215705e-13 	101324.9999999914
0.5543043043043039 	300.0000000000203 	9.421661789598215e-13 	101324.9999999913
0.5568068068068063 	299.9999999999917 	1.199009002492667e-12 	101324.9999999911
0.5593093093093087 	299.9999999999176 	5.943614280549441e-13 	101324.9999999911
0.5618118118118114 	299.9999999999624 	1.656844088713438e-12 	101324.9999999912
0.5643143143143137 	299.9999999999503 	6.808907810571403e-13 	101324.9999999913
0.5668168168168163 	299.9999999999929 	1.188290393786361e-12 	101324.9999999913
0.5693193193193188 	300.0000000000277 	8.178331122902147e-13 	101324.9999999911
0.5718218218218213 	300.0000000000234 	8.970549395191609e-13 	101324.9999999911
0.5743243243243239 	300.0000000000098 	1.375075841866475e-12 	101324.9999999912
0.5768268268268262 	300.0000000000059 	2.220127365592297e-12 	101324.9999999913
0.5793293293293288 	299.9999999999494 	2.331742984808486e-12 	101324.9999999915
0.5818318318318314 	299.9999999999304 	2.740900899079621e-12 	101324.999999992
0.5843343343343338 	299.9999999999836 	3.256360507733149e-12 	101324.9999999921
0.5868368368368363 	299.9999999999769 	2.139772400883055e-12 	101324.999999992
0.5893393393393387 	299.9999999999505 	2.579223113283381e-12 	101324.9999999917
0.5918418418418413 	299.9999999999483 	1.616514465995431e-12 	101324.9999999913
0.5943443443443439 	300.000000000016 	2.20333905710956e-12 	101324.9999999913
0.5968468468468463 	300.0000000000154 	7.994244222101733e-13 	101324.9999999915
0.5993493493493487 	300.0000000000284 	1.649011163523256e-12 	101324.9999999918
0.6018518518518514 	299.9999999999816 	1.23217489232095e-12 	101324.9999999918
0.6043543543543537 	299.9999999999966 	1.092219436813331e-12 	101324.999999992
0.6068568568568564 	299.9999999999867 	2.600325861023788e-12 	101324.9999999919
0.6093593593593587 	299.9999999999443 	2.008826852622719e-12 	101324.9999999918
0.6118618618618614 	299.9999999999365 	2.201438306116071e-12 	101324.9999999917
0.6143643643643638 	300.0000000000179 	1.12988707707626e-12 	101324.9999999917
0.6168668668668662 	299.9999999999941 	2.26165410720061e-12 	101324.9999999915
0.6193693693693688 	299.999999999963 	1.067024861501331e-12 	101324.9999999918
0.6218718718718714 	299.9999999999717 	2.114186974192812e-12 	101324.9999999919
0.6243743743743737 	299.9999999999479 	8.368751320650646e-13 	101324.9999999919
0.6268768768768762 	299.9999999999363 	1.818799756011923e-12 	101324.9999999917
0.629379379379379 	299.9999999999588 	7.257055815767791e-13 	101324.9999999918
0.6318818818818812 	299.9999999999825 	1.36672513899633e-12 	101324.9999999915
0.6343843843843838 	300.0000000000173 	1.638869051974149e-12 	101324.9999999916
0.6368868868868864 	299.999999999987 	1.788883033003629e-12 	101324.9999999916
0.6393893893893888 	299.9999999999336 	3.291250007627092e-12 	101324.9999999917
0.6418918918918912 	300.0000000000036 	1.864283770640366e-12 	101324.9999999917
0.6443943943943939 	299.9999999999779 	3.943830902153589e-12 	101324.9999999916
0.6468968968968963 	299.9999999999867 	3.21345798719233e-12 	101324.9999999916
0.6493993993993988 	299.9999999999739 	2.845652231087274e-12 	101324.9999999914
0.6519019019019012 	299.9999999999757 	3.155403556999108e-12 	101324.9999999915
0.6544044044044038 	299.9999999999125 	2.106872359976213e-12 	101324.9999999917
0.6569069069069065 	299.9999999999559 	2.289240683237911e-12 	101324.999999992
0.6594094094094087 	299.9999999999675 	1.738256168536983e-12 	101324.9999999922
0.6619119119119113 	299.9999999999586 	1.716168056316085e-12 	101324.9999999924
0.664414414414414 	300.0000000000041 	1.272427075014216e-12 	101324.9999999926
0.6669169169169162 	300.000000000018 	1.084606397091266e-12 	101324.9999999927
0.6694194194194188 	299.9999999999877 	1.230826994302955e-12 	101324.9999999928
0.6719219219219214 	299.9999999999324 	9.015421564545628e-13 	101324.9999999928
0.674424424424424 	299.9999999999777 	8.060244205298491e-13 	101324.9999999928
0.6769269269269262 	299.9999999999336 	1.286106137441767e-12 	101324.9999999929
0.679429429429429 	300.0000000000056 	7.864601551368374e-13 	101324.9999999928
0.6819319319319311 	299.9999999999825 	1.465426931955949e-12 	101324.9999999929
0.6844344344344341 	299.9999999999964 	7.322407101326463e-13 	101324.9999999931
0.686936936936936 	299.9999999999916 	1.207461591638588e-12 	101324.9999999932
0.6894394394394392 	299.9999999999894 	4.55665354182251e-13 	101324.9999999932
0.6919419419419413 	299.9999999999896 	2.733102592771291e-13 	101324.9999999931
0.694444444444444 	299.9999999999403 	6.983059937090134e-13 	101324.9999999929
0.6969469469469463 	299.9999999999343 	1.027296523379316e-12 	101324.999999993
0.6994494494494489 	299.9999999999337 	2.002998947823206e-12 	101324.999999993
0.7019519519519515 	299.9999999999896 	1.376010832848964e-12 	101324.999999993
0.7044544544544538 	299.9999999999569 	2.8109635819396e-12 	101324.9999999928
0.7069569569569564 	299.9999999999944 	1.321597493608272e-12 	101324.9999999928
0.7094594594594589 	299.9999999999684 	3.084438909682826e-12 	101324.9999999928
0.7119619619619615 	299.9999999999217 	1.730099623091724e-12 	101324.9999999928
0.7144644644644638 	299.9999999999562 	3.656392691669778e-12 	101324.9999999929
0.7169669669669665 	299.9999999999316 	2.557629766841128e-12 	101324.9999999931
0.7194694694694688 	299.9999999999931 	3.161734743261928e-12 	101324.9999999934
0.7219719719719715 	299.9999999999861 	2.518937969295928e-12 	101324.9999999935
0.7244744744744737 	300.0000000000016 	3.109358759059613e-12 	101324.9999999936
0.7269769769769764 	299.9999999999954 	3.297531144364499e-12 	101324.9999999936
0.7294794794794791 	299.9999999999879 	2.26035612723444e-12 	101324.9999999936
0.7319819819819813 	299.9999999999833 	3.420286657962862e-12 	101324.9999999935
0.7344844844844839 	299.9999999999329 	2.117248280549742e-12 	101324.9999999933
0.7369869869869864 	299.9999999999551 	2.94174017410149e-12 	101324.9999999934
0.739489489489489 	299.9999999999432 	2.264490228498821e-12 	101324.9999999936
0.7419919919919914 	299.99999999993 	2.470248338969598e-12 	101324.9999999938
0.7444944944944939 	299.99999999998 	3.136531554676589e-12 	101324.9999999937
0.7469969969969963 	299.9999999999736 	2.039942501146733e-12 	101324.9999999937
0.7494994994994989 	299.9999999999503 	3.92432152362971e-12 	101324.9999999937
0.7520020020020015 	299.9999999999738 	2.059792076028087e-12 	101324.9999999938
0.7545045045045039 	299.9999999999707 	4.16019700306011e-12 	101324.9999999938
0.7570070070070062 	299.9999999999455 	2.098771131328024e-12 	101324.9999999939
0.7595095095095092 	299.9999999999335 	3.745473491866429e-12 	101324.999999994
0.7620120120120112 	300.0000000000063 	3.088289309657071e-12 	101324.9999999941
0.7645145145145138 	299.9999999999918 	3.044440948258113e-12 	101324.9999999943
0.7670170170170165 	299.9999999999409 	2.985554158070671e-12 	101324.9999999942
0.7695195195195191 	299.9999999999327 	1.493324260090569e-12 	101324.9999999942
0.7720220220220213 	299.999999999947 	2.608570909581907e-12 	101324.9999999942
0.7745245245245239 	299.9999999999447 	1.143987471888391e-12 	101324.9999999942
0.7770270270270263 	299.9999999999742 	2.70505337149382e-12 	101324.9999999942
0.779529529529529 	299.9999999999861 	1.679007010051224e-12 	101324.999999994
0.7820320320320313 	299.9999999999744 	2.662714424003519e-12 	101324.9999999939
0.784534534534534 	300.0000000000045 	2.709839331655904e-12 	101324.9999999941
0.7870370370370364 	299.9999999999959 	2.944773714203551e-12 	101324.9999999943
0.7895395395395389 	299.9999999999807 	4.051183707167999e-12 	101324.9999999944
0.7920420420420413 	299.9999999999806 	3.489048208233104e-12 	101324.9999999945
0.794544544544544 	299.9999999999894 	4.916713241467842e-12 	101324.9999999945
0.7970470470470463 	300.0000000000056 	2.93099797923284e-12 	101324.9999999946
0.799549549549549 	299.9999999999887 	5.916477703254438e-12 	101324.9999999946
0.8020520520520515 	299.9999999999923 	4.069371759949195e-12 	101324.9999999946
0.8045545545545539 	299.999999999953 	6.320694928252499e-12 	101324.9999999946
0.8070570570570563 	299.9999999999822 	5.767996364872606e-12 	101324.9999999946
0.8095595595595589 	299.9999999999611 	5.921471955300387e-12 	101324.9999999945
0.8120620620620614 	299.9999999999463 	5.37999358721336e-12 	101324.9999999944
0.8145645645645638 	299.9999999999998 	5.104179974540133e-12 	101324.9999999944
0.8170670670670666 	299.9999999999948 	5.901657034080802e-12 	101324.9999999944
0.8195695695695689 	299.9999999999799 	5.318304484683398e-12 	101324.9999999944
0.8220720720720714 	299.9999999999504 	7.949347019002373e-12 	101324.9999999945
0.8245745745745739 	299.999999999996 	6.252409576838565e-12 	101324.9999999944
0.8270770770770765 	299.9999999999762 	7.598008529802901e-12 	101324.9999999944
0.8295795795795788 	299.9999999999532 	6.735347837623213e-12 	101324.9999999943
0.8320820820820815 	300.0000000000181 	7.391167515454052e-12 	101324.9999999944
0.834584584584584 	300.0000000000105 	6.51379388540528e-12 	101324.9999999943
0.8370870870870865 	299.9999999999759 	6.032413994177815e-12 	101324.9999999943
0.8395895895895891 	299.9999999999424 	5.948791496165959e-12 	101324.9999999943
0.8420920920920915 	299.9999999999546 	4.812520105744712e-12 	101324.9999999944
0.844594594594594 	299.999999999949 	5.313693472625954e-12 	101324.9999999946
0.8470970970970964 	299.9999999999557 	5.884048847521715e-12 	101324.9999999949
0.8495995995995991 	299.9999999999911 	5.533141426257094e-12 	101324.9999999951
0.8521021021021015 	299.9999999999808 	5.310903516119628e-12 	101324.9999999952
0.8546046046046039 	299.9999999999744 	4.75019838182759e-12 	101324.9999999953
0.8571071071071066 	299.9999999999971 	5.808046000355782e-12 	101324.9999999952
0.8596096096096089 	299.9999999999686 	4.245815843757412e-12 	101324.9999999952
0.8621121121121116 	299.9999999999448 	6.570123271396556e-12 	101324.9999999955
0.8646146146146139 	300.0000000000009 	4.573776083644117e-12 	101324.9999999957
0.8671171171171166 	299.999999999982 	6.214646823321912e-12 	101324.9999999958
0.8696196196196189 	299.9999999999526 	5.92016272743839e-12 	101324.9999999958
0.8721221221221216 	299.9999999999772 	6.639407827949963e-12 	101324.9999999959
0.874624624624624 	300.0000000000038 	6.127563198148666e-12 	101324.9999999958
0.8771271271271264 	299.999999999998 	6.190634194915943e-12 	101324.9999999956
0.879629629629629 	299.9999999999991 	7.014002096190096e-12 	101324.9999999957
0.8821321321321317 	299.9999999999862 	5.738554346931675e-12 	101324.9999999957
0.8846346346346339 	299.9999999999373 	8.339699457633896e-12 	101324.9999999955
0.8871371371371364 	299.9999999999619 	6.883104745387428e-12 	101324.9999999954
0.8896396396396391 	299.9999999999563 	8.728781372662449e-12 	101324.9999999953
0.8921421421421414 	299.9999999999611 	8.028601585317005e-12 	101324.9999999954
0.8946446446446441 	299.9999999999878 	8.607036361731185e-12 	101324.9999999956
0.8971471471471464 	300.0000000000031 	8.175448538681467e-12 	101324.9999999954
0.8996496496496489 	299.9999999999828 	8.142594581869402e-12 	101324.9999999953
0.9021521521521517 	299.9999999999671 	9.555846190261519e-12 	101324.9999999954
0.9046546546546541 	299.9999999999887 	9.185183593019447e-12 	101324.9999999955
0.9071571571571564 	299.9999999999517 	1.0334697657662e-11 	101324.9999999957
0.9096596596596589 	299.999999999953 	1.067913922379617e-11 	101324.9999999959
0.9121621621621616 	300.0000000000071 	1.121428251282487e-11 	101324.9999999961
0.9146646646646639 	299.999999999985 	1.068075774969966e-11 	101324.9999999959
0.9171671671671666 	299.9999999999557 	9.720712482629069e-12 	101324.9999999959
0.9196696696696689 	299.9999999999981 	1.005525769863564e-11 	101324.9999999962
0.9221721721721714 	300.0000000000021 	8.274356607089434e-12 	101324.9999999964
0.9246746746746741 	299.9999999999496 	1.044138598463468e-11 	101324.9999999963
0.9271771771771765 	299.9999999999557 	8.36526348284848e-12 	101324.9999999965
0.9296796796796791 	299.999999999992 	9.715039625977595e-12 	101324.9999999967
0.9321821821821816 	299.9999999999754 	8.7111738523405e-12 	101324.9999999965
0.9346846846846838 	299.999999999957 	1.055738618366013e-11 	101324.9999999964
0.9371871871871866 	300.0000000000121 	1.052119881265771e-11 	101324.9999999964
0.9396896896896891 	300.000000000011 	1.044020395555884e-11 	101324.9999999963
0.9421921921921914 	300.0000000000081 	1.026436613261921e-11 	101324.9999999961
0.9446946946946939 	299.9999999999741 	8.945690574591685e-12 	101324.9999999959
0.9471971971971965 	299.9999999999352 	1.075974292474932e-11 	101324.9999999957
0.9496996996996991 	299.9999999999625 	8.621013170331641e-12 	101324.9999999956
0.9522022022022016 	299.9999999999724 	9.951603613555288e-12 	101324.9999999955
0.9547047047047038 	299.9999999999727 	9.281627486839093e-12 	101324.9999999953
0.9572072072072064 	299.9999999999638 	1.075585435746994e-11 	101324.9999999953
0.9597097097097093 	299.9999999999678 	1.129900375417581e-11 	101324.9999999956
0.9622122122122114 	299.9999999999663 	1.126413341912769e-11 	101324.9999999958
0.964714714714714 	299.9999999999618 	1.210712514930829e-11 	101324.9999999958
0.9672172172172167 	299.999999999962 	1.157497410590849e-11 	101324.9999999958
0.969719719719719 	299.9999999999891 	1.269539833041064e-11 	101324.999999996
0.9722222222222214 	299.9999999999885 	1.24092159771164e-11 	101324.9999999961
0.9747247247247239 	299.9999999999803 	1.252689033230272e-11 	101324.999999996
0.9772272272272267 	300.0000000000013 	1.221252392158617e-11 	101324.9999999959
0.9797297297297292 	299.9999999999879 	1.190868159445558e-11 	101324.9999999959
0.9822322322322313 	299.9999999999904 	1.250574022910653e-11 	101324.9999999959
0.9847347347347344 	299.9999999999897 	1.108541111172273e-11 	101324.999999996
0.9872372372372363 	299.9999999999495 	1.346158734218127e-11 	101324.999999996
0.9897397397397389 	299.9999999999687 	1.136476515250411e-11 	101324.9999999959
0.9922422422422417 	299.9999999999595 	1.279509339019332e-11 	101324.999999996
0.9947447447447441 	299.9999999999629 	1.143653925791133e-11 	101324.9999999962
0.9972472472472468 	299.9999999999678 	1.260387246819778e-11 	101324.9999999962
0.999749749749749 	299.9999999999684 	1.224967265416244e-11 	101324.9999999961
1.002252252252252 	299.9999999999836 	1.27516533731765e-11 	101324.9999999962
1.004754754754754 	299.9999999999927 	1.271458492350453e-11 	101324.9999999961
1.007257257257256 	299.9999999999783 	1.168217826270783e-11 	101324.999999996
1.009759759759759 	299.9999999999662 	1.337953965847472e-11 	101324.999999996
1.012262262262261 	299.9999999999562 	1.163540685449149e-11 	101324.9999999961
1.014764764764764 	299.9999999999405 	1.343497614145322e-11 	101324.9999999961
1.017267267267267 	299.9999999999382 	1.256877891947434e-11 	101324.999999996
1.019769769769769 	299.999999999982 	1.35543393135431e-11 	101324.999999996
1.022272272272272 	299.9999999999911 	1.308200475365333e-11 	101324.9999999962
1.024774774774774 	299.9999999999866 	1.315026847640784e-11 	101324.9999999962
1.027277277277277 	299.9999999999789 	1.373101133469838e-11 	101324.9999999961
1.029779779779779 	299.9999999999984 	1.289835593941766e-11 	101324.9999999962
1.032282282282282 	299.9999999999996 	1.395135364697522e-11 	101324.9999999962
1.034784784784784 	299.9999999999922 	1.37872385358528e-11 	101324.9999999964
1.037287287287286 	299.9999999999691 	1.493289382289679e-11 	101324.9999999965
1.039789789789789 	299.9999999999768 	1.502605287004658e-11 	101324.9999999966
1.042292292292291 	300.0000000000097 	1.502422411910629e-11 	101324.9999999964
1.044794794794794 	300.0000000000231 	1.485345063667423e-11 	101324.9999999962
1.047297297297296 	300.0000000000314 	1.406000817609852e-11 	101324.9999999961
1.049799799799799 	299.9999999999953 	1.580755611648564e-11 	101324.9999999961
1.052302302302302 	299.9999999999663 	1.330512942718313e-11 	101324.999999996
1.054804804804804 	299.9999999999456 	1.455315221544122e-11 	101324.9999999957
1.057307307307306 	299.9999999999359 	1.303835135772734e-11 	101324.9999999955
1.059809809809809 	299.9999999999699 	1.378926736773821e-11 	101324.9999999955
1.062312312312312 	299.9999999999658 	1.332832419881664e-11 	101324.9999999957
1.064814814814814 	299.9999999999583 	1.421783228036929e-11 	101324.9999999961
1.067317317317317 	299.999999999935 	1.422305924794821e-11 	101324.9999999966
1.069819819819819 	299.9999999999387 	1.415976985276319e-11 	101324.9999999967
1.072322322322321 	299.9999999999941 	1.570763515197966e-11 	101324.9999999968
1.074824824824824 	300.0000000000105 	1.373224032789854e-11 	101324.9999999967
1.077327327327327 	300.0000000000268 	1.527225578646589e-11 	101324.9999999965
1.079829829829829 	300.0000000000357 	1.433652756860274e-11 	101324.9999999964
1.082332332332332 	300.0000000000033 	1.569576120407541e-11 	101324.999999996
1.084834834834834 	299.9999999999793 	1.531816196255844e-11 	101324.9999999956
1.087337337337337 	299.9999999999504 	1.542323030869317e-11 	101324.9999999955
1.089839839839839 	299.9999999999416 	1.694783254026864e-11 	101324.9999999957
1.092342342342342 	299.9999999999764 	1.557499348800365e-11 	101324.9999999959
1.094844844844844 	299.9999999999766 	1.612651262144131e-11 	101324.9999999961
1.097347347347347 	299.9999999999501 	1.464759989960182e-11 	101324.9999999963
1.099849849849849 	299.9999999999355 	1.711368917011932e-11 	101324.9999999966
1.102352352352352 	299.9999999999629 	1.494993206343132e-11 	101324.9999999968
1.104854854854854 	299.9999999999825 	1.683411024335584e-11 	101324.999999997
1.107357357357357 	299.9999999999649 	1.476807024431822e-11 	101324.9999999973
1.109859859859859 	299.9999999999568 	1.53864764111777e-11 	101324.9999999973
1.112362362362362 	300.0000000000109 	1.34908291368652e-11 	101324.9999999971
1.114864864864865 	300.0000000000114 	1.337203681209517e-11 	101324.999999997
1.117367367367367 	299.9999999999672 	1.500838289356521e-11 	101324.9999999969
1.119869869869869 	299.999999999937 	1.471629126524302e-11 	101324.9999999968
1.122372372372372 	299.9999999999699 	1.679770090451288e-11 	101324.9999999968
1.124874874874874 	299.999999999967 	1.625365569669369e-11 	101324.999999997
1.127377377377377 	299.9999999999739 	1.745211057280238e-11 	101324.9999999973
1.129879879879879 	300.0000000000165 	1.654343204009969e-11 	101324.9999999973
1.132382382382382 	300.0000000000302 	1.665336774845388e-11 	101324.9999999974
1.134884884884884 	300.000000000008 	1.56927970391403e-11 	101324.9999999975
1.137387387387387 	300.0000000000137 	1.502070328409266e-11 	101324.9999999973
1.139889889889889 	299.9999999999681 	1.555825759334422e-11 	101324.9999999972
1.142392392392392 	299.9999999999605 	1.369222886048665e-11 	101324.9999999972
1.144894894894894 	300.0000000000167 	1.441569214454156e-11 	101324.9999999974
1.147397397397397 	300.0000000000024 	1.336593847762788e-11 	101324.9999999976
1.149899899899899 	299.9999999999511 	1.465390374667803e-11 	101324.9999999976
1.152402402402402 	299.9999999999399 	1.399638121116305e-11 	101324.9999999976
1.154904904904904 	299.9999999999707 	1.475255975699083e-11 	101324.9999999975
1.157407407407407 	299.9999999999702 	1.428548088694918e-11 	101324.9999999975
1.159909909909909 	299.9999999999435 	1.464352077382464e-11 	101324.9999999976
1.162412412412412 	299.999999999935 	1.656017463454902e-11 	101324.9999999976
1.164914914914914 	299.9999999999636 	1.548910352563433e-11 	101324.9999999976
1.167417417417417 	299.999999999974 	1.66678502837157e-11 	101324.9999999976
1.169919919919919 	300.0000000000138 	1.527022101419936e-11 	101324.9999999976
1.172422422422422 	300.0000000000348 	1.626967085956643e-11 	101324.9999999976
1.174924924924925 	299.9999999999935 	1.551854033090352e-11 	101324.9999999978
1.177427427427427 	299.9999999999706 	1.651914247611045e-11 	101324.9999999978
1.179929929929929 	300.0000000000093 	1.766505576968336e-11 	101324.9999999977
1.182432432432432 	300.0000000000305 	1.628162320933693e-11 	101324.9999999976
1.184934934934934 	300.0000000000067 	1.733342245220345e-11 	101324.9999999978
1.187437437437437 	299.9999999999908 	1.57804858052058e-11 	101324.9999999979
1.189939939939939 	299.9999999999819 	1.627865478418179e-11 	101324.999999998
1.192442442442442 	299.9999999999438 	1.537497575312572e-11 	101324.9999999982
1.194944944944944 	299.9999999999415 	1.693688345540947e-11 	101324.9999999984
1.197447447447447 	299.9999999999932 	1.634233876872085e-11 	101324.9999999985
1.199949949949949 	300.0000000000122 	1.576052739706937e-11 	101324.9999999985
1.202452452452452 	299.9999999999648 	1.621240698476366e-11 	101324.9999999987
1.204954954954955 	299.9999999999591 	1.520072850698469e-11 	101324.9999999987
1.207457457457457 	299.9999999999856 	1.671003593174975e-11 	101324.9999999986
1.20995995995996 	299.9999999999825 	1.58337165427272e-11 	101324.9999999985
1.212462462462462 	299.9999999999877 	1.688277095383001e-11 	101324.9999999982
1.214964964964964 	299.9999999999849 	1.614130999975582e-11 	101324.999999998
1.217467467467467 	299.9999999999835 	1.721096386519781e-11 	101324.9999999981
1.219969969969969 	299.9999999999737 	1.625621665245507e-11 	101324.9999999984
1.222472472472472 	300.0000000000172 	1.661959664290543e-11 	101324.9999999983
1.224974974974975 	300.0000000000391 	1.743680598313613e-11 	101324.999999998
1.227477477477477 	299.999999999995 	1.613368641792106e-11 	101324.9999999981
1.229979979979979 	299.9999999999799 	1.750658084527093e-11 	101324.9999999982
1.232482482482482 	299.9999999999603 	1.5966492684534e-11 	101324.9999999983
1.234984984984984 	299.9999999999638 	1.695925240595535e-11 	101324.9999999985
1.237487487487487 	299.9999999999797 	1.573092024737635e-11 	101324.9999999987
1.239989989989989 	299.9999999999791 	1.655985591940412e-11 	101324.9999999988
1.242492492492492 	300.0000000000079 	1.713099053144581e-11 	101324.9999999989
1.244994994994994 	299.999999999982 	1.57167100253126e-11 	101324.9999999988
1.247497497497497 	299.9999999999786 	1.704526563903473e-11 	101324.9999999986
1.249999999999999 	300 	1.646839163434607e-11 	101324.9999999984
