-1.25 	349.9013364214136 	0.1189436800229413 	101374.9013364214
-1.247497497497497 	300.5423432971792 	0.12115400601985 	101374.8598090307
-1.244994994994995 	300.0452255228925 	0.1226134579071921 	101374.7944361484
-1.242492492492492 	300.0420739760892 	0.1217782426808029 	101374.7323882837
-1.23998998998999 	300.041997629375 	0.1216137105224689 	101374.6579191886
-1.237487487487487 	300.0419268538467 	0.1214303534753511 	101374.5742739902
-1.234984984984985 	300.041848435796 	0.121197992166985 	101374.481536885
-1.232482482482482 	300.0417623162585 	0.1209511501932944 	101374.3796923632
-1.22997997997998 	300.0416685140025 	0.1206795509499386 	101374.2687621067
-1.227477477477477 	300.0415670442642 	0.1203866028793343 	101374.1487643904
-1.224974974974975 	300.0414579258753 	0.1200710405880803 	101374.0197213912
-1.222472472472472 	300.041341178678 	0.1197334967169038 	101373.8816567338
-1.21996996996997 	300.0412168244147 	0.119373796660304 	101373.7345961005
-1.217467467467467 	300.0410848880147 	0.1189921236606457 	101373.5785689224
-1.214964964964965 	300.0409453919338 	0.1185885090263561 	101373.4136018887
-1.212462462462462 	300.0407983648064 	0.1181630513259459 	101373.2397288409
-1.20995995995996 	300.0406438289965 	0.1177158170610889 	101373.0569763223
-1.207457457457457 	300.0404818168174 	0.1172468948496836 	101372.8653825631
-1.204954954954955 	300.040312353335 	0.1167563678722632 	101372.6649770944
-1.202452452452452 	300.0401354727384 	0.1162443351947473 	101372.4558006011
-1.19994994994995 	300.039951206423 	0.1157108902715703 	101372.2378902372
-1.197447447447447 	300.0397595861978 	0.1151561304614027 	101372.0112834449
-1.194944944944945 	300.0395606532465 	0.1145801606561898 	101371.7760291358
-1.192442442442442 	300.0393544340826 	0.1139830832191771 	101371.5321588073
-1.18993993993994 	300.039140978498 	0.113365019995785 	101371.2797311576
-1.187437437437437 	300.0389203146775 	0.1127260740063726 	101371.0187795896
-1.184934934934935 	300.0386924887084 	0.1120663677854796 	101370.7493588517
-1.182432432432432 	300.0384575453249 	0.1113860241484383 	101370.4715218013
-1.17992992992993 	300.0382155146705 	0.1106851616788031 	101370.1853038218
-1.177427427427427 	300.0379664622634 	0.109963926283848 	101369.8907825099
-1.174924924924925 	300.0377104111212 	0.1092224271571666 	101369.5879859689
-1.172422422422422 	300.037447420588 	0.1084608181322762 	101369.2769847731
-1.16991991991992 	300.0371775456691 	0.1076792425247995 	101368.9578424709
-1.167417417417417 	300.0369008117178 	0.1068778192763587 	101368.6305874141
-1.164914914914915 	300.0366173050914 	0.1060567325473073 	101368.2953232451
-1.162412412412412 	300.0363270452421 	0.1052160993133363 	101367.9520766883
-1.15990990990991 	300.0360300860962 	0.1043560833149617 	101367.6009124872
-1.157407407407407 	300.0357265206146 	0.1034768761542456 	101367.2419365465
-1.154904904904904 	300.0354163524052 	0.1025785731772753 	101366.8751484805
-1.152402402402403 	300.035099678695 	0.1016613960357536 	101366.5006635671
-1.1498998998999 	300.0347765639505 	0.100725517718226 	101366.1185632504
-1.147397397397397 	300.0344469986591 	0.09977103120377662 	101365.7288416229
-1.144894894894895 	300.034111117163 	0.09879821350471679 	101365.3316586511
-1.142392392392392 	300.0337689627987 	0.09780720631005392 	101364.9270616514
-1.13988988988989 	300.0334205398263 	0.09679811116729614 	101364.5150496906
-1.137387387387387 	300.0330660209221 	0.09577126279102871 	101364.0958230568
-1.134884884884885 	300.0327054262817 	0.09472677659246798 	101363.6694054909
-1.132382382382382 	300.0323387446265 	0.0936647407247428 	101363.2357863638
-1.12987987987988 	300.0319661705182 	0.09258554679346126 	101362.7951993635
-1.127377377377377 	300.0315877268226 	0.09148931814863692 	101362.3476741374
-1.124874874874875 	300.0312033735085 	0.09037609236767165 	101361.893164591
-1.122372372372372 	300.0308133264073 	0.08924631204902365 	101361.4319264416
-1.11986986986987 	300.030417664257 	0.08810018916226806 	101360.9640527742
-1.117367367367367 	300.0300162937447 	0.08693765289470726 	101360.4894326352
-1.114864864864865 	300.0296093864332 	0.08575908872602442 	101360.0082682115
-1.112362362362362 	300.0291971401141 	0.08456493233862315 	101359.5207931591
-1.10985985985986 	300.0287794709944 	0.08335510661347519 	101359.0269083398
-1.107357357357357 	300.0283563854004 	0.08212970107289447 	101358.5266207395
-1.104854854854855 	300.0279281528453 	0.08088932301649215 	101358.02024864
-1.102352352352353 	300.0274949026634 	0.07963428669677144 	101357.5079453693
-1.09984984984985 	300.0270564798362 	0.07836433114229256 	101356.9895280812
-1.097347347347347 	300.0266128997615 	0.07707960277474458 	101356.4650144508
-1.094844844844845 	300.0261645761865 	0.07578104037921354 	101355.9348930269
-1.092342342342342 	300.0257116890623 	0.07446899207305673 	101355.399377485
-1.08983983983984 	300.0252538075293 	0.07314261923659844 	101354.8579596515
-1.087337337337337 	300.0247908783479 	0.07180202489945731 	101354.3105755317
-1.084834834834835 	300.0243237809884 	0.0704491147186108 	101353.7582630654
-1.082332332332332 	300.0238527889591 	0.06908431781487909 	101353.2013466974
-1.07982982982983 	300.0233767856501 	0.06770535550680094 	101352.6385093885
-1.077327327327327 	300.0228955526975 	0.06631213474612992 	101352.0694930709
-1.074824824824825 	300.0224109505288 	0.06490870535829336 	101351.4964934684
-1.072322322322323 	300.0219236903626 	0.06349623489274941 	101350.9203491557
-1.06981981981982 	300.0214313309982 	0.06206938750394456 	101350.3381771172
-1.067317317317317 	300.020932524417 	0.06062584571454998 	101349.7483888419
-1.064814814814815 	300.0204306897047 	0.05917356362397194 	101349.1550273474
-1.062312312312312 	300.0199291320857 	0.05771935273232169 	101348.5619951292
-1.05980980980981 	300.019424448061 	0.05625488249814201 	101347.9652622936
-1.057307307307307 	300.0189105194754 	0.05476671006759255 	101347.3575952114
-1.054804804804805 	300.0183890081821 	0.05325981490474303 	101346.7409659517
-1.052302302302302 	300.0178694655478 	0.05175656568844728 	101346.1266759987
-1.0497997997998 	300.0173560379061 	0.05026557707891948 	101345.5196289392
-1.047297297297297 	300.0168392057037 	0.04876345984900131 	101344.9085601599
-1.044794794794795 	300.0163065482805 	0.04722121428449293 	101344.2787712787
-1.042292292292292 	300.0157602959906 	0.04564562549909446 	101343.6328948045
-1.03978978978979 	300.0152179128617 	0.04407955031226895 	101342.991589691
-1.037287287287287 	300.0146923420207 	0.04255375177886993 	101342.3701776226
-1.034784784784785 	300.0141749062151 	0.04104569618402155 	101341.7584097804
-1.032282282282283 	300.0136420990591 	0.03949688209223046 	101341.1284861707
-1.02977977977978 	300.0130802829354 	0.03787418622182454 	101340.4642618224
-1.027277277277277 	300.0125020432062 	0.03621025418078873 	101339.7805987417
-1.024774774774775 	300.0119363125249 	0.03457849755478823 	101339.1117026362
-1.022272272272272 	300.0114015122892 	0.03302540330756146 	101338.4793681604
-1.01976976976977 	300.0108876458098 	0.03152474479573794 	101337.871796625
-1.017267267267267 	300.0103633576496 	0.02999523292898513 	101337.2519295136
-1.014764764764765 	300.0098009424742 	0.02836510437296482 	101336.5870103649
-1.012262262262262 	300.0091985399194 	0.02662998828955131 	101335.874829125
-1.00975975975976 	300.0085826201253 	0.02485964363463058 	101335.1466699579
-1.007257257257257 	300.0079898198694 	0.02315091543751421 	101334.4458435424
-1.004754754754755 	300.0074425797736 	0.02156366114271514 	101333.7988838801
-1.002252252252252 	300.0069354504151 	0.02008352533787151 	101333.1993539183
-0.9997497497497498 	300.0064388031556 	0.01863055477263234 	101332.6122277225
-0.9972472472472473 	300.0059147684548 	0.01710163666724395 	101331.9927316188
-0.9947447447447449 	300.0053352980377 	0.01542005275899368 	101331.307699132
-0.9922422422422421 	300.0046942668057 	0.0135691671347082 	101330.5498810205
-0.9897397397397399 	300.00400980603 	0.01159907423685013 	101329.7407067398
-0.9872372372372376 	300.0033172058373 	0.009607306560701032 	101328.9218952771
-0.9847347347347346 	300.0026563563219 	0.007705088685576119 	101328.1406076697
-0.9822322322322323 	300.0020602497794 	0.005986067419962995 	101327.435852262
-0.9797297297297296 	300.0015493065719 	0.004509471782465772 	101326.8317748364
-0.9772272272272275 	300.001131054242 	0.003298045016800495 	101326.3372782444
-0.9747247247247248 	300.0008026434575 	0.002344701746774469 	101325.9489964868
-0.9722222222222224 	300.0005543804172 	0.001622424564374543 	101325.6554708671
-0.9697197197197196 	300.0003731338786 	0.001093977751516557 	101325.4411778809
-0.9672172172172175 	300.0002450106215 	0.0007196290138278228 	101325.289692622
-0.9647147147147147 	300.0001571176406 	0.0004622956453691422 	101325.1857722664
-0.9622122122122124 	300.0000984932637 	0.0002903104943631248 	101325.1164570585
-0.9597097097097099 	300.0000604113949 	0.0001783717844272567 	101325.071430125
-0.9572072072072073 	300.0000362844839 	0.0001073171178511011 	101325.0429029128
-0.9547047047047047 	300.0000213572333 	6.327366553074063e-05 	101325.0252530393
-0.9522022022022023 	300.000012328124 	3.65843376147597e-05 	101325.0145770268
-0.9496996996996998 	300.0000069833185 	2.075727273777731e-05 	101325.0082572834
-0.9471971971971973 	300.0000038842297 	1.1564128163822e-05 	101325.0045928543
-0.9446946946946947 	300.0000021225885 	6.32949819997634e-06 	101325.0025098714
-0.9421921921921923 	300.0000011402103 	3.405411106085192e-06 	101325.0013482583
-0.93968968968969 	300.0000006023914 	1.801892230734283e-06 	101325.0007122989
-0.9371871871871872 	300.0000003131353 	9.380997063328313e-07 	101325.0003702712
-0.9346846846846848 	300.0000001602133 	4.807507455774058e-07 	101325.0001894675
-0.9321821821821823 	300.0000000807294 	2.426160543980804e-07 	101325.0000954735
-0.9296796796796799 	300.0000000400851 	1.20620180780948e-07 	101325.0000473947
-0.9271771771771771 	300.0000000196047 	5.909843970203139e-08 	101325.000023186
-0.9246746746746748 	300.0000000094449 	2.854714463376298e-08 	101325.0000111817
-0.9221721721721724 	300.0000000044975 	1.359840238923772e-08 	101325.0000053172
-0.9196696696696698 	300.0000000021059 	6.391505527003509e-09 	101325.0000024934
-0.9171671671671672 	300.0000000009554 	2.964205695193817e-09 	101325.0000011528
-0.9146646646646649 	300.00000000044 	1.357307305917296e-09 	101325.0000005249
-0.9121621621621623 	300.0000000002066 	6.136934735070465e-10 	101325.0000002348
-0.9096596596596597 	300.0000000000726 	2.737216533213636e-10 	101325.0000001024
-0.9071571571571573 	300.0000000000333 	1.203038617803846e-10 	101325.0000000429
-0.9046546546546547 	300.000000000025 	5.21073358667803e-11 	101325.0000000164
-0.9021521521521524 	299.9999999999925 	2.323334728891339e-11 	101325.0000000049
-0.8996496496496498 	299.9999999999969 	9.901432025391767e-12 	101325.0000000001
-0.8971471471471473 	300.0000000000075 	4.825987547395498e-12 	101324.9999999981
-0.894644644644645 	300.0000000000052 	3.453652691158541e-12 	101324.9999999974
-0.892142142142142 	300.0000000000006 	1.74640915299972e-12 	101324.9999999971
-0.8896396396396397 	300.0000000000059 	2.376185869759548e-12 	101324.9999999971
-0.8871371371371374 	299.9999999999857 	1.717790193912408e-12 	101324.999999997
-0.8846346346346349 	299.9999999999753 	2.602205062880808e-12 	101324.9999999969
-0.8821321321321324 	299.9999999999767 	2.786951313409411e-12 	101324.9999999969
-0.8796296296296297 	299.9999999999779 	3.244553891308105e-12 	101324.9999999968
-0.8771271271271271 	299.9999999999771 	2.963174168669554e-12 	101324.9999999969
-0.8746246246246248 	299.9999999999935 	2.403301515174203e-12 	101324.9999999969
-0.8721221221221224 	300.0000000000021 	2.331331558259683e-12 	101324.9999999969
-0.8696196196196196 	299.9999999999882 	1.675921425603361e-12 	101324.9999999968
-0.8671171171171175 	299.9999999999933 	1.773275457697868e-12 	101324.9999999969
-0.8646146146146148 	299.9999999999746 	1.1253006598253e-12 	101324.9999999968
-0.8621121121121121 	299.9999999999897 	7.847023674411388e-13 	101324.9999999967
-0.8596096096096097 	300.0000000000081 	5.067893614742867e-13 	101324.9999999966
-0.857107107107107 	299.9999999999835 	3.380831724347993e-13 	101324.9999999966
-0.8546046046046049 	299.9999999999961 	5.487658740609603e-13 	101324.9999999967
-0.8521021021021022 	300.000000000002 	6.815405710549605e-13 	101324.9999999966
-0.8495995995995997 	299.9999999999964 	1.77921342360565e-12 	101324.9999999967
-0.8470970970970974 	299.9999999999702 	1.521239160976188e-12 	101324.9999999967
-0.8445945945945946 	299.9999999999828 	2.081972394181653e-12 	101324.9999999967
-0.8420920920920922 	300.0000000000053 	1.33993205875753e-12 	101324.9999999966
-0.8395895895895897 	299.9999999999972 	3.112823251028798e-12 	101324.9999999966
-0.8370870870870872 	299.9999999999979 	1.631047892606199e-12 	101324.9999999966
-0.8345845845845846 	300.000000000002 	1.763698191299992e-12 	101324.9999999968
-0.8320820820820823 	299.9999999999793 	1.312819816672268e-12 	101324.9999999969
-0.8295795795795798 	299.9999999999609 	1.044519967586253e-12 	101324.9999999971
-0.8270770770770772 	299.9999999999766 	1.281626003364867e-12 	101324.9999999974
-0.8245745745745746 	299.9999999999657 	8.534535796138336e-13 	101324.9999999974
-0.8220720720720721 	299.9999999999798 	7.516840428129521e-13 	101324.9999999975
-0.8195695695695699 	299.999999999997 	9.062789982487164e-13 	101324.9999999976
-0.817067067067067 	299.9999999999832 	1.848795480650272e-12 	101324.9999999975
-0.8145645645645651 	299.9999999999685 	1.443982705899951e-12 	101324.9999999974
-0.8120620620620621 	299.9999999999925 	7.822132265798738e-13 	101324.9999999971
-0.8095595595595597 	300.0000000000022 	4.881748653621219e-13 	101324.9999999969
-0.8070570570570572 	299.9999999999722 	3.931454375533337e-13 	101324.9999999967
-0.8045545545545546 	299.9999999999705 	2.054769898033049e-13 	101324.9999999965
-0.8020520520520523 	299.999999999994 	2.168710268249856e-12 	101324.9999999964
-0.7995495495495494 	300.000000000008 	2.186989888424269e-12 	101324.9999999963
-0.7970470470470474 	299.9999999999982 	3.187281411199725e-12 	101324.9999999964
-0.7945445445445446 	300.000000000002 	2.46791852206868e-12 	101324.9999999965
-0.7920420420420423 	300.0000000000064 	3.80649835062217e-12 	101324.9999999968
-0.7895395395395397 	300.0000000000059 	3.072155559669731e-12 	101324.9999999969
-0.7870370370370371 	300.0000000000029 	3.209736505431708e-12 	101324.9999999967
-0.7845345345345348 	299.9999999999869 	2.736982330533072e-12 	101324.9999999967
-0.7820320320320323 	299.9999999999842 	2.658196046381687e-12 	101324.9999999968
-0.7795295295295296 	299.9999999999641 	2.896343683852571e-12 	101324.9999999969
-0.7770270270270272 	299.9999999999568 	3.281840156133827e-12 	101324.9999999969
-0.7745245245245247 	299.9999999999557 	2.819474150681505e-12 	101324.9999999969
-0.7720220220220222 	299.9999999999753 	3.10174117247956e-12 	101324.999999997
-0.7695195195195199 	299.9999999999778 	1.961092396431064e-12 	101324.9999999971
-0.767017017017017 	299.9999999999902 	3.406040865918331e-12 	101324.999999997
-0.7645145145145147 	300.0000000000069 	2.659427049838787e-12 	101324.999999997
-0.7620120120120122 	300.0000000000103 	3.919125191992986e-12 	101324.999999997
-0.7595095095095097 	299.9999999999699 	4.112013769211057e-12 	101324.999999997
-0.7570070070070072 	299.9999999999724 	5.081512869445691e-12 	101324.999999997
-0.7545045045045048 	299.999999999997 	4.88718441883757e-12 	101324.999999997
-0.7520020020020022 	299.9999999999825 	4.413594032020966e-12 	101324.9999999971
-0.7494994994994997 	299.9999999999804 	3.368928837052915e-12 	101324.999999997
-0.7469969969969972 	300 	2.923141841666631e-12 	101324.9999999969
-0.7444944944944945 	299.9999999999927 	1.729078286863932e-12 	101324.9999999967
-0.7419919919919924 	299.9999999999923 	1.516092104728636e-12 	101324.9999999966
-0.7394894894894897 	299.999999999979 	7.300993423520368e-13 	101324.9999999965
-0.7369869869869872 	299.9999999999947 	6.911746235953355e-13 	101324.9999999963
-0.7344844844844846 	299.9999999999823 	2.132362959847663e-12 	101324.9999999961
-0.7319819819819822 	300.0000000000013 	1.158204409632795e-12 	101324.9999999961
-0.7294794794794797 	299.9999999999991 	2.854830710144159e-12 	101324.999999996
-0.7269769769769773 	300.0000000000044 	1.593976675588285e-12 	101324.9999999959
-0.7244744744744747 	300.0000000000089 	2.02485422112151e-12 	101324.9999999958
-0.721971971971972 	299.9999999999802 	1.801921558695894e-12 	101324.9999999959
-0.7194694694694695 	299.9999999999918 	1.678396876578017e-12 	101324.9999999959
-0.7169669669669674 	299.9999999999683 	1.724462921310859e-12 	101324.999999996
-0.7144644644644647 	299.9999999999864 	1.735853502478582e-12 	101324.9999999964
-0.711961961961962 	300.0000000000034 	1.74166489244591e-12 	101324.9999999965
-0.7094594594594597 	300.00000000001 	8.445637170977405e-13 	101324.9999999964
-0.7069569569569573 	300.0000000000125 	7.637365566820267e-13 	101324.9999999963
-0.7044544544544545 	300.0000000000132 	9.254496791518409e-13 	101324.9999999964
-0.7019519519519523 	300.000000000004 	3.743196471248011e-13 	101324.9999999965
-0.6994494494494495 	299.9999999999666 	3.361006739270301e-13 	101324.9999999966
-0.6969469469469471 	299.9999999999752 	6.398690721277399e-13 	101324.9999999965
-0.6944444444444446 	299.9999999999841 	7.485207225967435e-13 	101324.9999999964
-0.6919419419419421 	300.0000000000151 	8.957890658683275e-13 	101324.9999999963
-0.6894394394394396 	299.9999999999973 	4.923535176918267e-13 	101324.9999999964
-0.6869369369369374 	300.000000000003 	3.511052905694548e-13 	101324.9999999965
-0.6844344344344344 	300.0000000000078 	6.411197893217176e-13 	101324.9999999964
-0.6819319319319321 	299.9999999999786 	3.650422196872089e-13 	101324.9999999964
-0.6794294294294296 	299.9999999999719 	4.789520631470009e-13 	101324.9999999964
-0.6769269269269272 	299.9999999999577 	4.377184442741415e-13 	101324.9999999965
-0.6744244244244245 	299.9999999999844 	1.052281873640256e-13 	101324.9999999966
-0.6719219219219222 	299.9999999999811 	6.060876971467622e-14 	101324.9999999968
-0.6694194194194195 	299.9999999999973 	3.446718648227532e-13 	101324.9999999969
-0.6669169169169172 	300.0000000000053 	7.609266433436451e-13 	101324.999999997
-0.6644144144144146 	299.9999999999832 	5.076061401945055e-13 	101324.9999999968
-0.661911911911912 	299.9999999999859 	5.528344552360039e-13 	101324.9999999968
-0.6594094094094097 	299.9999999999897 	4.533380474444667e-13 	101324.9999999968
-0.656906906906907 	299.999999999972 	1.040406450744145e-13 	101324.9999999968
-0.6544044044044046 	299.9999999999749 	1.262713807849072e-12 	101324.9999999968
-0.6519019019019021 	299.999999999997 	5.446048680084282e-13 	101324.9999999968
-0.6493993993993996 	300.0000000000127 	1.823176302544104e-12 	101324.9999999968
-0.6468968968968971 	300.0000000000159 	1.958787356462363e-12 	101324.9999999968
-0.6443943943943946 	299.9999999999962 	1.578461910906469e-12 	101324.9999999967
-0.6418918918918921 	299.9999999999985 	1.545708243755716e-12 	101324.9999999966
-0.6393893893893897 	299.9999999999994 	7.329553501399642e-13 	101324.9999999966
-0.6368868868868871 	299.999999999987 	7.804053266561956e-13 	101324.9999999965
-0.6343843843843846 	299.9999999999995 	6.387599741745501e-13 	101324.9999999963
-0.6318818818818821 	299.999999999982 	4.221274425695752e-13 	101324.9999999963
-0.6293793793793795 	300.0000000000028 	5.51185650344945e-13 	101324.9999999962
-0.6268768768768773 	300.0000000000086 	8.058828406612504e-13 	101324.9999999963
-0.6243743743743745 	299.9999999999897 	4.874100876597406e-13 	101324.9999999965
-0.6218718718718721 	300.0000000000008 	1.661460892371872e-12 	101324.9999999968
-0.6193693693693696 	299.999999999971 	8.241398238023187e-13 	101324.9999999969
-0.6168668668668671 	299.999999999992 	1.609727704741712e-12 	101324.9999999971
-0.6143643643643645 	300.0000000000036 	1.004933702937558e-12 	101324.9999999971
-0.6118618618618621 	299.9999999999905 	1.352332065875444e-12 	101324.9999999973
-0.6093593593593596 	299.9999999999924 	1.333259777407269e-12 	101324.9999999973
-0.6068568568568571 	299.9999999999925 	1.711566034034264e-12 	101324.9999999973
-0.6043543543543546 	299.9999999999785 	1.736386889271222e-12 	101324.9999999972
-0.6018518518518521 	299.9999999999854 	2.012854328125852e-12 	101324.9999999973
-0.5993493493493496 	299.9999999999749 	1.40489567055919e-12 	101324.9999999971
-0.5968468468468471 	299.9999999999788 	1.836632161550932e-12 	101324.999999997
-0.5943443443443446 	299.9999999999963 	8.919553089762589e-13 	101324.9999999969
-0.591841841841842 	299.9999999999791 	1.262877405059995e-12 	101324.9999999967
-0.5893393393393397 	299.9999999999782 	1.095496418754872e-12 	101324.9999999968
-0.5868368368368371 	299.999999999996 	1.863115754718879e-12 	101324.9999999966
-0.5843343343343346 	300.0000000000019 	1.705107576322759e-12 	101324.9999999964
-0.5818318318318321 	300.0000000000147 	2.193806472542274e-12 	101324.9999999965
-0.5793293293293297 	299.9999999999928 	1.509335615548177e-12 	101324.9999999965
-0.5768268268268271 	299.9999999999995 	1.718263610110821e-12 	101324.9999999962
-0.5743243243243245 	300.0000000000078 	9.87778944999837e-13 	101324.9999999962
-0.5718218218218221 	300.0000000000084 	6.696769647417934e-13 	101324.9999999964
-0.5693193193193196 	300.0000000000184 	3.135832500632777e-13 	101324.9999999965
-0.5668168168168171 	299.9999999999911 	2.664578667133012e-13 	101324.9999999968
-0.5643143143143147 	299.9999999999739 	1.35648078655694e-12 	101324.999999997
-0.5618118118118121 	300.0000000000049 	6.827491849380744e-13 	101324.9999999972
-0.5593093093093094 	300.0000000000141 	1.077254258635293e-12 	101324.9999999972
-0.5568068068068072 	300.000000000009 	7.24577280110018e-13 	101324.9999999971
-0.5543043043043046 	300.0000000000106 	8.350822926546921e-13 	101324.9999999971
-0.551801801801802 	299.9999999999801 	5.159687550954989e-13 	101324.999999997
-0.5492992992992995 	299.9999999999997 	6.496578826749713e-13 	101324.9999999971
-0.5467967967967969 	300.0000000000071 	3.879911089319875e-13 	101324.9999999969
-0.5442942942942947 	300.000000000001 	7.077253254157731e-13 	101324.999999997
-0.5417917917917919 	299.9999999999795 	3.088195203772069e-13 	101324.9999999971
-0.5392892892892895 	299.9999999999699 	5.461660303320385e-13 	101324.9999999972
-0.536786786786787 	299.9999999999816 	3.235770077770033e-13 	101324.9999999974
-0.5342842842842846 	299.9999999999843 	8.699391914569906e-13 	101324.9999999974
-0.531781781781782 	299.9999999999745 	3.676621141370844e-13 	101324.9999999975
-0.5292792792792794 	299.99999999997 	1.802578409207686e-12 	101324.9999999973
-0.526776776776777 	299.9999999999602 	6.66187130526185e-13 	101324.9999999973
-0.5242742742742745 	299.9999999999893 	3.489240282931873e-12 	101324.9999999973
-0.521771771771772 	300.0000000000073 	1.924643743707571e-12 	101324.9999999975
-0.5192692692692695 	299.9999999999816 	4.198817603292814e-12 	101324.9999999975
-0.516766766766767 	300.0000000000015 	2.242763056241265e-12 	101324.9999999974
-0.5142642642642645 	299.9999999999885 	3.461928230339167e-12 	101324.9999999974
-0.511761761761762 	299.9999999999784 	1.596236107939408e-12 	101324.9999999973
-0.5092592592592596 	299.9999999999858 	2.887966795290341e-12 	101324.9999999972
-0.506756756756757 	299.9999999999745 	1.057839679019832e-12 	101324.9999999973
-0.5042542542542544 	299.9999999999998 	1.687112553162544e-12 	101324.9999999971
-0.5017517517517521 	300.0000000000137 	6.9710711192181e-13 	101324.9999999969
-0.4992492492492494 	300.0000000000146 	9.864975533457807e-13 	101324.9999999967
-0.496746746746747 	299.9999999999964 	4.644328171331309e-13 	101324.9999999968
-0.4942442442442445 	299.9999999999735 	3.576484689825962e-13 	101324.9999999968
-0.4917417417417421 	299.9999999999737 	3.060529933056316e-13 	101324.9999999968
-0.4892392392392395 	299.9999999999832 	7.033444398161853e-13 	101324.9999999967
-0.486736736736737 	299.9999999999823 	3.451934268352995e-13 	101324.9999999966
-0.4842342342342345 	299.9999999999642 	1.288896483045547e-12 	101324.9999999964
-0.481731731731732 	300.0000000000135 	7.848735072380733e-13 	101324.9999999965
-0.4792292292292296 	300.0000000000083 	2.640210310999434e-12 	101324.9999999964
-0.4767267267267268 	299.9999999999818 	7.211331342111736e-13 	101324.9999999963
-0.4742242242242246 	300.0000000000007 	3.087056618763814e-12 	101324.9999999963
-0.471721721721722 	299.9999999999814 	7.188298907410845e-13 	101324.9999999963
-0.4692192192192195 	299.9999999999872 	1.774932432562113e-12 	101324.9999999965
-0.4667167167167169 	299.9999999999565 	1.10188966861566e-12 	101324.9999999969
-0.4642142142142145 	299.9999999999981 	7.485511967843664e-13 	101324.9999999971
-0.461711711711712 	300.0000000000094 	1.210881868010305e-12 	101324.9999999973
-0.4592092092092094 	300.0000000000056 	6.607276054421682e-13 	101324.9999999975
-0.456706706706707 	300.0000000000229 	6.537106536600517e-13 	101324.9999999974
-0.4542042042042045 	299.9999999999715 	3.21445455040521e-13 	101324.9999999972
-0.451701701701702 	299.9999999999772 	1.980381086729716e-13 	101324.9999999972
-0.4491991991991995 	299.9999999999846 	7.51480923251947e-13 	101324.9999999969
-0.4466966966966969 	299.9999999999846 	3.402363196260023e-13 	101324.9999999968
-0.4441941941941945 	299.9999999999957 	1.192850607698479e-12 	101324.9999999967
-0.441691691691692 	299.9999999999803 	6.664936361277158e-13 	101324.9999999967
-0.4391891891891895 	299.9999999999925 	2.125958662927707e-12 	101324.9999999969
-0.436686686686687 	299.999999999986 	1.492135507075383e-12 	101324.9999999972
-0.4341841841841846 	299.9999999999965 	2.556316577224925e-12 	101324.9999999974
-0.431681681681682 	299.9999999999781 	1.329246751467266e-12 	101324.9999999973
-0.4291791791791794 	299.9999999999606 	2.028022353911405e-12 	101324.9999999971
-0.426676676676677 	299.9999999999631 	5.10095187297941e-13 	101324.999999997
-0.4241741741741744 	299.9999999999854 	1.705342313911692e-12 	101324.9999999971
-0.421671671671672 	300.0000000000015 	7.472057160008788e-13 	101324.9999999972
-0.4191691691691694 	300.000000000021 	1.30330611105031e-12 	101324.9999999971
-0.4166666666666669 	300.0000000000252 	1.062048916197618e-12 	101324.9999999971
-0.4141641641641645 	299.9999999999736 	1.112516767978918e-12 	101324.9999999971
-0.411661661661662 	300.0000000000016 	1.052006243782985e-12 	101324.9999999973
-0.4091591591591594 	300.0000000000048 	8.686817188897245e-13 	101324.9999999975
-0.406656656656657 	299.9999999999765 	9.226125203814444e-13 	101324.9999999974
-0.4041541541541545 	300.0000000000097 	1.250503222953158e-12 	101324.9999999976
-0.401651651651652 	299.9999999999673 	7.443260246090667e-13 	101324.9999999975
-0.3991491491491494 	300.0000000000004 	1.415224527384316e-12 	101324.9999999974
-0.396646646646647 	299.9999999999825 	2.142912646831492e-12 	101324.9999999971
-0.3941441441441444 	299.9999999999892 	2.054019655763097e-12 	101324.9999999972
-0.3916416416416419 	299.9999999999714 	1.805620625010147e-12 	101324.9999999972
-0.3891391391391395 	299.9999999999841 	1.99464825259534e-12 	101324.9999999971
-0.3866366366366368 	299.9999999999814 	5.064201058110349e-13 	101324.9999999971
-0.3841341341341344 	299.9999999999999 	1.732273231805404e-12 	101324.9999999973
-0.381631631631632 	299.999999999982 	1.556704411952511e-12 	101324.9999999972
-0.3791291291291294 	300.0000000000018 	1.456747738550615e-12 	101324.9999999973
-0.3766266266266269 	300.0000000000073 	1.479217965236471e-12 	101324.999999997
-0.3741241241241244 	300.0000000000098 	6.766118056274122e-13 	101324.9999999969
-0.371621621621622 	300.0000000000098 	1.21201452683509e-12 	101324.9999999967
-0.3691191191191194 	300.0000000000021 	1.405204661761669e-12 	101324.9999999968
-0.366616616616617 	300.0000000000011 	2.039788526605081e-12 	101324.9999999969
-0.3641141141141143 	299.9999999999852 	1.66905954301904e-12 	101324.9999999969
-0.3616116116116119 	299.9999999999746 	1.133729791609764e-12 	101324.9999999969
-0.3591091091091095 	299.9999999999918 	1.382737494915199e-12 	101324.999999997
-0.356606606606607 	299.9999999999955 	8.44588934304102e-13 	101324.9999999971
-0.3541041041041044 	299.999999999999 	6.553296169589448e-13 	101324.9999999972
-0.3516016016016019 	300.0000000000122 	8.581082845016872e-13 	101324.9999999971
-0.3490990990990994 	299.9999999999981 	4.821970897067437e-13 	101324.9999999971
-0.346596596596597 	300.000000000013 	1.795062078837673e-12 	101324.9999999971
-0.3440940940940944 	300.0000000000162 	4.442895237790467e-13 	101324.999999997
-0.3415915915915919 	300.0000000000152 	1.928889002706607e-12 	101324.9999999968
-0.3390890890890895 	299.9999999999905 	4.608199557983822e-13 	101324.9999999968
-0.3365865865865869 	300.0000000000074 	7.749999584294836e-13 	101324.9999999966
-0.3340840840840844 	299.9999999999959 	5.062677368396983e-13 	101324.9999999963
-0.3315815815815819 	300.0000000000105 	8.521026612273263e-13 	101324.9999999963
-0.3290790790790794 	300.0000000000146 	1.33834429762789e-12 	101324.9999999961
-0.3265765765765769 	299.9999999999729 	1.737173923472791e-12 	101324.9999999963
-0.3240740740740744 	300.0000000000024 	1.157730037387688e-12 	101324.9999999963
-0.3215715715715718 	300.0000000000091 	1.728510823789554e-12 	101324.9999999964
-0.3190690690690695 	299.9999999999743 	6.596459337381099e-13 	101324.9999999966
-0.3165665665665668 	299.9999999999941 	1.151037786284347e-12 	101324.9999999967
-0.3140640640640644 	299.9999999999975 	2.187100011562692e-13 	101324.9999999967
-0.311561561561562 	299.9999999999685 	1.873751085161462e-12 	101324.9999999969
-0.3090590590590593 	299.9999999999976 	1.170938778006382e-12 	101324.9999999967
-0.3065565565565568 	300 	2.885560771371712e-12 	101324.9999999968
-0.3040540540540545 	299.9999999999984 	1.166843495026131e-12 	101324.9999999968
-0.3015515515515518 	300.0000000000092 	3.120325923255492e-12 	101324.9999999965
-0.2990490490490494 	299.9999999999718 	1.127277788274416e-12 	101324.9999999964
-0.2965465465465469 	299.9999999999988 	1.958276397514599e-12 	101324.9999999964
-0.2940440440440444 	299.9999999999982 	1.428583526325019e-12 	101324.9999999962
-0.2915415415415418 	300.0000000000068 	1.520009011961213e-12 	101324.9999999962
-0.2890390390390395 	300.0000000000081 	1.745808977426702e-12 	101324.9999999961
-0.2865365365365368 	299.9999999999853 	1.144698827002167e-12 	101324.9999999961
-0.2840340340340343 	299.9999999999934 	2.52480128344786e-12 	101324.9999999961
-0.2815315315315318 	299.9999999999651 	1.509211628230083e-12 	101324.9999999963
-0.2790290290290295 	299.9999999999853 	3.024668180336779e-12 	101324.9999999962
-0.2765265265265269 	300.0000000000075 	2.399940525327997e-12 	101324.9999999963
-0.2740240240240244 	300.0000000000095 	2.893533103466773e-12 	101324.9999999962
-0.2715215215215219 	300.0000000000068 	3.483512930594792e-12 	101324.999999996
-0.2690190190190194 	299.999999999972 	3.28524632276632e-12 	101324.9999999956
-0.2665165165165169 	299.9999999999958 	3.964577559730919e-12 	101324.9999999957
-0.2640140140140144 	299.9999999999921 	3.200664232869314e-12 	101324.999999996
-0.2615115115115119 	299.9999999999986 	4.628608752040404e-12 	101324.9999999959
-0.2590090090090094 	299.9999999999651 	3.168365179358028e-12 	101324.9999999961
-0.2565065065065068 	299.9999999999943 	3.929187071177803e-12 	101324.9999999961
-0.2540040040040044 	299.9999999999933 	3.95155008194897e-12 	101324.9999999961
-0.2515015015015019 	300.0000000000123 	3.744233803962448e-12 	101324.9999999961
-0.2489989989989994 	300.000000000018 	4.16560504647657e-12 	101324.9999999959
-0.2464964964964968 	299.9999999999907 	2.354533554384239e-12 	101324.9999999958
-0.2439939939939944 	299.9999999999954 	4.417916376839517e-12 	101324.9999999961
-0.2414914914914919 	299.9999999999835 	2.120325495847569e-12 	101324.9999999961
-0.2389889889889893 	299.9999999999966 	4.474224220030282e-12 	101324.9999999962
-0.2364864864864869 	300.0000000000065 	2.907678724225614e-12 	101324.9999999963
-0.2339839839839843 	299.9999999999753 	5.378352533833433e-12 	101324.999999996
-0.2314814814814819 	299.9999999999888 	3.426310946187808e-12 	101324.9999999961
-0.2289789789789792 	299.999999999967 	5.667305148515935e-12 	101324.9999999961
-0.2264764764764769 	299.999999999972 	4.000090044430426e-12 	101324.999999996
-0.2239739739739743 	299.9999999999826 	4.107150687623089e-12 	101324.9999999961
-0.2214714714714718 	299.9999999999729 	3.597639632569511e-12 	101324.9999999962
-0.2189689689689693 	299.9999999999846 	2.590757883801753e-12 	101324.9999999962
-0.2164664664664669 	299.9999999999876 	4.035683623783405e-12 	101324.9999999962
-0.2139639639639643 	299.9999999999681 	2.372304519271221e-12 	101324.9999999961
-0.2114614614614618 	299.9999999999872 	3.130413644222948e-12 	101324.999999996
-0.2089589589589593 	300.0000000000031 	2.665545478907254e-12 	101324.999999996
-0.2064564564564568 	300.0000000000025 	2.833197948491275e-12 	101324.9999999961
-0.2039539539539543 	299.9999999999669 	3.486500050905355e-12 	101324.999999996
-0.2014514514514518 	299.9999999999663 	2.428616027127055e-12 	101324.9999999958
-0.1989489489489494 	299.9999999999924 	4.963406656894833e-12 	101324.9999999957
-0.1964464464464468 	300.0000000000006 	2.495680766546482e-12 	101324.9999999959
-0.1939439439439443 	299.9999999999953 	4.755130454125042e-12 	101324.9999999959
-0.1914414414414418 	299.999999999969 	2.996067702779765e-12 	101324.999999996
-0.1889389389389393 	299.999999999998 	3.279413295500316e-12 	101324.9999999961
-0.1864364364364368 	300.0000000000119 	2.959289043069511e-12 	101324.999999996
-0.1839339339339343 	299.9999999999872 	3.445790027790362e-12 	101324.999999996
-0.1814314314314318 	299.9999999999945 	3.874888872303464e-12 	101324.9999999958
-0.1789289289289293 	299.9999999999575 	3.899168945039017e-12 	101324.9999999957
-0.1764264264264268 	299.9999999999849 	3.638687460077196e-12 	101324.9999999956
-0.1739239239239243 	299.9999999999577 	4.033895857046732e-12 	101324.9999999956
-0.1714214214214218 	299.9999999999982 	2.81007104858455e-12 	101324.9999999957
-0.1689189189189193 	299.999999999975 	4.297852636331844e-12 	101324.9999999957
-0.1664164164164168 	299.9999999999965 	2.35707152319656e-12 	101324.9999999955
-0.1639139139139143 	299.9999999999942 	5.58701038288425e-12 	101324.9999999955
-0.1614114114114118 	300.0000000000079 	1.915628138794916e-12 	101324.9999999956
-0.1589089089089093 	300.0000000000011 	7.46361401857857e-12 	101324.9999999959
-0.1564064064064068 	299.9999999999861 	9.4597130856512e-13 	101324.999999996
-0.1539039039039043 	299.9999999999961 	8.057268364827396e-12 	101324.999999996
-0.1514014014014018 	300.0000000000105 	1.67199072295075e-12 	101324.999999996
-0.1488988988988993 	299.9999999999979 	7.266574276631606e-12 	101324.9999999959
-0.1463963963963968 	300.0000000000007 	2.598959132462349e-12 	101324.9999999958
-0.1438938938938943 	299.999999999985 	6.47164129534577e-12 	101324.9999999957
-0.1413913913913918 	299.9999999999631 	3.254340585131559e-12 	101324.9999999956
-0.1388888888888893 	299.9999999999858 	5.037273944431061e-12 	101324.9999999955
-0.1363863863863868 	299.9999999999551 	3.647551477361216e-12 	101324.9999999953
-0.1338838838838843 	299.9999999999725 	4.156586657967401e-12 	101324.9999999954
-0.1313813813813818 	299.9999999999933 	3.457345340270344e-12 	101324.9999999953
-0.1288788788788793 	299.9999999999799 	4.264093747500269e-12 	101324.9999999956
-0.1263763763763768 	299.999999999989 	3.223508716129382e-12 	101324.9999999957
-0.1238738738738743 	299.999999999971 	4.223178002246539e-12 	101324.9999999956
-0.1213713713713717 	299.9999999999939 	2.808514387189271e-12 	101324.9999999956
-0.1188688688688693 	300.0000000000044 	4.643873141127184e-12 	101324.9999999954
-0.1163663663663668 	299.9999999999576 	2.71054350691386e-12 	101324.9999999955
-0.1138638638638643 	299.9999999999969 	5.10756435713839e-12 	101324.9999999955
-0.1113613613613618 	299.9999999999949 	2.354037684683094e-12 	101324.9999999957
-0.1088588588588592 	299.9999999999915 	6.058529107643782e-12 	101324.9999999958
-0.1063563563563568 	299.9999999999847 	2.89548153844602e-12 	101324.9999999957
-0.1038538538538543 	299.9999999999939 	5.270560395101613e-12 	101324.9999999954
-0.1013513513513517 	300.0000000000027 	3.304232849755419e-12 	101324.999999995
-0.09884884884884926 	299.9999999999787 	4.394800624150462e-12 	101324.9999999951
-0.09634634634634676 	299.9999999999622 	3.24998669968535e-12 	101324.9999999953
-0.09384384384384425 	299.9999999999632 	3.302223274104259e-12 	101324.9999999956
-0.09134134134134177 	300.0000000000088 	2.43558338508822e-12 	101324.9999999956
-0.08883883883883925 	300.0000000000036 	3.43290598055949e-12 	101324.9999999956
-0.08633633633633674 	299.9999999999794 	3.090103423450328e-12 	101324.9999999958
-0.08383383383383426 	300.0000000000003 	2.77631087481579e-12 	101324.9999999957
-0.08133133133133173 	299.9999999999825 	3.180939499686522e-12 	101324.9999999958
-0.07882882882882926 	299.9999999999513 	3.013914723947381e-12 	101324.9999999957
-0.07632632632632676 	299.9999999999851 	2.754801743184337e-12 	101324.9999999958
-0.07382382382382424 	299.9999999999544 	2.107723169524224e-12 	101324.9999999957
-0.07132132132132173 	300.0000000000005 	2.03304474424686e-12 	101324.9999999956
-0.06881881881881925 	299.9999999999782 	2.456724268935401e-12 	101324.9999999957
-0.06631631631631671 	299.9999999999522 	1.90183826193839e-12 	101324.9999999956
-0.06381381381381425 	299.9999999999821 	1.764787879000212e-12 	101324.9999999954
-0.06131131131131173 	299.9999999999832 	1.96078478736206e-12 	101324.9999999954
-0.05880880880880923 	299.9999999999657 	1.774861953736396e-12 	101324.9999999954
-0.05630630630630672 	299.9999999999855 	1.7070374447991e-12 	101324.9999999955
-0.05380380380380424 	300.0000000000077 	1.830104500510554e-12 	101324.9999999959
-0.05130130130130173 	300.0000000000031 	1.711633135241097e-12 	101324.999999996
-0.04879879879879922 	299.9999999999754 	1.457665498686669e-12 	101324.9999999959
-0.04629629629629672 	299.999999999975 	9.789735873208858e-13 	101324.999999996
-0.04379379379379422 	299.9999999999614 	6.414772490488594e-13 	101324.999999996
-0.04129129129129173 	299.9999999999908 	4.979438907385284e-14 	101324.9999999959
-0.03878878878878922 	299.9999999999943 	1.078543498784182e-14 	101324.9999999957
-0.03628628628628671 	299.999999999994 	4.097986307023759e-13 	101324.9999999957
-0.03378378378378422 	299.9999999999721 	2.17949087152626e-13 	101324.9999999956
-0.03128128128128172 	299.9999999999863 	8.234035691597666e-13 	101324.9999999953
-0.02877877877877922 	299.9999999999857 	4.575157624675117e-14 	101324.9999999953
-0.0262762762762767 	299.9999999999574 	1.830572574506741e-13 	101324.9999999954
-0.02377377377377422 	300.0000000000077 	1.508351154818465e-13 	101324.9999999953
-0.0212712712712717 	299.9999999999596 	6.46176021530089e-13 	101324.9999999954
-0.01876876876876921 	299.9999999999898 	2.511519355265078e-13 	101324.9999999953
-0.01626626626626671 	300.0000000000026 	5.664183701008973e-13 	101324.9999999952
-0.0137637637637642 	299.999999999986 	1.780794477008052e-13 	101324.9999999954
-0.0112612612612617 	300.0000000000064 	6.106260980751706e-13 	101324.9999999956
-0.008758758758759198 	299.9999999999979 	9.385177965690918e-13 	101324.9999999953
-0.006256256256256697 	299.9999999999512 	1.368984339248957e-12 	101324.9999999953
-0.003753753753754195 	299.9999999999789 	8.927674476068661e-13 	101324.9999999952
-0.001251251251251693 	299.9999999999702 	1.30593797264633e-12 	101324.9999999951
0.00125125125125081 	299.999999999976 	8.300908131221097e-13 	101324.9999999952
0.003753753753753312 	299.9999999999852 	1.287466965142688e-12 	101324.9999999953
0.006256256256255817 	299.9999999999524 	1.048571803655532e-12 	101324.9999999951
0.008758758758758317 	299.9999999999965 	6.3334284270123e-13 	101324.9999999954
0.01126126126126082 	300.0000000000002 	3.392658135176004e-13 	101324.9999999954
0.01376376376376332 	299.9999999999852 	3.865746839706017e-13 	101324.9999999953
0.01626626626626582 	300.000000000003 	3.562205075387409e-13 	101324.9999999953
0.01876876876876833 	299.9999999999753 	7.684373595570439e-13 	101324.9999999953
0.02127127127127083 	299.9999999999848 	3.200787897647965e-13 	101324.9999999953
0.02377377377377332 	299.9999999999976 	3.590633841230791e-13 	101324.9999999954
0.02627627627627583 	299.9999999999595 	9.947313862666539e-14 	101324.999999995
0.02877877877877833 	300 	8.16030065522191e-13 	101324.999999995
0.03128128128128083 	299.9999999999757 	1.241460924711098e-12 	101324.9999999949
0.03378378378378333 	299.9999999999582 	2.038457892922512e-12 	101324.9999999949
0.03628628628628584 	299.9999999999897 	2.264611446195655e-12 	101324.9999999954
0.03878878878878834 	299.9999999999932 	2.037558248512398e-12 	101324.9999999953
0.04129129129129084 	299.9999999999895 	1.994983894214502e-12 	101324.9999999952
0.04379379379379333 	299.9999999999765 	1.591158108030409e-12 	101324.9999999951
0.04629629629629585 	299.9999999999535 	2.058179568543698e-12 	101324.9999999952
0.04879879879879834 	299.9999999999807 	2.195564579080391e-12 	101324.9999999954
0.05130130130130085 	299.9999999999999 	1.924468112838576e-12 	101324.9999999954
0.05380380380380335 	300.000000000009 	1.507983236831559e-12 	101324.9999999952
0.05630630630630584 	299.999999999997 	1.920197626091246e-12 	101324.9999999953
0.05880880880880836 	299.99999999997 	2.111731013817808e-12 	101324.9999999953
0.06131131131131085 	299.9999999999872 	2.768234051231819e-12 	101324.9999999956
0.06381381381381336 	299.9999999999811 	2.770930092363084e-12 	101324.9999999955
0.06631631631631586 	299.9999999999515 	2.507793325422685e-12 	101324.9999999954
0.06881881881881835 	299.999999999975 	2.767065630955505e-12 	101324.9999999954
0.07132132132132088 	300.0000000000003 	2.105589520876573e-12 	101324.9999999956
0.07382382382382337 	299.9999999999567 	2.495743169033157e-12 	101324.9999999956
0.07632632632632587 	299.9999999999856 	2.494834775805397e-12 	101324.9999999958
0.07882882882882837 	299.9999999999678 	2.749611417526183e-12 	101324.9999999957
0.08133133133133086 	299.9999999999953 	3.479423259321565e-12 	101324.999999996
0.08383383383383337 	300.0000000000001 	3.636041662308843e-12 	101324.9999999958
0.08633633633633589 	299.9999999999585 	4.301926053097754e-12 	101324.9999999958
0.08883883883883838 	300.0000000000061 	4.626490555833335e-12 	101324.9999999957
0.09134134134134086 	299.9999999999955 	3.71766389020089e-12 	101324.9999999954
0.09384384384384339 	299.999999999957 	3.74298514324808e-12 	101324.9999999953
0.09634634634634588 	299.9999999999825 	3.378449339379942e-12 	101324.9999999955
0.09884884884884838 	299.9999999999847 	3.397241369083257e-12 	101324.9999999958
0.1013513513513509 	300.0000000000109 	2.959420643666447e-12 	101324.9999999955
0.1038538538538534 	299.9999999999757 	3.049107397953267e-12 	101324.9999999955
0.1063563563563559 	300.000000000004 	3.330891775495176e-12 	101324.9999999959
0.1088588588588584 	300.0000000000092 	2.958807587415678e-12 	101324.9999999959
0.1113613613613609 	299.9999999999757 	3.508776701097883e-12 	101324.999999996
0.1138638638638634 	299.9999999999818 	3.263532481900788e-12 	101324.999999996
0.1163663663663659 	299.9999999999774 	3.744956071571825e-12 	101324.999999996
0.1188688688688684 	299.9999999999886 	4.024165411545504e-12 	101324.9999999961
0.1213713713713709 	299.9999999999969 	3.93154006403497e-12 	101324.9999999962
0.1238738738738734 	299.9999999999651 	4.12256195517238e-12 	101324.9999999961
0.1263763763763759 	299.999999999996 	4.377437033561129e-12 	101324.9999999959
0.1288788788788784 	299.999999999996 	3.918930374003915e-12 	101324.9999999957
0.1313813813813809 	299.9999999999952 	3.81436233456641e-12 	101324.9999999955
0.1338838838838834 	299.9999999999838 	4.083987226340741e-12 	101324.9999999957
0.1363863863863859 	300.0000000000102 	4.462418906217503e-12 	101324.9999999958
0.1388888888888884 	300.0000000000169 	4.018768022888289e-12 	101324.9999999958
0.1413913913913909 	299.9999999999976 	3.929207763986781e-12 	101324.9999999957
0.1438938938938934 	299.9999999999891 	4.183872430915959e-12 	101324.9999999956
0.1463963963963959 	299.9999999999837 	4.088604960841462e-12 	101324.9999999957
0.1488988988988985 	299.9999999999592 	4.555305233476359e-12 	101324.9999999959
0.1514014014014009 	299.9999999999866 	3.627677180452951e-12 	101324.9999999962
0.1539039039039035 	299.9999999999835 	4.096873074669711e-12 	101324.9999999961
0.1564064064064059 	299.9999999999789 	2.373501301623778e-12 	101324.9999999962
0.1589089089089084 	299.9999999999905 	4.688488966245819e-12 	101324.9999999961
0.1614114114114109 	299.9999999999883 	2.542664682030793e-12 	101324.999999996
0.1639139139139134 	299.999999999965 	3.539781233398953e-12 	101324.999999996
0.166416416416416 	299.9999999999979 	3.284249042328139e-12 	101324.999999996
0.1689189189189185 	300.0000000000129 	3.175833687145402e-12 	101324.9999999961
0.1714214214214209 	299.9999999999953 	3.833478203998896e-12 	101324.999999996
0.1739239239239235 	299.9999999999924 	2.838976039576838e-12 	101324.9999999965
0.1764264264264259 	299.9999999999841 	4.382780023337262e-12 	101324.9999999962
0.1789289289289284 	300.000000000004 	2.82904113854186e-12 	101324.9999999959
0.181431431431431 	299.9999999999854 	5.660192272516183e-12 	101324.999999996
0.1839339339339334 	299.9999999999872 	4.087351884520701e-12 	101324.999999996
0.186436436436436 	299.9999999999731 	5.585439822126011e-12 	101324.999999996
0.1889389389389385 	299.9999999999915 	4.91805320105765e-12 	101324.9999999961
0.191441441441441 	299.9999999999905 	4.587907643956317e-12 	101324.9999999963
0.1939439439439434 	299.9999999999662 	5.108924121239802e-12 	101324.9999999964
0.196446446446446 	299.9999999999768 	3.616941472415152e-12 	101324.9999999963
0.1989489489489485 	299.9999999999843 	5.388772372131909e-12 	101324.9999999962
0.2014514514514509 	299.9999999999925 	3.719859561711021e-12 	101324.9999999961
0.2039539539539535 	299.9999999999972 	5.227883904250556e-12 	101324.9999999961
0.2064564564564559 	299.9999999999798 	4.132264480576222e-12 	101324.9999999961
0.2089589589589585 	299.9999999999912 	4.326039444738263e-12 	101324.9999999962
0.211461461461461 	299.9999999999751 	3.763437775610496e-12 	101324.9999999962
0.2139639639639635 	299.9999999999961 	3.349936809773267e-12 	101324.9999999963
0.2164664664664659 	300.0000000000041 	4.1139003155071e-12 	101324.9999999961
0.2189689689689684 	300.000000000004 	2.581256982004178e-12 	101324.999999996
0.221471471471471 	299.9999999999989 	4.81727442979978e-12 	101324.9999999958
0.2239739739739735 	299.9999999999779 	3.568043448801402e-12 	101324.999999996
0.226476476476476 	299.9999999999927 	4.639292823018556e-12 	101324.999999996
0.2289789789789785 	300.0000000000012 	4.304945233191627e-12 	101324.9999999961
0.231481481481481 	299.9999999999954 	4.507659589321747e-12 	101324.999999996
0.2339839839839835 	299.9999999999918 	4.982929570441008e-12 	101324.9999999962
0.236486486486486 	300.0000000000081 	3.628920777681795e-12 	101324.9999999962
0.2389889889889885 	300.0000000000006 	4.503207511848928e-12 	101324.9999999961
0.241491491491491 	299.9999999999654 	2.663799859415291e-12 	101324.9999999964
0.2439939939939935 	299.9999999999894 	4.914371115167811e-12 	101324.9999999963
0.246496496496496 	299.9999999999896 	2.588612363280988e-12 	101324.9999999961
0.2489989989989985 	300.0000000000114 	3.090520436414721e-12 	101324.999999996
0.251501501501501 	300.0000000000091 	2.23831379865128e-12 	101324.9999999961
0.2540040040040035 	299.9999999999917 	2.252860234788976e-12 	101324.9999999962
0.256506506506506 	300.0000000000105 	2.152345272921514e-12 	101324.9999999964
0.2590090090090086 	299.9999999999637 	1.143481136564149e-12 	101324.9999999962
0.261511511511511 	300.0000000000036 	3.282992143097369e-12 	101324.9999999961
0.2640140140140135 	299.9999999999933 	1.450828871475757e-12 	101324.9999999957
0.2665165165165161 	299.9999999999712 	2.997065910546424e-12 	101324.9999999957
0.2690190190190185 	300.0000000000078 	2.651166216441329e-12 	101324.9999999956
0.271521521521521 	300.0000000000027 	3.038860720441628e-12 	101324.9999999959
0.2740240240240235 	300.0000000000078 	3.130581080195357e-12 	101324.9999999963
0.276526526526526 	300.0000000000016 	2.071460677657781e-12 	101324.9999999964
0.2790290290290286 	299.9999999999755 	2.633501647074769e-12 	101324.9999999966
0.281531531531531 	299.9999999999629 	1.45842383685836e-12 	101324.9999999963
0.2840340340340335 	299.9999999999934 	2.861689110383647e-12 	101324.9999999962
0.2865365365365361 	299.9999999999793 	1.786959967524913e-12 	101324.9999999962
0.2890390390390385 	299.9999999999973 	2.761537957195262e-12 	101324.9999999963
0.291541541541541 	299.9999999999981 	1.583528232642534e-12 	101324.9999999965
0.2940440440440436 	299.9999999999981 	1.291061869019694e-12 	101324.9999999965
0.296546546546546 	299.9999999999942 	1.50975246844273e-12 	101324.9999999967
0.2990490490490486 	299.9999999999692 	5.895989278325594e-13 	101324.9999999967
0.3015515515515511 	300.0000000000131 	2.745303062786115e-12 	101324.9999999965
0.3040540540540535 	299.9999999999952 	1.077546200759483e-12 	101324.9999999963
0.3065565565565562 	299.9999999999979 	4.191933683884025e-12 	101324.9999999962
0.3090590590590585 	299.9999999999935 	1.064839633354422e-12 	101324.9999999962
0.3115615615615611 	299.9999999999673 	3.402877251629089e-12 	101324.9999999964
0.3140640640640635 	299.9999999999981 	1.384275710248134e-12 	101324.9999999965
0.316566566566566 	299.9999999999939 	1.963109561117758e-12 	101324.9999999966
0.3190690690690687 	299.9999999999785 	1.037710119728061e-12 	101324.9999999967
0.3215715715715711 	300.0000000000053 	1.516340468471339e-12 	101324.9999999968
0.3240740740740735 	299.9999999999972 	7.615438631511278e-13 	101324.9999999967
0.326576576576576 	299.9999999999579 	9.521122743887747e-13 	101324.9999999963
0.3290790790790786 	300.0000000000008 	8.52349483402435e-13 	101324.9999999965
0.3315815815815811 	300.0000000000186 	9.872720740703139e-13 	101324.9999999965
0.3340840840840836 	299.999999999995 	9.396354911356543e-13 	101324.9999999965
0.3365865865865861 	300.0000000000284 	1.13234625108511e-12 	101324.9999999966
0.3390890890890886 	300.00000000002 	3.685036421983453e-13 	101324.9999999966
0.3415915915915911 	300.000000000002 	1.063844611941373e-12 	101324.9999999965
0.3440940940940935 	299.9999999999822 	4.493924638651929e-13 	101324.9999999963
0.3465965965965962 	300.0000000000147 	1.289669032810286e-12 	101324.9999999961
0.3490990990990985 	300.000000000011 	5.397039260608539e-13 	101324.9999999961
0.3516016016016011 	299.9999999999929 	1.653200262753194e-13 	101324.9999999962
0.3541041041041035 	300.000000000002 	7.61530522839248e-13 	101324.9999999963
0.3566066066066061 	299.9999999999831 	9.689480963923214e-13 	101324.9999999965
0.3591091091091085 	299.9999999999669 	8.27085282901232e-13 	101324.9999999967
0.3616116116116112 	299.999999999974 	1.563628608820323e-12 	101324.9999999968
0.3641141141141137 	299.9999999999716 	7.946801145075627e-13 	101324.9999999969
0.3666166166166161 	299.999999999968 	2.082787713899389e-12 	101324.9999999969
0.3691191191191185 	300.0000000000142 	1.645038338045186e-12 	101324.9999999972
0.371621621621621 	300.0000000000088 	1.400967625796254e-12 	101324.9999999972
0.3741241241241237 	300.0000000000221 	1.08924424638139e-12 	101324.9999999973
0.3766266266266261 	300.0000000000105 	7.459564946580173e-13 	101324.9999999973
0.3791291291291286 	299.9999999999931 	4.018211165398097e-13 	101324.9999999973
0.3816316316316311 	299.9999999999674 	1.130659252962552e-12 	101324.9999999973
0.3841341341341336 	300.0000000000027 	7.173888062267415e-13 	101324.9999999972
0.3866366366366362 	299.9999999999969 	1.091362383795922e-12 	101324.999999997
0.3891391391391387 	299.999999999983 	7.948463553394012e-13 	101324.9999999971
0.391641641641641 	299.9999999999971 	1.395521307132327e-12 	101324.9999999969
0.3941441441441436 	300.0000000000053 	1.186309532198432e-12 	101324.9999999969
0.3966466466466462 	300.0000000000023 	1.231847666106184e-12 	101324.9999999972
0.3991491491491486 	299.9999999999798 	7.245290706079673e-13 	101324.9999999971
0.4016516516516512 	299.9999999999657 	1.116227328061169e-12 	101324.9999999969
0.4041541541541536 	299.9999999999822 	5.464495913799785e-13 	101324.9999999968
0.4066566566566561 	299.9999999999827 	1.785295176130113e-12 	101324.9999999967
0.4091591591591587 	299.9999999999988 	4.441006342745414e-13 	101324.9999999966
0.4116616616616612 	300.0000000000034 	2.53834661388132e-12 	101324.9999999965
0.4141641641641635 	300.0000000000148 	2.092620790844356e-12 	101324.9999999966
0.4166666666666662 	299.9999999999978 	3.245941058470479e-12 	101324.9999999968
0.4191691691691687 	299.9999999999782 	3.293857261871088e-12 	101324.999999997
0.421671671671671 	300.0000000000041 	2.56016349735655e-12 	101324.9999999969
0.4241741741741737 	299.999999999992 	3.903722735278322e-12 	101324.9999999969
0.4266766766766761 	299.999999999981 	1.854582601718976e-12 	101324.9999999968
0.4291791791791785 	300.0000000000082 	4.174440040146144e-12 	101324.9999999968
0.4316816816816812 	300.0000000000023 	9.811538385275868e-13 	101324.9999999968
0.4341841841841836 	299.9999999999917 	4.094982072645652e-12 	101324.9999999968
0.4366866866866862 	299.9999999999694 	1.691157973172288e-12 	101324.9999999968
0.4391891891891885 	299.9999999999972 	2.698625432965601e-12 	101324.9999999968
0.4416916916916913 	299.9999999999947 	1.672017893520834e-12 	101324.999999997
0.4441941941941936 	299.9999999999949 	2.459651271158937e-12 	101324.9999999969
0.4466966966966961 	299.9999999999674 	1.966326036597057e-12 	101324.9999999969
0.4491991991991987 	299.9999999999952 	1.541194940988765e-12 	101324.9999999968
0.4517017017017012 	299.9999999999943 	1.621264940972237e-12 	101324.9999999967
0.4542042042042035 	299.9999999999935 	1.221695973849391e-12 	101324.9999999969
0.4567067067067062 	299.9999999999978 	1.851280933653414e-12 	101324.999999997
0.4592092092092087 	299.9999999999716 	1.594855862394239e-12 	101324.999999997
0.4617117117117112 	300.0000000000072 	2.173921187600474e-12 	101324.9999999968
0.4642142142142137 	299.9999999999863 	2.454385818178371e-12 	101324.9999999968
0.4667167167167162 	299.9999999999948 	2.701488959340554e-12 	101324.9999999968
0.4692192192192187 	299.9999999999838 	3.059501349751831e-12 	101324.9999999966
0.4717217217217212 	300.0000000000035 	3.475420705870564e-12 	101324.9999999966
0.4742242242242236 	299.9999999999803 	3.932863524717011e-12 	101324.9999999964
0.4767267267267262 	299.9999999999929 	3.691177961455173e-12 	101324.9999999966
0.4792292292292287 	300.0000000000064 	4.118828349052674e-12 	101324.9999999969
0.4817317317317312 	300.0000000000117 	3.918880880816126e-12 	101324.9999999971
0.4842342342342336 	299.9999999999933 	3.995300012090418e-12 	101324.9999999973
0.4867367367367362 	299.9999999999822 	3.825508551419389e-12 	101324.9999999972
0.4892392392392387 	300.0000000000113 	3.877803401067927e-12 	101324.999999997
0.4917417417417412 	300.0000000000011 	4.921149540119625e-12 	101324.9999999968
0.4942442442442437 	299.99999999996 	4.074550228555104e-12 	101324.9999999967
0.4967467467467462 	299.9999999999706 	4.429237490512226e-12 	101324.9999999965
0.4992492492492487 	299.9999999999656 	2.180763000889599e-12 	101324.9999999963
0.5017517517517511 	299.9999999999787 	2.744940963689108e-12 	101324.9999999966
0.5042542542542537 	299.9999999999852 	1.910087661557483e-12 	101324.9999999965
0.5067567567567562 	299.9999999999783 	2.521584222867246e-12 	101324.9999999965
0.5092592592592589 	299.9999999999837 	2.285941989776218e-12 	101324.9999999965
0.5117617617617611 	299.9999999999814 	2.027607891294289e-12 	101324.9999999965
0.5142642642642637 	299.9999999999954 	3.257486629233399e-12 	101324.9999999966
0.5167667667667663 	299.9999999999896 	2.487718692815109e-12 	101324.9999999965
0.5192692692692688 	299.999999999968 	4.182489275688279e-12 	101324.9999999968
0.5217717717717714 	299.9999999999728 	8.797001013725178e-13 	101324.999999997
0.5242742742742736 	299.9999999999725 	3.178653710739379e-12 	101324.999999997
0.5267767767767763 	299.9999999999833 	5.716000425934005e-13 	101324.9999999971
0.5292792792792789 	299.9999999999746 	2.050214261155367e-12 	101324.9999999969
0.5317817817817813 	299.9999999999588 	5.592611563036888e-13 	101324.9999999967
0.5342842842842837 	300.0000000000057 	9.012187352632833e-13 	101324.9999999967
0.5367867867867864 	300.0000000000008 	5.499155685198113e-13 	101324.9999999968
0.5392892892892888 	299.9999999999828 	5.616658874627311e-13 	101324.9999999968
0.5417917917917912 	300.0000000000031 	4.710490515496625e-13 	101324.9999999969
0.5442942942942938 	299.9999999999902 	1.375316078840313e-12 	101324.9999999967
0.5467967967967964 	299.9999999999807 	1.554082098827026e-12 	101324.9999999966
0.5492992992992988 	299.9999999999759 	1.83794094513081e-12 	101324.9999999966
0.5518018018018012 	299.9999999999735 	1.15582957912471e-12 	101324.9999999966
0.5543043043043039 	300.0000000000061 	1.268153492671139e-12 	101324.9999999964
0.5568068068068063 	299.9999999999951 	9.523981174893545e-13 	101324.9999999963
0.5593093093093087 	299.9999999999629 	1.184935808057509e-12 	101324.9999999961
0.5618118118118114 	299.9999999999851 	7.292975249926969e-13 	101324.9999999961
0.5643143143143137 	299.9999999999773 	7.449493221373771e-13 	101324.9999999962
0.5668168168168163 	299.9999999999973 	2.894616783296452e-13 	101324.9999999964
0.5693193193193188 	300.000000000013 	4.322513707908566e-13 	101324.9999999963
0.5718218218218213 	300.0000000000105 	6.857953316952321e-13 	101324.9999999961
0.5743243243243239 	300.0000000000026 	8.886557627439718e-13 	101324.9999999962
0.5768268268268262 	300.0000000000002 	1.615834681386944e-12 	101324.9999999964
0.5793293293293288 	299.9999999999797 	1.040583093608962e-12 	101324.9999999964
0.5818318318318314 	299.9999999999683 	2.719859878902147e-12 	101324.9999999965
0.5843343343343338 	299.9999999999919 	1.252399749082751e-12 	101324.9999999966
0.5868368368368363 	299.9999999999891 	3.270084340945117e-12 	101324.9999999966
0.5893393393393387 	299.9999999999778 	2.086575283207795e-12 	101324.9999999968
0.5918418418418413 	299.9999999999766 	3.306772151001997e-12 	101324.9999999967
0.5943443443443439 	300.0000000000036 	2.548532801038286e-12 	101324.9999999965
0.5968468468468463 	300.0000000000032 	3.49612606228788e-12 	101324.9999999963
0.5993493493493487 	300.0000000000175 	3.31062940226862e-12 	101324.9999999963
0.6018518518518514 	299.999999999989 	3.513844418984428e-12 	101324.9999999962
0.6043543543543537 	299.9999999999962 	3.084288563328919e-12 	101324.9999999961
0.6068568568568564 	299.999999999991 	2.89362987477119e-12 	101324.999999996
0.6093593593593587 	299.9999999999695 	2.396396070557386e-12 	101324.9999999956
0.6118618618618614 	299.9999999999658 	1.932607416958272e-12 	101324.9999999956
0.6143643643643638 	300.0000000000053 	1.265164575257133e-12 	101324.9999999956
0.6168668668668662 	299.9999999999938 	1.567970979674691e-12 	101324.9999999956
0.6193693693693688 	299.999999999978 	7.973719652765265e-13 	101324.9999999957
0.6218718718718714 	299.9999999999853 	1.731102609804452e-12 	101324.9999999958
0.6243743743743737 	299.9999999999736 	7.585540820353898e-13 	101324.9999999957
0.6268768768768762 	299.9999999999687 	2.012134792113005e-12 	101324.9999999956
0.629379379379379 	299.999999999977 	1.415724050241886e-12 	101324.9999999958
0.6318818818818812 	299.9999999999837 	1.872813471312106e-12 	101324.999999996
0.6343843843843838 	300.0000000000084 	1.667718477351242e-12 	101324.9999999962
0.6368868868868864 	299.9999999999927 	1.869057903626917e-12 	101324.999999996
0.6393893893893888 	299.9999999999671 	2.144407977796622e-12 	101324.999999996
0.6418918918918912 	300.0000000000011 	1.261595728318654e-12 	101324.999999996
0.6443943943943939 	299.9999999999973 	3.195418177568352e-12 	101324.999999996
0.6468968968968963 	299.9999999999913 	1.298366082292815e-12 	101324.9999999961
0.6493993993993988 	299.9999999999882 	2.297307106677702e-12 	101324.9999999961
0.6519019019019012 	299.9999999999861 	1.127015164449575e-12 	101324.999999996
0.6544044044044038 	299.9999999999611 	1.934955009334598e-12 	101324.999999996
0.6569069069069065 	299.9999999999843 	5.254126868003815e-13 	101324.9999999959
0.6594094094094087 	299.9999999999825 	1.62459976621922e-12 	101324.9999999959
0.6619119119119113 	299.9999999999777 	1.091342609425772e-12 	101324.9999999959
0.664414414414414 	299.9999999999954 	1.979956993776517e-12 	101324.9999999957
0.6669169169169162 	300.0000000000041 	1.904033644976712e-12 	101324.9999999955
0.6694194194194188 	299.9999999999923 	2.320901831037916e-12 	101324.9999999954
0.6719219219219214 	299.999999999971 	1.30721839334067e-12 	101324.9999999956
0.674424424424424 	299.9999999999909 	9.78701721160073e-13 	101324.9999999957
0.6769269269269262 	299.9999999999662 	3.625499098418939e-13 	101324.9999999956
0.679429429429429 	300.0000000000011 	7.449853176974104e-13 	101324.9999999959
0.6819319319319311 	299.9999999999865 	5.961674779889804e-13 	101324.9999999959
0.6844344344344341 	299.9999999999978 	7.868506828550448e-13 	101324.9999999959
0.686936936936936 	299.999999999997 	8.14193982856911e-13 	101324.9999999958
0.6894394394394392 	299.9999999999952 	7.154534137417362e-14 	101324.9999999957
0.6919419419419413 	299.999999999992 	3.423162825465639e-13 	101324.9999999958
0.694444444444444 	299.9999999999755 	8.588919426044349e-13 	101324.9999999958
0.6969469469469463 	299.9999999999694 	7.044226034686473e-13 	101324.9999999959
0.6994494494494489 	299.9999999999661 	4.606009033047493e-13 	101324.9999999961
0.7019519519519515 	299.9999999999932 	1.019671771602788e-12 	101324.9999999961
0.7044544544544538 	299.9999999999811 	8.84865383886203e-13 	101324.9999999961
0.7069569569569564 	299.9999999999959 	1.406103057338176e-12 	101324.9999999962
0.7094594594594589 	299.9999999999835 	1.077701389275416e-12 	101324.9999999962
0.7119619619619615 	299.9999999999627 	1.020149998497106e-12 	101324.9999999962
0.7144644644644638 	299.999999999977 	5.449214130621541e-13 	101324.9999999962
0.7169669669669665 	299.9999999999656 	5.638307827105528e-13 	101324.9999999961
0.7194694694694688 	299.9999999999952 	1.740322332452686e-13 	101324.9999999961
0.7219719719719715 	299.9999999999939 	2.258643970511388e-13 	101324.9999999962
0.7244744744744737 	299.9999999999996 	4.696549012822056e-13 	101324.9999999962
0.7269769769769764 	299.9999999999983 	9.613578000084534e-13 	101324.9999999962
0.7294794794794791 	299.999999999997 	1.998482734614531e-12 	101324.9999999961
0.7319819819819813 	299.9999999999929 	9.552218842630069e-13 	101324.9999999959
0.7344844844844839 	299.9999999999692 	1.865316906740751e-12 	101324.9999999957
0.7369869869869864 	299.9999999999837 	7.676523241700025e-13 	101324.9999999956
0.739489489489489 	299.9999999999773 	1.301863525935028e-12 	101324.9999999955
0.7419919919919914 	299.9999999999723 	1.406451283646203e-12 	101324.9999999954
0.7444944944944939 	299.9999999999911 	1.298637170672747e-12 	101324.9999999955
0.7469969969969963 	299.9999999999872 	1.718843822312484e-12 	101324.9999999956
0.7494994994994989 	299.9999999999742 	2.595991634258633e-12 	101324.9999999956
0.7520020020020015 	299.9999999999877 	1.397210079389079e-12 	101324.9999999956
0.7545045045045039 	299.9999999999883 	2.992193979607494e-12 	101324.9999999956
0.7570070070070062 	299.9999999999771 	1.26207038495268e-12 	101324.9999999957
0.7595095095095092 	299.9999999999702 	2.228405595937151e-12 	101324.9999999958
0.7620120120120112 	299.999999999999 	1.524708084815455e-12 	101324.9999999958
0.7645145145145138 	299.9999999999948 	1.531674569952523e-12 	101324.9999999958
0.7670170170170165 	299.9999999999751 	1.808367162908482e-12 	101324.9999999958
0.7695195195195191 	299.9999999999673 	1.183846631289282e-12 	101324.9999999959
0.7720220220220213 	299.9999999999752 	2.45458651158463e-12 	101324.9999999959
0.7745245245245239 	299.9999999999778 	1.101395959157337e-12 	101324.999999996
0.7770270270270263 	299.999999999991 	2.05500023133032e-12 	101324.9999999961
0.779529529529529 	299.999999999992 	1.027555540519551e-12 	101324.9999999962
0.7820320320320313 	299.9999999999851 	1.525622769624346e-12 	101324.999999996
0.784534534534534 	299.9999999999962 	1.137116445372714e-12 	101324.9999999959
0.7870370370370364 	299.9999999999939 	6.86531765050422e-13 	101324.9999999959
0.7895395395395389 	299.9999999999881 	1.317622751222176e-12 	101324.9999999958
0.7920420420420413 	299.9999999999902 	1.411269975224497e-12 	101324.9999999957
0.794544544544544 	299.9999999999955 	2.121732534005047e-12 	101324.9999999957
0.7970470470470463 	300.0000000000036 	1.674033083258865e-12 	101324.9999999957
0.799549549549549 	299.9999999999914 	2.403622637319833e-12 	101324.999999996
0.8020520520520515 	299.9999999999933 	8.537045343686171e-13 	101324.999999996
0.8045545545545539 	299.9999999999782 	1.883658513717651e-12 	101324.9999999959
0.8070570570570563 	299.9999999999936 	1.393936687349806e-12 	101324.9999999959
0.8095595595595589 	299.9999999999834 	1.436777395178759e-12 	101324.999999996
0.8120620620620614 	299.9999999999714 	1.23612042916324e-12 	101324.9999999961
0.8145645645645638 	299.9999999999949 	8.448783815306796e-13 	101324.9999999963
0.8170670670670666 	299.9999999999938 	1.735936228582777e-12 	101324.9999999963
0.8195695695695689 	299.9999999999905 	1.634609627250383e-12 	101324.9999999965
0.8220720720720714 	299.999999999977 	1.585140141126083e-12 	101324.9999999962
0.8245745745745739 	299.999999999999 	8.818383182943422e-13 	101324.9999999963
0.8270770770770765 	299.99999999999 	9.641229743140724e-13 	101324.9999999964
0.8295795795795788 	299.9999999999814 	3.605209082356176e-13 	101324.9999999964
0.8320820820820815 	300.0000000000081 	9.581241641697624e-13 	101324.9999999964
0.834584584584584 	300.0000000000009 	6.856749533783209e-13 	101324.9999999965
0.8370870870870865 	299.9999999999858 	5.868734625989666e-13 	101324.9999999965
0.8395895895895891 	299.999999999969 	7.782379412374707e-13 	101324.9999999962
0.8420920920920915 	299.9999999999732 	2.690265953531223e-13 	101324.9999999961
0.844594594594594 	299.999999999971 	6.836057091773012e-13 	101324.9999999959
0.8470970970970964 	299.999999999975 	8.004470582736112e-13 	101324.9999999958
0.8495995995995991 	299.9999999999916 	1.019310375617551e-12 	101324.9999999959
0.8521021021021015 	299.9999999999904 	1.159395709555918e-12 	101324.999999996
0.8546046046046039 	299.9999999999908 	1.178796343956767e-12 	101324.9999999959
0.8571071071071066 	299.9999999999978 	2.204203989416508e-12 	101324.9999999959
0.8596096096096089 	299.999999999981 	1.169160785990283e-12 	101324.9999999959
0.8621121121121116 	299.9999999999687 	1.789312926057228e-12 	101324.999999996
0.8646146146146139 	299.9999999999922 	7.95227455945629e-13 	101324.999999996
0.8671171171171166 	299.9999999999889 	4.163411316544465e-13 	101324.999999996
0.8696196196196189 	299.9999999999803 	3.432391743265074e-13 	101324.999999996
0.8721221221221216 	299.9999999999816 	3.870204166919138e-13 	101324.999999996
0.874624624624624 	299.9999999999977 	1.021257996242401e-12 	101324.999999996
0.8771271271271264 	300.0000000000019 	1.116228971286353e-12 	101324.999999996
0.879629629629629 	299.9999999999999 	1.491189156657321e-12 	101324.9999999959
0.8821321321321317 	299.9999999999932 	2.301450395258793e-12 	101324.9999999959
0.8846346346346339 	299.9999999999714 	1.290026169258398e-12 	101324.9999999958
0.8871371371371364 	299.999999999983 	1.091094111867648e-12 	101324.9999999959
0.8896396396396391 	299.9999999999814 	1.265412922431138e-12 	101324.999999996
0.8921421421421414 	299.9999999999823 	8.008658790252719e-13 	101324.9999999962
0.8946446446446441 	299.9999999999944 	1.002491533658362e-12 	101324.9999999963
0.8971471471471464 	300.0000000000003 	8.567076283979377e-13 	101324.9999999963
0.8996496496496489 	299.9999999999872 	9.007879966042805e-13 	101324.9999999964
0.9021521521521517 	299.9999999999808 	1.497278455152613e-12 	101324.9999999962
0.9046546546546541 	299.9999999999924 	1.117150499776772e-12 	101324.9999999961
0.9071571571571564 	299.9999999999761 	1.561773312985301e-12 	101324.999999996
0.9096596596596589 	299.9999999999778 	1.477312988424205e-12 	101324.999999996
0.9121621621621616 	300.0000000000019 	1.629424742344138e-12 	101324.9999999961
0.9146646646646639 	299.9999999999926 	1.416220728329897e-12 	101324.9999999961
0.9171671671671666 	299.9999999999785 	1.530107473667942e-12 	101324.9999999961
0.9196696696696689 	299.9999999999979 	1.952144612880904e-12 	101324.9999999961
0.9221721721721714 	299.9999999999994 	1.558098082657923e-12 	101324.999999996
0.9246746746746741 	299.9999999999747 	2.156116670938929e-12 	101324.999999996
0.9271771771771765 	299.9999999999731 	1.271456588265446e-12 	101324.999999996
0.9296796796796791 	299.999999999994 	2.603353197478554e-12 	101324.9999999962
0.9321821821821816 	299.9999999999882 	1.935718384591134e-12 	101324.9999999961
0.9346846846846838 	299.9999999999763 	2.283492002888323e-12 	101324.9999999963
0.9371871871871866 	300.0000000000032 	2.27246203361423e-12 	101324.9999999964
0.9396896896896891 	300.0000000000067 	2.383305456740626e-12 	101324.9999999965
0.9421921921921914 	300.0000000000043 	2.732416396149057e-12 	101324.9999999964
0.9446946946946939 	299.9999999999827 	2.019686485462951e-12 	101324.9999999963
0.9471971971971965 	299.9999999999652 	3.047659190860919e-12 	101324.9999999962
0.9496996996996991 	299.9999999999781 	1.9211150016588e-12 	101324.9999999961
0.9522022022022016 	299.9999999999845 	2.303910694723841e-12 	101324.9999999962
0.9547047047047038 	299.9999999999894 	1.777082661301466e-12 	101324.9999999964
0.9572072072072064 	299.9999999999894 	2.190512278211753e-12 	101324.9999999965
0.9597097097097093 	299.9999999999866 	2.355695880061275e-12 	101324.9999999966
0.9622122122122114 	299.9999999999841 	2.432882696580118e-12 	101324.9999999967
0.964714714714714 	299.9999999999853 	2.972283541262659e-12 	101324.9999999966
0.9672172172172167 	299.999999999984 	2.617628922772848e-12 	101324.9999999966
0.969719719719719 	299.999999999994 	3.24922197907908e-12 	101324.9999999967
0.9722222222222214 	299.9999999999879 	2.626917117203155e-12 	101324.999999997
0.9747247247247239 	299.9999999999836 	2.306136488160623e-12 	101324.9999999972
0.9772272272272267 	299.9999999999961 	1.820852201090888e-12 	101324.9999999973
0.9797297297297292 	299.9999999999925 	1.695036598946932e-12 	101324.9999999971
0.9822322322322313 	299.9999999999972 	2.289349485769049e-12 	101324.9999999971
0.9847347347347344 	299.9999999999985 	1.995185555834357e-12 	101324.9999999971
0.9872372372372363 	299.9999999999849 	3.164063010184347e-12 	101324.999999997
0.9897397397397389 	299.9999999999937 	1.827078514789667e-12 	101324.9999999969
0.9922422422422417 	299.9999999999834 	2.923224602731505e-12 	101324.9999999971
0.9947447447447441 	299.9999999999814 	2.595143837506742e-12 	101324.9999999972
0.9972472472472468 	299.9999999999859 	3.014026181802187e-12 	101324.999999997
0.999749749749749 	299.9999999999841 	2.385476539737764e-12 	101324.9999999968
1.002252252252252 	299.9999999999876 	2.144929451600258e-12 	101324.9999999968
1.004754754754754 	299.9999999999888 	2.005510319232909e-12 	101324.9999999969
1.007257257257256 	299.9999999999833 	1.688063614947616e-12 	101324.9999999969
1.009759759759759 	299.9999999999792 	2.811354801053083e-12 	101324.9999999968
1.012262262262261 	299.9999999999798 	2.012661668721595e-12 	101324.9999999968
1.014764764764764 	299.9999999999681 	3.008532251311763e-12 	101324.999999997
1.017267267267267 	299.9999999999642 	2.842318059454556e-12 	101324.999999997
1.019769769769769 	299.9999999999854 	3.652338239436706e-12 	101324.999999997
1.022272272272272 	299.9999999999899 	3.517900067718754e-12 	101324.9999999971
1.024774774774774 	299.9999999999859 	3.520386323497698e-12 	101324.9999999972
1.027277277277277 	299.9999999999866 	3.931690183685258e-12 	101324.9999999971
1.029779779779779 	299.9999999999984 	3.511642744770169e-12 	101324.999999997
1.032282282282282 	299.9999999999976 	4.013373228724948e-12 	101324.9999999969
1.034784784784784 	299.9999999999957 	3.426986806691047e-12 	101324.9999999969
1.037287287287286 	299.9999999999854 	3.19068056342579e-12 	101324.9999999969
1.039789789789789 	299.9999999999876 	2.966675495672757e-12 	101324.9999999969
1.042292292292291 	300.0000000000013 	2.72174412297832e-12 	101324.9999999968
1.044794794794794 	300.0000000000033 	2.363042708090797e-12 	101324.9999999968
1.047297297297296 	300.0000000000114 	1.454457298954445e-12 	101324.9999999969
1.049799799799799 	299.9999999999923 	1.878476640278823e-12 	101324.9999999969
1.052302302302302 	299.9999999999826 	1.294385273542085e-12 	101324.9999999969
1.054804804804804 	299.9999999999761 	2.458061519686869e-12 	101324.999999997
1.057307307307306 	299.9999999999667 	1.939951620785131e-12 	101324.999999997
1.059809809809809 	299.9999999999812 	2.269267765905831e-12 	101324.9999999971
1.062312312312312 	299.9999999999779 	1.86522505388743e-12 	101324.9999999971
1.064814814814814 	299.9999999999749 	2.217402755486447e-12 	101324.999999997
1.067317317317317 	299.9999999999661 	1.889917631868729e-12 	101324.9999999972
1.069819819819819 	299.9999999999691 	1.525293003219013e-12 	101324.9999999972
1.072322322322321 	299.999999999996 	2.275684529878993e-12 	101324.9999999972
1.074824824824824 	300.0000000000009 	1.336891864085624e-12 	101324.9999999972
1.077327327327327 	300.0000000000084 	2.221732367082889e-12 	101324.9999999973
1.079829829829829 	300.0000000000124 	1.571362332055362e-12 	101324.9999999974
1.082332332332332 	300.0000000000019 	2.019104811078003e-12 	101324.9999999974
1.084834834834834 	299.9999999999939 	2.135641399567046e-12 	101324.9999999973
1.087337337337337 	299.9999999999767 	2.695705088214556e-12 	101324.9999999974
1.089839839839839 	299.9999999999734 	3.844397515253867e-12 	101324.9999999974
1.092342342342342 	299.9999999999877 	3.223123417723912e-12 	101324.9999999973
1.094844844844844 	299.9999999999905 	3.32735537685874e-12 	101324.9999999975
1.097347347347347 	299.9999999999803 	2.309887628616404e-12 	101324.9999999976
1.099849849849849 	299.9999999999781 	3.417586903441722e-12 	101324.9999999975
1.102352352352352 	299.999999999985 	2.621270968166651e-12 	101324.9999999974
1.104854854854854 	299.9999999999915 	3.936145494953778e-12 	101324.9999999974
1.107357357357357 	299.9999999999845 	3.506809548114062e-12 	101324.9999999975
1.109859859859859 	299.9999999999784 	4.339117280788467e-12 	101324.9999999975
1.112362362362362 	300.0000000000055 	3.570169913356932e-12 	101324.9999999976
1.114864864864865 	300.0000000000037 	3.148001333006325e-12 	101324.9999999977
1.117367367367367 	299.9999999999865 	3.51878260303478e-12 	101324.9999999978
1.119869869869869 	299.9999999999714 	2.945882157033952e-12 	101324.999999998
1.122372372372372 	299.9999999999779 	3.92227974837128e-12 	101324.9999999979
1.124874874874874 	299.9999999999778 	3.692341684208675e-12 	101324.9999999978
1.127377377377377 	299.9999999999872 	4.95120383613882e-12 	101324.9999999978
1.129879879879879 	300.0000000000113 	4.767947187655674e-12 	101324.9999999979
1.132382382382382 	300.0000000000131 	4.920855523405153e-12 	101324.999999998
1.134884884884884 	300.000000000003 	4.849759634486492e-12 	101324.9999999981
1.137387387387387 	300.0000000000074 	5.243870329598052e-12 	101324.9999999983
1.139889889889889 	299.9999999999869 	5.768860102523336e-12 	101324.9999999983
1.142392392392392 	299.9999999999827 	4.704546694183044e-12 	101324.9999999983
1.144894894894894 	300.0000000000022 	4.786779456142141e-12 	101324.9999999982
1.147397397397397 	299.9999999999949 	3.818971003371066e-12 	101324.9999999982
1.149899899899899 	299.9999999999742 	4.143538700775324e-12 	101324.9999999982
1.152402402402402 	299.9999999999715 	3.775474364674865e-12 	101324.9999999982
1.154904904904904 	299.9999999999857 	4.180949251154657e-12 	101324.9999999982
1.157407407407407 	299.9999999999854 	4.01312258876106e-12 	101324.9999999982
1.159909909909909 	299.9999999999773 	4.15522394956464e-12 	101324.9999999983
1.162412412412412 	299.9999999999775 	4.825585378639385e-12 	101324.9999999984
1.164914914914914 	299.9999999999815 	3.919242798477254e-12 	101324.9999999986
1.167417417417417 	299.9999999999798 	4.709903391921559e-12 	101324.9999999987
1.169919919919919 	300.0000000000015 	4.34807276625949e-12 	101324.9999999986
1.172422422422422 	300.0000000000159 	4.839591033898188e-12 	101324.9999999985
1.174924924924925 	299.999999999996 	4.2402955640419e-12 	101324.9999999984
1.177427427427427 	299.9999999999799 	4.593848269022053e-12 	101324.999999998
1.179929929929929 	299.9999999999981 	5.120310726899829e-12 	101324.9999999979
1.182432432432432 	300.0000000000074 	4.203487173298791e-12 	101324.9999999981
1.184934934934934 	299.9999999999961 	4.61391312996533e-12 	101324.9999999982
1.187437437437437 	299.9999999999905 	3.995612610786068e-12 	101324.9999999983
1.189939939939939 	299.999999999986 	4.400990096287669e-12 	101324.9999999983
1.192442442442442 	299.9999999999736 	4.163986272198042e-12 	101324.9999999984
1.194944944944944 	299.9999999999767 	5.005853540680968e-12 	101324.9999999985
1.197447447447447 	299.9999999999955 	4.405579327076252e-12 	101324.9999999986
1.199949949949949 	299.9999999999989 	4.178674876520134e-12 	101324.9999999985
1.202452452452452 	299.9999999999818 	4.701505237632611e-12 	101324.9999999985
1.204954954954955 	299.9999999999802 	4.203850209345761e-12 	101324.9999999984
1.207457457457457 	299.9999999999899 	4.777108730864068e-12 	101324.9999999985
1.20995995995996 	299.9999999999903 	4.380340981445067e-12 	101324.9999999985
1.212462462462462 	299.9999999999968 	5.096012930590748e-12 	101324.9999999985
1.214964964964964 	299.9999999999949 	4.690201413022626e-12 	101324.9999999987
1.217467467467467 	299.9999999999903 	5.196249337589336e-12 	101324.9999999989
1.219969969969969 	299.9999999999875 	4.370022712996357e-12 	101324.9999999992
1.222472472472472 	300.0000000000074 	4.238112605380146e-12 	101324.9999999993
1.224974974974975 	300.0000000000184 	4.39327563686881e-12 	101324.9999999993
1.227477477477477 	300.0000000000012 	3.693807774548404e-12 	101324.9999999992
1.229979979979979 	299.9999999999921 	4.436204711190057e-12 	101324.9999999992
1.232482482482482 	299.9999999999824 	4.043961098857737e-12 	101324.9999999993
1.234984984984984 	299.9999999999856 	5.554474715110226e-12 	101324.9999999994
1.237487487487487 	299.9999999999885 	5.109393772908901e-12 	101324.9999999994
1.239989989989989 	299.9999999999864 	5.621064140894279e-12 	101324.9999999994
1.242492492492492 	299.9999999999987 	6.101255722818607e-12 	101324.9999999993
1.244994994994994 	299.9999999999893 	5.192881478746133e-12 	101324.9999999992
1.247497497497497 	299.9999999999954 	5.612772088723856e-12 	101324.9999999994
1.249999999999999 	300.000000000056 	4.951521647373833e-12 	101324.9999999994
