-1.25 	270.610737385374 	0.001525344445959991 	101325.0062831853
-1.247497497497497 	300.1676391810177 	0.001399029851370184 	101324.99476801
-1.244994994994995 	300.0007878429161 	0.001147274364397743 	101325.004997086
-1.242492492492492 	299.9999976385463 	0.000905438112106065 	101324.9950123916
-1.23998998998999 	300.0000036797264 	0.0006843333315107992 	101325.0043716721
-1.237487487487487 	299.9999964631296 	0.000482053891302767 	101324.9958016206
-1.234984984984985 	300.0000033807415 	0.0002985565210732667 	101325.0040117129
-1.232482482482482 	299.9999969898944 	0.0001341296737315072 	101324.996423773
-1.22997997997998 	300.0000028695523 	6.963380146862729e-05 	101325.0034058214
-1.227477477477477 	299.9999972513004 	0.0001441427273248052 	101324.9967354568
-1.224974974974975 	300.0000023931643 	0.0002595212888456077 	101325.0028417175
-1.222472472472472 	299.9999976286558 	0.0003587329932336599 	101324.9971886677
-1.21996996996997 	300.0000019313433 	0.0004459908793377648 	101325.0022981378
-1.217467467467467 	299.9999974303677 	0.000518465272309179 	101324.9969527679
-1.214964964964965 	300.0000008885885 	0.0005794183452460837 	101325.0010607545
-1.212462462462462 	299.999997012669 	0.0006297656139680574 	101324.9964561989
-1.20995995995996 	300.0000003587315 	0.0006697136766430742 	101325.0004334521
-1.207457457457457 	299.999997423632 	0.0006998903150298981 	101324.9969471133
-1.204954954954955 	300.0000007995785 	0.0007216954085308175 	101325.0009588845
-1.202452452452452 	299.9999976485591 	0.0007350933347548167 	101324.9972109077
-1.19994994994995 	300.0000003680691 	0.0007429992056065866 	101325.0004431814
-1.197447447447447 	299.9999978712714 	0.0007445831246415729 	101324.9974709629
-1.194944944944945 	300.0000002430919 	0.0007407578779219193 	101325.0002942757
-1.192442442442442 	299.9999977802541 	0.0007310684037308128 	101324.9973668071
-1.18993993993994 	299.9999996812438 	0.0007195336995467489 	101324.999636527
-1.187437437437437 	299.9999972803393 	0.0007021042175263065 	101324.9967808934
-1.184934934934935 	299.9999990981336 	0.0006846454939165796 	101324.9989467053
-1.182432432432432 	299.9999969728302 	0.0006629294755859092 	101324.9964136402
-1.17992992992993 	299.9999989922158 	0.0006403962326616121 	101324.9988164608
-1.177427427427427 	299.9999973104886 	0.0006160613511645967 	101324.9968102093
-1.174924924924925 	299.9999993424279 	0.000590669634533997 	101324.9992294719
-1.172422422422422 	299.9999976988987 	0.0005640825406012864 	101324.9972701743
-1.16991991991992 	299.9999993007391 	0.0005382540760368649 	101324.9991805554
-1.167417417417417 	299.9999974354548 	0.0005102853978144768 	101324.9969635918
-1.164914914914915 	299.999998766412 	0.000484818571649576 	101324.9985488008
-1.162412412412412 	299.9999970854938 	0.0004570915636283448 	101324.9965473299
-1.15990990990991 	299.9999985154989 	0.0004321382966433418 	101324.9982513557
-1.157407407407407 	299.9999971096993 	0.0004056501210250152 	101324.9965774112
-1.154904904904904 	299.9999984149784 	0.0003820364755490705 	101324.9981320185
-1.152402402402403 	299.9999969577313 	0.000356689901199873 	101324.9963993552
-1.1498998998999 	299.9999979865622 	0.0003354226149186024 	101324.9976263325
-1.147397397397397 	299.9999966692656 	0.0003116159096540118 	101324.9960606597
-1.144894894894895 	299.9999978424503 	0.0002919600081821104 	101324.9974543073
-1.142392392392392 	299.9999969059634 	0.0002710716976831479 	101324.9963371186
-1.13988988988989 	299.9999982298705 	0.0002520617392490647 	101324.9979084149
-1.137387387387387 	299.9999974089596 	0.0002336003039653403 	101324.9969325043
-1.134884884884885 	299.9999984178071 	0.0002182015293618287 	101324.9981291895
-1.132382382382382 	299.9999971372401 	0.0001992412489090761 	101324.9966121848
-1.12987987987988 	299.9999974375012 	0.0001850278209338898 	101324.9969755333
-1.127377377377377 	299.9999967055392 	0.0001669615423488292 	101324.9961055398
-1.124874874874875 	299.9999971906432 	0.00015397091025511 	101324.9966814438
-1.122372372372372 	299.9999966054249 	0.0001379916834002022 	101324.9959870238
-1.11986986986987 	299.9999971978665 	0.0001264994929346073 	101324.9966879629
-1.117367367367367 	299.9999966223284 	0.0001121882217942189 	101324.9960059586
-1.114864864864865 	299.9999973173785 	0.0001018022302444051 	101324.9968284308
-1.112362362362362 	299.9999969527851 	8.869709443486499e-05 	101324.9963973225
-1.10985985985986 	299.9999972855688 	7.946219623998638e-05 	101324.9967921679
-1.107357357357357 	299.9999970033334 	6.695905242726318e-05 	101324.996458079
-1.104854854854855 	299.9999970877552 	5.930081029603454e-05 	101324.9965569759
-1.102352352352353 	299.999996957838 	4.801108198695771e-05 	101324.9964023957
-1.09984984984985 	299.9999969120236 	4.200831231168926e-05 	101324.9963477024
-1.097347347347347 	299.9999968561295 	3.21912497892773e-05 	101324.9962818897
-1.094844844844845 	299.9999967434212 	2.814790165519913e-05 	101324.9961487555
-1.092342342342342 	299.9999966976527 	1.982312135957459e-05 	101324.9960957621
-1.08983983983984 	299.9999966037094 	1.755768436787887e-05 	101324.9959859539
-1.087337337337337 	299.9999966234869 	1.085082869457917e-05 	101324.9960097374
-1.084834834834835 	299.9999966524647 	9.809523335364004e-06 	101324.996043183
-1.082332332332332 	299.9999967780421 	9.81957460789318e-06 	101324.9961911048
-1.07982982982983 	299.999996843814 	8.655873490595617e-06 	101324.99626777
-1.077327327327327 	299.9999969268426 	9.320684330593198e-06 	101324.9963653124
-1.074824824824825 	299.9999969028424 	8.709458009939434e-06 	101324.9963367981
-1.072322322322323 	299.9999968532834 	9.296979145488304e-06 	101324.9962786636
-1.06981981981982 	299.9999967566932 	9.338050173148438e-06 	101324.996164983
-1.067317317317317 	299.9999966573776 	9.698459251457148e-06 	101324.9960479028
-1.064814814814815 	299.999996578475 	9.89531770186356e-06 	101324.9959547133
-1.062312312312312 	299.9999965382117 	1.001540678267129e-05 	101324.9959071602
-1.05980980980981 	299.99999654029 	1.001054853730106e-05 	101324.9959097422
-1.057307307307307 	299.9999965777865 	9.906223072569041e-06 	101324.9959541582
-1.054804804804805 	299.9999966387882 	9.734441955920883e-06 	101324.9960260696
-1.052302302302302 	299.9999967106077 	9.531121737811405e-06 	101324.9961106761
-1.0497997997998 	299.9999967816808 	9.329073825276706e-06 	101324.9961946309
-1.047297297297297 	299.9999968416005 	9.158560305187543e-06 	101324.9962656466
-1.044794794794795 	299.9999968809262 	9.046853122535306e-06 	101324.9963124324
-1.042292292292292 	299.9999968922669 	9.015290067408809e-06 	101324.9963259131
-1.03978978978979 	299.9999968722668 	9.07235621909172e-06 	101324.9963021078
-1.037287287287287 	299.9999968249049 	9.205319663641107e-06 	101324.9962459418
-1.034784784784785 	299.9999967631102 	9.377307380757962e-06 	101324.9961728624
-1.032282282282283 	299.9999967063346 	9.533621837094266e-06 	101324.996105914
-1.02977977977978 	299.9999966758099 	9.615367106034921e-06 	101324.9960699639
-1.027277277277277 	299.9999966883651 	9.576343017849926e-06 	101324.996084769
-1.024774774774775 	299.9999967507181 	9.398618998881619e-06 	101324.996158164
-1.022272272272272 	299.9999968560677 	9.100633208716627e-06 	101324.9962824623
-1.01976976976977 	299.9999969859801 	8.732651954697999e-06 	101324.9964362358
-1.017267267267267 	299.9999971166232 	8.36134321593129e-06 	101324.9965912297
-1.014764764764765 	299.9999972259429 	8.050092862519345e-06 	101324.9967207697
-1.012262262262262 	299.9999972982033 	7.84410331754953e-06 	101324.9968058941
-1.00975975975976 	299.9999973266913 	7.762322837410891e-06 	101324.9968388708
-1.007257257257257 	299.9999973144068 	7.794702952864968e-06 	101324.9968238945
-1.004754754754755 	299.9999972729553 	7.907785428722807e-06 	101324.99677521
-1.002252252252252 	299.9999972194774 	8.053816661218489e-06 	101324.9967130254
-0.9997497497497498 	299.9999971722875 	8.183313060071054e-06 	101324.9966580405
-0.9972472472472473 	299.9999971459522 	8.257469179709975e-06 	101324.996626608
-0.9947447447447449 	299.9999971482741 	8.253252471353288e-06 	101324.9966281027
-0.9922422422422421 	299.9999971799903 	8.16545102503913e-06 	101324.9966643434
-0.9897397397397399 	299.9999972365609 	8.003656304407618e-06 	101324.9967311792
-0.9872372372372376 	299.9999973117432 	7.785304071175427e-06 	101324.9968212929
-0.9847347347347346 	299.9999973993461 	7.530527044070698e-06 	101324.996926356
-0.9822322322322323 	299.9999974933233 	7.259877459496467e-06 	101324.9970378615
-0.9797297297297296 	299.9999975870672 	6.992657439133028e-06 	101324.9971476575
-0.9772272272272275 	299.9999976750084 	6.742233490079551e-06 	101324.9972499812
-0.9747247247247248 	299.9999977548516 	6.513049196889144e-06 	101324.9973433343
-0.9722222222222224 	299.9999978262304 	6.305575973864555e-06 	101324.9974281022
-0.9697197197197196 	299.9999978883004 	6.122671304452138e-06 	101324.9975028401
-0.9672172172172175 	299.999997941227 	5.964041401279994e-06 	101324.9975669201
-0.9647147147147147 	299.9999979904539 	5.816718624098681e-06 	101324.9976259055
-0.9622122122122124 	299.9999980440624 	5.660677462515057e-06 	101324.9976890801
-0.9597097097097099 	299.9999981060793 	5.483835388544074e-06 	101324.9977614681
-0.9572072072072073 	299.9999981751942 	5.286948146305113e-06 	101324.9978420421
-0.9547047047047047 	299.9999982495373 	5.073963307327673e-06 	101324.9979289124
-0.9522022022022023 	299.9999983283959 	4.847023892273736e-06 	101324.9980216111
-0.9496996996996998 	299.9999984097436 	4.613215717315557e-06 	101324.9981176294
-0.9471971971971973 	299.9999984884 	4.387198050950065e-06 	101324.9982105748
-0.9446946946946947 	299.9999985588941 	4.183039632420079e-06 	101324.9982939555
-0.9421921921921923 	299.9999986205937 	4.002269742295756e-06 	101324.9983667634
-0.93968968968969 	299.9999986790162 	3.829787075208004e-06 	101324.9984356212
-0.9371871871871872 	299.9999987432491 	3.641422145915222e-06 	101324.9985114456
-0.9346846846846848 	299.9999988199615 	3.419140687329638e-06 	101324.9986022409
-0.9321821821821823 	299.9999989089008 	3.163461035382752e-06 	101324.9987076356
-0.9296796796796799 	299.9999990035353 	2.891514186792724e-06 	101324.9988198078
-0.9271771771771771 	299.9999990965518 	2.622269692578091e-06 	101324.9989301426
-0.9246746746746748 	299.9999991848854 	2.366060026223661e-06 	101324.9990348482
-0.9221721721721724 	299.9999992684579 	2.124698718937679e-06 	101324.9991338174
-0.9196696696696698 	299.9999993474987 	1.894679256341734e-06 	101324.9992274219
-0.9171671671671672 	299.9999994241901 	1.671214433383721e-06 	101324.9993181852
-0.9146646646646649 	299.9999995026639 	1.443441125606498e-06 	101324.9994108683
-0.9121621621621623 	299.9999995861324 	1.201031089877467e-06 	101324.9995094325
-0.9096596596596597 	299.9999996749939 	9.441066069900441e-07 	101324.999614509
-0.9071571571571573 	299.9999997676614 	6.76238862846152e-07 	101324.9997240564
-0.9046546546546547 	299.9999998624813 	4.004647888626391e-07 	101324.9998362237
-0.9021521521521524 	299.9999999605678 	1.15903271470831e-07 	101324.9999523761
-0.8996496496496498 	300.0000000623102 	1.867743984505031e-07 	101325.0000727507
-0.8971471471471473 	300.000000164878 	4.734961407968299e-07 	101325.0001940546
-0.894644644644645 	300.0000002632258 	7.575868974425776e-07 	101325.0003104193
-0.892142142142142 	300.0000003551004 	1.025091902299836e-06 	101325.0004191945
-0.8896396396396397 	300.0000004431888 	1.282118404601081e-06 	101325.0005234791
-0.8871371371371374 	300.0000005310961 	1.537669641355515e-06 	101325.0006275674
-0.8846346346346349 	300.0000006200142 	1.795137212897275e-06 	101325.000732678
-0.8821321321321324 	300.0000007094777 	2.054701454375682e-06 	101325.0008383615
-0.8796296296296297 	300.0000008010026 	2.321220785773556e-06 	101325.0009465542
-0.8771271271271271 	300.0000008984194 	2.604210902966433e-06 	101325.0010617991
-0.8746246246246248 	300.0000010037165 	2.907800542998884e-06 	101325.0011863097
-0.8721221221221224 	300.0000011133175 	3.222563096354437e-06 	101325.0013158436
-0.8696196196196196 	300.0000012205053 	3.531495680032504e-06 	101325.0014424778
-0.8671171171171175 	300.0000013215096 	3.824829904823751e-06 	101325.0015617964
-0.8646146146146148 	300.0000014181358 	4.10697515543101e-06 	101325.0016761749
-0.8621121121121121 	300.0000015148881 	4.388415734812288e-06 	101325.0017907079
-0.8596096096096097 	300.0000016134733 	4.673494466650062e-06 	101325.0019072889
-0.857107107107107 	300.0000017119469 	4.958000448599614e-06 	101325.0020236376
-0.8546046046046049 	300.0000018084335 	5.237618738560739e-06 	101325.0021374797
-0.8521021021021022 	300.0000019042062 	5.516354821729841e-06 	101325.0022506031
-0.8495995995995997 	300.0000020033327 	5.804518832997039e-06 	101325.0023679713
-0.8470970970970974 	300.0000021081435 	6.107238435533344e-06 	101325.0024922415
-0.8445945945945946 	300.0000022157628 	6.416121286558693e-06 	101325.00261958
-0.8420920920920922 	300.0000023198854 	6.715330188065218e-06 	101325.0027424323
-0.8395895895895897 	300.0000024172679 	6.997583012359778e-06 	101325.0028572165
-0.8370870870870872 	300.0000025115548 	7.272469343189406e-06 	101325.0029684197
-0.8345845845845846 	300.0000026094597 	7.557357908243151e-06 	101325.003084172
-0.8320820820820823 	300.0000027141197 	7.860500507428189e-06 	101325.0032082518
-0.8295795795795798 	300.0000028225749 	8.173914707332515e-06 	101325.0033368922
-0.8270770770770772 	300.000002928747 	8.481104037437867e-06 	101325.0034625913
-0.8245745745745746 	300.0000030283035 	8.770485384373193e-06 	101325.00358027
-0.8220720720720721 	300.0000031218208 	9.042967229170798e-06 	101325.0036905506
-0.8195695695695699 	300.0000032132399 	9.308985469304096e-06 	101325.0037983194
-0.817067067067067 	300.0000033062589 	9.578684092047524e-06 	101325.0039081846
-0.8145645645645651 	300.0000034015382 	9.854289416982266e-06 	101325.0040208832
-0.8120620620620621 	300.0000034975624 	1.013275815213208e-05 	101325.0041344837
-0.8095595595595597 	300.0000035945466 	1.041568287606858e-05 	101325.0042493497
-0.8070570570570572 	300.0000036965184 	1.071283274802469e-05 	101325.0043702033
-0.8045545545545546 	300.0000038067534 	1.103030715551437e-05 	101325.0045005819
-0.8020520520520523 	300.0000039207453 	1.135497097735113e-05 	101325.0046349864
-0.7995495495495494 	300.0000040268128 	1.165755165092358e-05 	101325.0047598253
-0.7970470470470474 	300.0000041164349 	1.191783759785835e-05 	101325.0048654029
-0.7945445445445446 	300.0000041935755 	1.214653246144272e-05 	101325.0049566531
-0.7920420420420423 	300.0000042712321 	1.237651725526922e-05 	101325.0050491275
-0.7895395395395397 	300.0000043587692 	1.263133643935025e-05 	101325.0051536476
-0.7870370370370371 	300.0000044541375 	1.290601855603041e-05 	101325.0052671923
-0.7845345345345348 	300.0000045493593 	1.318055692659382e-05 	101325.0053797791
-0.7820320320320323 	300.0000046411835 	1.344595298509347e-05 	101325.0054873588
-0.7795295295295296 	300.0000047332013 	1.37108346580618e-05 	101325.0055947087
-0.7770270270270272 	300.000004828962 	1.398433567005821e-05 	101325.0057066547
-0.7745245245245247 	300.0000049256328 	1.42609564296831e-05 	101325.0058205406
-0.7720220220220222 	300.0000050171326 	1.452618902184328e-05 	101325.0059292809
-0.7695195195195199 	300.0000051011203 	1.477348299028054e-05 	101325.0060297661
-0.767017017017017 	300.0000051813104 	1.501011639942578e-05 	101325.0061256506
-0.7645145145145147 	300.0000052623557 	1.524669018930131e-05 	101325.0062220428
-0.7620120120120122 	300.0000053446798 	1.548487127431731e-05 	101325.0063196093
-0.7595095095095097 	300.0000054249937 	1.571801576858103e-05 	101325.0064149805
-0.7570070070070072 	300.000005501379 	1.594196170376299e-05 	101325.0065060451
-0.7545045045045048 	300.0000055761325 	1.616260508496662e-05 	101325.0065954868
-0.7520020020020022 	300.0000056538795 	1.639079273851626e-05 	101325.0066884653
-0.7494994994994997 	300.0000057367721 	1.663015781891768e-05 	101325.0067867893
-0.7469969969969972 	300.000005821161 	1.687070113785822e-05 	101325.0068858521
-0.7444944944944945 	300.0000059006379 	1.709723901947943e-05 	101325.0069784368
-0.7419919919919924 	300.0000059731103 	1.730584232416364e-05 	101325.0070625491
-0.7394894894894897 	300.0000060436675 	1.751057789099398e-05 	101325.0071448718
-0.7369869869869872 	300.0000061196579 	1.772923464102234e-05 	101325.0072342179
-0.7344844844844846 	300.0000062006673 	1.795988369017289e-05 	101325.0073302149
-0.7319819819819822 	300.0000062761803 	1.817507644967802e-05 	101325.0074200747
-0.7294794794794797 	300.0000063345104 	1.834626767791477e-05 	101325.0074898955
-0.7269769769769773 	300.000006376899 	1.84773981348507e-05 	101325.0075408199
-0.7244744744744747 	300.0000064196857 	1.860985862356875e-05 	101325.0075919686
-0.721971971971972 	300.0000064804919 	1.878718054904689e-05 	101325.0076639253
-0.7194694694694695 	300.0000065610133 	1.901230656647801e-05 	101325.0077582687
-0.7169669669669674 	300.0000066444535 	1.924367937833193e-05 	101325.0078553726
-0.7144644644644647 	300.0000067132002 	1.943780579265608e-05 	101325.007934574
-0.711961961961962 	300.0000067666639 	1.95945277968547e-05 	101325.0079959189
-0.7094594594594597 	300.0000068211062 	1.975463846937973e-05 	101325.0080592764
-0.7069569569569573 	300.0000068896168 	1.994951829112059e-05 	101325.0081403264
-0.7044544544544545 	300.0000069639862 	2.015698742922235e-05 	101325.0082291741
-0.7019519519519523 	300.0000070198179 	2.031530731175103e-05 	101325.0082965126
-0.6994494494494495 	300.0000070420184 	2.038784400284912e-05 	101325.008323997
-0.6969469469469471 	300.0000070455477 	2.041404970222118e-05 	101325.008328857
-0.6944444444444446 	300.0000070672727 	2.048881970438341e-05 	101325.00835489
-0.6919419419419421 	300.0000071342588 	2.068011967377823e-05 	101325.0084343317
-0.6894394394394396 	300.0000072356079 	2.095880228182958e-05 	101325.0085547554
-0.6869369369369374 	300.0000073273844 	2.121042682898376e-05 	101325.0086639736
-0.6844344344344344 	300.0000073674424 	2.132669443140359e-05 	101325.0087119721
-0.6819319319319321 	300.0000073525586 	2.130012866955969e-05 	101325.0086946925
-0.6794294294294296 	300.0000073241887 	2.123763973211561e-05 	101325.0086608409
-0.6769269269269272 	300.000007335232 	2.12761685039075e-05 	101325.0086731588
-0.6744244244244245 	300.0000074064588 	2.146906142986245e-05 	101325.0087564174
-0.6719219219219222 	300.0000075075179 	2.173834800329257e-05 	101325.0088752687
-0.6694194194194195 	300.0000075806467 	2.193411597252518e-05 	101325.0089614348
-0.6669169169169172 	300.0000075861144 	2.19541029790875e-05 	101325.0089680192
-0.6644144144144146 	300.0000075352355 	2.182857671660001e-05 	101325.0089082957
-0.661911911911912 	300.0000074839088 	2.170303504647202e-05 	101325.0088479907
-0.6594094094094097 	300.0000074910576 	2.173136406440768e-05 	101325.0088566899
-0.656906906906907 	300.0000075749358 	2.196078151578962e-05 	101325.0089560344
-0.6544044044044046 	300.0000076985975 	2.229365592927664e-05 	101325.0091022393
-0.6519019019019021 	300.0000077951693 	2.255360580271946e-05 	101325.0092162337
-0.6493993993993996 	300.0000078138965 	2.260671313910411e-05 	101325.0092380107
-0.6468968968968971 	300.0000077546079 	2.24529324806772e-05 	101325.0091674307
-0.6443943943943946 	300.0000076679649 	2.22260766531646e-05 	101325.0090644451
-0.6418918918918921 	300.0000076211572 	2.210419592156163e-05 	101325.0090084722
-0.6393893893893897 	300.0000076538048 	2.219276143987484e-05 	101325.0090465607
-0.6368868868868871 	300.0000077525899 	2.245656920618567e-05 	101325.0091631569
-0.6343843843843846 	300.0000078595303 	2.274112984076727e-05 	101325.009289733
-0.6318818818818821 	300.0000079074828 	2.286708046763408e-05 	101325.0093469681
-0.6293793793793795 	300.0000078604466 	2.273813803806506e-05 	101325.0092919804
-0.6268768768768773 	300.00000773565 	2.240159624238603e-05 	101325.009145103
-0.6243743743743745 	300.0000075966066 	2.202826514872738e-05 	101325.0089810557
-0.6218718718718721 	300.0000075194116 	2.182479431072054e-05 	101325.0088899787
-0.6193693693693696 	300.0000075547537 	2.192848723935647e-05 	101325.0089320502
-0.6168668668668671 	300.0000077022917 	2.233565898732044e-05 	101325.0091063401
-0.6143643643643645 	300.0000079068615 	2.289616595892077e-05 	101325.0093479555
-0.6118618618618621 	300.0000080830389 	2.337612184233114e-05 	101325.0095561362
-0.6093593593593596 	300.0000081507645 	2.355474239568255e-05 	101325.0096361198
-0.6068568568568571 	300.0000080661609 	2.331230141415241e-05 	101325.009536093
-0.6043543543543546 	300.0000078399746 	2.267982262342448e-05 	101325.0092687208
-0.6018518518518521 	300.0000075356955 	2.183239120476502e-05 	101325.0089089194
-0.5993493493493496 	300.0000072463357 	2.102798901036549e-05 	101325.0085667269
-0.5968468468468471 	300.0000070633465 	2.052233055305805e-05 	101325.0083502046
-0.5943443443443446 	300.0000070506427 	2.049411269688469e-05 	101325.0083349463
-0.591841841841842 	300.0000072273247 	2.099572412312874e-05 	101325.0085436975
-0.5893393393393397 	300.0000075615258 	2.19372073589066e-05 	101325.0089387456
-0.5868368368368371 	300.0000079787492 	2.311096403591145e-05 	101325.0094319583
-0.5843343343343346 	300.000008383653 	2.425009150177969e-05 	101325.00991076
-0.5818318318318321 	300.0000086841161 	2.509312098690232e-05 	101325.0102661825
-0.5793293293293297 	300.0000088072553 	2.543239692521452e-05 	101325.0104121322
-0.5768268268268271 	300.0000087092483 	2.514214025681737e-05 	101325.0102965869
-0.5743243243243245 	300.0000083786658 	2.418930717197572e-05 	101325.0099060645
-0.5718218218218221 	300.0000078350027 	2.262861305402533e-05 	101325.0092636193
-0.5693193193193196 	300.0000071223293 	2.05842077238725e-05 	101325.0084212338
-0.5668168168168171 	300.0000062992164 	1.822212196269803e-05 	101325.007448319
-0.5643143143143147 	300.0000054282493 	1.571935785582352e-05 	101325.0064187207
-0.5618118118118121 	300.0000045657582 	1.323605953530268e-05 	101325.0053989201
-0.5593093093093094 	300.0000037548293 	1.08969062547901e-05 	101325.0044400918
-0.5568068068068072 	300.0000030238518 	8.784840030572213e-06 	101325.0035758093
-0.5543043043043046 	300.0000023878535 	6.944292703587905e-06 	101325.0028237826
-0.551801801801802 	300.0000018510307 	5.388730919499103e-06 	101325.0021890834
-0.5492992992992995 	300.0000014101261 	4.109094695382017e-06 	101325.0016676467
-0.5467967967967969 	300.0000010565621 	3.081715874892718e-06 	101325.0012495126
-0.5442942942942947 	300.0000007792185 	2.27492156060624e-06 	101325.0009215369
-0.5417917917917919 	300.0000005660098 	1.654146104110711e-06 	101325.00066946
-0.5392892892892895 	300.0000004052247 	1.185459499770044e-06 	101325.0004793464
-0.536786786786787 	300.0000002861438 	8.378309743891895e-07 	101325.0003384808
-0.5342842842842846 	300.0000001993524 	5.842547709576935e-07 	101325.0002358319
-0.531781781781782 	300.0000001370676 	4.021973381770022e-07 	101325.0001622033
-0.5292792792792794 	300.0000000930743 	2.734262153883877e-07 	101325.0001101774
-0.526776776776777 	300.0000000624152 	1.83656388168741e-07 	101325.0000739388
-0.5242742742742745 	300.0000000414387 	1.219136248678921e-07 	101325.0000490405
-0.521771771771772 	300.0000000272124 	8.002235736852805e-08 	101325.0000321577
-0.5192692692692695 	300.0000000175961 	5.193814575122533e-08 	101325.0000208542
-0.516766766766767 	300.0000000113267 	3.336037058353138e-08 	101325.0000133779
-0.5142642642642645 	300.0000000071599 	2.119510800411087e-08 	101325.0000084914
-0.511761761761762 	300.0000000044636 	1.333872878958072e-08 	101325.0000053337
-0.5092592592592596 	300.0000000027783 	8.303654164908712e-09 	101325.0000033159
-0.506756756756757 	300.0000000016614 	5.127092466334627e-09 	101325.0000020402
-0.5042542542542544 	300.0000000010466 	3.129860345876833e-09 	101325.000001242
-0.5017517517517521 	300.0000000006672 	1.899431574329298e-09 	101325.0000007473
-0.4992492492492494 	300.000000000414 	1.138097311682675e-09 	101325.0000004441
-0.496746746746747 	300.0000000002077 	6.808756020996268e-10 	101325.00000026
-0.4942442442442445 	300.0000000000775 	4.005972438955132e-10 	101325.0000001492
-0.4917417417417421 	300.0000000000069 	2.375459043058576e-10 	101325.0000000831
-0.4892392392392395 	299.9999999999947 	1.369118463988671e-10 	101325.0000000441
-0.486736736736737 	299.9999999999802 	8.247526413698843e-11 	101325.0000000213
-0.4842342342342345 	299.9999999999274 	4.57663489453404e-11 	101325.0000000081
-0.481731731731732 	300.0000000000448 	2.995563579162394e-11 	101325.0000000005
-0.4792292292292296 	300.0000000000267 	1.52667453349902e-11 	101324.9999999961
-0.4767267267267268 	299.9999999999482 	1.368985235630494e-11 	101324.9999999937
-0.4742242242242246 	299.9999999999907 	5.29076006043074e-12 	101324.9999999923
-0.471721721721722 	299.9999999999538 	7.571819774647547e-12 	101324.9999999916
-0.4692192192192195 	299.9999999999715 	2.320502610266844e-12 	101324.9999999912
-0.4667167167167169 	299.9999999999038 	4.672095844495839e-12 	101324.9999999909
-0.4642142142142145 	299.999999999992 	1.245042098590207e-12 	101324.9999999906
-0.461711711711712 	300.0000000000135 	3.917507556236941e-12 	101324.9999999903
-0.4592092092092094 	300.000000000013 	1.491493827142764e-12 	101324.9999999906
-0.456706706706707 	300.0000000000523 	3.621291928761043e-12 	101324.9999999907
-0.4542042042042045 	299.9999999999354 	1.610559538453718e-12 	101324.9999999909
-0.451701701701702 	299.999999999946 	2.587102357619518e-12 	101324.9999999911
-0.4491991991991995 	299.9999999999501 	7.677767634851592e-13 	101324.9999999911
-0.4466966966966969 	299.9999999999413 	2.744586989163335e-12 	101324.9999999909
-0.4441941941941945 	299.9999999999904 	1.349835770746822e-12 	101324.999999991
-0.441691691691692 	299.9999999999546 	3.107885874242755e-12 	101324.999999991
-0.4391891891891895 	299.9999999999877 	2.464931126226048e-12 	101324.9999999909
-0.436686686686687 	299.999999999963 	4.959191395683565e-12 	101324.9999999911
-0.4341841841841846 	300.0000000000003 	2.635705728291954e-12 	101324.9999999909
-0.431681681681682 	299.9999999999443 	5.362723986547168e-12 	101324.9999999908
-0.4291791791791794 	299.9999999999242 	1.065948030804039e-12 	101324.9999999908
-0.426676676676677 	299.9999999998997 	4.913593458431092e-12 	101324.9999999907
-0.4241741741741744 	299.9999999999641 	2.20760537973086e-12 	101324.999999991
-0.421671671671672 	300.0000000000025 	5.969269459141983e-12 	101324.9999999909
-0.4191691691691694 	300.0000000000539 	3.841503263454485e-12 	101324.9999999909
-0.4166666666666669 	300.0000000000632 	6.133074039945476e-12 	101324.999999991
-0.4141641641641645 	299.9999999999286 	3.926713307392325e-12 	101324.9999999909
-0.411661661661662 	300.0000000000065 	4.599584332916441e-12 	101324.9999999909
-0.4091591591591594 	299.9999999999991 	2.894843158829848e-12 	101324.9999999908
-0.406656656656657 	299.999999999939 	4.49383565573873e-12 	101324.999999991
-0.4041541541541545 	300.0000000000193 	2.027847932332957e-12 	101324.9999999907
-0.401651651651652 	299.9999999999116 	4.570452613713283e-12 	101324.9999999907
-0.3991491491491494 	299.9999999999964 	1.546616044031851e-12 	101324.9999999906
-0.396646646646647 	299.9999999999533 	4.493807269365904e-12 	101324.9999999906
-0.3941441441441444 	299.9999999999748 	2.525136096518176e-12 	101324.9999999904
-0.3916416416416419 	299.9999999999233 	4.110987401642884e-12 	101324.9999999901
-0.3891391391391395 	299.9999999999574 	1.31733979929101e-12 	101324.9999999901
-0.3866366366366368 	299.9999999999539 	3.371527884850477e-12 	101324.9999999901
-0.3841341341341344 	299.9999999999951 	1.118225743335911e-12 	101324.9999999901
-0.381631631631632 	299.9999999999489 	1.606125351981196e-12 	101324.9999999899
-0.3791291291291294 	300.0000000000057 	5.466561737252208e-13 	101324.9999999898
-0.3766266266266269 	300.0000000000255 	3.783707803538454e-13 	101324.9999999897
-0.3741241241241244 	300.0000000000283 	1.506014855954252e-12 	101324.9999999899
-0.371621621621622 	300.0000000000187 	3.932485431889867e-13 	101324.9999999899
-0.3691191191191194 	300.0000000000034 	3.359720751846331e-12 	101324.9999999901
-0.366616616616617 	300.0000000000039 	1.062444705771514e-12 	101324.9999999904
-0.3641141141141143 	299.9999999999571 	3.878769803698894e-12 	101324.9999999905
-0.3616116116116119 	299.9999999999467 	2.107928926871538e-12 	101324.9999999905
-0.3591091091091095 	299.9999999999865 	3.615272483116098e-12 	101324.9999999908
-0.356606606606607 	299.9999999999835 	2.611190910306433e-12 	101324.9999999908
-0.3541041041041044 	299.9999999999856 	2.058038523475954e-12 	101324.9999999907
-0.3516016016016019 	300.0000000000032 	2.744042866436155e-12 	101324.9999999906
-0.3490990990990994 	299.9999999999902 	1.045590316908448e-12 	101324.9999999907
-0.346596596596597 	300.0000000000442 	3.042987871898323e-12 	101324.9999999907
-0.3440940940940944 	300.0000000000539 	6.899997538040612e-13 	101324.9999999905
-0.3415915915915919 	300.0000000000216 	3.057492591380607e-12 	101324.9999999906
-0.3390890890890895 	299.9999999999787 	1.379754089093439e-12 	101324.9999999907
-0.3365865865865869 	300.0000000000201 	2.602187682175952e-12 	101324.9999999905
-0.3340840840840844 	300.0000000000028 	1.549664948676671e-12 	101324.9999999903
-0.3315815815815819 	300.0000000000234 	2.61964332281188e-12 	101324.9999999905
-0.3290790790790794 	300.0000000000223 	2.183701304995319e-12 	101324.9999999907
-0.3265765765765769 	299.9999999999209 	3.224359121669895e-12 	101324.9999999905
-0.3240740740740744 	299.9999999999941 	2.067352044874732e-12 	101324.9999999904
-0.3215715715715718 	300.000000000006 	4.134386660483886e-12 	101324.9999999904
-0.3190690690690695 	299.9999999999291 	2.374568954341305e-12 	101324.9999999905
-0.3165665665665668 	299.9999999999889 	4.482405997775058e-12 	101324.9999999905
-0.3140640640640644 	300.0000000000099 	1.632880135098302e-12 	101324.9999999909
-0.311561561561562 	299.9999999999196 	5.181747031708422e-12 	101324.9999999913
-0.3090590590590593 	299.9999999999924 	1.010958323160558e-12 	101324.9999999912
-0.3065565565565568 	300.0000000000047 	6.769011054060381e-12 	101324.9999999913
-0.3040540540540545 	300 	1.386539569763609e-12 	101324.9999999912
-0.3015515515515518 	300.0000000000339 	5.725622648677601e-12 	101324.999999991
-0.2990490490490494 	299.9999999999464 	1.141199589816478e-12 	101324.9999999912
-0.2965465465465469 	299.9999999999847 	3.134690249100984e-12 	101324.9999999912
-0.2940440440440444 	299.9999999999946 	1.539652800945965e-12 	101324.9999999914
-0.2915415415415418 	300.0000000000024 	2.638047540709891e-12 	101324.9999999912
-0.2890390390390395 	300.0000000000038 	3.210863034702693e-12 	101324.9999999911
-0.2865365365365368 	299.9999999999794 	2.503830980552066e-12 	101324.9999999911
-0.2840340340340343 	299.9999999999993 	4.617921924911495e-12 	101324.999999991
-0.2815315315315318 	299.9999999999278 	2.414331619241915e-12 	101324.999999991
-0.2790290290290295 	299.9999999999615 	3.793535154652468e-12 	101324.9999999907
-0.2765265265265269 	300.0000000000099 	2.223126675258788e-12 	101324.9999999908
-0.2740240240240244 	300.0000000000244 	3.607216924830744e-12 	101324.9999999907
-0.2715215215215219 	300.0000000000214 	3.532377634609981e-12 	101324.9999999906
-0.2690190190190194 	299.9999999999368 	2.685976159330312e-12 	101324.9999999906
-0.2665165165165169 	299.9999999999997 	2.866645991157081e-12 	101324.9999999906
-0.2640140140140144 	299.9999999999633 	1.78147815134638e-12 	101324.9999999908
-0.2615115115115119 	300.0000000000021 	3.615877598955078e-12 	101324.999999991
-0.2590090090090094 	299.9999999999287 	1.931728065113442e-12 	101324.9999999911
-0.2565065065065068 	299.9999999999905 	2.656238618220674e-12 	101324.9999999911
-0.2540040040040044 	299.9999999999966 	2.541155229357202e-12 	101324.9999999911
-0.2515015015015019 	300.0000000000376 	1.776538992913625e-12 	101324.9999999913
-0.2489989989989994 	300.0000000000429 	4.055460236267164e-12 	101324.9999999911
-0.2464964964964968 	299.9999999999899 	1.536517586452001e-12 	101324.9999999908
-0.2439939939939944 	300.0000000000009 	5.285610933768206e-12 	101324.9999999908
-0.2414914914914919 	299.9999999999701 	1.358149937611685e-12 	101324.999999991
-0.2389889889889893 	300 	6.074772384653235e-12 	101324.999999991
-0.2364864864864869 	300.000000000026 	2.113828666214671e-12 	101324.9999999911
-0.2339839839839843 	299.9999999999281 	5.650742850767037e-12 	101324.9999999913
-0.2314814814814819 	299.9999999999798 	1.16426912899859e-12 	101324.9999999913
-0.2289789789789792 	299.9999999999098 	3.936384639800609e-12 	101324.9999999913
-0.2264764764764769 	299.9999999999453 	9.656762462207821e-13 	101324.9999999913
-0.2239739739739743 	299.9999999999596 	2.228522578351138e-12 	101324.9999999912
-0.2214714714714718 	299.9999999999366 	8.622190005299036e-13 	101324.9999999913
-0.2189689689689693 	299.9999999999675 	6.419617124674378e-14 	101324.9999999911
-0.2164664664664669 	299.999999999978 	1.221084525627212e-12 	101324.9999999911
-0.2139639639639643 	299.9999999999231 	3.367339779614747e-13 	101324.9999999909
-0.2114614614614618 	299.9999999999736 	1.475984075118311e-12 	101324.9999999909
-0.2089589589589593 	299.9999999999901 	1.797938920354842e-12 	101324.9999999909
-0.2064564564564568 	299.9999999999891 	2.092905239782729e-12 	101324.999999991
-0.2039539539539543 	299.9999999999028 	4.053955361294908e-12 	101324.9999999911
-0.2014514514514518 	299.9999999999488 	2.325933351982663e-12 	101324.9999999911
-0.1989489489489494 	299.9999999999684 	4.985313777434981e-12 	101324.9999999911
-0.1964464464464468 	299.9999999999923 	1.41255813239563e-12 	101324.999999991
-0.1939439439439443 	299.999999999989 	4.608145338298449e-12 	101324.9999999911
-0.1914414414414418 	299.9999999999138 	2.008417632732947e-12 	101324.9999999909
-0.1889389389389393 	300.000000000012 	3.897106193517041e-12 	101324.9999999908
-0.1864364364364368 	300.0000000000477 	2.292322751146487e-12 	101324.9999999908
-0.1839339339339343 	299.9999999999738 	2.950795848181579e-12 	101324.9999999907
-0.1814314314314318 	299.9999999999922 	1.447688106636787e-12 	101324.9999999906
-0.1789289289289293 	299.9999999998967 	3.107364064066823e-12 	101324.9999999906
-0.1764264264264268 	299.9999999999777 	4.676917483431928e-13 	101324.9999999906
-0.1739239239239243 	299.9999999998952 	2.706901996628365e-12 	101324.9999999904
-0.1714214214214218 	299.9999999999818 	2.052579150665014e-12 	101324.9999999904
-0.1689189189189193 	299.9999999999463 	3.547951016885575e-12 	101324.9999999906
-0.1664164164164168 	299.9999999999974 	3.986587311909452e-12 	101324.9999999905
-0.1639139139139143 	299.9999999999849 	4.332002110831458e-12 	101324.9999999905
-0.1614114114114118 	300.0000000000271 	5.378323261792963e-12 	101324.9999999905
-0.1589089089089093 	299.999999999998 	5.890518733872988e-12 	101324.9999999908
-0.1564064064064068 	299.9999999999841 	6.526681062747546e-12 	101324.9999999908
-0.1539039039039043 	299.9999999999921 	6.194412733337193e-12 	101324.9999999907
-0.1514014014014018 	300.0000000000252 	5.23714484889744e-12 	101324.9999999908
-0.1488988988988993 	299.9999999999863 	7.110563289592222e-12 	101324.9999999909
-0.1463963963963968 	299.999999999997 	2.813155697894329e-12 	101324.999999991
-0.1438938938938943 	299.999999999955 	6.990209638155628e-12 	101324.9999999909
-0.1413913913913918 	299.9999999999231 	7.939491742979147e-13 	101324.9999999908
-0.1388888888888893 	299.9999999999794 	7.140001819176755e-12 	101324.9999999909
-0.1363863863863868 	299.9999999998866 	3.460748439215504e-12 	101324.9999999909
-0.1338838838838843 	299.9999999999055 	6.949172428833584e-12 	101324.9999999909
-0.1313813813813818 	299.9999999999952 	3.859958355823187e-12 	101324.9999999908
-0.1288788788788793 	299.9999999999554 	6.521954733790424e-12 	101324.9999999908
-0.1263763763763768 	299.9999999999698 	3.554888351197674e-12 	101324.9999999909
-0.1238738738738743 	299.9999999999191 	6.747273856362661e-12 	101324.9999999911
-0.1213713713713717 	299.9999999999696 	2.711192312169144e-12 	101324.9999999911
-0.1188688688688693 	300.0000000000026 	6.218427247688169e-12 	101324.999999991
-0.1163663663663668 	299.9999999999035 	5.104697725782221e-13 	101324.999999991
-0.1138638638638643 	299.9999999999932 	4.663978895614495e-12 	101324.9999999913
-0.1113613613613618 	299.9999999999878 	1.501632080821388e-12 	101324.9999999911
-0.1088588588588592 	299.9999999999756 	5.392846594562887e-12 	101324.9999999909
-0.1063563563563568 	299.9999999999457 	1.310193416681787e-12 	101324.9999999907
-0.1038538538538543 	299.9999999999674 	4.233832736783388e-12 	101324.9999999907
-0.1013513513513517 	300.000000000015 	8.894010873707395e-13 	101324.9999999907
-0.09884884884884926 	299.9999999999355 	3.20684581644244e-12 	101324.9999999906
-0.09634634634634676 	299.9999999998803 	1.778707404848059e-13 	101324.9999999906
-0.09384384384384425 	299.9999999999277 	1.742206730542336e-12 	101324.9999999908
-0.09134134134134177 	300.0000000000268 	5.301578172323627e-13 	101324.9999999911
-0.08883883883883925 	300.0000000000128 	1.203061975604069e-12 	101324.9999999909
-0.08633633633633674 	299.9999999999479 	4.897666941445781e-13 	101324.9999999908
-0.08383383383383426 	300.0000000000121 	7.117500118174224e-13 	101324.9999999909
-0.08133133133133173 	299.9999999999646 	1.733776147929943e-12 	101324.9999999908
-0.07882882882882926 	299.9999999998714 	1.246299780859684e-12 	101324.9999999906
-0.07632632632632676 	299.999999999958 	8.543693146281808e-13 	101324.9999999908
-0.07382382382382424 	299.9999999998927 	3.596846853715263e-13 	101324.9999999909
-0.07132132132132173 	300.0000000000154 	5.387896726365732e-13 	101324.9999999908
-0.06881881881881925 	299.9999999999503 	1.119874835239443e-12 	101324.9999999909
-0.06631631631631671 	299.9999999998878 	9.228103143154118e-13 	101324.999999991
-0.06381381381381425 	299.9999999999597 	9.878537640485439e-13 	101324.999999991
-0.06131131131131173 	299.9999999999616 	1.347927921249493e-12 	101324.9999999907
-0.05880880880880923 	299.9999999999179 	1.601273621538159e-12 	101324.9999999905
-0.05630630630630672 	299.9999999999735 	1.662411364819771e-12 	101324.9999999905
-0.05380380380380424 	300.0000000000167 	2.095456652870948e-12 	101324.9999999902
-0.05130130130130173 	300.0000000000143 	2.437926061102426e-12 	101324.9999999902
-0.04879879879879922 	299.9999999999308 	2.320536361136309e-12 	101324.99999999
-0.04629629629629672 	299.9999999999092 	1.051949545783005e-12 	101324.99999999
-0.04379379379379422 	299.99999999993 	8.866140537886781e-13 	101324.9999999901
-0.04129129129129173 	299.9999999999737 	6.536420853525439e-13 	101324.9999999903
-0.03878878878878922 	299.9999999999848 	2.816780237813049e-13 	101324.9999999906
-0.03628628628628671 	299.999999999984 	2.834370281347516e-13 	101324.9999999907
-0.03378378378378422 	299.9999999999179 	1.03239361748947e-12 	101324.9999999909
-0.03128128128128172 	299.9999999999635 	1.008783803698021e-12 	101324.9999999913
-0.02877877877877922 	299.999999999964 	9.856759185241784e-13 	101324.9999999916
-0.0262762762762767 	299.9999999998955 	4.987094637216291e-13 	101324.9999999916
-0.02377377377377422 	300.0000000000215 	2.864295493504246e-13 	101324.9999999917
-0.0212712712712717 	299.9999999998958 	6.052987828859871e-13 	101324.9999999919
-0.01876876876876921 	299.9999999999667 	3.271179004498024e-13 	101324.9999999916
-0.01626626626626671 	300.0000000000171 	1.482337441667544e-12 	101324.9999999914
-0.0137637637637642 	299.999999999968 	1.326781165149693e-12 	101324.9999999909
-0.0112612612612617 	300.000000000014 	2.345597146153039e-12 	101324.9999999911
-0.008758758758759198 	299.9999999999891 	1.901240068978206e-12 	101324.9999999913
-0.006256256256256697 	299.9999999998788 	1.973246168114624e-12 	101324.9999999914
-0.003753753753754195 	299.9999999999494 	1.131859433728721e-12 	101324.9999999912
-0.001251251251251693 	299.9999999999222 	1.523358574113304e-12 	101324.9999999912
0.00125125125125081 	299.9999999999527 	8.413895641788168e-14 	101324.999999991
0.003753753753753312 	299.9999999999572 	8.28425623393783e-13 	101324.9999999911
0.006256256256255817 	299.9999999998747 	2.864198456987377e-13 	101324.9999999908
0.008758758758758317 	299.9999999999935 	1.38227133255729e-13 	101324.9999999906
0.01126126126126082 	300.0000000000067 	1.478043932894327e-13 	101324.999999991
0.01376376376376332 	299.9999999999638 	4.072075499342668e-13 	101324.999999991
0.01626626626626582 	300.0000000000147 	4.649417843827063e-13 	101324.999999991
0.01876876876876833 	299.9999999999495 	5.000969905842332e-13 	101324.9999999909
0.02127127127127083 	299.9999999999701 	1.126657183612953e-12 	101324.9999999908
0.02377377377377332 	299.9999999999959 	4.426016586247226e-13 	101324.9999999905
0.02627627627627583 	299.9999999998942 	5.581772207252923e-13 	101324.9999999905
0.02877877877877833 	300.000000000011 	3.939553543457578e-13 	101324.9999999907
0.03128128128128083 	299.9999999999457 	1.787935359425866e-13 	101324.9999999909
0.03378378378378333 	299.9999999998948 	2.159363211587675e-13 	101324.9999999906
0.03628628628628584 	299.9999999999613 	9.80213606184835e-14 	101324.9999999906
0.03878878878878834 	299.9999999999793 	1.872257528836975e-13 	101324.9999999908
0.04129129129129084 	299.9999999999757 	2.753215858818187e-13 	101324.999999991
0.04379379379379333 	299.9999999999374 	4.316065742051667e-13 	101324.9999999911
0.04629629629629585 	299.9999999998872 	1.959980171893366e-14 	101324.9999999913
0.04879879879879834 	299.9999999999574 	1.561258391430805e-13 	101324.9999999913
0.05130130130130085 	300.0000000000131 	2.242073546821799e-13 	101324.9999999913
0.05380380380380335 	300.00000000002 	4.133316575560187e-13 	101324.9999999916
0.05630630630630584 	299.9999999999937 	2.591991122772943e-13 	101324.9999999915
0.05880880880880836 	299.9999999999167 	3.569302792893074e-13 	101324.9999999914
0.06131131131131085 	299.9999999999666 	1.612503354346967e-13 	101324.9999999915
0.06381381381381336 	299.9999999999558 	3.36607730254539e-13 	101324.9999999913
0.06631631631631586 	299.9999999998886 	5.001351546903605e-13 	101324.999999991
0.06881881881881835 	299.999999999956 	5.322141069329942e-13 	101324.999999991
0.07132132132132088 	299.9999999999858 	6.762144123808109e-13 	101324.999999991
0.07382382382382337 	299.9999999998952 	6.761698530883471e-13 	101324.9999999908
0.07632632632632587 	299.9999999999656 	1.010062494541721e-12 	101324.9999999908
0.07882882882882837 	299.9999999999379 	7.645859665790014e-13 	101324.9999999905
0.08133133133133086 	299.9999999999761 	4.563127567397305e-13 	101324.9999999905
0.08383383383383337 	299.999999999987 	3.537771874362131e-14 	101324.9999999906
0.08633633633633589 	299.9999999999047 	8.538751638919647e-13 	101324.9999999908
0.08883883883883838 	300.0000000000038 	2.077857211797656e-12 	101324.999999991
0.09134134134134086 	299.9999999999775 	1.880587770456287e-12 	101324.9999999909
0.09384384384384339 	299.9999999998873 	2.780558357557803e-12 	101324.9999999909
0.09634634634634588 	299.9999999999651 	3.092428824271315e-12 	101324.999999991
0.09884884884884838 	299.9999999999712 	3.271442011453012e-12 	101324.999999991
0.1013513513513509 	300.0000000000182 	3.531755094118883e-12 	101324.9999999906
0.1038538538538534 	299.9999999999537 	3.164418204011774e-12 	101324.9999999906
0.1063563563563559 	300.0000000000078 	3.516360787590736e-12 	101324.9999999906
0.1088588588588584 	300.0000000000238 	3.092622734358652e-12 	101324.9999999907
0.1113613613613609 	299.9999999999065 	3.061333028789835e-12 	101324.9999999905
0.1138638638638634 	299.9999999999447 	3.378906033435364e-12 	101324.9999999904
0.1163663663663659 	299.9999999999494 	3.676608027325005e-12 	101324.9999999902
0.1188688688688684 	299.9999999999646 	4.077406299884256e-12 	101324.9999999901
0.1213713713713709 	299.9999999999953 	3.435447661295248e-12 	101324.9999999901
0.1238738738738734 	299.9999999999277 	4.352482727182171e-12 	101324.9999999902
0.1263763763763759 	299.9999999999786 	5.003706999025737e-12 	101324.9999999902
0.1288788788788784 	299.9999999999835 	4.526240693029331e-12 	101324.9999999904
0.1313813813813809 	299.9999999999831 	4.719231020613772e-12 	101324.9999999906
0.1338838838838834 	299.9999999999748 	4.157330720174048e-12 	101324.9999999906
0.1363863863863859 	300.0000000000243 	3.579788445849317e-12 	101324.9999999906
0.1388888888888884 	300.0000000000526 	3.271305938460046e-12 	101324.9999999905
0.1413913913913909 	300.0000000000092 	1.980112447801509e-12 	101324.9999999906
0.1438938938938934 	299.9999999999919 	1.937747290956279e-12 	101324.9999999906
0.1463963963963959 	299.9999999999482 	7.054883327986781e-13 	101324.9999999904
0.1488988988988985 	299.9999999999041 	2.531225225109683e-12 	101324.9999999905
0.1514014014014009 	299.9999999999689 	8.846566953886768e-13 	101324.9999999906
0.1539039039039035 	299.9999999999639 	2.964615330650283e-12 	101324.9999999909
0.1564064064064059 	299.9999999999216 	3.650006608704294e-13 	101324.999999991
0.1589089089089084 	299.9999999999762 	4.025601002942796e-12 	101324.9999999905
0.1614114114114109 	299.9999999999715 	1.035873040915385e-12 	101324.9999999905
0.1639139139139134 	299.9999999999118 	3.230940414444533e-12 	101324.9999999904
0.166416416416416 	300.0000000000033 	2.111638054612743e-12 	101324.9999999902
0.1689189189189185 	300.0000000000323 	2.226741748893421e-12 	101324.9999999901
0.1714214214214209 	300.0000000000076 	1.336701562242716e-12 	101324.9999999902
0.1739239239239235 	299.9999999999905 	4.453710874992185e-13 	101324.9999999904
0.1764264264264259 	299.9999999999665 	1.436821912375867e-12 	101324.9999999903
0.1789289289289284 	300.0000000000109 	1.193442701365221e-12 	101324.9999999903
0.181431431431431 	299.9999999999617 	1.101857443129303e-12 	101324.9999999903
0.1839339339339334 	299.9999999999704 	5.372069725485853e-13 	101324.99999999
0.186436436436436 	299.9999999999278 	1.020111927868688e-12 	101324.9999999899
0.1889389389389385 	299.9999999999836 	1.495857138118585e-12 	101324.9999999899
0.191441441441441 	299.9999999999771 	1.081878914912295e-12 	101324.99999999
0.1939439439439434 	299.9999999999109 	2.488298785690888e-12 	101324.99999999
0.196446446446446 	299.9999999999419 	8.116076306242007e-13 	101324.9999999899
0.1989489489489485 	299.9999999999641 	2.463914378975483e-12 	101324.99999999
0.2014514514514509 	299.9999999999773 	2.939176114978312e-13 	101324.9999999899
0.2039539539539535 	299.9999999999908 	1.935351295301876e-12 	101324.99999999
0.2064564564564559 	299.9999999999548 	8.310437593996358e-13 	101324.9999999901
0.2089589589589585 	299.9999999999853 	1.012698607986712e-12 	101324.9999999902
0.211461461461461 	299.9999999999295 	1.100141821094302e-12 	101324.9999999901
0.2139639639639635 	299.9999999999814 	8.213719064871119e-13 	101324.9999999903
0.2164664664664659 	300.0000000000035 	2.357056139532359e-12 	101324.9999999903
0.2189689689689684 	300.0000000000008 	6.830415946826896e-13 	101324.9999999902
0.221471471471471 	299.9999999999986 	2.967020584854934e-12 	101324.9999999903
0.2239739739739735 	299.9999999999558 	1.30718764397686e-12 	101324.9999999903
0.226476476476476 	299.9999999999848 	3.512570692699114e-12 	101324.9999999901
0.2289789789789785 	299.9999999999912 	2.977852555639611e-12 	101324.9999999902
0.231481481481481 	299.9999999999678 	3.511679089426401e-12 	101324.9999999902
0.2339839839839835 	299.9999999999952 	4.126242138049809e-12 	101324.9999999905
0.236486486486486 	300.0000000000248 	2.764277714266811e-12 	101324.9999999908
0.2389889889889885 	300.0000000000006 	4.115461212881078e-12 	101324.9999999907
0.241491491491491 	299.9999999999138 	1.504593989707553e-12 	101324.9999999907
0.2439939939939935 	299.9999999999772 	3.378867701611541e-12 	101324.9999999908
0.246496496496496 	299.9999999999887 	3.393952076492031e-13 	101324.9999999905
0.2489989989989985 	300.0000000000372 	1.353078374282357e-12 	101324.9999999903
0.251501501501501 	300.0000000000312 	2.978710613498779e-13 	101324.9999999902
0.2540040040040035 	299.9999999999847 	4.906806416864433e-13 	101324.9999999903
0.256506506506506 	300.0000000000239 	3.296740950224713e-13 	101324.9999999902
0.2590090090090086 	299.9999999999056 	2.20161515188962e-12 	101324.9999999903
0.261511511511511 	300.0000000000023 	9.854699731757834e-13 	101324.9999999901
0.2640140140140135 	299.9999999999899 	2.24303440577392e-12 	101324.9999999901
0.2665165165165161 	299.9999999999259 	4.920110201915092e-13 	101324.9999999901
0.2690190190190185 	300.0000000000118 	2.388745244691114e-13 	101324.9999999902
0.271521521521521 	300.0000000000157 	5.907789899450866e-13 	101324.9999999906
0.2740240240240235 	300.0000000000164 	1.134218666929463e-12 	101324.9999999906
0.276526526526526 	300.0000000000078 	8.651937141375249e-13 	101324.9999999905
0.2790290290290286 	299.9999999999369 	2.785342778929315e-12 	101324.9999999901
0.281531531531531 	299.9999999999263 	2.391267368252385e-12 	101324.99999999
0.2840340340340335 	299.9999999999811 	4.305871151038931e-12 	101324.99999999
0.2865365365365361 	299.9999999999547 	3.302336895162668e-12 	101324.9999999898
0.2890390390390385 	299.9999999999962 	3.696550291772195e-12 	101324.9999999898
0.291541541541541 	299.9999999999961 	3.147285471556113e-12 	101324.9999999901
0.2940440440440436 	299.9999999999907 	1.720124513960564e-12 	101324.9999999902
0.296546546546546 	299.999999999989 	3.325699279841784e-12 	101324.9999999904
0.2990490490490486 	299.9999999999362 	8.998947596990286e-13 	101324.9999999906
0.3015515515515511 	300.0000000000359 	4.396165484053582e-12 	101324.9999999906
0.3040540540540535 	300.0000000000087 	2.431910348249556e-12 	101324.9999999905
0.3065565565565562 	299.9999999999882 	4.243810980683773e-12 	101324.9999999902
0.3090590590590585 	299.9999999999835 	1.989510046857376e-12 	101324.9999999901
0.3115615615615611 	299.9999999999342 	3.046079745087267e-12 	101324.9999999902
0.3140640640640635 	300.0000000000087 	1.505582988514738e-12 	101324.99999999
0.316566566566566 	299.9999999999916 	1.950384087723185e-12 	101324.9999999901
0.3190690690690687 	299.9999999999421 	1.443039155686059e-12 	101324.99999999
0.3215715715715711 	300.0000000000115 	1.937387896569795e-12 	101324.9999999897
0.3240740740740735 	299.9999999999912 	1.331817396940478e-12 	101324.9999999897
0.326576576576576 	299.9999999999 	9.96444803969204e-13 	101324.9999999897
0.3290790790790786 	300.0000000000063 	7.649338970262956e-13 	101324.9999999899
0.3315815815815811 	300.0000000000347 	7.862420643222346e-13 	101324.9999999902
0.3340840840840836 	299.9999999999876 	4.521727448339302e-13 	101324.9999999902
0.3365865865865861 	300.0000000000549 	1.548507194441931e-12 	101324.9999999904
0.3390890890890886 	300.0000000000477 	5.24636005249238e-13 	101324.9999999903
0.3415915915915911 	299.9999999999948 	1.074319085155722e-12 	101324.9999999899
0.3440940940940935 	299.9999999999522 	8.957426838781536e-13 	101324.9999999898
0.3465965965965962 	300.0000000000339 	1.715622884406794e-12 	101324.9999999898
0.3490990990990985 	300.000000000027 	3.98677126450385e-13 	101324.9999999901
0.3516016016016011 	299.9999999999877 	1.469621569317868e-13 	101324.9999999904
0.3541041041041035 	300.000000000004 	2.400763035167428e-13 	101324.9999999905
0.3566066066066061 	299.9999999999529 	9.375136971794599e-13 	101324.9999999905
0.3591091091091085 	299.9999999999227 	8.049028031428081e-13 	101324.9999999904
0.3616116116116112 	299.9999999999388 	2.242152988043429e-12 	101324.9999999902
0.3641141141141137 	299.9999999999334 	1.438218793852879e-12 	101324.9999999901
0.3666166166166161 	299.9999999999258 	2.584455224632779e-12 	101324.9999999902
0.3691191191191185 	300.000000000042 	3.3896905564733e-12 	101324.9999999902
0.371621621621621 	300.0000000000078 	1.62601402290764e-12 	101324.9999999899
0.3741241241241237 	300.0000000000507 	3.431041608502188e-12 	101324.99999999
0.3766266266266261 	300.0000000000308 	8.412771964650518e-13 	101324.9999999899
0.3791291291291286 	299.9999999999814 	2.618715214161463e-12 	101324.9999999899
0.3816316316316311 	299.9999999999238 	1.15029762314852e-12 	101324.9999999901
0.3841341341341336 	300.0000000000141 	1.631464170055347e-12 	101324.9999999901
0.3866366366366362 	299.9999999999985 	1.43164092085236e-12 	101324.9999999902
0.3891391391391387 	299.9999999999515 	1.463146700897107e-12 	101324.9999999902
0.391641641641641 	300.000000000001 	5.438509944879115e-13 	101324.9999999903
0.3941441441441436 	300.0000000000072 	1.178472205253992e-12 	101324.9999999902
0.3966466466466462 	299.9999999999989 	4.350972853924522e-13 	101324.9999999904
0.3991491491491486 	299.9999999999474 	1.143046715352209e-12 	101324.9999999903
0.4016516516516512 	299.9999999999097 	9.616808561375558e-13 	101324.9999999903
0.4041541541541536 	299.9999999999458 	1.283158548649978e-12 	101324.9999999905
0.4066566566566561 	299.999999999945 	1.032663094155487e-12 	101324.9999999907
0.4091591591591587 	299.9999999999887 	8.314649390636565e-13 	101324.9999999909
0.4116616616616612 	300.0000000000034 	6.18089996624585e-13 	101324.9999999909
0.4141641641641635 	300.0000000000489 	1.532519059214304e-13 	101324.9999999909
0.4166666666666662 	299.9999999999946 	3.232704873809508e-13 	101324.9999999907
0.4191691691691687 	299.9999999999357 	1.815430718829565e-12 	101324.9999999906
0.421671671671671 	300.0000000000139 	1.650471931720323e-12 	101324.9999999908
0.4241741741741737 	299.9999999999808 	2.879542447064989e-12 	101324.9999999907
0.4266766766766761 	299.9999999999565 	2.380511940837719e-12 	101324.9999999906
0.4291791791791785 	300.0000000000192 	3.560614071733023e-12 	101324.9999999905
0.4316816816816812 	300.000000000008 	2.625446517969214e-12 	101324.9999999904
0.4341841841841836 	299.9999999999835 	3.715686934026727e-12 	101324.9999999901
0.4366866866866862 	299.9999999999127 	1.512084140991188e-12 	101324.9999999902
0.4391891891891885 	299.9999999999806 	2.849718359908487e-12 	101324.9999999901
0.4416916916916913 	299.9999999999812 	9.320590116065034e-13 	101324.9999999902
0.4441941941941936 	299.9999999999876 	2.181244898038275e-12 	101324.9999999901
0.4466966966966961 	299.9999999999179 	3.086147451690922e-13 	101324.9999999902
0.4491991991991987 	299.999999999979 	3.501529774028989e-13 	101324.99999999
0.4517017017017012 	299.9999999999733 	9.263390388784457e-13 	101324.9999999898
0.4542042042042035 	299.9999999999818 	7.154055526020269e-13 	101324.9999999897
0.4567067067067062 	299.9999999999932 	5.990814900743528e-13 	101324.9999999895
0.4592092092092087 	299.9999999999246 	7.030301330872462e-13 	101324.9999999894
0.4617117117117112 	300.0000000000173 	5.754193235676962e-13 	101324.9999999895
0.4642142142142137 	299.9999999999638 	7.15033559016587e-13 	101324.9999999895
0.4667167167167162 	299.9999999999933 	6.221247940570423e-13 	101324.9999999896
0.4692192192192187 	299.9999999999578 	3.967726098305501e-13 	101324.9999999898
0.4717217217217212 	300.0000000000132 	4.924334466437896e-13 	101324.9999999899
0.4742242242242236 	299.9999999999555 	6.547162848644114e-13 	101324.9999999901
0.4767267267267262 	299.999999999975 	1.0437181430695e-12 	101324.9999999902
0.4792292292292287 	300.0000000000194 	8.167600273672874e-13 	101324.9999999899
0.4817317317317312 	300.0000000000375 	1.201613643691759e-13 	101324.9999999898
0.4842342342342336 	299.9999999999837 	4.362308530596857e-13 	101324.9999999897
0.4867367367367362 	299.9999999999523 	8.911673150569094e-13 	101324.9999999897
0.4892392392392387 	300.0000000000295 	7.283912188486404e-13 	101324.9999999898
0.4917417417417412 	300.0000000000057 	2.319865432267585e-12 	101324.9999999899
0.4942442442442437 	299.9999999999098 	1.23194955725625e-12 	101324.9999999898
0.4967467467467462 	299.9999999999272 	2.842515828404142e-12 	101324.9999999899
0.4992492492492487 	299.9999999999186 	1.28891696498589e-12 	101324.9999999899
0.5017517517517511 	299.9999999999586 	2.688133054217672e-12 	101324.9999999902
0.5042542542542537 	299.9999999999669 	1.639791871557641e-12 	101324.9999999905
0.5067567567567562 	299.999999999946 	1.135043709559273e-12 	101324.9999999905
0.5092592592592589 	299.9999999999632 	1.135530638690457e-12 	101324.9999999905
0.5117617617617611 	299.9999999999608 	1.242737741661866e-12 	101324.9999999904
0.5142642642642637 	299.9999999999908 	1.923431623210047e-12 	101324.9999999905
0.5167667667667663 	299.9999999999762 	2.213664914476608e-12 	101324.9999999903
0.5192692692692688 	299.9999999999185 	2.905140009675468e-12 	101324.9999999903
0.5217717717717714 	299.9999999999407 	3.406693047873013e-12 	101324.9999999903
0.5242742742742736 	299.9999999999415 	2.873874110502825e-12 	101324.9999999901
0.5267767767767763 	299.9999999999594 	2.45395927138839e-12 	101324.99999999
0.5292792792792789 	299.9999999999416 	2.651802447413071e-12 	101324.9999999898
0.5317817817817813 	299.9999999999077 	1.595289835306897e-12 	101324.9999999897
0.5342842842842837 	300.0000000000137 	1.024961255203555e-12 	101324.9999999896
0.5367867867867864 	300.0000000000002 	1.55924327010553e-12 	101324.9999999898
0.5392892892892888 	299.999999999957 	6.634069772154157e-13 	101324.9999999901
0.5417917917917912 	300.0000000000068 	1.540281719356446e-12 	101324.9999999903
0.5442942942942938 	299.9999999999851 	4.928832138069852e-13 	101324.9999999904
0.5467967967967964 	299.999999999943 	1.436473378738477e-12 	101324.9999999904
0.5492992992992988 	299.9999999999378 	7.095952671307714e-13 	101324.9999999905
0.5518018018018012 	299.9999999999397 	2.508175117438848e-12 	101324.9999999906
0.5543043043043039 	300.0000000000209 	2.540163070404589e-12 	101324.9999999909
0.5568068068068063 	299.9999999999919 	3.857683428842771e-12 	101324.9999999908
0.5593093093093087 	299.9999999999077 	2.799090337348982e-12 	101324.9999999906
0.5618118118118114 	299.9999999999636 	3.88797159093578e-12 	101324.9999999904
0.5643143143143137 	299.9999999999465 	2.05447298362479e-12 	101324.9999999902
0.5668168168168163 	299.9999999999923 	2.519236166283835e-12 	101324.99999999
0.5693193193193188 	300.0000000000292 	2.159205203132095e-12 	101324.9999999899
0.5718218218218213 	300.0000000000231 	1.784202061929257e-12 	101324.9999999901
0.5743243243243239 	300.0000000000047 	2.672646057938837e-12 	101324.9999999901
0.5768268268268262 	300.0000000000044 	1.616361343789027e-12 	101324.9999999901
0.5793293293293288 	299.9999999999463 	3.996355759290918e-12 	101324.9999999903
0.5818318318318314 	299.9999999999206 	1.851182703073515e-12 	101324.9999999904
0.5843343343343338 	299.999999999982 	5.748301092079931e-12 	101324.9999999903
0.5868368368368363 	299.9999999999773 	2.600857607406818e-12 	101324.9999999904
0.5893393393393387 	299.999999999948 	5.522415117365282e-12 	101324.9999999906
0.5918418418418413 	299.9999999999435 	3.079612352254895e-12 	101324.9999999906
0.5943443443443439 	300.0000000000142 	5.296926124151079e-12 	101324.9999999906
0.5968468468468463 	300.0000000000144 	3.781012206085367e-12 	101324.9999999907
0.5993493493493487 	300.0000000000373 	5.005454064919985e-12 	101324.9999999909
0.6018518518518514 	299.999999999979 	3.481250070633551e-12 	101324.9999999908
0.6043543543543537 	299.9999999999926 	4.434734685459948e-12 	101324.9999999907
0.6068568568568564 	299.9999999999818 	2.159875037183697e-12 	101324.9999999907
0.6093593593593587 	299.999999999936 	2.893616769437149e-12 	101324.9999999908
0.6118618618618614 	299.9999999999296 	2.126216249197957e-12 	101324.999999991
0.6143643643643638 	300.0000000000187 	3.265056799306685e-12 	101324.9999999912
0.6168668668668662 	299.9999999999824 	1.907837805088907e-12 	101324.9999999914
0.6193693693693688 	299.9999999999569 	3.584357260391497e-12 	101324.9999999917
0.6218718718718714 	299.9999999999669 	2.087670572208186e-12 	101324.9999999917
0.6243743743743737 	299.9999999999379 	4.210875013824765e-12 	101324.9999999917
0.6268768768768762 	299.9999999999213 	2.709665453151342e-12 	101324.9999999915
0.629379379379379 	299.9999999999558 	3.070509566312054e-12 	101324.9999999916
0.6318818818818812 	299.9999999999789 	2.109680996565723e-12 	101324.9999999917
0.6343843843843838 	300.0000000000156 	1.663711234551361e-12 	101324.9999999918
0.6368868868868864 	299.9999999999823 	2.443955052389067e-12 	101324.9999999918
0.6393893893893888 	299.9999999999248 	1.913574357999203e-12 	101324.9999999916
0.6418918918918912 	300.000000000005 	3.452467902844723e-12 	101324.9999999914
0.6443943943943939 	299.9999999999843 	3.239029673751125e-12 	101324.9999999912
0.6468968968968963 	299.9999999999837 	4.454670680807561e-12 	101324.9999999911
0.6493993993993988 	299.9999999999791 	2.011072361741606e-12 	101324.9999999911
0.6519019019019012 	299.9999999999748 	4.689609626995268e-12 	101324.9999999911
0.6544044044044038 	299.9999999999048 	2.188262488781011e-12 	101324.9999999912
0.6569069069069065 	299.9999999999548 	5.055712757603613e-12 	101324.9999999913
0.6594094094094087 	299.9999999999634 	2.906599463083108e-12 	101324.9999999912
0.6619119119119113 	299.999999999953 	4.86209289521165e-12 	101324.9999999912
0.664414414414414 	300.0000000000054 	2.516092494487258e-12 	101324.9999999913
0.6669169169169162 	300.0000000000181 	3.359019869280163e-12 	101324.9999999911
0.6694194194194188 	299.9999999999858 	1.719872312074297e-12 	101324.9999999913
0.6719219219219214 	299.999999999925 	2.831228533737485e-12 	101324.9999999914
0.674424424424424 	299.9999999999706 	2.196578189901622e-12 	101324.9999999916
0.6769269269269262 	299.9999999999186 	3.532088494150004e-12 	101324.999999992
0.679429429429429 	300.0000000000069 	2.613575677567578e-12 	101324.999999992
0.6819319319319311 	299.9999999999726 	2.960156557129109e-12 	101324.999999992
0.6844344344344341 	299.9999999999824 	2.049808846890156e-12 	101324.9999999922
0.686936936936936 	299.9999999999811 	2.86174897819501e-12 	101324.9999999922
0.6894394394394392 	299.9999999999912 	2.165665360621904e-12 	101324.9999999921
0.6919419419419413 	299.9999999999828 	2.162022483761648e-12 	101324.9999999921
0.694444444444444 	299.9999999999333 	2.214272076048693e-12 	101324.999999992
0.6969469469469463 	299.9999999999285 	2.375421416577652e-12 	101324.999999992
0.6994494494494489 	299.9999999999226 	3.346516766621938e-12 	101324.9999999919
0.7019519519519515 	299.9999999999847 	2.699130301678727e-12 	101324.9999999919
0.7044544544544538 	299.9999999999523 	3.921570615343431e-12 	101324.999999992
0.7069569569569564 	299.9999999999945 	2.170044183430144e-12 	101324.9999999922
0.7094594594594589 	299.9999999999644 	4.214192804067392e-12 	101324.9999999924
0.7119619619619615 	299.9999999999127 	2.462701160284782e-12 	101324.9999999925
0.7144644644644638 	299.9999999999548 	4.158327385772749e-12 	101324.9999999925
0.7169669669669665 	299.9999999999258 	3.016234650455657e-12 	101324.9999999924
0.7194694694694688 	299.9999999999936 	4.045330696842024e-12 	101324.9999999924
0.7219719719719715 	299.9999999999881 	3.012793561027304e-12 	101324.9999999924
0.7244744744744737 	300.0000000000045 	3.406323916835669e-12 	101324.9999999922
0.7269769769769764 	299.9999999999959 	3.439828359454123e-12 	101324.9999999921
0.7294794794794791 	299.9999999999892 	2.796603481234887e-12 	101324.9999999922
0.7319819819819813 	299.9999999999807 	4.158247529977171e-12 	101324.9999999919
0.7344844844844839 	299.9999999999236 	2.87634261803599e-12 	101324.9999999918
0.7369869869869864 	299.9999999999505 	3.939037748885541e-12 	101324.9999999918
0.739489489489489 	299.9999999999419 	4.101460071905927e-12 	101324.9999999917
0.7419919919919914 	299.9999999999322 	4.246953171779622e-12 	101324.9999999919
0.7444944944944939 	299.9999999999809 	5.211800710126963e-12 	101324.999999992
0.7469969969969963 	299.9999999999702 	3.824565641967757e-12 	101324.9999999922
0.7494994994994989 	299.9999999999446 	5.809447407548936e-12 	101324.9999999924
0.7520020020020015 	299.9999999999739 	3.36001777365144e-12 	101324.9999999925
0.7545045045045039 	299.9999999999699 	6.056456917919103e-12 	101324.9999999927
0.7570070070070062 	299.9999999999441 	3.803102568396164e-12 	101324.9999999929
0.7595095095095092 	299.9999999999354 	5.466132789993253e-12 	101324.9999999929
0.7620120120120112 	300.0000000000106 	4.430891021180944e-12 	101324.9999999931
0.7645145145145138 	299.9999999999903 	4.510704792580346e-12 	101324.9999999932
0.7670170170170165 	299.9999999999339 	5.14823817601961e-12 	101324.999999993
0.7695195195195191 	299.9999999999239 	4.678407609478526e-12 	101324.9999999929
0.7720220220220213 	299.9999999999323 	7.081671006869262e-12 	101324.9999999929
0.7745245245245239 	299.9999999999307 	5.528414714793193e-12 	101324.9999999929
0.7770270270270263 	299.9999999999692 	6.681034789306708e-12 	101324.9999999928
0.779529529529529 	299.9999999999843 	5.170292286549508e-12 	101324.9999999928
0.7820320320320313 	299.9999999999707 	5.588039090385727e-12 	101324.9999999929
0.784534534534534 	299.9999999999991 	5.262783725859478e-12 	101324.9999999928
0.7870370370370364 	299.9999999999943 	4.730025796620455e-12 	101324.999999993
0.7895395395395389 	299.9999999999905 	5.345732243260445e-12 	101324.9999999932
0.7920420420420413 	299.9999999999781 	4.307900878910243e-12 	101324.9999999933
0.794544544544544 	299.9999999999675 	5.683988719295149e-12 	101324.9999999934
0.7970470470470463 	300.0000000000002 	2.974102299687876e-12 	101324.9999999936
0.799549549549549 	299.9999999999856 	5.71945071688254e-12 	101324.9999999937
0.8020520520520515 	299.999999999989 	3.62433141591505e-12 	101324.9999999938
0.8045545545545539 	299.9999999999526 	5.58460195047443e-12 	101324.9999999937
0.8070570570570563 	299.999999999977 	4.553036124314566e-12 	101324.9999999938
0.8095595595595589 	299.9999999999549 	5.539900583707775e-12 	101324.9999999938
0.8120620620620614 	299.999999999943 	6.072420790190155e-12 	101324.9999999937
0.8145645645645638 	300.0000000000033 	6.199147189705174e-12 	101324.9999999935
0.8170670670670666 	299.9999999999984 	6.904120338430194e-12 	101324.9999999935
0.8195695695695689 	299.9999999999761 	5.71618611284433e-12 	101324.9999999935
0.8220720720720714 	299.9999999999465 	8.381200209823079e-12 	101324.9999999934
0.8245745745745739 	299.999999999996 	6.230343366082862e-12 	101324.9999999934
0.8270770770770765 	299.9999999999725 	7.57032906597394e-12 	101324.9999999934
0.8295795795795788 	299.9999999999526 	6.699123594720456e-12 	101324.9999999935
0.8320820820820815 	300.0000000000142 	7.274668350929087e-12 	101324.9999999935
0.834584584584584 	300.0000000000084 	6.338099636215337e-12 	101324.9999999937
0.8370870870870865 	299.9999999999751 	6.141871626394843e-12 	101324.999999994
0.8395895895895891 	299.9999999999394 	7.003617443223637e-12 	101324.9999999943
0.8420920920920915 	299.9999999999472 	6.201493389861881e-12 	101324.9999999944
0.844594594594594 	299.9999999999443 	6.668370460738164e-12 	101324.9999999943
0.8470970970970964 	299.9999999999629 	6.862103115851264e-12 	101324.9999999942
0.8495995995995991 	299.9999999999928 	6.709019838782966e-12 	101324.9999999941
0.8521021021021015 	299.9999999999838 	6.999825115010356e-12 	101324.9999999939
0.8546046046046039 	299.9999999999778 	6.836261041104532e-12 	101324.9999999939
0.8571071071071066 	300.0000000000021 	7.921956255013597e-12 	101324.999999994
0.8596096096096089 	299.9999999999709 	6.465673726337418e-12 	101324.9999999943
0.8621121121121116 	299.9999999999387 	9.285361875580711e-12 	101324.9999999943
0.8646146146146139 	299.9999999999964 	7.132635412765868e-12 	101324.9999999941
0.8671171171171166 	299.9999999999761 	8.439423829710843e-12 	101324.9999999941
0.8696196196196189 	299.9999999999486 	7.3898029677573e-12 	101324.9999999942
0.8721221221221216 	299.9999999999799 	7.708163810465819e-12 	101324.9999999944
0.874624624624624 	300.0000000000001 	7.677276090899156e-12 	101324.9999999945
0.8771271271271264 	299.999999999999 	7.487001610528747e-12 	101324.9999999946
0.879629629629629 	300.0000000000099 	7.790334942327463e-12 	101324.9999999946
0.8821321321321317 	299.9999999999848 	5.813953505240708e-12 	101324.9999999947
0.8846346346346339 	299.9999999999345 	8.036332780452641e-12 	101324.9999999948
0.8871371371371364 	299.9999999999626 	6.184145732123698e-12 	101324.9999999949
0.8896396396396391 	299.99999999996 	8.363407871614632e-12 	101324.9999999949
0.8921421421421414 	299.999999999965 	7.219161723822826e-12 	101324.9999999948
0.8946446446446441 	299.9999999999866 	7.708854074737511e-12 	101324.9999999947
0.8971471471471464 	300.000000000002 	7.438714224468053e-12 	101324.9999999946
0.8996496496496489 	299.9999999999819 	7.807188960556969e-12 	101324.9999999948
0.9021521521521517 	299.999999999967 	9.033096022248469e-12 	101324.999999995
0.9046546546546541 	299.9999999999924 	8.12389501700118e-12 	101324.999999995
0.9071571571571564 	299.9999999999529 	8.905116583352706e-12 	101324.9999999951
0.9096596596596589 	299.9999999999516 	9.24356680807182e-12 	101324.999999995
0.9121621621621616 	300.0000000000092 	9.845147101430911e-12 	101324.999999995
0.9146646646646639 	299.9999999999806 	9.669288490170025e-12 	101324.999999995
0.9171671671671666 	299.9999999999483 	9.278483937727526e-12 	101324.9999999949
0.9196696696696689 	299.9999999999968 	9.953367286371371e-12 	101324.9999999949
0.9221721721721714 	299.9999999999969 	8.20349994163171e-12 	101324.9999999952
0.9246746746746741 	299.9999999999434 	1.068002981053127e-11 	101324.9999999954
0.9271771771771765 	299.9999999999545 	8.377477909846437e-12 	101324.9999999955
0.9296796796796791 	299.9999999999918 	1.013568791261144e-11 	101324.9999999956
0.9321821821821816 	299.9999999999721 	8.867417856234161e-12 	101324.9999999956
0.9346846846846838 	299.9999999999507 	1.042812199027715e-11 	101324.9999999959
0.9371871871871866 	300.0000000000068 	1.003023651526434e-11 	101324.9999999961
0.9396896896896891 	300.00000000001 	1.019213666933412e-11 	101324.9999999962
0.9421921921921914 	300.0000000000081 	1.065423948230599e-11 	101324.9999999963
0.9446946946946939 	299.9999999999703 	9.981841137670195e-12 	101324.9999999963
0.9471971971971965 	299.9999999999297 	1.210724307530478e-11 	101324.9999999961
0.9496996996996991 	299.9999999999639 	9.859345792863083e-12 	101324.9999999962
0.9522022022022016 	299.9999999999766 	1.124996987075774e-11 	101324.999999996
0.9547047047047038 	299.9999999999745 	1.039270104749006e-11 	101324.9999999959
0.9572072072072064 	299.9999999999657 	1.13102936555923e-11 	101324.9999999959
0.9597097097097093 	299.9999999999665 	1.075612774190299e-11 	101324.9999999959
0.9622122122122114 	299.9999999999645 	1.06260465744431e-11 	101324.9999999958
0.964714714714714 	299.9999999999608 	1.173321499308121e-11 	101324.9999999958
0.9672172172172167 	299.9999999999629 	1.064711244724013e-11 	101324.9999999958
0.969719719719719 	299.9999999999918 	1.118669660016373e-11 	101324.999999996
0.9722222222222214 	299.9999999999864 	1.077897164126318e-11 	101324.999999996
0.9747247247247239 	299.9999999999781 	1.135709444401189e-11 	101324.9999999958
0.9772272272272267 	300.000000000004 	1.186002352807631e-11 	101324.9999999957
0.9797297297297292 	299.9999999999889 	1.205374820079702e-11 	101324.9999999956
0.9822322322322313 	299.9999999999898 	1.294849624353634e-11 	101324.9999999956
0.9847347347347344 	299.9999999999879 	1.145522721082938e-11 	101324.9999999956
0.9872372372372363 	299.9999999999461 	1.333061571544503e-11 	101324.9999999955
0.9897397397397389 	299.9999999999704 	1.048004468443437e-11 	101324.9999999958
0.9922422422422417 	299.9999999999581 	1.239388624136114e-11 	101324.9999999961
0.9947447447447441 	299.9999999999633 	1.163408927587789e-11 	101324.9999999962
0.9972472472472468 	299.9999999999762 	1.306064206687422e-11 	101324.9999999962
0.999749749749749 	299.9999999999677 	1.256444401909672e-11 	101324.999999996
1.002252252252252 	299.9999999999741 	1.28600408441445e-11 	101324.9999999959
1.004754754754754 	299.9999999999922 	1.239232421899052e-11 	101324.9999999959
1.007257257257256 	299.9999999999706 	1.113962602850508e-11 	101324.999999996
1.009759759759759 	299.9999999999603 	1.301891412627642e-11 	101324.9999999962
1.012262262262261 	299.9999999999631 	1.084355365829464e-11 	101324.9999999962
1.014764764764764 	299.9999999999384 	1.262357019444825e-11 	101324.9999999963
1.017267267267267 	299.9999999999299 	1.191084153246007e-11 	101324.9999999964
1.019769769769769 	299.9999999999699 	1.334828737094112e-11 	101324.9999999965
1.022272272272272 	299.999999999983 	1.323359408378078e-11 	101324.9999999966
1.024774774774774 	299.9999999999877 	1.364893732184622e-11 	101324.9999999965
1.027277277277277 	299.9999999999816 	1.50391997096834e-11 	101324.9999999965
1.029779779779779 	300.0000000000019 	1.408756910576898e-11 	101324.9999999964
1.032282282282282 	300.0000000000031 	1.451273666367866e-11 	101324.9999999964
1.034784784784784 	299.9999999999955 	1.395309597967027e-11 	101324.9999999962
1.037287287287286 	299.9999999999656 	1.483675106803974e-11 	101324.9999999958
1.039789789789789 	299.9999999999737 	1.46810759397574e-11 	101324.9999999956
1.042292292292291 	300.0000000000055 	1.445900625150498e-11 	101324.9999999955
1.044794794794794 	300.000000000019 	1.461642545916785e-11 	101324.9999999956
1.047297297297296 	300.0000000000344 	1.367371302931686e-11 	101324.9999999957
1.049799799799799 	299.9999999999943 	1.571448254665038e-11 	101324.9999999957
1.052302302302302 	299.9999999999606 	1.38582806893252e-11 	101324.9999999959
1.054804804804804 	299.9999999999441 	1.577297619092246e-11 	101324.9999999958
1.057307307307306 	299.9999999999322 	1.496119634234888e-11 	101324.9999999958
1.059809809809809 	299.9999999999598 	1.614474764179305e-11 	101324.9999999961
1.062312312312312 	299.999999999954 	1.515428942365391e-11 	101324.9999999964
1.064814814814814 	299.9999999999512 	1.552702880505669e-11 	101324.9999999965
1.067317317317317 	299.9999999999343 	1.519635368571583e-11 	101324.9999999966
1.069819819819819 	299.9999999999332 	1.521178390136951e-11 	101324.9999999967
1.072322322322321 	299.9999999999894 	1.708783694422037e-11 	101324.9999999968
1.074824824824824 	300.0000000000079 	1.52137394053778e-11 	101324.9999999968
1.077327327327327 	300.0000000000272 	1.663784447042342e-11 	101324.9999999968
1.079829829829829 	300.00000000004 	1.522500298985142e-11 	101324.9999999967
1.082332332332332 	300.0000000000034 	1.611627318812934e-11 	101324.9999999966
1.084834834834834 	299.9999999999777 	1.599097952625595e-11 	101324.9999999967
1.087337337337337 	299.9999999999446 	1.62887663846655e-11 	101324.9999999968
1.089839839839839 	299.9999999999354 	1.798933463118298e-11 	101324.9999999965
1.092342342342342 	299.9999999999712 	1.679420607534114e-11 	101324.9999999961
1.094844844844844 	299.9999999999706 	1.827393019760937e-11 	101324.999999996
1.097347347347347 	299.9999999999436 	1.690541212857534e-11 	101324.9999999962
1.099849849849849 	299.9999999999289 	1.978793707505781e-11 	101324.9999999963
1.102352352352352 	299.9999999999532 	1.785221451262727e-11 	101324.9999999964
1.104854854854854 	299.9999999999752 	1.991923466874074e-11 	101324.9999999965
1.107357357357357 	299.999999999964 	1.775797047863546e-11 	101324.9999999966
1.109859859859859 	299.9999999999562 	1.878613656054855e-11 	101324.9999999966
1.112362362362362 	300.0000000000171 	1.731574837300585e-11 	101324.9999999965
1.114864864864865 	300.0000000000164 	1.723467706489684e-11 	101324.9999999967
1.117367367367367 	299.9999999999682 	1.800353130322572e-11 	101324.999999997
1.119869869869869 	299.9999999999336 	1.688266266141632e-11 	101324.9999999972
1.122372372372372 	299.9999999999657 	1.871590236205621e-11 	101324.9999999974
1.124874874874874 	299.9999999999602 	1.776353746961437e-11 	101324.9999999975
1.127377377377377 	299.9999999999692 	1.895132481512479e-11 	101324.9999999976
1.129879879879879 	300.0000000000181 	1.842560923951617e-11 	101324.9999999976
1.132382382382382 	300.0000000000322 	1.92229371059975e-11 	101324.9999999975
1.134884884884884 	300.0000000000095 	1.88008882022922e-11 	101324.9999999973
1.137387387387387 	300.0000000000138 	1.838963847455143e-11 	101324.9999999973
1.139889889889889 	299.9999999999667 	1.944566028732776e-11 	101324.9999999973
1.142392392392392 	299.9999999999575 	1.823609211120004e-11 	101324.9999999973
1.144894894894894 	300.0000000000138 	1.991618820082116e-11 	101324.9999999973
1.147397397397397 	299.9999999999961 	1.864876180817543e-11 	101324.9999999971
1.149899899899899 	299.9999999999444 	1.972384253212468e-11 	101324.9999999969
1.152402402402402 	299.9999999999344 	1.919968586176805e-11 	101324.999999997
1.154904904904904 	299.9999999999649 	2.054713550693901e-11 	101324.9999999971
1.157407407407407 	299.9999999999648 	2.04396685734401e-11 	101324.9999999971
1.159909909909909 	299.9999999999353 	2.05901782268212e-11 	101324.9999999972
1.162412412412412 	299.9999999999312 	2.189463458068052e-11 	101324.9999999972
1.164914914914914 	299.9999999999666 	2.00638529872028e-11 	101324.9999999971
1.167417417417417 	299.9999999999746 	2.15753490099467e-11 	101324.9999999972
1.169919919919919 	300.000000000016 	2.021143801027591e-11 	101324.9999999975
1.172422422422422 	300.00000000004 	2.093893593728596e-11 	101324.9999999976
1.174924924924925 	299.9999999999937 	1.99370671684772e-11 	101324.9999999976
1.177427427427427 	299.9999999999687 	2.090754569663363e-11 	101324.9999999977
1.179929929929929 	300.0000000000152 	2.192255527665104e-11 	101324.9999999977
1.182432432432432 	300.000000000042 	1.998559798486925e-11 	101324.9999999977
1.184934934934934 	300.0000000000064 	2.070241380576914e-11 	101324.9999999978
1.187437437437437 	299.9999999999704 	1.919597874329249e-11 	101324.9999999979
1.189939939939939 	299.9999999999587 	2.026558371573245e-11 	101324.9999999981
1.192442442442442 	299.999999999935 	1.956108842890716e-11 	101324.9999999981
1.194944944944944 	299.9999999999392 	2.076404359121485e-11 	101324.9999999981
1.197447447447447 	299.9999999999915 	1.982182522628749e-11 	101324.9999999979
1.199949949949949 	300.0000000000113 	1.968657970664455e-11 	101324.9999999981
1.202452452452452 	299.9999999999609 	2.065505114394795e-11 	101324.9999999983
1.204954954954955 	299.9999999999543 	1.953923887674258e-11 	101324.9999999985
1.207457457457457 	299.9999999999808 	2.108001536751895e-11 	101324.9999999985
1.20995995995996 	299.9999999999786 	2.009985862063251e-11 	101324.9999999985
1.212462462462462 	299.9999999999895 	2.115184345404099e-11 	101324.9999999986
1.214964964964964 	299.9999999999889 	2.018166120867242e-11 	101324.9999999986
1.217467467467467 	299.999999999996 	2.122266049719177e-11 	101324.9999999988
1.219969969969969 	299.9999999999726 	2.015206126858296e-11 	101324.999999999
1.222472472472472 	300.0000000000077 	2.0307321607588e-11 	101324.999999999
1.224974974974975 	300.0000000000449 	2.070648483738598e-11 	101324.999999999
1.227477477477477 	299.9999999999951 	1.921709117189982e-11 	101324.9999999992
1.229979979979979 	299.9999999999819 	2.100463168505099e-11 	101324.9999999992
1.232482482482482 	299.9999999999591 	2.024464558562951e-11 	101324.9999999989
1.234984984984984 	299.9999999999611 	2.205529460978684e-11 	101324.999999999
1.237487487487487 	299.9999999999849 	2.059162220520776e-11 	101324.9999999991
1.239989989989989 	299.9999999999878 	2.129648555280391e-11 	101324.9999999992
1.242492492492492 	300.0000000000187 	2.1761763413819e-11 	101324.9999999993
1.244994994994994 	299.9999999999865 	2.017808934926046e-11 	101324.9999999995
1.247497497497497 	299.9999999999891 	2.146155504770518e-11 	101324.9999999996
1.249999999999999 	300.0000000002461 	2.065936070882106e-11 	101324.9999999995
