-1.25 	300 	1 	101325
-1.247497497497497 	299.7087654201949 	25.52222837462294 	101353.5868369818
-1.244994994994995 	299.7070153262154 	23.76639671708235 	101312.2391999081
-1.242492492492492 	299.7669312327131 	22.05783835973491 	101345.2000494409
-1.23998998998999 	299.7738353846065 	20.45352356130692 	101305.7681691167
-1.237487487487487 	299.8253436886735 	18.91103232102366 	101336.219091847
-1.234984984984985 	299.8278576931041 	17.47279897165257 	101302.9824754476
-1.232482482482482 	299.8701209815447 	16.10265660463762 	101329.5301868707
-1.22997997997998 	299.8705370334269 	14.8291537107005 	101302.8933717055
-1.227477477477477 	299.9035262987054 	13.62690922292994 	101324.3636196624
-1.224974974974975 	299.9042571267647 	12.51079476564302 	101305.1638640912
-1.222472472472472 	299.9291722124008 	11.46525012703759 	101321.7175659949
-1.21996996996997 	299.931314082508 	10.49216337435231 	101309.5881888847
-1.217467467467467 	299.9497712999172 	9.588830175857591 	101322.0136022153
-1.214964964964965 	299.9532886260742 	8.742067836658963 	101315.5637405598
-1.212462462462462 	299.9674628143649 	7.965576640752532 	101325.5433109852
-1.20995995995996 	299.9719731459554 	7.231575891254045 	101323.2827204607
-1.207457457457457 	299.9832697949332 	6.5697273118131 	101331.8410523391
-1.204954954954955 	299.9881704807327 	5.93845718941721 	101332.2456715099
-1.202452452452452 	299.997535961738 	5.380500320957459 	101340.0061076982
-1.19994994994995 	300.0026512303996 	4.842197400237552 	101342.2709975721
-1.197447447447447 	300.0103797153624 	4.37790780392773 	101349.1870453101
-1.194944944944945 	300.0153238131621 	3.922170880291738 	101352.3915684132
-1.192442442442442 	300.0224258033616 	3.542261598913758 	101359.3544137881
-1.18993993993994 	300.027149281878 	3.161300116761877 	101363.1056547264
-1.187437437437437 	300.0316724537826 	2.852717465983472 	101367.5678975337
-1.184934934934935 	300.0367789204386 	2.531590522147875 	101372.3179886415
-1.182432432432432 	300.0419061116215 	2.284975930267358 	101377.8682279095
-1.17992992992993 	300.043104807888 	2.006267177323587 	101378.3446640686
-1.177427427427427 	300.0493600544509 	1.783257324568493 	101385.4099469273
-1.174924924924925 	300.0469920427292 	1.529690181813176 	101381.9196050669
-1.172422422422422 	300.0533860906368 	1.335764007268727 	101389.2873793985
-1.16991991991992 	300.0491563245548 	1.120469325540953 	101383.8304665879
-1.167417417417417 	300.0545778876283 	0.9703810624456394 	101390.1543205802
-1.164914914914915 	300.0511540439128 	0.7987205166801585 	101385.8294896733
-1.162412412412412 	300.0534895720512 	0.6847695519096813 	101388.5591466883
-1.15990990990991 	300.0499938469695 	0.5514312890674827 	101384.2733715874
-1.157407407407407 	300.0503461061692 	0.4717988575905197 	101384.6819369921
-1.154904904904904 	300.0467715766425 	0.37554009029844 	101380.3746848969
-1.152402402402403 	300.0451960711764 	0.3180379124522486 	101378.5093306257
-1.1498998998999 	300.0419021015431 	0.2462678177717518 	101374.5741707913
-1.147397397397397 	300.0395486929651 	0.2081485762536411 	101371.7913561262
-1.144894894894895 	300.0352838605072 	0.1608500373912872 	101366.7296007847
-1.142392392392392 	300.0314452969669 	0.1322404065240882 	101362.1908016524
-1.13988988988989 	300.0276765666238 	0.1006504581654946 	101357.7262768804
-1.137387387387387 	300.024353658778 	0.0819916470514153 	101353.7977396519
-1.134884884884885 	300.0203892491944 	0.0630995512612369 	101349.1064186373
-1.132382382382382 	300.0163862594044 	0.04638855306899019 	101344.3741102064
-1.12987987987988 	300.0122710817332 	0.03889882879275885 	101339.5072723953
-1.127377377377377 	300.0087291407549 	0.0273058174255003 	101335.3201493673
-1.124874874874875 	300.0072981757698 	0.02449559942215541 	101333.6272495124
-1.122372372372372 	300.0035942281386 	0.01531261816351177 	101329.2490731468
-1.11986986986987 	300.0010043237586 	0.01449390198636847 	101326.1866117241
-1.117367367367367 	299.9996701379577 	0.004803278449438203 	101324.6094117825
-1.114864864864865 	299.9973808652577 	0.006483109711403271 	101321.9029567032
-1.112362362362362 	299.9964126602679 	0.01027807073775507 	101320.7583974753
-1.10985985985986 	299.9962483354751 	0.01066756833312396 	101320.5639823329
-1.107357357357357 	299.9969137747549 	0.00887174975068466 	101321.350614148
-1.104854854854855 	299.9981542928008 	0.005316928046990986 	101322.8171411712
-1.102352352352353 	299.9997651485391 	0.002431158350418587 	101324.721390754
-1.09984984984985 	300.0017096772897 	0.005040836602652986 	101327.0201698417
-1.097347347347347 	300.0040446700306 	0.01182863426273231 	101329.7806391841
-1.094844844844845 	300.0067960009726 	0.01979988382420084 	101333.0333277863
-1.092342342342342 	300.0099454605951 	0.02891353844016122 	101336.7568545907
-1.08983983983984 	300.0134532302042 	0.03905595402389402 	101340.9041284472
-1.087337337337337 	300.0172598208873 	0.05005308562781605 	101345.404739673
-1.084834834834835 	300.0212810080706 	0.06166426074614745 	101350.1593034657
-1.082332332332332 	300.0254144896006 	0.07360053340575905 	101355.0469146437
-1.07982982982983 	300.0295591650623 	0.08557963181148757 	101359.9477880594
-1.077327327327327 	300.0336433926088 	0.09740057140478112 	101364.7773972658
-1.074824824824825 	300.0376387103747 	0.1089665451643867 	101369.5021316006
-1.072322322322323 	300.0415222370651 	0.1201886079443478 	101374.0946821991
-1.06981981981982 	300.045221807034 	0.1308610389634171 	101378.4698646236
-1.067317317317317 	300.0486247352936 	0.1406825990545139 	101382.4944879835
-1.064814814814815 	300.0516405777458 	0.149402380078716 	101386.061297283
-1.062312312312312 	300.0542302029319 	0.1568957648212436 	101389.1240685682
-1.05980980980981 	300.0563780313904 	0.1631058350332855 	101391.6645120511
-1.057307307307307 	300.0580612285842 	0.1679666698357082 	101393.6553584252
-1.054804804804805 	300.0592505233146 	0.1714038116899413 	101395.0620575977
-1.052302302302302 	300.0599361312559 	0.1733968541552779 	101395.8730729807
-1.0497997997998 	300.0601457059002 	0.1740141918427216 	101396.1209238702
-1.047297297297297 	300.0599133563389 	0.1733302623963786 	101395.8461252451
-1.044794794794795 	300.0592193096767 	0.1712865769912124 	101395.0253718501
-1.042292292292292 	300.0579901944554 	0.1677040165211818 	101393.5716374197
-1.03978978978979 	300.0561849320026 	0.1624911827737714 	101391.4364997055
-1.037287287287287 	300.0538619226448 	0.1558045527748093 	101388.6891107357
-1.034784784784785 	300.0511461152808 	0.1479767293601704 	101385.4770843044
-1.032282282282283 	300.0481545410498 	0.1393336809254969 	101381.9390352788
-1.02977977977978 	300.0449593207356 	0.1300824567828864 	101378.1602724941
-1.027277277277277 	300.0415826045991 	0.1202928203245967 	101374.16686409
-1.024774774774775 	300.0380160871432 	0.1099652010309561 	101369.9492108753
-1.022272272272272 	300.0342848329881 	0.09919613216887591 	101365.5368742775
-1.01976976976977 	300.0305049192366 	0.08830822784527859 	101361.067006927
-1.017267267267267 	300.0268465474281 	0.07775382953537234 	101356.7411088093
-1.014764764764765 	300.0234310800835 	0.06786764679173073 	101352.7025321257
-1.012262262262262 	300.020288493548 	0.05875853517902722 	101348.9866294943
-1.00975975975976 	300.0174117749821 	0.05043077934749682 	101345.5852918408
-1.007257257257257 	300.0148210990785 	0.04295001802080427 	101342.5221750756
-1.004754754754755 	300.0125869312815 	0.0365266335743409 	101339.8805666752
-1.002252252252252 	300.0108428714371 	0.03154981254917635 	101337.8185845019
-0.9997497497497498 	300.0097754765662 	0.02852067020027943 	101336.5565064915
-0.9972472472472473 	300.0095115101748 	0.02772559647129295 	101336.2443036556
-0.9947447447447449 	300.0099321078342 	0.02881361713119363 	101336.7416492216
-0.9922422422422421 	300.0106871574783 	0.03090640519385691 	101337.6342524164
-0.9897397397397399 	300.0115397917614 	0.03344640626568898 	101338.6422421032
-0.9872372372372376 	300.0126738949778 	0.03693712776507693 	101339.9831557888
-0.9847347347347346 	300.0145873157604 	0.04263781815552403 	101342.2453121196
-0.9822322322322323 	300.0176034615686 	0.0512854615324941 	101345.8113135589
-0.9797297297297296 	300.021417046817 	0.06205909703226602 	101350.3204910014
-0.9772272272272275 	300.0252998937145 	0.07315010339573869 	101354.9116394597
-0.9747247247247248 	300.0288493575879 	0.08356093260310889 	101359.1087168536
-0.9722222222222224 	300.0323950628944 	0.09410334691036713 	101363.3015091468
-0.9697197197197196 	300.0366162209698 	0.1064480935485362 	101368.2930411287
-0.9672172172172175 	300.0417782831089 	0.1212084697700295 	101374.3975411025
-0.9647147147147147 	300.0473589979486 	0.1370414818650234 	101380.997515779
-0.9622122122122124 	300.0524961044271 	0.151773513619703 	101387.0731071468
-0.9597097097097099 	300.05681784611 	0.164485145694514 	101392.1846577016
-0.9572072072072073 	300.0608347823998 	0.1764947889475532 	101396.9357556192
-0.9547047047047047 	300.0655105926683 	0.1902555745611328 	101402.4662019552
-0.9522022022022023 	300.0713742977256 	0.2070482651755575 	101409.4021984497
-0.9496996996996998 	300.0778831554387 	0.2253473074548456 	101417.101730774
-0.9471971971971973 	300.0835699492374 	0.2412001436754884 	101423.8292571778
-0.9446946946946947 	300.0868615484674 	0.2504192043992723 	101427.7236419712
-0.9421921921921923 	300.0870634996234 	0.2512568586899999 	101427.9623462276
-0.93968968968969 	300.084984439572 	0.2460020332516471 	101425.502954236
-0.9371871871871872 	300.0827239694786 	0.240391402163952 	101422.8290792557
-0.9346846846846848 	300.0827362866667 	0.2411909608526784 	101422.8440227941
-0.9321821821821823 	300.0868512332944 	0.2533959601083429 	101427.7117023864
-0.9296796796796799 	300.0955002502733 	0.278041334645646 	101437.943337536
-0.9271771771771771 	300.1073294191776 	0.311334609106301 	101451.9391014603
-0.9246746746746748 	300.1196336150223 	0.3458563784388546 	101466.4990105677
-0.9221721721721724 	300.1294198944694 	0.3732675724482399 	101478.0807577245
-0.9196696696696698 	300.1343095798418 	0.3868445752521942 	101483.867715877
-0.9171671671671672 	300.1330174267164 	0.3829440897129558 	101482.3373701023
-0.9146646646646649 	300.1255090460568 	0.3614729190187548 	101473.4527970548
-0.9121621621621623 	300.1128899091847 	0.3255132360652624 	101458.521216051
-0.9096596596596597 	300.0970100595246 	0.2802265771410657 	101439.7320638476
-0.9071571571571573 	300.0799251174238 	0.2313672033052593 	101419.5195416942
-0.9046546546546547 	300.0633942340431 	0.1839107932474136 	101399.9651416128
-0.9021521521521524 	300.0485942058384 	0.1412643687274503 	101382.4603822634
-0.8996496496496498 	300.0361119477203 	0.1051818697540525 	101367.6985901402
-0.8971471471471473 	300.0260824422231 	0.07610970764015751 	101355.8385455976
-0.894644644644645 	300.0183476197399 	0.05363397663613757 	101346.6926436683
-0.892142142142142 	300.0125921428942 	0.03687229541368193 	101339.8875432154
-0.8896396396396397 	300.0084439737158 	0.02476643836525735 	101334.9830615003
-0.8871371371371374 	300.0055394864272 	0.01627352032817514 	101331.5491063782
-0.8846346346346349 	300.0035591256614 	0.01047206831160286 	101329.207781137
-0.8821321321321324 	300.0022417433829 	0.00660596262920686 	101327.6502945252
-0.8796296296296297 	300.0013853751228 	0.004088502994383036 	101326.6378526899
-0.8771271271271271 	300.0008406571395 	0.002484560597165251 	101325.9938620256
-0.8746246246246248 	300.0005012323293 	0.001483514033495476 	101325.5925790973
-0.8721221221221224 	300.000293831985 	0.0008708886579109122 	101325.3473814276
-0.8696196196196196 	300.0001694519924 	0.0005029341591891503 	101325.2003339953
-0.8671171171171175 	300.0000961855282 	0.0002858679951893832 	101325.1137151087
-0.8646146146146148 	300.000053764821 	0.000160006142463167 	101325.0635634354
-0.8621121121121121 	300.0000296078923 	8.823073373439684e-05 	101325.0350039551
-0.8596096096096097 	300.0000160701222 	4.795093362319854e-05 	101325.0189989149
-0.857107107107107 	300.0000086000402 	2.569436605665244e-05 	101325.0101674423
-0.8546046046046049 	300.0000045395511 	1.358004887639277e-05 	101325.0053669112
-0.8521021021021022 	300.0000023643163 	7.081683756041746e-06 	101325.0027952181
-0.8495995995995997 	300.0000012153853 	3.644887279451421e-06 	101325.0014368969
-0.8470970970970974 	300.000000616809 	1.852150875012235e-06 	101325.0007292661
-0.8445945945945946 	300.0000003091575 	9.294781616170578e-07 	101325.0003655288
-0.8420920920920922 	300.0000001530968 	4.607768203800087e-07 	101325.0001809878
-0.8395895895895897 	300.000000074901 	2.257087316167178e-07 	101325.0000885483
-0.8370870870870872 	300.0000000362185 	1.092733860145906e-07 	101325.0000428169
-0.8345845845845846 	300.0000000173169 	5.230070581890428e-08 	101325.0000204667
-0.8320820820820823 	300.0000000081603 	2.475205831400816e-08 	101325.0000096729
-0.8295795795795798 	300.0000000037797 	1.158617680937616e-08 	101325.0000045205
-0.8270770770770772 	300.0000000017415 	5.36525482283852e-09 	101325.0000020888
-0.8245745745745746 	300.0000000007689 	2.458191999921395e-09 	101325.0000009537
-0.8220720720720721 	300.0000000003408 	1.115297622025886e-09 	101325.0000004295
-0.8195695695695699 	300.0000000001587 	5.006562045026032e-10 	101325.0000001899
-0.817067067067067 	300.0000000000472 	2.240134684446102e-10 	101325.0000000815
-0.8145645645645651 	299.9999999999879 	9.872342976699233e-11 	101325.000000033
-0.8120620620620621 	300.0000000000041 	4.377792998148768e-11 	101325.0000000115
-0.8095595595595597 	300.0000000000111 	1.993343542161047e-11 	101325.0000000021
-0.8070570570570572 	299.9999999999719 	8.872666638191227e-12 	101324.9999999981
-0.8045545545545546 	299.9999999999662 	5.074125445118053e-12 	101324.9999999966
-0.8020520520520523 	299.9999999999901 	1.815103212882675e-12 	101324.999999996
-0.7995495495495494 	300.0000000000094 	3.287010361488662e-12 	101324.9999999958
-0.7970470470470474 	299.9999999999997 	2.889988616634125e-12 	101324.9999999956
-0.7945445445445446 	300.0000000000032 	4.030901345355676e-12 	101324.9999999957
-0.7920420420420423 	300.000000000008 	3.499627822009151e-12 	101324.9999999958
-0.7895395395395397 	300.0000000000077 	4.305152014185778e-12 	101324.9999999958
-0.7870370370370371 	300.0000000000017 	3.097273984533738e-12 	101324.9999999957
-0.7845345345345348 	299.9999999999816 	3.833545627612353e-12 	101324.9999999957
-0.7820320320320323 	299.9999999999823 	2.868583834375448e-12 	101324.9999999958
-0.7795295295295296 	299.9999999999571 	4.558596526509667e-12 	101324.9999999957
-0.7770270270270272 	299.9999999999484 	3.444197405493686e-12 	101324.9999999957
-0.7745245245245247 	299.9999999999441 	3.980162692934901e-12 	101324.9999999956
-0.7720220220220222 	299.9999999999667 	3.410024216972605e-12 	101324.9999999956
-0.7695195195195199 	299.9999999999716 	3.035373019236878e-12 	101324.9999999955
-0.767017017017017 	299.9999999999895 	4.283257706313844e-12 	101324.9999999957
-0.7645145145145147 	300.0000000000085 	3.385466187459367e-12 	101324.9999999958
-0.7620120120120122 	300.0000000000111 	4.475038244490153e-12 	101324.9999999958
-0.7595095095095097 	299.9999999999589 	5.255905049858218e-12 	101324.9999999959
-0.7570070070070072 	299.9999999999624 	5.364535467786276e-12 	101324.9999999961
-0.7545045045045048 	299.9999999999919 	5.574746692086155e-12 	101324.9999999963
-0.7520020020020022 	299.99999999998 	4.662137283198115e-12 	101324.9999999964
-0.7494994994994997 	299.9999999999756 	3.776207987595649e-12 	101324.9999999963
-0.7469969969969972 	299.9999999999942 	3.002781630598762e-12 	101324.9999999963
-0.7444944944944945 	299.9999999999912 	2.895810066438659e-12 	101324.9999999962
-0.7419919919919924 	299.9999999999919 	1.485660046036052e-12 	101324.9999999961
-0.7394894894894897 	299.999999999972 	1.05478327550908e-12 	101324.9999999959
-0.7369869869869872 	299.9999999999901 	3.938148351637287e-13 	101324.999999996
-0.7344844844844846 	299.9999999999762 	8.399153660833242e-13 	101324.999999996
-0.7319819819819822 	300.0000000000018 	5.556107575552106e-13 	101324.9999999959
-0.7294794794794797 	299.9999999999976 	2.144944927089796e-12 	101324.9999999957
-0.7269769769769773 	300.0000000000054 	1.058714401914398e-12 	101324.9999999956
-0.7244744744744747 	300.0000000000118 	1.659167268477284e-12 	101324.9999999956
-0.721971971971972 	299.9999999999746 	1.815796398679893e-12 	101324.9999999958
-0.7194694694694695 	299.9999999999909 	2.174032993047363e-12 	101324.9999999959
-0.7169669669669674 	299.9999999999609 	2.040268747615693e-12 	101324.9999999958
-0.7144644644644647 	299.9999999999825 	2.000297950416725e-12 	101324.9999999959
-0.711961961961962 	300.0000000000047 	2.055988321260016e-12 	101324.9999999958
-0.7094594594594597 	300.0000000000078 	9.638871984776365e-13 	101324.9999999956
-0.7069569569569573 	300.0000000000144 	1.653999242331595e-12 	101324.9999999955
-0.7044544544544545 	300.0000000000172 	1.070139560402811e-12 	101324.9999999955
-0.7019519519519523 	300.0000000000031 	8.716250705251241e-13 	101324.9999999955
-0.6994494494494495 	299.9999999999582 	2.669959829970635e-13 	101324.9999999956
-0.6969469469469471 	299.9999999999657 	3.422445693843707e-13 	101324.9999999958
-0.6944444444444446 	299.9999999999755 	2.725514471508763e-13 	101324.999999996
-0.6919419419419421 	300.0000000000162 	7.936946942034636e-13 	101324.9999999962
-0.6894394394394396 	299.9999999999978 	1.020791418400236e-12 	101324.9999999963
-0.6869369369369374 	300.0000000000061 	1.757800437086878e-12 	101324.9999999964
-0.6844344344344344 	300.0000000000132 	1.621382282772297e-12 	101324.9999999966
-0.6819319319319321 	299.9999999999774 	2.321890399148444e-12 	101324.9999999968
-0.6794294294294296 	299.9999999999658 	2.304103590116088e-12 	101324.9999999967
-0.6769269269269272 	299.9999999999492 	2.875993028853306e-12 	101324.9999999965
-0.6744244244244245 	299.9999999999796 	2.98951943328312e-12 	101324.9999999962
-0.6719219219219222 	299.9999999999751 	3.124502762276767e-12 	101324.999999996
-0.6694194194194195 	299.9999999999993 	3.504263182668868e-12 	101324.9999999961
-0.6669169169169172 	300.0000000000115 	2.713853553493578e-12 	101324.999999996
-0.6644144144144146 	299.9999999999777 	2.82471031731925e-12 	101324.9999999961
-0.661911911911912 	299.9999999999789 	1.669539724069854e-12 	101324.9999999961
-0.6594094094094097 	299.9999999999843 	1.424061686076469e-12 	101324.9999999959
-0.656906906906907 	299.9999999999648 	4.622947460297978e-13 	101324.999999996
-0.6544044044044046 	299.9999999999695 	1.494250027795839e-12 	101324.9999999958
-0.6519019019019021 	299.9999999999922 	5.552740450529488e-13 	101324.999999996
-0.6493993993993996 	300.0000000000137 	2.596160424849347e-12 	101324.9999999961
-0.6468968968968971 	300.0000000000192 	1.254801680821634e-12 	101324.9999999963
-0.6443943943943946 	299.9999999999973 	2.992403290992341e-12 	101324.9999999964
-0.6418918918918921 	299.9999999999963 	1.055670121769988e-12 	101324.9999999963
-0.6393893893893897 	299.9999999999989 	1.456294733430043e-12 	101324.999999996
-0.6368868868868871 	299.9999999999852 	8.82366583409269e-13 	101324.9999999958
-0.6343843843843846 	299.9999999999966 	9.27438345111116e-13 	101324.9999999958
-0.6318818818818821 	299.9999999999734 	7.359086072049852e-13 	101324.9999999958
-0.6293793793793795 	300.0000000000014 	7.024678895086133e-13 	101324.9999999957
-0.6268768768768773 	300.0000000000093 	1.203814912876615e-12 	101324.9999999957
-0.6243743743743745 	299.9999999999859 	6.31523462087124e-13 	101324.9999999959
-0.6218718718718721 	300.0000000000026 	1.876348334030429e-12 	101324.9999999958
-0.6193693693693696 	299.9999999999621 	1.198229604025959e-12 	101324.9999999958
-0.6168668668668671 	299.9999999999873 	2.257474690598867e-12 	101324.9999999958
-0.6143643643643645 	300.0000000000082 	1.326802981916015e-12 	101324.9999999962
-0.6118618618618621 	299.9999999999935 	1.753902781471726e-12 	101324.9999999964
-0.6093593593593596 	299.9999999999931 	1.255354022201397e-12 	101324.9999999967
-0.6068568568568571 	299.9999999999927 	1.409679568974969e-12 	101324.9999999969
-0.6043543543543546 	299.9999999999768 	8.683237392710557e-13 	101324.9999999968
-0.6018518518518521 	299.9999999999833 	1.293395291856815e-12 	101324.9999999968
-0.5993493493493496 	299.9999999999677 	9.752150433407663e-13 	101324.9999999967
-0.5968468468468471 	299.9999999999753 	1.723027697247889e-12 	101324.9999999966
-0.5943443443443446 	299.9999999999965 	8.99917775508235e-13 	101324.999999996
-0.591841841841842 	299.9999999999754 	2.013714559039184e-12 	101324.9999999959
-0.5893393393393397 	299.9999999999698 	9.407809542891196e-13 	101324.9999999959
-0.5868368368368371 	299.9999999999945 	3.101921488785449e-12 	101324.9999999959
-0.5843343343343346 	300.0000000000025 	1.286559342334976e-12 	101324.999999996
-0.5818318318318321 	300.0000000000192 	2.802371336641514e-12 	101324.9999999961
-0.5793293293293297 	299.999999999993 	1.327211287962076e-12 	101324.9999999961
-0.5768268268268271 	300.0000000000024 	2.004173395641599e-12 	101324.999999996
-0.5743243243243245 	300.0000000000132 	1.110547876316724e-12 	101324.999999996
-0.5718218218218221 	300.0000000000132 	1.374767125757492e-12 	101324.9999999962
-0.5693193193193196 	300.0000000000273 	1.300560583930137e-12 	101324.9999999964
-0.5668168168168171 	299.9999999999938 	4.748921429551569e-13 	101324.9999999964
-0.5643143143143147 	299.999999999969 	7.005037661172839e-13 	101324.9999999963
-0.5618118118118121 	300.0000000000088 	7.941164736039675e-13 	101324.9999999962
-0.5593093093093094 	300.0000000000211 	4.964207536864538e-13 	101324.9999999959
-0.5568068068068072 	300.0000000000101 	1.112522451125899e-12 	101324.9999999958
-0.5543043043043046 	300.0000000000111 	8.065287198071947e-13 	101324.9999999959
-0.551801801801802 	299.999999999974 	1.101079007484314e-12 	101324.9999999959
-0.5492992992992995 	299.9999999999992 	6.058918750867421e-13 	101324.999999996
-0.5467967967967969 	300.0000000000094 	7.468441217508479e-13 	101324.999999996
-0.5442942942942947 	300.0000000000053 	5.390769087186465e-13 	101324.9999999961
-0.5417917917917919 	299.9999999999758 	7.796117696579924e-13 	101324.9999999962
-0.5392892892892895 	299.9999999999616 	8.443713560046314e-13 	101324.999999996
-0.536786786786787 	299.9999999999736 	3.209403690951967e-13 	101324.9999999961
-0.5342842842842846 	299.9999999999774 	1.274798225036473e-12 	101324.999999996
-0.531781781781782 	299.9999999999622 	4.068634295487005e-13 	101324.999999996
-0.5292792792792794 	299.9999999999587 	2.435078007073764e-12 	101324.9999999959
-0.526776776776777 	299.9999999999487 	1.562660882449446e-12 	101324.9999999961
-0.5242742742742745 	299.9999999999863 	3.937245152598714e-12 	101324.999999996
-0.521771771771772 	300.0000000000081 	2.511441770001146e-12 	101324.9999999959
-0.5192692692692695 	299.9999999999767 	4.889252708131236e-12 	101324.9999999959
-0.516766766766767 	300.000000000002 	2.600766649015954e-12 	101324.9999999958
-0.5142642642642645 	299.9999999999816 	4.134848346440808e-12 	101324.9999999957
-0.511761761761762 	299.9999999999714 	2.215100193173078e-12 	101324.9999999957
-0.5092592592592596 	299.9999999999841 	2.633785812870683e-12 	101324.9999999958
-0.506756756756757 	299.9999999999673 	1.423227279759099e-12 	101324.999999996
-0.5042542542542544 	299.9999999999973 	2.574397426036682e-12 	101324.999999996
-0.5017517517517521 	300.0000000000177 	1.061753422859622e-12 	101324.9999999962
-0.4992492492492494 	300.0000000000184 	2.540158036446968e-12 	101324.9999999961
-0.496746746746747 	299.9999999999942 	1.597019074289691e-12 	101324.999999996
-0.4942442442442445 	299.9999999999662 	1.972679468409508e-12 	101324.9999999961
-0.4917417417417421 	299.9999999999666 	9.660730101881102e-13 	101324.9999999962
-0.4892392392392395 	299.9999999999742 	1.640163385837294e-12 	101324.9999999963
-0.486736736736737 	299.9999999999754 	4.015292807965333e-13 	101324.9999999962
-0.4842342342342345 	299.9999999999542 	1.56248100434497e-12 	101324.9999999959
-0.481731731731732 	300.0000000000201 	7.710704958225856e-13 	101324.9999999958
-0.4792292292292296 	300.0000000000117 	1.564865870296288e-12 	101324.9999999955
-0.4767267267267268 	299.9999999999761 	2.03649146568082e-12 	101324.9999999955
-0.4742242242242246 	300.0000000000015 	2.661159742777046e-12 	101324.9999999956
-0.471721721721722 	299.9999999999767 	1.775755858193707e-12 	101324.9999999957
-0.4692192192192195 	299.999999999989 	1.866790182513355e-12 	101324.9999999958
-0.4667167167167169 	299.9999999999495 	1.080627944975813e-12 	101324.9999999959
-0.4642142142142145 	299.9999999999972 	1.56849286382003e-12 	101324.9999999962
-0.461711711711712 	300.0000000000098 	6.699105424755464e-13 	101324.9999999963
-0.4592092092092094 	300.0000000000036 	1.610515809520552e-12 	101324.9999999964
-0.456706706706707 	300.0000000000304 	3.726663820771162e-13 	101324.9999999963
-0.4542042042042045 	299.9999999999661 	8.335041672365069e-13 	101324.9999999961
-0.451701701701702 	299.9999999999729 	6.005894519162866e-13 	101324.9999999962
-0.4491991991991995 	299.9999999999782 	7.845027735837274e-13 	101324.9999999962
-0.4466966966966969 	299.9999999999762 	3.323589882647459e-13 	101324.9999999961
-0.4441941941941945 	299.999999999999 	7.920475335776793e-13 	101324.9999999961
-0.441691691691692 	299.9999999999788 	1.669674807209064e-12 	101324.9999999962
-0.4391891891891895 	299.9999999999937 	1.433492188439473e-12 	101324.9999999962
-0.436686686686687 	299.9999999999843 	2.744670820215256e-12 	101324.9999999961
-0.4341841841841846 	299.9999999999985 	2.288465125041015e-12 	101324.999999996
-0.431681681681682 	299.9999999999731 	1.966595544997966e-12 	101324.9999999958
-0.4291791791791794 	299.9999999999628 	2.1846765196482e-12 	101324.9999999957
-0.426676676676677 	299.9999999999503 	4.882206072982031e-13 	101324.9999999955
-0.4241741741741744 	299.9999999999824 	1.972130364159549e-12 	101324.9999999954
-0.421671671671672 	300.0000000000024 	6.400019975185124e-13 	101324.9999999954
-0.4191691691691694 	300.0000000000269 	1.049514032127075e-12 	101324.9999999953
-0.4166666666666669 	300.0000000000314 	4.43693949066091e-13 	101324.9999999953
-0.4141641641641645 	299.9999999999652 	6.857327838600395e-14 	101324.9999999951
-0.411661661661662 	299.9999999999999 	3.950374811400564e-13 	101324.999999995
-0.4091591591591594 	300.0000000000073 	2.170592589219304e-13 	101324.9999999951
-0.406656656656657 	299.9999999999718 	3.589517003683728e-14 	101324.9999999952
-0.4041541541541545 	300.0000000000084 	5.389693896868817e-13 	101324.9999999955
-0.401651651651652 	299.9999999999588 	1.384710763550765e-12 	101324.9999999957
-0.3991491491491494 	300.0000000000041 	1.280433407895365e-12 	101324.9999999958
-0.396646646646647 	299.999999999974 	2.346357624030009e-12 	101324.9999999957
-0.3941441441441444 	299.9999999999885 	2.157585573622532e-12 	101324.9999999957
-0.3916416416416419 	299.9999999999638 	2.303193091294145e-12 	101324.9999999956
-0.3891391391391395 	299.999999999975 	1.556607769933789e-12 	101324.9999999956
-0.3866366366366368 	299.999999999976 	9.353055004129861e-13 	101324.9999999954
-0.3841341341341344 	299.9999999999997 	1.200833712194024e-12 	101324.9999999956
-0.381631631631632 	299.999999999972 	6.376911167049172e-13 	101324.9999999955
-0.3791291291291294 	299.9999999999988 	6.455037022717197e-13 	101324.9999999954
-0.3766266266266269 	300.0000000000113 	6.859916954587111e-13 	101324.9999999955
-0.3741241241241244 	300.0000000000126 	6.03969038061802e-13 	101324.9999999955
-0.371621621621622 	300.0000000000122 	9.543056130151714e-13 	101324.9999999952
-0.3691191191191194 	300.0000000000037 	2.016334904171504e-12 	101324.9999999954
-0.366616616616617 	300.0000000000029 	1.117674873434658e-12 	101324.9999999954
-0.3641141141141143 	299.9999999999862 	2.38525469404255e-12 	101324.9999999953
-0.3616116116116119 	299.9999999999672 	1.001577161124352e-12 	101324.9999999953
-0.3591091091091095 	299.9999999999873 	1.188880510319541e-12 	101324.9999999953
-0.356606606606607 	299.9999999999916 	5.229164563145839e-13 	101324.9999999953
-0.3541041041041044 	299.9999999999949 	6.166856772278831e-13 	101324.9999999954
-0.3516016016016019 	300.0000000000114 	1.591980867424396e-12 	101324.9999999957
-0.3490990990990994 	299.9999999999969 	9.137681556292531e-13 	101324.999999996
-0.346596596596597 	300.0000000000173 	3.151819570448529e-12 	101324.9999999959
-0.3440940940940944 	300.0000000000203 	1.801445196965312e-12 	101324.9999999957
-0.3415915915915919 	300.000000000016 	3.972728396183522e-12 	101324.9999999954
-0.3390890890890895 	299.9999999999897 	2.385300543918937e-12 	101324.9999999952
-0.3365865865865869 	300.0000000000093 	3.176629693054229e-12 	101324.999999995
-0.3340840840840844 	299.9999999999947 	2.721767451948195e-12 	101324.999999995
-0.3315815815815819 	300.0000000000103 	3.164283185346721e-12 	101324.9999999949
-0.3290790790790794 	300.0000000000117 	3.361899337374884e-12 	101324.9999999953
-0.3265765765765769 	299.9999999999605 	3.460993757565389e-12 	101324.9999999955
-0.3240740740740744 	300.0000000000006 	2.451598408674029e-12 	101324.9999999954
-0.3215715715715718 	300.0000000000076 	3.388693086351948e-12 	101324.9999999954
-0.3190690690690695 	299.9999999999644 	2.732107892726841e-12 	101324.9999999955
-0.3165665665665668 	299.9999999999937 	3.859917216742533e-12 	101324.9999999955
-0.3140640640640644 	299.9999999999989 	2.412789203451601e-12 	101324.9999999955
-0.311561561561562 	299.99999999996 	4.156702886937547e-12 	101324.9999999955
-0.3090590590590593 	299.9999999999993 	1.063613575887183e-12 	101324.9999999955
-0.3065565565565568 	300.0000000000034 	4.928368064667819e-12 	101324.9999999956
-0.3040540540540545 	299.9999999999998 	1.304256244387384e-12 	101324.9999999955
-0.3015515515515518 	300.0000000000179 	4.57349844824261e-12 	101324.9999999954
-0.2990490490490494 	299.9999999999655 	2.577481767775057e-12 	101324.9999999955
-0.2965465465465469 	299.9999999999937 	4.003655227764571e-12 	101324.9999999953
-0.2940440440440444 	299.9999999999941 	3.416660506006545e-12 	101324.9999999954
-0.2915415415415418 	300.0000000000054 	3.28482186539892e-12 	101324.9999999953
-0.2890390390390395 	300.0000000000076 	3.460503524068213e-12 	101324.9999999952
-0.2865365365365368 	299.9999999999845 	2.0965801928291e-12 	101324.9999999952
-0.2840340340340343 	299.9999999999997 	3.930867336136351e-12 	101324.9999999954
-0.2815315315315318 	299.9999999999548 	1.922310058668858e-12 	101324.9999999955
-0.2790290290290295 	299.9999999999832 	3.367535755615395e-12 	101324.9999999956
-0.2765265265265269 	300.0000000000085 	2.530495882299337e-12 	101324.9999999956
-0.2740240240240244 	300.000000000011 	3.04328927385744e-12 	101324.9999999953
-0.2715215215215219 	300.0000000000077 	3.160663002714274e-12 	101324.9999999953
-0.2690190190190194 	299.9999999999691 	3.031193370837016e-12 	101324.9999999951
-0.2665165165165169 	299.999999999996 	3.282151399161901e-12 	101324.9999999952
-0.2640140140140144 	299.9999999999853 	2.089317435148018e-12 	101324.999999995
-0.2615115115115119 	299.9999999999965 	3.554059618764094e-12 	101324.9999999949
-0.2590090090090094 	299.9999999999587 	2.315084976666568e-12 	101324.9999999948
-0.2565065065065068 	299.9999999999962 	3.96092855547256e-12 	101324.9999999949
-0.2540040040040044 	299.9999999999928 	3.847615886332514e-12 	101324.9999999947
-0.2515015015015019 	300.0000000000159 	3.74567972897999e-12 	101324.999999995
-0.2489989989989994 	300.0000000000236 	5.569650408458697e-12 	101324.9999999949
-0.2464964964964968 	299.9999999999899 	4.417022469075948e-12 	101324.9999999946
-0.2439939939939944 	299.9999999999914 	6.801193515876687e-12 	101324.9999999949
-0.2414914914914919 	299.9999999999779 	3.754066550763535e-12 	101324.9999999948
-0.2389889889889893 	299.9999999999976 	6.522831154036072e-12 	101324.9999999948
-0.2364864864864869 	300.0000000000113 	3.934720676376003e-12 	101324.9999999949
-0.2339839839839843 	299.9999999999668 	6.696743831872653e-12 	101324.9999999946
-0.2314814814814819 	299.9999999999845 	3.21866655365772e-12 	101324.9999999946
-0.2289789789789792 	299.9999999999566 	5.329394581274728e-12 	101324.9999999944
-0.2264764764764769 	299.9999999999661 	3.674945671228681e-12 	101324.9999999942
-0.2239739739739743 	299.9999999999799 	5.194742454183696e-12 	101324.9999999943
-0.2214714714714718 	299.9999999999678 	4.651211999638283e-12 	101324.9999999945
-0.2189689689689693 	299.9999999999792 	3.816225093342958e-12 	101324.9999999946
-0.2164664664664669 	299.999999999987 	4.853594742344694e-12 	101324.9999999944
-0.2139639639639643 	299.9999999999616 	3.32949478196368e-12 	101324.9999999942
-0.2114614614614618 	299.9999999999822 	3.821856819757925e-12 	101324.9999999939
-0.2089589589589593 	299.9999999999969 	3.018608970542792e-12 	101324.999999994
-0.2064564564564568 	299.9999999999972 	2.938630470349441e-12 	101324.9999999943
-0.2039539539539543 	299.9999999999523 	3.860036670506749e-12 	101324.9999999944
-0.2014514514514518 	299.9999999999619 	1.805435236709778e-12 	101324.9999999942
-0.1989489489489494 	299.999999999984 	4.76423706669786e-12 	101324.9999999945
-0.1964464464464468 	300.0000000000002 	2.598883388258522e-12 	101324.9999999947
-0.1939439439439443 	299.9999999999969 	5.551573640842594e-12 	101324.9999999948
-0.1914414414414418 	299.9999999999592 	3.967530584759344e-12 	101324.9999999948
-0.1889389389389393 	299.9999999999989 	5.027725550550497e-12 	101324.9999999946
-0.1864364364364368 	300.0000000000165 	4.956971880386427e-12 	101324.9999999943
-0.1839339339339343 	299.9999999999847 	4.894357747979786e-12 	101324.9999999943
-0.1814314314314318 	299.9999999999935 	4.260000274016289e-12 	101324.9999999943
-0.1789289289289293 	299.9999999999437 	4.245372146904553e-12 	101324.9999999941
-0.1764264264264268 	299.9999999999875 	3.468839952509911e-12 	101324.9999999942
-0.1739239239239243 	299.9999999999451 	3.841642136054191e-12 	101324.9999999941
-0.1714214214214218 	299.9999999999917 	2.765862380472014e-12 	101324.9999999941
-0.1689189189189193 	299.9999999999709 	4.838114618740302e-12 	101324.999999994
-0.1664164164164168 	299.9999999999986 	2.526592993519895e-12 	101324.9999999941
-0.1639139139139143 	299.9999999999912 	6.18815300632239e-12 	101324.9999999941
-0.1614114114114118 	300.0000000000101 	1.634225422254385e-12 	101324.9999999943
-0.1589089089089093 	299.9999999999972 	8.076356508038675e-12 	101324.9999999946
-0.1564064064064068 	299.9999999999863 	9.357581747914889e-13 	101324.9999999945
-0.1539039039039043 	299.9999999999961 	8.562811313037528e-12 	101324.9999999948
-0.1514014014014018 	300.0000000000124 	1.609157034774978e-12 	101324.9999999948
-0.1488988988988993 	299.9999999999969 	7.788017416737377e-12 	101324.9999999946
-0.1463963963963968 	300.0000000000019 	1.946477835906548e-12 	101324.9999999945
-0.1438938938938943 	299.9999999999795 	6.582312284113969e-12 	101324.9999999945
-0.1413913913913918 	299.9999999999594 	2.754764858674176e-12 	101324.9999999947
-0.1388888888888893 	299.9999999999861 	4.61082006416435e-12 	101324.9999999947
-0.1363863863863868 	299.9999999999418 	3.218827735073684e-12 	101324.9999999946
-0.1338838838838843 	299.9999999999603 	3.910275022485884e-12 	101324.9999999944
-0.1313813813813818 	299.9999999999937 	2.840532887328287e-12 	101324.9999999946
-0.1288788788788793 	299.9999999999764 	3.403178361445354e-12 	101324.9999999945
-0.1263763763763768 	299.9999999999841 	2.54982702874121e-12 	101324.9999999946
-0.1238738738738743 	299.9999999999648 	3.781772798801299e-12 	101324.9999999945
-0.1213713713713717 	299.9999999999939 	2.125378738333469e-12 	101324.9999999946
-0.1188688688688693 	300.0000000000085 	4.596423197404752e-12 	101324.9999999946
-0.1163663663663668 	299.9999999999495 	1.907535125846703e-12 	101324.9999999948
-0.1138638638638643 	299.9999999999943 	4.888852104473508e-12 	101324.9999999948
-0.1113613613613618 	299.9999999999932 	1.393513663944047e-12 	101324.999999995
-0.1088588588588592 	299.9999999999887 	5.583394499320741e-12 	101324.9999999949
-0.1063563563563568 	299.9999999999775 	1.671739826422946e-12 	101324.9999999948
-0.1038538538538543 	299.9999999999901 	4.739175157930454e-12 	101324.9999999948
-0.1013513513513517 	300.0000000000071 	2.575689060718458e-12 	101324.9999999947
-0.09884884884884926 	299.9999999999727 	4.132769245580357e-12 	101324.9999999948
-0.09634634634634676 	299.9999999999476 	2.692274156603678e-12 	101324.9999999949
-0.09384384384384425 	299.999999999955 	3.000148845188757e-12 	101324.999999995
-0.09134134134134177 	300.000000000009 	2.295984568394608e-12 	101324.9999999951
-0.08883883883883925 	300.0000000000059 	3.231886366482393e-12 	101324.999999995
-0.08633633633633674 	299.9999999999735 	3.714518026373875e-12 	101324.999999995
-0.08383383383383426 	300.000000000003 	3.891272884157277e-12 	101324.9999999951
-0.08133133133133173 	299.9999999999843 	4.166665217201278e-12 	101324.9999999951
-0.07882882882882926 	299.9999999999414 	3.694047484368007e-12 	101324.9999999949
-0.07632632632632676 	299.9999999999774 	3.881307737798189e-12 	101324.999999995
-0.07382382382382424 	299.9999999999441 	4.545860297102754e-12 	101324.999999995
-0.07132132132132173 	300.0000000000074 	3.990996782611652e-12 	101324.9999999947
-0.06881881881881925 	299.9999999999803 	3.244776776855972e-12 	101324.9999999948
-0.06631631631631671 	299.9999999999438 	2.777720056837229e-12 	101324.9999999946
-0.06381381381381425 	299.9999999999775 	2.173345578366279e-12 	101324.9999999945
-0.06131131131131173 	299.9999999999779 	2.124974496367407e-12 	101324.9999999943
-0.05880880880880923 	299.9999999999584 	2.04486576226359e-12 	101324.9999999944
-0.05630630630630672 	299.9999999999822 	1.927040356982611e-12 	101324.9999999945
-0.05380380380380424 	300.0000000000071 	1.970280581342302e-12 	101324.9999999945
-0.05130130130130173 	300.0000000000069 	2.037465429172919e-12 	101324.9999999947
-0.04879879879879922 	299.9999999999706 	1.922575108977678e-12 	101324.9999999949
-0.04629629629629672 	299.9999999999629 	1.179727009813338e-12 	101324.9999999953
-0.04379379379379422 	299.9999999999538 	1.355250562012926e-12 	101324.9999999952
-0.04129129129129173 	299.9999999999902 	8.59859991554873e-13 	101324.9999999952
-0.03878878878878922 	299.9999999999902 	1.420742145261841e-12 	101324.9999999951
-0.03628628628628671 	299.9999999999909 	1.259668555643244e-12 	101324.9999999951
-0.03378378378378422 	299.9999999999603 	1.82363363597787e-12 	101324.999999995
-0.03128128128128172 	299.9999999999821 	8.312620886376232e-13 	101324.9999999949
-0.02877877877877922 	299.9999999999818 	1.041856932813365e-12 	101324.9999999948
-0.0262762762762767 	299.999999999947 	2.188531960503075e-13 	101324.999999995
-0.02377377377377422 	300.0000000000105 	9.872009589558001e-14 	101324.9999999949
-0.0212712712712717 	299.9999999999471 	1.572239226860483e-13 	101324.999999995
-0.01876876876876921 	299.9999999999842 	2.672698957955309e-13 	101324.9999999952
-0.01626626626626671 	300.0000000000063 	4.869531919044027e-13 	101324.9999999952
-0.0137637637637642 	299.9999999999794 	1.592306784095836e-14 	101324.9999999953
-0.0112612612612617 	300.0000000000072 	1.014544727263639e-13 	101324.9999999954
-0.008758758758759198 	299.999999999997 	1.70522973083226e-13 	101324.9999999955
-0.006256256256256697 	299.9999999999407 	1.06175251097223e-13 	101324.9999999955
-0.003753753753754195 	299.9999999999756 	4.209203364771964e-13 	101324.9999999956
-0.001251251251251693 	299.9999999999596 	5.551633409876525e-13 	101324.9999999955
0.00125125125125081 	299.9999999999749 	1.605491507729457e-12 	101324.9999999951
0.003753753753753312 	299.9999999999802 	1.176786809514841e-12 	101324.999999995
0.006256256256255817 	299.9999999999404 	1.121512662128337e-12 	101324.9999999951
0.008758758758758317 	299.9999999999944 	1.032536740079952e-12 	101324.9999999953
0.01126126126126082 	300.0000000000068 	1.15482587138232e-12 	101324.9999999953
0.01376376376376332 	299.9999999999807 	1.745116332209601e-12 	101324.9999999952
0.01626626626626582 	300.0000000000046 	1.918063817621975e-12 	101324.9999999951
0.01876876876876833 	299.9999999999775 	1.922084302565171e-12 	101324.9999999948
0.02127127127127083 	299.9999999999837 	2.335280561107255e-12 	101324.9999999953
0.02377377377377332 	299.9999999999981 	2.038841241982048e-12 	101324.9999999952
0.02627627627627583 	299.9999999999501 	1.658888388228269e-12 	101324.9999999949
0.02877877877877833 	300.0000000000019 	2.056526966391372e-12 	101324.9999999947
0.03128128128128083 	299.9999999999689 	1.551904474848934e-12 	101324.9999999949
0.03378378378378333 	299.9999999999468 	1.6727487619169e-12 	101324.9999999947
0.03628628628628584 	299.9999999999869 	1.05569428513542e-12 	101324.9999999946
0.03878878878878834 	299.9999999999903 	8.591659994648515e-13 	101324.999999995
0.04129129129129084 	299.9999999999866 	1.057670834463163e-12 	101324.999999995
0.04379379379379333 	299.9999999999662 	1.015885407690029e-12 	101324.999999995
0.04629629629629585 	299.9999999999413 	9.020040429084808e-13 	101324.9999999948
0.04879879879879834 	299.9999999999736 	1.136239985691599e-12 	101324.9999999947
0.05130130130130085 	300.0000000000059 	9.086204831238175e-13 	101324.9999999946
0.05380380380380335 	300.0000000000098 	1.298901800391477e-12 	101324.9999999947
0.05630630630630584 	299.9999999999935 	2.073625849529116e-12 	101324.9999999947
0.05880880880880836 	299.9999999999586 	2.286219558328361e-12 	101324.9999999949
0.06131131131131085 	299.9999999999855 	2.330963950878517e-12 	101324.9999999951
0.06381381381381336 	299.9999999999781 	2.087465869490508e-12 	101324.9999999952
0.06631631631631586 	299.9999999999403 	1.985843971766045e-12 	101324.9999999952
0.06881881881881835 	299.9999999999702 	2.562233496459678e-12 	101324.999999995
0.07132132132132088 	299.9999999999955 	2.42248359193542e-12 	101324.9999999954
0.07382382382382337 	299.9999999999498 	2.566322620043041e-12 	101324.9999999953
0.07632632632632587 	299.9999999999826 	3.585709663512593e-12 	101324.9999999953
0.07882882882882837 	299.999999999967 	3.531459430555677e-12 	101324.999999995
0.08133133133133086 	299.9999999999932 	3.55526533446072e-12 	101324.9999999949
0.08383383383383337 	299.9999999999936 	2.866070382484591e-12 	101324.9999999948
0.08633633633633589 	299.9999999999498 	3.010167814664906e-12 	101324.9999999951
0.08883883883883838 	300.0000000000042 	3.36517925252447e-12 	101324.999999995
0.09134134134134086 	299.9999999999925 	2.263721146331028e-12 	101324.9999999951
0.09384384384384339 	299.9999999999452 	2.577201542105664e-12 	101324.999999995
0.09634634634634588 	299.9999999999819 	2.753309867961522e-12 	101324.999999995
0.09884884884884838 	299.9999999999849 	2.942017941251055e-12 	101324.9999999949
0.1013513513513509 	300.0000000000134 	3.532832702377008e-12 	101324.9999999951
0.1038538538538534 	299.999999999972 	3.928276791977228e-12 	101324.9999999952
0.1063563563563559 	300.0000000000047 	4.542273952910311e-12 	101324.9999999947
0.1088588588588584 	300.0000000000132 	3.895498850719306e-12 	101324.9999999947
0.1113613613613609 	299.9999999999636 	4.682804457396289e-12 	101324.9999999943
0.1138638638638634 	299.9999999999705 	4.859065026912451e-12 	101324.9999999942
0.1163663663663659 	299.9999999999691 	4.524231282505878e-12 	101324.9999999942
0.1188688688688684 	299.9999999999808 	4.391307144190466e-12 	101324.9999999943
0.1213713713713709 	299.9999999999965 	4.315266408180494e-12 	101324.9999999944
0.1238738738738734 	299.9999999999575 	4.192177200666672e-12 	101324.9999999946
0.1263763763763759 	299.9999999999914 	4.270515585095608e-12 	101324.9999999947
0.1288788788788784 	299.9999999999919 	3.72856422603692e-12 	101324.9999999949
0.1313813813813809 	299.9999999999911 	4.255130271917023e-12 	101324.9999999949
0.1338838838838834 	299.9999999999856 	3.77697163024045e-12 	101324.999999995
0.1363863863863859 	300.0000000000131 	3.543815392971848e-12 	101324.9999999949
0.1388888888888884 	300.0000000000232 	2.651952226322481e-12 	101324.999999995
0.1413913913913909 	299.9999999999994 	1.915027185484992e-12 	101324.9999999951
0.1438938938938934 	299.9999999999958 	1.71788001464159e-12 	101324.9999999952
0.1463963963963959 	299.9999999999793 	1.935523478593858e-12 	101324.9999999952
0.1488988988988985 	299.9999999999528 	3.097970348353992e-12 	101324.9999999949
0.1514014014014009 	299.9999999999791 	3.553146090396721e-12 	101324.9999999948
0.1539039039039035 	299.9999999999759 	5.009546729267539e-12 	101324.9999999947
0.1564064064064059 	299.9999999999744 	3.33614165577263e-12 	101324.9999999944
0.1589089089089084 	299.9999999999874 	6.007545030292543e-12 	101324.9999999944
0.1614114114114109 	299.9999999999858 	3.575089086052071e-12 	101324.9999999948
0.1639139139139134 	299.9999999999515 	4.708810150334442e-12 	101324.9999999951
0.166416416416416 	299.9999999999999 	3.858509969644519e-12 	101324.9999999951
0.1689189189189185 	300.0000000000133 	3.401582666133386e-12 	101324.9999999949
0.1714214214214209 	299.9999999999929 	3.455481347619949e-12 	101324.9999999949
0.1739239239239235 	299.9999999999902 	2.347132096856701e-12 	101324.9999999951
0.1764264264264259 	299.9999999999794 	3.830302183478197e-12 	101324.9999999951
0.1789289289289284 	300.0000000000014 	1.663387843407622e-12 	101324.999999995
0.181431431431431 	299.9999999999797 	4.295250170531101e-12 	101324.999999995
0.1839339339339334 	299.9999999999835 	2.438661632501984e-12 	101324.9999999948
0.186436436436436 	299.9999999999629 	3.917446026201813e-12 	101324.9999999947
0.1889389389389385 	299.9999999999901 	3.760007446383699e-12 	101324.9999999945
0.191441441441441 	299.9999999999889 	3.480928778892892e-12 	101324.9999999945
0.1939439439439434 	299.9999999999586 	4.809424501315216e-12 	101324.9999999945
0.196446446446446 	299.9999999999744 	3.002696688297068e-12 	101324.9999999943
0.1989489489489485 	299.9999999999814 	4.505545900832186e-12 	101324.9999999943
0.2014514514514509 	299.9999999999884 	2.654097988094621e-12 	101324.9999999945
0.2039539539539535 	299.9999999999937 	4.324474479713726e-12 	101324.9999999945
0.2064564564564559 	299.9999999999764 	3.615586422043235e-12 	101324.9999999943
0.2089589589589585 	299.9999999999904 	3.744481392744302e-12 	101324.9999999945
0.211461461461461 	299.9999999999657 	3.546642456208489e-12 	101324.9999999947
0.2139639639639635 	299.9999999999935 	3.488979340237344e-12 	101324.9999999948
0.2164664664664659 	300.0000000000003 	4.30743958818406e-12 	101324.9999999949
0.2189689689689684 	299.9999999999965 	2.982211704684627e-12 	101324.9999999949
0.221471471471471 	299.9999999999948 	4.767726635903034e-12 	101324.9999999945
0.2239739739739735 	299.9999999999754 	2.498620947967017e-12 	101324.9999999943
0.226476476476476 	299.9999999999909 	3.750299136451619e-12 	101324.9999999945
0.2289789789789785 	299.9999999999973 	3.353839508560858e-12 	101324.9999999943
0.231481481481481 	299.999999999992 	3.708216316109971e-12 	101324.9999999945
0.2339839839839835 	299.9999999999909 	4.707020673851088e-12 	101324.9999999943
0.236486486486486 	300.000000000009 	4.001734304517051e-12 	101324.9999999942
0.2389889889889885 	299.9999999999981 	4.954827216684719e-12 	101324.9999999943
0.241491491491491 	299.9999999999589 	2.658045224265593e-12 	101324.9999999946
0.2439939939939935 	299.9999999999887 	4.5987013916624e-12 	101324.9999999948
0.246496496496496 	299.9999999999911 	2.57282979406139e-12 	101324.9999999946
0.2489989989989985 	300.0000000000143 	4.309176184667456e-12 	101324.9999999949
0.251501501501501 	300.00000000001 	3.533111774096621e-12 	101324.9999999948
0.2540040040040035 	299.9999999999925 	3.411907439002326e-12 	101324.9999999949
0.256506506506506 	300.00000000001 	3.64601893415625e-12 	101324.9999999947
0.2590090090090086 	299.9999999999513 	2.668836882432912e-12 	101324.9999999946
0.261511511511511 	300.0000000000015 	5.087180355042976e-12 	101324.9999999947
0.2640140140140135 	299.9999999999927 	3.073230927506438e-12 	101324.9999999949
0.2665165165165161 	299.9999999999633 	4.592432730423245e-12 	101324.999999995
0.2690190190190185 	300.0000000000052 	3.424600340834083e-12 	101324.9999999949
0.271521521521521 	299.9999999999996 	3.524826114053371e-12 	101324.9999999948
0.2740240240240235 	300.0000000000047 	3.399574366899816e-12 	101324.9999999948
0.276526526526526 	300.0000000000008 	2.921539409045154e-12 	101324.9999999949
0.2790290290290286 	299.9999999999675 	4.380352701288315e-12 	101324.9999999949
0.281531531531531 	299.9999999999594 	2.925000832784483e-12 	101324.999999995
0.2840340340340335 	299.9999999999907 	4.160709095791933e-12 	101324.9999999952
0.2865365365365361 	299.9999999999773 	2.439428076631565e-12 	101324.9999999952
0.2890390390390385 	299.999999999996 	3.702363444113149e-12 	101324.999999995
0.291541541541541 	299.9999999999961 	3.498310077932196e-12 	101324.9999999951
0.2940440440440436 	299.9999999999937 	3.135939162371064e-12 	101324.9999999949
0.296546546546546 	299.9999999999926 	3.420858604519385e-12 	101324.9999999948
0.2990490490490486 	299.9999999999618 	2.305547626914925e-12 	101324.9999999949
0.3015515515515511 	300.0000000000144 	4.549103419193284e-12 	101324.999999995
0.3040540540540535 	299.9999999999912 	1.302640072917946e-12 	101324.9999999952
0.3065565565565562 	299.9999999999965 	5.101271981852877e-12 	101324.9999999952
0.3090590590590585 	299.9999999999918 	8.714264034374994e-13 	101324.9999999951
0.3115615615615611 	299.9999999999641 	3.949228038097472e-12 	101324.9999999952
0.3140640640640635 	299.9999999999986 	1.884925451632494e-12 	101324.9999999953
0.316566566566566 	299.9999999999926 	3.068353483171143e-12 	101324.9999999953
0.3190690690690687 	299.9999999999745 	1.563830520856316e-12 	101324.9999999952
0.3215715715715711 	300.0000000000043 	2.507654555542544e-12 	101324.999999995
0.3240740740740735 	299.9999999999955 	1.205954698127671e-12 	101324.9999999948
0.326576576576576 	299.9999999999458 	1.967273066033648e-12 	101324.9999999946
0.3290790790790786 	299.999999999999 	1.647789184589312e-12 	101324.9999999947
0.3315815815815811 	300.0000000000195 	1.883296382870678e-12 	101324.999999995
0.3340840840840836 	299.9999999999952 	1.757556936146974e-12 	101324.999999995
0.3365865865865861 	300.0000000000304 	2.219079874331141e-12 	101324.9999999952
0.3390890890890886 	300.0000000000255 	6.015415122662829e-13 	101324.9999999953
0.3415915915915911 	300.0000000000008 	9.276478240799001e-13 	101324.9999999954
0.3440940940940935 	299.9999999999721 	1.159796803015162e-12 	101324.9999999953
0.3465965965965962 	300.0000000000184 	6.977510716412429e-13 	101324.9999999951
0.3490990990990985 	300.000000000014 	8.790413904699078e-13 	101324.999999995
0.3516016016016011 	299.9999999999919 	1.605310857078427e-13 	101324.9999999949
0.3541041041041035 	300.0000000000028 	6.354104248982764e-13 	101324.9999999949
0.3566066066066061 	299.9999999999766 	7.990809917983716e-13 	101324.999999995
0.3591091091091085 	299.9999999999585 	5.609109432792137e-13 	101324.9999999949
0.3616116116116112 	299.9999999999671 	1.417142303633341e-12 	101324.9999999948
0.3641141141141137 	299.9999999999615 	1.104403884106098e-12 	101324.999999995
0.3666166166166161 	299.9999999999588 	1.98544406605535e-12 	101324.9999999951
0.3691191191191185 	300.0000000000152 	1.929746227821486e-12 	101324.9999999951
0.371621621621621 	300.0000000000077 	1.570291297193116e-12 	101324.999999995
0.3741241241241237 	300.000000000024 	1.943397414122159e-12 	101324.9999999952
0.3766266266266261 	300.0000000000101 	5.458291776929378e-13 	101324.9999999951
0.3791291291291286 	299.9999999999899 	1.745713020813779e-12 	101324.9999999949
0.3816316316316311 	299.9999999999575 	8.749167086152054e-13 	101324.9999999948
0.3841341341341336 	300.0000000000017 	1.474775614292064e-12 	101324.9999999949
0.3866366366366362 	299.9999999999967 	2.622472071730572e-13 	101324.999999995
0.3891391391391387 	299.9999999999774 	2.924867476706466e-13 	101324.9999999953
0.391641641641641 	299.9999999999975 	1.018406944548182e-12 	101324.9999999954
0.3941441441441436 	300.0000000000047 	1.191018110883148e-12 	101324.9999999955
0.3966466466466462 	300.0000000000004 	1.476268387551431e-12 	101324.9999999955
0.3991491491491486 	299.9999999999753 	9.574106747579617e-13 	101324.9999999954
0.4016516516516512 	299.9999999999578 	1.779584343928749e-12 	101324.9999999953
0.4041541541541536 	299.9999999999748 	9.073523131476189e-13 	101324.9999999949
0.4066566566566561 	299.9999999999745 	2.93771294105091e-12 	101324.9999999949
0.4091591591591587 	299.9999999999961 	1.152798927101267e-12 	101324.999999995
0.4116616616616612 	300.0000000000043 	3.048503912969298e-12 	101324.9999999952
0.4141641641641635 	300.0000000000181 	2.015995927916733e-12 	101324.9999999952
0.4166666666666662 	299.999999999997 	2.49051975177484e-12 	101324.9999999953
0.4191691691691687 	299.9999999999694 	2.545776760137756e-12 	101324.9999999952
0.421671671671671 	300.0000000000041 	1.812166616429269e-12 	101324.999999995
0.4241741741741737 	299.9999999999856 	3.497875221906865e-12 	101324.999999995
0.4266766766766761 	299.9999999999721 	1.124721959502809e-12 	101324.999999995
0.4291791791791785 	300.000000000012 	4.185485857279531e-12 	101324.999999995
0.4316816816816812 	300.0000000000044 	1.02948893164477e-12 	101324.9999999952
0.4341841841841836 	299.9999999999895 	4.558931122379502e-12 	101324.9999999952
0.4366866866866862 	299.9999999999578 	1.942791563808737e-12 	101324.9999999953
0.4391891891891885 	299.9999999999968 	3.241812053373713e-12 	101324.9999999952
0.4416916916916913 	299.9999999999926 	1.451482090678239e-12 	101324.9999999951
0.4441941941941936 	299.9999999999941 	2.377544784819896e-12 	101324.9999999951
0.4466966966966961 	299.9999999999606 	2.051775623272257e-12 	101324.9999999953
0.4491991991991987 	299.9999999999919 	1.593962333453251e-12 	101324.9999999954
0.4517017017017012 	299.9999999999926 	2.228762903071387e-12 	101324.9999999956
0.4542042042042035 	299.9999999999935 	1.85497869437888e-12 	101324.9999999957
0.4567067067067062 	299.9999999999982 	2.16922016149592e-12 	101324.9999999957
0.4592092092092087 	299.9999999999643 	1.671814079203672e-12 	101324.9999999959
0.4617117117117112 	300.00000000001 	1.640130482654282e-12 	101324.9999999958
0.4642142142142137 	299.9999999999825 	1.35247340941486e-12 	101324.9999999957
0.4667167167167162 	299.9999999999956 	1.110133502313187e-12 	101324.9999999957
0.4692192192192187 	299.999999999979 	1.024941852305556e-12 	101324.9999999955
0.4717217217217212 	300.0000000000045 	7.090234441932364e-13 	101324.9999999954
0.4742242242242236 	299.9999999999758 	1.172803795572872e-12 	101324.9999999953
0.4767267267267262 	299.9999999999841 	9.640684738244555e-13 	101324.9999999953
0.4792292292292287 	300.0000000000061 	1.366732085064146e-12 	101324.9999999954
0.4817317317317312 	300.0000000000158 	1.824307818569102e-12 	101324.9999999956
0.4842342342342336 	299.9999999999914 	2.247369901834023e-12 	101324.9999999955
0.4867367367367362 	299.9999999999778 	2.338568405818521e-12 	101324.9999999957
0.4892392392392387 	300.0000000000151 	2.423840105332257e-12 	101324.9999999958
0.4917417417417412 	300.0000000000027 	3.863466508428988e-12 	101324.9999999957
0.4942442442442437 	299.9999999999528 	3.010826931914105e-12 	101324.9999999956
0.4967467467467462 	299.9999999999623 	3.97648067463403e-12 	101324.9999999956
0.4992492492492487 	299.9999999999587 	1.647617835159118e-12 	101324.9999999957
0.5017517517517511 	299.9999999999762 	2.471260541678622e-12 	101324.9999999954
0.5042542542542537 	299.9999999999828 	1.62709151447505e-12 	101324.9999999953
0.5067567567567562 	299.9999999999749 	2.401532630031803e-12 	101324.9999999954
0.5092592592592589 	299.9999999999857 	2.265137006145488e-12 	101324.9999999955
0.5117617617617611 	299.9999999999794 	1.909765478127243e-12 	101324.9999999957
0.5142642642642637 	299.9999999999931 	2.985088873180115e-12 	101324.9999999959
0.5167667667667663 	299.9999999999861 	1.69101876047952e-12 	101324.9999999958
0.5192692692692688 	299.9999999999615 	3.952786757488472e-12 	101324.9999999958
0.5217717717717714 	299.9999999999681 	1.689704142473463e-12 	101324.9999999958
0.5242742742742736 	299.999999999967 	2.928877311702904e-12 	101324.9999999956
0.5267767767767763 	299.9999999999779 	1.040277391470921e-12 	101324.9999999957
0.5292792792792789 	299.9999999999688 	2.503403519217523e-12 	101324.9999999956
0.5317817817817813 	299.999999999955 	1.536041712045734e-12 	101324.9999999957
0.5342842842842837 	300.000000000009 	2.396291862760803e-12 	101324.9999999954
0.5367867867867864 	300.0000000000011 	2.152906943354242e-12 	101324.9999999953
0.5392892892892888 	299.9999999999791 	2.562297174728961e-12 	101324.9999999952
0.5417917917917912 	300.0000000000023 	2.002267140857614e-12 	101324.9999999954
0.5442942942942938 	299.9999999999889 	2.051095032958274e-12 	101324.9999999957
0.5467967967967964 	299.999999999977 	2.145925970308845e-12 	101324.9999999959
0.5492992992992988 	299.9999999999695 	2.869375044925738e-12 	101324.999999996
0.5518018018018012 	299.999999999966 	2.710402036932123e-12 	101324.9999999959
0.5543043043043039 	300.0000000000107 	2.758398260199392e-12 	101324.9999999957
0.5568068068068063 	299.9999999999951 	2.359955203195545e-12 	101324.9999999957
0.5593093093093087 	299.9999999999523 	2.750819868140585e-12 	101324.9999999958
0.5618118118118114 	299.999999999981 	9.788396573502004e-13 	101324.9999999957
0.5643143143143137 	299.9999999999722 	1.726938390657505e-12 	101324.9999999956
0.5668168168168163 	299.9999999999953 	8.888738568133804e-13 	101324.9999999956
0.5693193193193188 	300.0000000000172 	1.615072324735713e-12 	101324.9999999955
0.5718218218218213 	300.000000000015 	1.589506444882043e-12 	101324.9999999956
0.5743243243243239 	300.0000000000073 	1.230739245964995e-12 	101324.9999999956
0.5768268268268262 	300.0000000000035 	2.080215733747776e-12 	101324.9999999955
0.5793293293293288 	299.9999999999771 	1.182307459744658e-12 	101324.9999999956
0.5818318318318314 	299.9999999999593 	3.35509555804815e-12 	101324.9999999958
0.5843343343343338 	299.9999999999888 	1.19260753086995e-12 	101324.999999996
0.5868368368368363 	299.9999999999852 	2.697954234300884e-12 	101324.9999999958
0.5893393393393387 	299.9999999999698 	9.984247379226489e-13 	101324.9999999957
0.5918418418418413 	299.9999999999694 	2.523024721922862e-12 	101324.9999999958
0.5943443443443439 	300.000000000008 	1.692278837093067e-12 	101324.9999999956
0.5968468468468463 	300.000000000009 	2.765636709211449e-12 	101324.9999999954
0.5993493493493487 	300.0000000000232 	3.010915936601931e-12 	101324.9999999951
0.6018518518518514 	299.99999999999 	3.3938815359094e-12 	101324.9999999948
0.6043543543543537 	299.9999999999973 	3.002732065170409e-12 	101324.999999995
0.6068568568568564 	299.9999999999909 	3.032735893829821e-12 	101324.9999999952
0.6093593593593587 	299.9999999999633 	2.608054678759443e-12 	101324.9999999952
0.6118618618618614 	299.9999999999607 	2.228223543302834e-12 	101324.9999999952
0.6143643643643638 	300.0000000000057 	1.840810034369457e-12 	101324.9999999955
0.6168668668668662 	299.9999999999909 	2.149963256134935e-12 	101324.9999999958
0.6193693693693688 	299.9999999999768 	7.16397691969452e-13 	101324.9999999958
0.6218718718718714 	299.9999999999842 	1.627690743850709e-12 	101324.9999999957
0.6243743743743737 	299.999999999967 	7.514713523778425e-13 	101324.9999999955
0.6268768768768762 	299.9999999999606 	1.957542972105605e-12 	101324.9999999953
0.629379379379379 	299.9999999999714 	1.409206860327051e-12 	101324.9999999953
0.6318818818818812 	299.9999999999808 	2.004656566495438e-12 	101324.9999999952
0.6343843843843838 	300.0000000000063 	1.9360440039114e-12 	101324.999999995
0.6368868868868864 	299.9999999999893 	1.958883024847975e-12 	101324.9999999948
0.6393893893893888 	299.9999999999623 	2.524049627366904e-12 	101324.9999999951
0.6418918918918912 	300.0000000000026 	1.611127944101086e-12 	101324.9999999952
0.6443943943943939 	299.9999999999966 	4.346097129357054e-12 	101324.9999999951
0.6468968968968963 	299.9999999999896 	2.224534391184226e-12 	101324.9999999948
0.6493993993993988 	299.9999999999843 	4.71346462979766e-12 	101324.9999999949
0.6519019019019012 	299.9999999999828 	2.575075801444345e-12 	101324.9999999953
0.6544044044044038 	299.9999999999508 	3.54643622260547e-12 	101324.9999999955
0.6569069069069065 	299.99999999998 	1.274114631256416e-12 	101324.9999999956
0.6594094094094087 	299.9999999999771 	1.969133386616401e-12 	101324.9999999955
0.6619119119119113 	299.999999999973 	6.041781624601832e-13 	101324.9999999953
0.664414414414414 	299.9999999999993 	1.211530393732081e-12 	101324.9999999951
0.6669169169169162 	300.0000000000084 	8.167568150773315e-13 	101324.9999999951
0.6694194194194188 	299.9999999999921 	1.768175461399192e-12 	101324.9999999953
0.6719219219219214 	299.999999999964 	1.534048571527054e-12 	101324.9999999954
0.674424424424424 	299.9999999999884 	2.308300938926236e-12 	101324.9999999956
0.6769269269269262 	299.9999999999584 	1.985331578657045e-12 	101324.9999999956
0.679429429429429 	300.0000000000019 	2.213742197153856e-12 	101324.9999999955
0.6819319319319311 	299.9999999999874 	1.470964212663734e-12 	101324.9999999954
0.6844344344344341 	299.9999999999971 	1.685311920214387e-12 	101324.9999999954
0.686936936936936 	299.9999999999945 	7.406351941944686e-13 	101324.9999999952
0.6894394394394392 	299.9999999999919 	1.191130569319258e-12 	101324.9999999951
0.6919419419419413 	299.9999999999915 	7.358340889771514e-13 	101324.9999999949
0.694444444444444 	299.9999999999728 	8.17900345899819e-13 	101324.9999999948
0.6969469469469463 	299.9999999999632 	9.480851850544715e-13 	101324.9999999948
0.6994494494494489 	299.9999999999569 	7.652656274208906e-13 	101324.999999995
0.7019519519519515 	299.9999999999894 	1.411850300347194e-12 	101324.9999999949
0.7044544544544538 	299.9999999999752 	1.098649995443608e-12 	101324.9999999949
0.7069569569569564 	299.9999999999977 	1.812299824665026e-12 	101324.9999999952
0.7094594594594589 	299.9999999999811 	8.792276316601051e-13 	101324.9999999953
0.7119619619619615 	299.9999999999519 	1.62695834234005e-12 	101324.9999999952
0.7144644644644638 	299.9999999999719 	2.846547989118532e-13 	101324.9999999951
0.7169669669669665 	299.9999999999575 	7.164340392384169e-13 	101324.9999999949
0.7194694694694688 	299.9999999999955 	2.386888885685319e-13 	101324.9999999948
0.7219719719719715 	299.9999999999954 	1.659161645181614e-13 	101324.9999999948
0.7244744744744737 	300.0000000000006 	5.892497427872894e-13 	101324.9999999948
0.7269769769769764 	299.9999999999955 	1.127305472177502e-12 	101324.9999999948
0.7294794794794791 	299.9999999999895 	1.283410286317585e-12 	101324.9999999948
0.7319819819819813 	299.9999999999891 	1.490866919253596e-12 	101324.9999999947
0.7344844844844839 	299.9999999999597 	1.037242301132202e-12 	101324.9999999947
0.7369869869869864 	299.999999999977 	4.046239219822382e-13 	101324.9999999948
0.739489489489489 	299.999999999971 	1.034032871680258e-12 	101324.9999999947
0.7419919919919914 	299.9999999999654 	1.296225028620584e-12 	101324.9999999948
0.7444944944944939 	299.9999999999872 	1.176343623754082e-12 	101324.999999995
0.7469969969969963 	299.9999999999852 	2.190161402230047e-12 	101324.9999999953
0.7494994994994989 	299.9999999999699 	2.264802131805132e-12 	101324.9999999955
0.7520020020020015 	299.9999999999847 	1.860195133678392e-12 	101324.9999999954
0.7545045045045039 	299.9999999999841 	2.448411756460262e-12 	101324.9999999954
0.7570070070070062 	299.9999999999712 	7.203053322190442e-13 	101324.9999999953
0.7595095095095092 	299.9999999999644 	1.428159941206792e-12 	101324.9999999953
0.7620120120120112 	300.0000000000015 	5.37303055125372e-13 	101324.9999999954
0.7645145145145138 	299.9999999999939 	5.997544664822317e-13 	101324.9999999953
0.7670170170170165 	299.9999999999665 	1.337189159610378e-12 	101324.9999999952
0.7695195195195191 	299.9999999999601 	1.345322155118165e-12 	101324.9999999951
0.7720220220220213 	299.9999999999678 	1.73880228328422e-12 	101324.9999999949
0.7745245245245239 	299.9999999999699 	1.542780355869104e-12 	101324.9999999948
0.7770270270270263 	299.9999999999855 	7.746229012812189e-13 	101324.9999999948
0.779529529529529 	299.9999999999884 	1.433575580800841e-12 	101324.9999999948
0.7820320320320313 	299.9999999999838 	5.046791535120388e-13 	101324.9999999951
0.784534534534534 	299.9999999999956 	6.729066151759025e-13 	101324.9999999954
0.7870370370370364 	299.9999999999941 	1.164037174085846e-12 	101324.9999999956
0.7895395395395389 	299.9999999999887 	1.225216060378266e-12 	101324.9999999955
0.7920420420420413 	299.9999999999886 	1.636810804732312e-12 	101324.9999999956
0.794544544544544 	299.9999999999933 	2.191286602394747e-12 	101324.9999999954
0.7970470470470463 	300.0000000000015 	1.933861598961787e-12 	101324.999999995
0.799549549549549 	299.9999999999907 	1.968189383553577e-12 	101324.9999999944
0.8020520520520515 	299.9999999999939 	1.711056860134137e-12 	101324.9999999939
0.8045545545545539 	299.9999999999718 	2.384760186179293e-12 	101324.9999999932
0.8070570570570563 	299.9999999999904 	8.36685015176147e-12 	101324.9999999912
0.8095595595595589 	299.9999999999736 	2.02606213341624e-11 	101324.9999999863
0.8120620620620614 	299.9999999999504 	4.900422157616895e-11 	101324.999999975
0.8145645645645638 	299.9999999999579 	1.155786062382455e-10 	101324.9999999495
0.8170670670670666 	299.9999999999043 	2.645154076697848e-10 	101324.9999998915
0.8195695695695689 	299.9999999997867 	5.99519978001454e-10 	101324.9999997615
0.8220720720720714 	299.999999999527 	1.338671498194564e-09 	101324.9999994729
0.8245745745745739 	299.9999999990221 	2.963234733747085e-09 	101324.9999988398
0.8270770770770765 	299.9999999978465 	6.484190104748225e-09 	101324.9999974651
0.8295795795795788 	299.9999999953375 	1.403969348697685e-08 	101324.9999945125
0.8320820820820815 	299.999999990069 	3.006534929313676e-08 	101324.9999882419
0.834584584584584 	299.9999999789246 	6.367422505534063e-08 	101324.9999750765
0.8370870870870865 	299.9999999557958 	1.333348453760702e-07 	101324.9999477554
0.8395895895895891 	299.999999908386 	2.760108267810486e-07 	101324.9998917292
0.8420920920920915 	299.9999998123909 	5.64694542883872e-07 	101324.9997782304
0.844594594594594 	299.9999996203143 	1.141557441539485e-06 	101324.99955115
0.8470970970970964 	299.9999992409066 	2.279638517672528e-06 	101324.9991025852
0.8495995995995991 	299.9999985011923 	4.495711298446454e-06 	101324.9982280273
0.8521021021021015 	299.9999970781731 	8.753227864824332e-06 	101324.9965456577
0.8546046046046039 	299.9999943782306 	1.682058337657592e-05 	101324.9933536406
0.8571071071071066 	299.9999893276739 	3.189143625363076e-05 	101324.9873826006
0.8596096096096089 	299.9999800169325 	5.963695639560319e-05 	101324.9763749975
0.8621121121121116 	299.9999631091093 	0.0001099520315909246 	101324.9563857657
0.8646146146146139 	299.9999328791541 	0.0001997856649358609 	101324.9206464707
0.8671171171171166 	299.9998796925493 	0.0003576127809355893 	101324.8577669115
0.8696196196196189 	299.9997876633419 	0.0006303036502522976 	101324.748966135
0.8721221221221216 	299.9996311582745 	0.001093350669214767 	101324.5639397312
0.874624624624624 	299.9993697606517 	0.001865559775863931 	101324.2549062489
0.8771271271271264 	299.9989413088011 	0.003129292929253128 	101323.7483776095
0.879629629629629 	299.9982527426593 	0.005156980282068801 	101322.9343390554
0.8821321321321317 	299.9971688150266 	0.008343654001341854 	101321.6529065029
0.8846346346346339 	299.9954993581493 	0.01324338560781145 	101319.6792795612
0.8871371371371364 	299.9929868453687 	0.02060444414351472 	101316.7090502498
0.8896396396396391 	299.9892975066972 	0.03139359318402617 	101312.3477256358
0.8921421421421414 	299.9840211777194 	0.04679444178360034 	101306.1105935244
0.8946446446446441 	299.9766870841299 	0.0681590455814855 	101297.4414520753
0.8971471471471464 	299.966804271875 	0.09688784356550471 	101285.7604976362
0.8996496496496489 	299.9539353853859 	0.1342133962586964 	101270.5516357538
0.9021521521521517 	299.9378096764773 	0.1808719701113942 	101251.4961096399
0.9046546546546541 	299.9184741627741 	0.2366675327337806 	101228.6510609025
0.9071571571571564 	299.8964698650596 	0.2999703009601139 	101202.6574345788
0.9096596596596589 	299.8729968998904 	0.3672820511516851 	101174.9343230356
0.9121621621621616 	299.8499612873239 	0.4331772184578949 	101147.7332867032
0.9146646646646639 	299.8297417859461 	0.490977299619957 	101123.8622056879
0.9171671671671666 	299.8146691728467 	0.534161603677212 	101106.0704964797
0.9196696696696689 	299.8064066269198 	0.558079646439504 	101096.3183737262
0.9221721721721714 	299.8054276490628 	0.5614211695687332 	101095.1618660742
0.9246746746746741 	299.8107375524465 	0.5470005789792247 	101101.4291779873
0.9271771771771765 	299.8199479701179 	0.5215664133104341 	101112.303552356
0.9296796796796791 	299.8297321515219 	0.4944580788969591 	101123.8534458642
0.9321821821821816 	299.8367180942964 	0.4749574622583149 	101132.1005734556
0.9346846846846838 	299.8387857516816 	0.4688654265536544 	101134.5422470976
0.9371871871871866 	299.8359959107243 	0.4760952951908147 	101131.2487147129
0.9396896896896891 	299.8304782820692 	0.4908830564208146 	101124.7333286849
0.9421921921921914 	299.8253996221134 	0.5046180570210691 	101118.7378524571
0.9446946946946939 	299.8234102410815 	0.5101658431689823 	101116.3889125355
0.9471971971971965 	299.8251947795436 	0.5056300928842165 	101118.4952320994
0.9496996996996991 	299.82917498095 	0.4951476268095896 	101123.1949838863
0.9522022022022016 	299.8326044479242 	0.4859997501856095 	101127.2437684898
0.9547047047047038 	299.833376740213 	0.4837526914884231 	101128.1560599529
0.9572072072072064 	299.8314488223908 	0.488590051638314 	101125.8800737118
0.9597097097097093 	299.8287356804444 	0.4955786192091587 	101122.6761169776
0.9622122122122114 	299.8275263723169 	0.4987812204154387 	101121.2482305934
0.964714714714714 	299.8286505444115 	0.4960090294246461 	101122.5751872194
0.9672172172172167 	299.8308949827814 	0.4902948405008052 	101125.2253292469
0.969719719719719 	299.8322226212734 	0.4868133876634841 	101126.7931277405
0.9722222222222214 	299.8316650962014 	0.4880596042468467 	101126.1352205039
0.9747247247247239 	299.8301429440202 	0.4917908542470055 	101124.3375987087
0.9772272272272267 	299.8293998067118 	0.4936654800959532 	101123.4599139721
0.9797297297297292 	299.830173607719 	0.4918029004935495 	101124.3734497076
0.9822322322322313 	299.8315208666648 	0.4884653843298379 	101125.9642761915
0.9847347347347344 	299.8320011862862 	0.4871801602562739 	101126.5315122575
0.9872372372372363 	299.8313277676181 	0.488699290054427 	101125.7367413215
0.9897397397397389 	299.830580433666 	0.4904644904590931 	101124.8538907827
0.9922422422422417 	299.8307790454087 	0.4900059667801046 	101125.0881307318
0.9947447447447441 	299.8316490018834 	0.4879184097941224 	101126.1154136621
0.9972472472472468 	299.8321106150626 	0.4867375052103769 	101126.6606040781
0.999749749749749 	299.8317622434521 	0.4874504988947647 	101126.2494274589
1.002252252252252 	299.8313326260776 	0.4884030918034469 	101125.7420030662
1.004754754754754 	299.8315545753363 	0.4878806767991879 	101126.0036888622
1.007257257257256 	299.8321439863296 	0.4864845408608879 	101126.699714093
1.009759759759759 	299.8323341305846 	0.4859570407122561 	101126.9245832728
1.012262262262261 	299.8320582438301 	0.4864939466734303 	101126.5986633423
1.014764764764764 	299.8319571109921 	0.4866793971433077 	101126.4789190041
1.017267267267267 	299.8323033681197 	0.485872786848666 	101126.8878913215
1.019769769769769 	299.8326259828049 	0.4850844000667481 	101127.2688911089
1.022272272272272 	299.8325666935733 	0.4851203415645137 	101127.1987927239
1.024774774774774 	299.8324489848995 	0.4853103622536155 	101127.0598693636
1.027277277277277 	299.8326407749111 	0.4848501810369263 	101127.2861918989
1.029779779779779 	299.8329213801728 	0.484178648797699 	101127.6174534147
1.032282282282282 	299.8329526292447 	0.4840187741498471 	101127.6544521032
1.034784784784784 	299.8328950833606 	0.4840632968263944 	101127.5864438345
1.037287287287286 	299.8330418614302 	0.4836977767109264 	101127.7595912494
1.039789789789789 	299.8332593110423 	0.48317097305621 	101128.0164339893
1.042292292292291 	299.8333045211025 	0.4829841198328531 	101128.0698736696
1.044794794794794 	299.833305395988 	0.4829014555159744 	101128.0707234417
1.047297297297296 	299.8334530365756 	0.4825333735402214 	101128.244983785
1.049799799799799 	299.8336145093321 	0.4821244082448107 	101128.4358190207
1.052302302302302 	299.8336528901203 	0.4819530876214523 	101128.4809393121
1.054804804804804 	299.8337066968357 	0.4817637158256269 	101128.5443657883
1.057307307307306 	299.8338571825784 	0.4813889704866773 	101128.7222932016
1.059809809809809 	299.833967046377 	0.4810818950361438 	101128.8518836735
1.062312312312312 	299.8340106681621 	0.4809022621628516 	101128.9032267042
1.064814814814814 	299.8341108992388 	0.4806247395094929 	101129.021679986
1.067317317317317 	299.834242952207 	0.4802836794304627 	101129.1776004712
1.069819819819819 	299.8343151567414 	0.4800475124694268 	101129.2627520233
1.072322322322321 	299.8343884847874 	0.4798155317957044 	101129.3493531902
1.074824824824824 	299.8345097812361 	0.4794987977192891 	101129.4926113276
1.077327327327327 	299.8346050898532 	0.4792226752857673 	101129.605021632
1.079829829829829 	299.8346756102255 	0.4789924833126368 	101129.6882280466
1.082332332332332 	299.8347814344226 	0.4787047136412707 	101129.8132909153
1.084834834834834 	299.8348855829153 	0.4784161214810778 	101129.9360901407
1.087337337337337 	299.8349620175354 	0.4781737788285769 	101130.026221191
1.089839839839839 	299.8350582424043 	0.477901736365219 	101130.1400186102
1.092342342342342 	299.8351626924502 	0.4776146842953382 	101130.2632733663
1.094844844844844 	299.8352449175898 	0.477362629259024 	101130.3602571737
1.097347347347347 	299.8353374289752 	0.4770967031789294 	101130.4695423149
1.099849849849849 	299.8354393702169 	0.4768148014399405 	101130.5900106185
1.102352352352352 	299.8355252065815 	0.47655735849033 	101130.6911563144
1.104854854854854 	299.8356171273567 	0.4762927308518119 	101130.7995543009
1.107357357357357 	299.8357163161658 	0.4760159365366451 	101130.9168389276
1.109859859859859 	299.8358037728253 	0.4757561835755889 	101131.0200375269
1.112362362362362 	299.8358962691952 	0.475491020433882 	101131.1290985642
1.114864864864865 	299.8359932179127 	0.4752185253522281 	101131.2435817142
1.117367367367367 	299.8360814788708 	0.4749579436757328 	101131.3478440479
1.119869869869869 	299.8361748055075 	0.4746919777135079 	101131.4579334911
1.122372372372372 	299.8362696347943 	0.474423325703461 	101131.5698424942
1.124874874874874 	299.8363585974127 	0.4741624197353483 	101131.674979939
1.127377377377377 	299.8364526096651 	0.4738958338530328 	101131.7858401116
1.129879879879879 	299.8365455582295 	0.4736300023940651 	101131.8954627706
1.132382382382382 	299.836635555661 	0.4733685000443968 	101132.001804131
1.134884884884884 	299.8367294427635 	0.4731027798569112 	101132.1127178543
1.137387387387387 	299.8368208571418 	0.4728397140038132 	101132.2205920581
1.139889889889889 	299.8369122388309 	0.4725773858599168 	101132.328373064
1.142392392392392 	299.837005496426 	0.4723130012210763 	101132.4384127321
1.144894894894894 	299.837096230994 	0.4720516394317344 	101132.5455004687
1.147397397397397 	299.8371884961741 	0.4717891422649469 	101132.654403916
1.149899899899899 	299.8372805170793 	0.4715266755429784 	101132.7630287811
1.152402402402402 	299.8373714558742 	0.4712658659255239 	101132.8704141831
1.154904904904904 	299.8374638908409 	0.4710042367795537 	101132.9794337523
1.157407407407407 	299.837555049416 	0.4707439907539051 	101133.0869685726
1.159909909909909 	299.8376466143897 	0.4704835473684184 	101133.1951096391
1.162412412412412 	299.8377383238824 	0.4702230807582761 	101133.3033585558
1.164914914914914 	299.8378293616345 	0.4699637242288374 	101133.4108162499
1.167417417417417 	299.8379211295298 	0.4697042906333583 	101133.5191258883
1.169919919919919 	299.8380121510995 	0.4694460031558112 	101133.6266083766
1.172422422422422 	299.8381035633132 	0.4691878548537111 	101133.7344624377
1.174924924924925 	299.8381949453801 	0.4689299291549953 	101133.842175795
1.177427427427427 	299.8382860314013 	0.4686727612433292 	101133.9496135287
1.179929929929929 	299.8383772845184 	0.4684157422172988 	101134.057369381
1.182432432432432 	299.8384681558805 	0.4681596253184504 	101134.1646521414
1.184934934934934 	299.8385593769819 	0.4679041923107035 	101134.2722485998
1.187437437437437 	299.8386504358081 	0.4676492380574627 	101134.3795725681
1.189939939939939 	299.8387413766559 	0.4673946915903977 	101134.4869650219
1.192442442442442 	299.8388321271958 	0.4671408422106256 	101134.5942856972
1.194944944944944 	299.8389230533253 	0.4668877070315156 	101134.70146139
1.197447447447447 	299.8390141139323 	0.4666353245089503 	101134.8086979694
1.199949949949949 	299.8391049815306 	0.4663840352661622 	101134.9157588748
1.202452452452452 	299.8391957409691 	0.4661332911891416 	101135.0229194474
1.204954954954955 	299.8392862961466 	0.4658833689556214 	101135.1299414965
1.207457457457457 	299.8393770850746 	0.4656345658644149 	101135.23702152
1.20995995995996 	299.8394678980891 	0.4653866765752731 	101135.3439947174
1.212462462462462 	299.8395586829079 	0.4651390722790503 	101135.4509589922
1.214964964964964 	299.8396495014562 	0.4648937713515628 	101135.5578712015
1.217467467467467 	299.8397402002078 	0.464646925698701 	101135.6647732051
1.219969969969969 	299.8398306962002 	0.4644063338974641 	101135.7716757303
1.222472472472472 	299.8399213777096 	0.4641526796113649 	101135.8785566262
1.224974974974975 	299.8400121885292 	0.4639374259283447 	101135.985493503
1.227477477477477 	299.8401030056224 	0.4636193646794993 	101136.0923379101
1.229979979979979 	299.8401940828381 	0.4635700498722236 	101136.1995038854
1.232482482482482 	299.8402848505986 	0.462396292119555 	101136.3059285992
1.234984984984984 	299.8403782445519 	0.4639754022050306 	101136.4167195248
1.237487487487487 	299.840468890486 	0.4605006051645064 	101136.5203423523
1.239989989989989 	299.8405527166161 	0.4635503452519116 	101136.6240007305
1.242492492492492 	299.8406566594782 	0.4622772196517153 	101136.7368027795
1.244994994994994 	299.8399814703225 	0.4585612127690776 	101136.8236535388
1.247497497497497 	299.4032970872624 	0.4637764431904129 	101136.9373755822
1.249999999999999 	303.5094710464737 	0.4612708539767061 	101137.0470678347
