-1.25 	300 	0.07300477039275502 	101354.3892626146
-1.247497497497497 	300.0286039110346 	0.08138489070962708 	101359.9657430349
-1.244994994994995 	300.0333358391704 	0.09649104082007162 	101364.4087492074
-1.242492492492492 	300.0366413598387 	0.1065881545151896 	101368.3208859397
-1.23998998998999 	300.0392824198244 	0.1134195862925522 	101371.4466074033
-1.237487487487487 	300.0411428153151 	0.1189434203892086 	101373.6466398412
-1.234984984984985 	300.0422192918317 	0.1220907952182268 	101374.9197887608
-1.232482482482482 	300.0426070417037 	0.1231530312557287 	101375.3783686372
-1.22997997997998 	300.0422261219928 	0.1220094457606414 	101374.9278981188
-1.227477477477477 	300.0410098511977 	0.1185324433778729 	101373.4896470544
-1.224974974974975 	300.0390086356654 	0.1127627106804767 	101371.1231524838
-1.222472472472472 	300.0362777118393 	0.104856978420297 	101367.8937399158
-1.21996996996997 	300.0328580710496 	0.09494983448458486 	101363.8499813973
-1.217467467467467 	300.0288313756907 	0.08332811445934603 	101359.0884814334
-1.214964964964965 	300.0243181176203 	0.0702770977941318 	101353.7518001013
-1.212462462462462 	300.019391843523 	0.05601959661183521 	101347.92696408
-1.20995995995996 	300.014118265705 	0.0407876501585998 	101341.6917410304
-1.207457457457457 	300.0086045402865 	0.02482334432949874 	101335.1728651469
-1.204954954954955 	300.0029330102172 	0.008445604314944209 	101328.4677076635
-1.202452452452452 	299.9971836196921 	0.008630629937316083 	101321.6708105276
-1.19994994994995 	299.9914744205307 	0.02467553789813987 	101314.9217642759
-1.197447447447447 	299.9859222435901 	0.04073455244970339 	101308.358615621
-1.194944944944945 	299.9806098389378 	0.05611647127480462 	101302.079178843
-1.192442442442442 	299.9756097060044 	0.07055096024975652 	101296.1691279132
-1.18993993993994 	299.9710562392451 	0.08368483165820226 	101290.787186075
-1.187437437437437 	299.9670776816939 	0.09522094547890633 	101286.0849336452
-1.184934934934935 	299.9637304080712 	0.1048882837560902 	101282.1288866933
-1.182432432432432 	299.9610542341241 	0.1125865819796422 	101278.9660531463
-1.17992992992993 	299.9590912624712 	0.1182489913896764 	101276.6461428366
-1.177427427427427 	299.9578503643932 	0.1218181874921469 	101275.1795353012
-1.174924924924925 	299.9573737366344 	0.1231961799869766 	101274.6162303725
-1.172422422422422 	299.9577159073182 	0.1222162020275666 	101275.0205620005
-1.16991991991992 	299.9588715627201 	0.1188675295761211 	101276.3862109628
-1.167417417417417 	299.960808251301 	0.1132452328096911 	101278.6749254419
-1.164914914914915 	299.9634917235624 	0.1055414710299551 	101281.8462221234
-1.162412412412412 	299.966831308755 	0.09593507553589266 	101285.7930557705
-1.15990990990991 	299.9707456291911 	0.08457371066471503 	101290.4192760224
-1.157407407407407 	299.9751746989327 	0.07172295739036104 	101295.6540524152
-1.154904904904904 	299.9800522278635 	0.05756706758024432 	101301.4191292323
-1.152402402402403 	299.98530716279 	0.04238173785082598 	101307.63053122
-1.1498998998999 	299.9908373460046 	0.02650217436470291 	101314.1676108011
-1.147397397397397 	299.9964790702509 	0.01016017071899696 	101320.8368606251
-1.144894894894895 	300.002142823622 	0.008667281487803156 	101327.5324648095
-1.142392392392392 	300.0078019269799 	0.02263920633546567 	101334.222917562
-1.13988988988989 	300.0133698872285 	0.03872030168554325 	101340.8059099023
-1.137387387387387 	300.0187268485091 	0.05417284282896345 	101347.1397565556
-1.134884884884885 	300.0237394658997 	0.06864357717804676 	101353.0667330092
-1.132382382382382 	300.0282926534163 	0.08181278878326745 	101358.4506949932
-1.12987987987988 	300.0323083651282 	0.09342565229268179 	101363.1993096793
-1.127377377377377 	300.0357335690562 	0.1033512994398394 	101367.2497594421
-1.124874874874875 	300.038523969858 	0.1114227765158639 	101370.5496363096
-1.122372372372372 	300.0406284011344 	0.1174860595723739 	101373.0383695315
-1.11986986986987 	300.0419887389864 	0.1214033724349991 	101374.6471817619
-1.117367367367367 	300.0425601458922 	0.1230262619142915 	101375.3229934127
-1.114864864864865 	300.0423174055666 	0.1223122453574311 	101375.0359402473
-1.112362362362362 	300.0412652209098 	0.1192733259930268 	101373.7917244588
-1.10985985985986 	300.0394446134172 	0.1140030163239106 	101371.6388036638
-1.107357357357357 	300.0369031756949 	0.1066492156290574 	101368.6334537851
-1.104854854854855 	300.0336819525234 	0.09733805628655981 	101364.8242931194
-1.102352352352353 	300.0298373175746 	0.08623959369870436 	101360.2780364908
-1.09984984984985 	300.0254393503702 	0.07353051285331703 	101355.0776444431
-1.097347347347347 	300.0205750866132 	0.05946676868448593 	101349.3260729863
-1.094844844844845 	300.0153538730378 	0.04436171127578963 	101343.1527046474
-1.092342342342342 	300.0098751444507 	0.02850330381677917 	101336.6751357336
-1.08983983983984 	300.0042310210248 	0.01220316877447216 	101330.0023071909
-1.087337337337337 	299.9985150475717 	0.0087310940430111 	101323.2448576896
-1.084834834834835 	299.9927945934194 	0.02090865187476128 	101316.482417643
-1.082332332332332 	299.9871686167103 	0.03715701722226336 	101309.831975125
-1.07982982982983 	299.981770428304 	0.05274643110371921 	101303.45108307
-1.077327327327327 	299.9767145993929 	0.0673268744834902 	101297.4751169229
-1.074824824824825 	299.9721096261528 	0.08063414065972135 	101292.032269095
-1.072322322322323 	299.9680348303247 	0.09245923211772206 	101287.2162331205
-1.06981981981982 	299.9645364315949 	0.1025688561652429 	101283.0815549343
-1.067317317317317 	299.9616728812293 	0.1108093916549787 	101279.6972681777
-1.064814814814815 	299.9595135099008 	0.1170319122797038 	101277.1452263899
-1.062312312312312 	299.9581100443029 	0.1210801999291059 	101275.4864924111
-1.05980980980981 	299.9575088362015 	0.1228476588208242 	101274.7759498424
-1.057307307307307 	299.9577165133491 	0.1222643967509152 	101275.0213555899
-1.054804804804805 	299.9587013166616 	0.1193660519681443 	101276.1851025255
-1.052302302302302 	299.9604477605903 	0.1142868837755514 	101278.248964828
-1.0497997997998 	299.9629311666905 	0.1071584183766229 	101281.1838230761
-1.047297297297297 	299.9660859864125 	0.09805967804922353 	101284.9122607857
-1.044794794794795 	299.9698604500006 	0.08711429999017535 	101289.373155363
-1.042292292292292 	299.9741828142604 	0.07458190882736002 	101294.4817761535
-1.03978978978979 	299.9789588655414 	0.06073387998060108 	101300.1268404445
-1.037287287287287 	299.9841204896093 	0.04587236860590993 	101306.227907625
-1.034784784784785 	299.9895684420554 	0.03021548468762254 	101312.6677045635
-1.032282282282283 	299.995162391435 	0.01397329945660269 	101319.2804000114
-1.02977977977978 	300.0008149131277 	0.008387426934423991 	101325.9626603127
-1.027277277277277 	300.0064787684375 	0.01882126360446018 	101332.6586283175
-1.024774774774775 	300.0120560132746 	0.03492313338064412 	101339.2525415484
-1.022272272272272 	300.017415077971 	0.05041228203400289 	101345.5887916885
-1.01976976976977 	300.0224519084927 	0.06495966959352048 	101351.5443204123
-1.017267267267267 	300.027092014322 	0.0783547787429852 	101357.0310086935
-1.014764764764765 	300.0312564741594 	0.09035338407683598 	101361.9554455095
-1.012262262262262 	300.0348618345099 	0.1007854892048446 	101366.218915996
-1.00975975975976 	300.0378360194148 	0.1094081531972179 	101369.7361085047
-1.007257257257257 	300.0401100522637 	0.1159864665061463 	101372.4253944207
-1.004754754754755 	300.0416340268419 	0.1203966044757709 	101374.2277235165
-1.002252252252252 	300.0423790725971 	0.1225150089045349 	101375.1088771655
-0.9997497497497498 	300.0423266830833 	0.122360141893014 	101375.0469397512
-0.9972472472472473 	300.0414861355121 	0.1199471423672521 	101374.0529904051
-0.9947447447447449 	300.0398873656574 	0.1152790485099927 	101372.1624158671
-0.9922422422422421 	300.0375455463144 	0.1084755159438993 	101369.3931253416
-0.9897397397397399 	300.034493669161 	0.0996438116701249 	101365.7841863766
-0.9872372372372376 	300.0307912409785 	0.08895023857288316 	101361.4060785482
-0.9847347347347346 	300.0265118750335 	0.07662651237037583 	101356.3458779063
-0.9822322322322323 	300.0217514511045 	0.06287691543789642 	101350.7170530321
-0.9797297297297296 	300.0166087011156 	0.04798089413093195 	101344.6363933951
-0.9772272272272275 	300.0111572605949 	0.03222681300395789 	101338.1910051235
-0.9747247247247248 	300.0055073518806 	0.01590994566509277 	101331.5112912467
-0.9722222222222224 	299.9997808435115 	0.008052085028432668 	101324.7413032786
-0.9697197197197196 	299.9940634371396 	0.01725277850359421 	101317.9824089786
-0.9672172172172175 	299.9884524386316 	0.03349111912872719 	101311.3495983359
-0.9647147147147147 	299.9830414654152 	0.04911918953123835 	101304.9535066684
-0.9622122122122124 	299.9779157164181 	0.06389288173460084 	101298.8948641878
-0.9597097097097099 	299.9731895825307 	0.07753856313074016 	101293.3087533465
-0.9572072072072073 	299.9689623228023 	0.08980787755633748 	101288.3124902744
-0.9547047047047047 	299.9653037185147 	0.1003548589320599 	101283.988443196
-0.9522022022022023 	299.9622964222609 	0.1089937231639593 	101280.4342232177
-0.9496996996996998 	299.9599998807142 	0.1156223905314662 	101277.7200989008
-0.9471971971971973 	299.9584536246533 	0.1200845222451233 	101275.8926055801
-0.9446946946946947 	299.9576955894589 	0.1223398286449677 	101274.9967102991
-0.9421921921921923 	299.9577265209722 	0.1222709039998578 	101275.0332545533
-0.93968968968969 	299.9585258649714 	0.1198802054345499 	101275.977808104
-0.9371871871871872 	299.9601036166969 	0.1153217546135263 	101277.8423227365
-0.9346846846846848 	299.9624242143623 	0.1086480350809262 	101280.5847665517
-0.9321821821821823 	299.9654233862743 	0.09999678303257419 	101284.1292247379
-0.9296796796796799 	299.9690445246751 	0.08949324571908025 	101288.4088955359
-0.9271771771771771 	299.9732235398803 	0.07734273136956471 	101293.3480248218
-0.9246746746746748 	299.9778850196896 	0.0638305226721001 	101298.8576309244
-0.9221721721721724 	299.9829788707142 	0.04917994448219981 	101304.8785422775
-0.9196696696696698 	299.9883748052905 	0.03366572439515154 	101311.2567721071
-0.9171671671671672 	299.9939363012963 	0.01754515900305173 	101317.8310558264
-0.9146646646646649 	299.9995546726711 	0.007234484287206333 	101324.4728473763
-0.9121621621621623 	300.0051694202789 	0.01498413085179366 	101331.1107000601
-0.9096596596596597 	300.0107118829321 	0.03102726193822249 	101337.6634280169
-0.9071571571571573 	300.0160842900684 	0.04655341071199154 	101344.0153581269
-0.9046546546546547 	300.021186908165 	0.06128141443004109 	101350.0486218453
-0.9021521521521524 	300.0259258681638 	0.07498990855920162 	101355.6521193042
-0.8996496496496498 	300.0302080177412 	0.08733811741718371 	101360.7156796794
-0.8971471471471473 	300.0339486518535 	0.09817082134826771 	101365.1390902905
-0.894644644644645 	300.0370755956329 	0.1072056554950988 	101368.8368819576
-0.892142142142142 	300.0395234842625 	0.1142558222051285 	101371.7317641499
-0.8896396396396397 	300.0412362609849 	0.1192126125767831 	101373.7573485288
-0.8871371371371374 	300.0421762280918 	0.1219031558277592 	101374.8690227194
-0.8846346346346349 	300.0423229263535 	0.1223400425218165 	101375.042542688
-0.8821321321321324 	300.041679674248 	0.120481412499233 	101374.2818760592
-0.8796296296296297 	300.0402663647192 	0.116368997286739 	101372.6106346832
-0.8771271271271271 	300.0381071717553 	0.1101301126083051 	101370.057308464
-0.8746246246246248 	300.0352359326442 	0.1018241371420958 	101366.6619643757
-0.8721221221221224 	300.0317055005921 	0.0916295556200518 	101362.48722589
-0.8696196196196196 	300.0275770752484 	0.07970078353845474 	101357.6054550844
-0.8671171171171175 	300.022929730046 	0.06624896768205649 	101352.1102973568
-0.8646146146146148 	300.0178564693955 	0.05158918619335501 	101346.1117452584
-0.8621121121121121 	300.012457256029 	0.03597522741352968 	101339.7280408884
-0.8596096096096097 	300.0068462434839 	0.01976757987398457 	101333.0942406197
-0.857107107107107 	300.0011435496644 	0.006444194218660752 	101326.352318593
-0.8546046046046049 	299.9954240535224 	0.01332163664083799 	101319.5908882307
-0.8521021021021022 	299.9897704371727 	0.0296367832773127 	101312.9076311102
-0.8495995995995997 	299.9842844172875 	0.04548168761067718 	101306.4227683777
-0.8470970970970974 	299.9790768786324 	0.06052268139389461 	101300.2673882209
-0.8445945945945946 	299.9742573777222 	0.07445109982621385 	101294.5708531346
-0.8420920920920922 	299.9699182357282 	0.08702830906789395 	101289.4423249651
-0.8395895895895897 	299.9661361488382 	0.09791478974348231 	101284.9723022906
-0.8370870870870872 	299.9629921165709 	0.106991248486889 	101281.2564800794
-0.8345845845845846 	299.9605461580898 	0.114064049820102 	101278.3657558985
-0.8320820820820823 	299.9588444242201 	0.1189833591613327 	101276.3545025779
-0.8295795795795798 	299.9579140219942 	0.1217048007110461 	101275.2548990412
-0.8270770770770772 	299.9577639229049 	0.1221146643024437 	101275.077493669
-0.8245745745745746 	299.9583899550788 	0.1202712869462233 	101275.8172584494
-0.8220720720720721 	299.959790168321 	0.1162265310320522 	101277.4719568562
-0.8195695695695699 	299.9619304259784 	0.1100544831636209 	101280.0012428468
-0.817067067067067 	299.9647692566616 	0.1018596208321983 	101283.3561998419
-0.8145645645645651 	299.9682528756006 	0.09175572614912131 	101287.4733007899
-0.8120620620620621 	299.9723166024713 	0.07998363400491711 	101292.2761490069
-0.8095595595595597 	299.9768782350596 	0.06678842207695017 	101297.6677021454
-0.8070570570570572 	299.9818565688839 	0.05245607100440906 	101303.5519989071
-0.8045545545545546 	299.9871302281846 	0.03723424755683913 	101309.7856475886
-0.8020520520520523 	299.9926000743607 	0.02137796360941426 	101316.25150385
-0.7995495495495494 	299.9981688071803 	0.005243806479631762 	101322.8345506825
-0.7970470470470474 	300.0037683967228 	0.01099599850614903 	101329.4544029549
-0.7945445445445446 	300.0093296343883 	0.02701870484454896 	101336.0292312346
-0.7920420420420423 	300.0147435312367 	0.0426583827814061 	101342.4301570268
-0.7895395395395397 	300.0199038874784 	0.05758472133933412 	101348.5316142605
-0.7870370370370371 	300.0247240449875 	0.07151967451673436 	101354.2310641037
-0.7845345345345348 	300.0291189559182 	0.08420162018821592 	101359.4279115265
-0.7820320320320323 	300.0329999416834 	0.09541539703753657 	101364.0172397061
-0.7795295295295296 	300.0362806109224 	0.1048752027029678 	101367.8968015894
-0.7770270270270272 	300.038883588586 	0.112405614410294 	101370.9750551299
-0.7745245245245247 	300.0407628310037 	0.1178555370631977 	101373.1974979465
-0.7720220220220222 	300.0418912695522 	0.1210934058489809 	101374.5320597416
-0.7695195195195199 	300.0422455999454 	0.1221115682523127 	101374.9511324205
-0.767017017017017 	300.041816710732 	0.1208678974444773 	101374.4439536673
-0.7645145145145147 	300.0406115634355 	0.1173809899978406 	101373.0188712545
-0.7620120120120122 	300.0386460949148 	0.1116946343593149 	101370.6946463093
-0.7595095095095097 	300.0359524025903 	0.1038872604698763 	101367.5092560257
-0.7570070070070072 	300.0325730910117 	0.09410154423644107 	101363.5131755017
-0.7545045045045048 	300.0285539182825 	0.08248973208034915 	101358.7605864268
-0.7520020020020022 	300.023975480828 	0.06927957198019005 	101353.3468501313
-0.7494994994994997 	300.0189486230018 	0.05475100545767751 	101347.403106988
-0.7469969969969972 	300.0135944979895 	0.0392760166486655 	101341.0726684992
-0.7444944944944945 	300.0080423069712 	0.02323581775144017 	101334.5083264356
-0.7419919919919924 	300.0024038671428 	0.006910197594812634 	101327.8423290272
-0.7394894894894897 	299.9967327112841 	0.01072579642854095 	101321.1379557628
-0.7369869869869872 	299.9910731268484 	0.02587744768681724 	101314.447569544
-0.7344844844844846 	299.9855164133471 	0.04192602754648306 	101307.8790995949
-0.7319819819819822 	299.9801976197405 	0.05727974157651029 	101301.5921293828
-0.7294794794794797 	299.975263700866 	0.07152858742383916 	101295.7603346118
-0.7269769769769773 	299.9708323496651 	0.08433853074413049 	101290.5227577953
-0.7244744744744747 	299.9669741308848 	0.09549944957448971 	101285.9627238477
-0.721971971971972 	299.9637277393935 	0.1048893459458165 	101282.1259257713
-0.7194694694694695 	299.961126665867 	0.1124036882192194 	101279.0518527251
-0.7169669669669674 	299.9592185311109 	0.1179029867770459 	101276.7967051257
-0.7144644644644647 	299.9580671040238 	0.1212102819429399 	101275.4358498634
-0.711961961961962 	299.9577312183769 	0.1221681526288219 	101275.0388812881
-0.7094594594594597 	299.9582320491642 	0.1207232084507897 	101275.6307094309
-0.7069569569569573 	299.9595345178632 	0.1169729336776039 	101277.1698745312
-0.7044544544544545 	299.9615599485214 	0.111132263471452 	101279.5634650969
-0.7019519519519523 	299.9642199785792 	0.1034435597850672 	101282.7071068672
-0.6994494494494495 	299.9674507387239 	0.0940869757206991 	101286.5253354516
-0.6969469469469471 	299.9712268191535 	0.08314134708878856 	101290.9881929241
-0.6944444444444446 	299.975545831958 	0.07062556337223647 	101296.0929111307
-0.6919419419419421 	299.9803946226758 	0.05659394768916515 	101301.8240056002
-0.6894394394394396 	299.9857076784507 	0.04124576288720198 	101308.1041411447
-0.6869369369369374 	299.9913458297033 	0.0249810602605648 	101314.7688600549
-0.6844344344344344 	299.9971105682671 	0.008357565820937784 	101321.5835620853
-0.6819319319319321 	300.0027907498421 	0.01010682760454498 	101328.2986550599
-0.6794294294294296 	300.0082230439733 	0.02374454820596156 	101334.7209916553
-0.6769269269269272 	300.0133368000832 	0.03856572846643834 	101340.7670134034
-0.6744244244244245 	300.0181536711346 	0.05254470555497861 	101346.4622570952
-0.6719219219219222 	300.0227410553749 	0.06585154681439542 	101351.8863682586
-0.6694194194194195 	300.0271458244716 	0.07860190908420163 	101357.0947660494
-0.6669169169169172 	300.0313410874224 	0.09070986984576754 	101362.0556091715
-0.6644144144144146 	300.0352056548006 	0.1018289336183653 	101366.6255865469
-0.661911911911912 	300.0385386714913 	0.1113907932881656 	101370.5671420942
-0.6594094094094097 	300.0410998945018 	0.1187175393577615 	101373.5960922446
-0.656906906906907 	300.0426619322777 	0.1231689178979421 	101375.4434763334
-0.6544044044044046 	300.0430611086339 	0.1242855325671529 	101375.9155845071
-0.6519019019019021 	300.0422350244039 	0.1218957913267327 	101374.9387069384
-0.6493993993993996 	300.0402407602759 	0.1161662037993659 	101372.5804856976
-0.6468968968968971 	300.037250099313 	0.1075857970324676 	101369.0439195444
-0.6443943943943946 	300.0335216822948 	0.09688913791942649 	101364.6349635784
-0.6418918918918921 	300.0293590647041 	0.08493743522690481 	101359.7126830679
-0.6393893893893897 	300.0250631950983 	0.07258545449568773 	101354.632987064
-0.6368868868868871 	300.0208905750653 	0.06056618475872734 	101349.6991841879
-0.6343843843843846 	300.0170288995707 	0.04942271025867469 	101345.1331878327
-0.6318818818818821 	300.0135943432854 	0.03949566498387262 	101341.0723243327
-0.6293793793793795 	300.0106413324541 	0.03094780404863865 	101337.580902585
-0.6268768768768773 	300.0081764208908 	0.0238029830326148 	101334.6666303174
-0.6243743743743745 	300.0061726566316 	0.01798714791365733 	101332.2975350565
-0.6218718718718721 	300.0045822576897 	0.01336548252367184 	101330.4172152859
-0.6193693693693696 	300.0033473076019 	0.0097728364192046 	101328.9572804224
-0.6168668668668671 	300.0024078190118 	0.00703654366693344 	101327.8466077018
-0.6143643643643645 	300.0017065786438 	0.004991864126676291 	101327.0175740088
-0.6118618618618621 	300.0011924398467 	0.003491147171911639 	101326.4097407218
-0.6093593593593596 	300.0008218082365 	0.002408197486400793 	101325.9715677151
-0.6068568568568571 	300.0005588902422 	0.001639204309485533 	101325.66073775
-0.6043543543543546 	300.0003752209493 	0.001101473057171444 	101325.4435982626
-0.6018518518518521 	300.0002487831169 	0.0007309428135110878 	101325.2941195463
-0.5993493493493496 	300.0001629612719 	0.0004792017269944256 	101325.1926583119
-0.5968468468468471 	300.0001054929594 	0.0003104736400504662 	101325.1247174299
-0.5943443443443446 	300.0000675109798 	0.0001988560697104263 	101325.0798138569
-0.591841841841842 	300.0000427232399 	0.0001259471858673199 	101325.0505090023
-0.5893393393393397 	300.0000267431702 	7.890298996414379e-05 	101325.0316168303
-0.5868368368368371 	300.0000165628181 	4.890648254088151e-05 	101325.0195812039
-0.5843343343343346 	300.0000101515685 	2.999946950178453e-05 	101325.0120015664
-0.5818318318318321 	300.0000061590131 	1.821524571280362e-05 	101325.0072813865
-0.5793293293293297 	300.000003699612 	1.095030136820746e-05 	101325.0043738382
-0.5768268268268271 	300.0000022007405 	6.5189338348453e-06 	101325.0026017999
-0.5743243243243245 	300.0000012966918 	3.843906734587057e-06 	101325.0015329681
-0.5718218218218221 	300.0000007568848 	2.245411994757645e-06 	101325.0008947914
-0.5693193193193196 	300.0000004377898 	1.299645111408592e-06 	101325.000517508
-0.5668168168168171 	300.0000002508839 	7.454756679294624e-07 	101325.0002966145
-0.5643143143143147 	300.0000001424814 	4.238310720563267e-07 	101325.0001685067
-0.5618118118118121 	300.0000000802903 	2.388770134042195e-07 	101325.0000948981
-0.5593093093093094 	300.0000000448633 	1.334867317056889e-07 	101325.0000529874
-0.5568068068068072 	300.0000000248384 	7.397080031265688e-08 	101325.0000293373
-0.5543043043043046 	300.0000000136457 	4.06522740324636e-08 	101325.000016108
-0.551801801801802 	300.0000000073758 	2.216203934247124e-08 	101325.0000087712
-0.5492992992992995 	300.0000000040066 	1.198494340202162e-08 	101325.0000047365
-0.5467967967967969 	300.0000000021641 	6.432968265491901e-09 	101325.0000025361
-0.5442942942942947 	300.0000000011548 	3.425746548135222e-09 	101325.0000013456
-0.5417917917917919 	300.0000000005635 	1.813088141563155e-09 	101325.0000007068
-0.5392892892892895 	300.0000000002433 	9.504798694496195e-10 	101325.0000003668
-0.536786786786787 	300.0000000001162 	4.979873616073368e-10 	101325.0000001871
-0.5342842842842846 	300.0000000000408 	2.56424809772662e-10 	101325.0000000928
-0.531781781781782 	299.9999999999725 	1.353185785048242e-10 	101325.0000000435
-0.5292792792792794 	299.9999999999454 	6.688256555288799e-11 	101325.0000000181
-0.526776776776777 	299.9999999999195 	3.830748848151812e-11 	101325.0000000052
-0.5242742742742745 	299.9999999999814 	1.601555586994168e-11 	101324.9999999985
-0.521771771771772 	300.0000000000188 	1.469466355783379e-11 	101324.9999999953
-0.5192692692692695 	299.999999999961 	4.251034996051322e-12 	101324.9999999936
-0.516766766766767 	300.0000000000065 	9.021671782969061e-12 	101324.9999999929
-0.5142642642642645 	299.9999999999715 	2.898399137099829e-12 	101324.9999999926
-0.511761761761762 	299.9999999999491 	6.814124685107578e-12 	101324.9999999924
-0.5092592592592596 	299.9999999999707 	2.518193596869503e-12 	101324.9999999924
-0.506756756756757 	299.9999999999349 	5.442123084805236e-12 	101324.9999999922
-0.5042542542542544 	299.999999999992 	2.505747063779068e-12 	101324.9999999922
-0.5017517517517521 	300.0000000000293 	3.969955982486775e-12 	101324.9999999919
-0.4992492492492494 	300.0000000000346 	1.547833461902096e-12 	101324.9999999916
-0.496746746746747 	299.9999999999837 	3.723859837167318e-12 	101324.9999999916
-0.4942442442442445 	299.99999999994 	1.22542308886598e-12 	101324.9999999915
-0.4917417417417421 	299.9999999999379 	3.634771834947434e-12 	101324.9999999914
-0.4892392392392395 	299.9999999999557 	1.722289748228328e-12 	101324.9999999912
-0.486736736736737 	299.9999999999576 	4.911708750785e-12 	101324.9999999911
-0.4842342342342345 	299.9999999999208 	2.334540444810429e-12 	101324.9999999913
-0.481731731731732 	300.0000000000339 	5.185939183269161e-12 	101324.9999999913
-0.4792292292292296 	300.0000000000206 	2.319555275121722e-12 	101324.9999999912
-0.4767267267267268 	299.9999999999529 	6.220519152036953e-12 	101324.9999999914
-0.4742242242242246 	299.9999999999953 	1.845324708270581e-12 	101324.9999999917
-0.471721721721722 	299.9999999999533 	4.397979254631568e-12 	101324.9999999916
-0.4692192192192195 	299.999999999977 	1.482977662325114e-12 	101324.9999999916
-0.4667167167167169 	299.9999999999098 	4.076962056622963e-12 	101324.9999999913
-0.4642142142142145 	299.9999999999934 	1.304072671505704e-12 	101324.9999999911
-0.461711711711712 	300.0000000000153 	3.591126024700228e-12 	101324.9999999911
-0.4592092092092094 	300.0000000000084 	1.861712940984197e-12 	101324.9999999912
-0.456706706706707 	300.00000000005 	4.447917644288968e-12 	101324.9999999914
-0.4542042042042045 	299.9999999999386 	3.527214177316397e-12 	101324.9999999915
-0.451701701701702 	299.9999999999509 	5.343647642301256e-12 	101324.9999999913
-0.4491991991991995 	299.9999999999574 	3.746658528725472e-12 	101324.9999999913
-0.4466966966966969 	299.999999999955 	5.151349214504173e-12 	101324.9999999915
-0.4441941941941945 	299.9999999999949 	2.195626898260651e-12 	101324.9999999913
-0.441691691691692 	299.9999999999563 	4.66417293200381e-12 	101324.9999999912
-0.4391891891891895 	299.9999999999887 	1.262014204364621e-12 	101324.9999999911
-0.436686686686687 	299.9999999999692 	4.718691820040482e-12 	101324.9999999912
-0.4341841841841846 	299.9999999999982 	2.313574796369682e-12 	101324.9999999912
-0.431681681681682 	299.999999999945 	4.5008523516012e-12 	101324.9999999911
-0.4291791791791794 	299.9999999999291 	9.104442232695922e-13 	101324.9999999911
-0.426676676676677 	299.9999999999062 	4.018081421838341e-12 	101324.9999999911
-0.4241741741741744 	299.9999999999654 	1.089743191815189e-12 	101324.9999999913
-0.421671671671672 	300.0000000000041 	3.617059174942176e-12 	101324.9999999911
-0.4191691691691694 	300.000000000053 	1.935265591389103e-12 	101324.9999999909
-0.4166666666666669 	300.0000000000613 	4.026721851281871e-12 	101324.9999999909
-0.4141641641641645 	299.9999999999384 	2.692175778674588e-12 	101324.9999999909
-0.411661661661662 	300.0000000000034 	3.438837753740752e-12 	101324.9999999909
-0.4091591591591594 	300.0000000000036 	2.641837609456565e-12 	101324.9999999911
-0.406656656656657 	299.9999999999424 	3.307638869260416e-12 	101324.9999999913
-0.4041541541541545 	300.0000000000128 	1.049138350498907e-12 	101324.9999999913
-0.401651651651652 	299.9999999999229 	3.028219170668787e-12 	101324.9999999912
-0.3991491491491494 	299.9999999999983 	2.078422675863031e-12 	101324.9999999912
-0.396646646646647 	299.9999999999553 	3.596026822331988e-12 	101324.9999999911
-0.3941441441441444 	299.9999999999836 	2.518770503923596e-12 	101324.9999999909
-0.3916416416416419 	299.9999999999343 	3.556632422377278e-12 	101324.9999999909
-0.3891391391391395 	299.9999999999542 	1.644460957105239e-12 	101324.9999999909
-0.3866366366366368 	299.9999999999564 	2.108432251462739e-12 	101324.9999999907
-0.3841341341341344 	299.9999999999939 	9.032775984243666e-13 	101324.9999999907
-0.381631631631632 	299.9999999999486 	1.890083926048318e-12 	101324.9999999908
-0.3791291291291294 	300.0000000000001 	1.343060925881331e-12 	101324.9999999911
-0.3766266266266269 	300.0000000000194 	1.322774393318727e-12 	101324.9999999912
-0.3741241241241244 	300.0000000000248 	2.923007682172309e-12 	101324.9999999913
-0.371621621621622 	300.0000000000167 	1.15989459774398e-12 	101324.9999999914
-0.3691191191191194 	300.0000000000126 	4.178291924116835e-12 	101324.9999999916
-0.366616616616617 	300.0000000000114 	9.778408422983601e-13 	101324.9999999917
-0.3641141141141143 	299.999999999965 	3.53792372754559e-12 	101324.9999999915
-0.3616116116116119 	299.999999999948 	1.298647912870658e-12 	101324.9999999915
-0.3591091091091095 	299.9999999999851 	2.793752131592456e-12 	101324.9999999915
-0.356606606606607 	299.9999999999719 	2.075934748973708e-12 	101324.9999999915
-0.3541041041041044 	299.9999999999895 	1.8512966630704e-12 	101324.9999999914
-0.3516016016016019 	300.0000000000097 	2.671592153585071e-12 	101324.9999999914
-0.3490990990990994 	299.9999999999922 	1.184355472604622e-12 	101324.9999999911
-0.346596596596597 	300.0000000000395 	3.85881963133115e-12 	101324.9999999908
-0.3440940940940944 	300.0000000000467 	1.522539674165536e-12 	101324.9999999906
-0.3415915915915919 	300.0000000000193 	4.264544681035677e-12 	101324.9999999907
-0.3390890890890895 	299.999999999975 	2.133194615586909e-12 	101324.9999999905
-0.3365865865865869 	300.0000000000136 	3.526449962359417e-12 	101324.9999999907
-0.3340840840840844 	299.9999999999996 	2.373996398217376e-12 	101324.9999999911
-0.3315815815815819 	300.0000000000206 	2.956092400716549e-12 	101324.9999999911
-0.3290790790790794 	300.0000000000213 	1.911344718332132e-12 	101324.9999999911
-0.3265765765765769 	299.9999999999307 	2.87725427092037e-12 	101324.9999999914
-0.3240740740740744 	299.9999999999949 	1.697857479929362e-12 	101324.9999999917
-0.3215715715715718 	300.0000000000064 	3.63513166064896e-12 	101324.9999999919
-0.3190690690690695 	299.9999999999365 	1.766181887234277e-12 	101324.9999999919
-0.3165665665665668 	299.9999999999882 	4.255126393907704e-12 	101324.9999999919
-0.3140640640640644 	300.000000000004 	1.916141089502299e-12 	101324.9999999919
-0.311561561561562 	299.9999999999309 	5.595064874261128e-12 	101324.9999999919
-0.3090590590590593 	299.9999999999918 	1.04561197603544e-12 	101324.999999992
-0.3065565565565568 	300.0000000000038 	6.218125127166879e-12 	101324.9999999923
-0.3040540540540545 	300.000000000003 	1.593454180244741e-12 	101324.9999999925
-0.3015515515515518 	300.0000000000351 	5.749421149700035e-12 	101324.9999999923
-0.2990490490490494 	299.9999999999515 	2.232113288312796e-12 	101324.9999999922
-0.2965465465465469 	299.9999999999846 	5.124353645732085e-12 	101324.9999999919
-0.2940440440440444 	299.999999999994 	4.142965444065078e-12 	101324.9999999918
-0.2915415415415418 	300.0000000000055 	4.757460355556807e-12 	101324.999999992
-0.2890390390390395 	300.0000000000063 	5.360775063884267e-12 	101324.9999999919
-0.2865365365365368 	299.9999999999834 	3.679771620372132e-12 	101324.999999992
-0.2840340340340343 	300 	5.400314678468724e-12 	101324.9999999921
-0.2815315315315318 	299.999999999928 	2.750151058892895e-12 	101324.9999999922
-0.2790290290290295 	299.9999999999611 	4.987678247755569e-12 	101324.9999999923
-0.2765265265265269 	300.0000000000036 	3.507739895405472e-12 	101324.9999999924
-0.2740240240240244 	300.000000000026 	4.212009056598826e-12 	101324.9999999924
-0.2715215215215219 	300.0000000000115 	4.165216210905331e-12 	101324.9999999924
-0.2690190190190194 	299.9999999999468 	4.006499159706632e-12 	101324.9999999927
-0.2665165165165169 	300.0000000000004 	4.532961300794224e-12 	101324.9999999925
-0.2640140140140144 	299.9999999999715 	2.782423864841128e-12 	101324.9999999925
-0.2615115115115119 	300.0000000000019 	4.287023109455326e-12 	101324.9999999923
-0.2590090090090094 	299.9999999999342 	2.097671684072699e-12 	101324.9999999922
-0.2565065065065068 	299.999999999993 	2.784903727034475e-12 	101324.9999999923
-0.2540040040040044 	299.9999999999958 	2.914899139114477e-12 	101324.9999999923
-0.2515015015015019 	300.0000000000359 	2.660455695612146e-12 	101324.9999999921
-0.2489989989989994 	300.0000000000409 	4.721696471446468e-12 	101324.999999992
-0.2464964964964968 	299.9999999999897 	2.356708163855331e-12 	101324.9999999919
-0.2439939939939944 	299.999999999994 	5.957482413650352e-12 	101324.9999999919
-0.2414914914914919 	299.9999999999661 	1.697872937631877e-12 	101324.9999999921
-0.2389889889889893 	300.0000000000014 	5.967541505144337e-12 	101324.9999999921
-0.2364864864864869 	300.0000000000232 	2.316657794638804e-12 	101324.9999999919
-0.2339839839839843 	299.9999999999334 	6.176003977501612e-12 	101324.9999999916
-0.2314814814814819 	299.999999999982 	2.075730315858416e-12 	101324.9999999913
-0.2289789789789792 	299.9999999999209 	5.415788507724178e-12 	101324.9999999912
-0.2264764764764769 	299.9999999999475 	3.117131941722599e-12 	101324.9999999912
-0.2239739739739743 	299.9999999999616 	4.702021887425909e-12 	101324.9999999914
-0.2214714714714718 	299.9999999999397 	3.126945462514916e-12 	101324.9999999915
-0.2189689689689693 	299.9999999999695 	1.789631212506844e-12 	101324.9999999915
-0.2164664664664669 	299.9999999999841 	2.867911821637753e-12 	101324.9999999917
-0.2139639639639643 	299.9999999999344 	1.208225203197506e-12 	101324.9999999916
-0.2114614614614618 	299.9999999999729 	2.199202938728021e-12 	101324.9999999919
-0.2089589589589593 	299.9999999999919 	1.986381379318548e-12 	101324.999999992
-0.2064564564564568 	299.9999999999912 	1.259279371153342e-12 	101324.999999992
-0.2039539539539543 	299.9999999999159 	2.167879280633157e-12 	101324.9999999919
-0.2014514514514518 	299.9999999999474 	1.106769266748345e-12 	101324.9999999917
-0.1989489489489494 	299.9999999999694 	2.398559208255978e-12 	101324.9999999917
-0.1964464464464468 	299.9999999999914 	1.561041691468797e-12 	101324.9999999916
-0.1939439439439443 	299.9999999999893 	2.295702339099637e-12 	101324.9999999913
-0.1914414414414418 	299.9999999999216 	5.401904992046035e-13 	101324.9999999911
-0.1889389389389393 	300.0000000000043 	2.353076750401108e-12 	101324.9999999911
-0.1864364364364368 	300.0000000000367 	1.902597437765145e-12 	101324.9999999912
-0.1839339339339343 	299.9999999999741 	3.398357621109843e-12 	101324.9999999913
-0.1814314314314318 	299.9999999999956 	2.930790622081079e-12 	101324.9999999917
-0.1789289289289293 	299.9999999999026 	4.615306201194054e-12 	101324.9999999916
-0.1764264264264268 	299.9999999999817 	3.299258163595033e-12 	101324.9999999919
-0.1739239239239243 	299.999999999907 	6.063093766673675e-12 	101324.999999992
-0.1714214214214218 	299.9999999999908 	2.650124838724573e-12 	101324.999999992
-0.1689189189189193 	299.9999999999546 	6.745863877475795e-12 	101324.9999999921
-0.1664164164164168 	300.000000000007 	1.424551776010318e-12 	101324.9999999922
-0.1639139139139143 	299.9999999999852 	8.119907956275522e-12 	101324.9999999921
-0.1614114114114118 	300.0000000000259 	1.135409348988054e-12 	101324.9999999923
-0.1589089089089093 	299.9999999999978 	9.15866928010824e-12 	101324.9999999923
-0.1564064064064068 	299.9999999999824 	3.292198439431669e-12 	101324.9999999923
-0.1539039039039043 	299.9999999999914 	9.062851989090458e-12 	101324.9999999921
-0.1514014014014018 	300.0000000000239 	2.530871132684306e-12 	101324.9999999921
-0.1488988988988993 	299.9999999999833 	8.600724745207814e-12 	101324.999999992
-0.1463963963963968 	300.0000000000002 	1.521878566109509e-12 	101324.9999999918
-0.1438938938938943 	299.9999999999562 	6.878525596442674e-12 	101324.9999999917
-0.1413913913913918 	299.9999999999299 	4.971788109595665e-13 	101324.9999999917
-0.1388888888888893 	299.9999999999812 	5.0960378103497e-12 	101324.9999999914
-0.1363863863863868 	299.9999999998925 	1.177902644706305e-12 	101324.9999999914
-0.1338838838838843 	299.9999999999202 	3.743058958120814e-12 	101324.9999999915
-0.1313813813813818 	299.9999999999949 	1.497192367131584e-12 	101324.9999999915
-0.1288788788788793 	299.9999999999632 	4.53734368288376e-12 	101324.9999999918
-0.1263763763763768 	299.9999999999706 	2.656234053168184e-12 	101324.9999999918
-0.1238738738738743 	299.999999999936 	5.298323801914251e-12 	101324.9999999919
-0.1213713713713717 	299.9999999999851 	1.817874134446007e-12 	101324.9999999918
-0.1188688688688693 	300.000000000007 	5.414002876027633e-12 	101324.9999999916
-0.1163663663663668 	299.9999999999126 	3.81255368509614e-13 	101324.9999999916
-0.1138638638638643 	299.9999999999912 	3.996927795299182e-12 	101324.9999999915
-0.1113613613613618 	299.9999999999839 	2.041826892128913e-12 	101324.9999999914
-0.1088588588588592 	299.9999999999759 	4.290862107595094e-12 	101324.9999999913
-0.1063563563563568 	299.9999999999566 	2.20165089594032e-12 	101324.9999999915
-0.1038538538538543 	299.9999999999753 	3.04520627575824e-12 	101324.9999999913
-0.1013513513513517 	300.0000000000121 	1.048335202931803e-12 	101324.9999999914
-0.09884884884884926 	299.999999999947 	2.637785520969893e-12 	101324.9999999915
-0.09634634634634676 	299.9999999999006 	4.345532956131767e-13 	101324.9999999913
-0.09384384384384425 	299.9999999999321 	2.235665228901928e-12 	101324.9999999914
-0.09134134134134177 	300.0000000000206 	8.154651419649662e-13 	101324.9999999918
-0.08883883883883925 	300.0000000000082 	2.930613485081902e-12 	101324.9999999921
-0.08633633633633674 	299.9999999999549 	2.574540528646853e-12 	101324.9999999916
-0.08383383383383426 	300.0000000000084 	3.044768286392789e-12 	101324.9999999915
-0.08133133133133173 	299.9999999999685 	3.802299492640313e-12 	101324.9999999916
-0.07882882882882926 	299.9999999998905 	4.074596787700215e-12 	101324.9999999916
-0.07632632632632676 	299.9999999999603 	4.092616255569422e-12 	101324.9999999915
-0.07382382382382424 	299.9999999999017 	4.064452894732541e-12 	101324.9999999916
-0.07132132132132173 	300.0000000000111 	3.420750525963982e-12 	101324.9999999916
-0.06881881881881925 	299.9999999999636 	3.619491194255863e-12 	101324.9999999916
-0.06631631631631671 	299.9999999999006 	2.961359307385435e-12 	101324.9999999916
-0.06381381381381425 	299.9999999999559 	2.972458040214257e-12 	101324.9999999917
-0.06131131131131173 	299.9999999999582 	3.39549148707215e-12 	101324.9999999916
-0.05880880880880923 	299.9999999999234 	3.245735231476043e-12 	101324.9999999918
-0.05630630630630672 	299.9999999999688 	3.246015980598804e-12 	101324.9999999918
-0.05380380380380424 	300.0000000000142 	3.617635228653236e-12 	101324.9999999919
-0.05130130130130173 	300.0000000000128 	3.618935972148115e-12 	101324.9999999921
-0.04879879879879922 	299.9999999999476 	3.502756371449069e-12 	101324.9999999917
-0.04629629629629672 	299.9999999999356 	2.865349506962784e-12 	101324.9999999917
-0.04379379379379422 	299.9999999999202 	2.399113884603384e-12 	101324.9999999917
-0.04129129129129173 	299.9999999999818 	1.22823904210739e-12 	101324.9999999919
-0.03878878878878922 	299.9999999999825 	7.521263993026337e-13 	101324.9999999919
-0.03628628628628671 	299.99999999998 	2.954513137013092e-13 	101324.999999992
-0.03378378378378422 	299.9999999999336 	6.110814033085514e-13 	101324.9999999921
-0.03128128128128172 	299.9999999999725 	1.577317133806952e-13 	101324.9999999922
-0.02877877877877922 	299.9999999999712 	1.053345467341892e-12 	101324.9999999921
-0.0262762762762767 	299.9999999999036 	6.813033945217169e-13 	101324.9999999921
-0.02377377377377422 	300.0000000000185 	6.395176225396632e-13 	101324.999999992
-0.0212712712712717 	299.9999999999061 	7.036034664765849e-13 	101324.9999999918
-0.01876876876876921 	299.9999999999743 	1.146900826265431e-13 	101324.9999999915
-0.01626626626626671 	300.000000000012 	9.178463971239998e-13 	101324.9999999914
-0.0137637637637642 	299.9999999999656 	7.66964398157508e-13 	101324.9999999915
-0.0112612612612617 	300.0000000000144 	1.300743759597724e-12 	101324.9999999916
-0.008758758758759198 	299.9999999999977 	1.280879211416763e-12 	101324.9999999916
-0.006256256256256697 	299.9999999998933 	1.683205465346084e-12 	101324.9999999917
-0.003753753753754195 	299.9999999999565 	5.967562074410764e-13 	101324.9999999918
-0.001251251251251693 	299.9999999999302 	7.301455190859984e-13 	101324.9999999919
0.00125125125125081 	299.999999999958 	3.421405961273165e-13 	101324.9999999919
0.003753753753753312 	299.9999999999652 	3.992523660208888e-13 	101324.9999999919
0.006256256256255817 	299.9999999998905 	9.777043394891117e-13 	101324.9999999917
0.008758758758758317 	299.9999999999865 	1.565431761906155e-12 	101324.9999999916
0.01126126126126082 	300.0000000000101 	1.79506715716964e-12 	101324.9999999916
0.01376376376376332 	299.9999999999691 	1.512251956616284e-12 	101324.9999999914
0.01626626626626582 	300.0000000000105 	1.131884303406129e-12 	101324.9999999916
0.01876876876876833 	299.9999999999591 	3.276137164276381e-13 	101324.9999999916
0.02127127127127083 	299.9999999999694 	2.100250594774675e-13 	101324.9999999918
0.02377377377377332 	299.999999999994 	1.190824749927832e-13 	101324.9999999919
0.02627627627627583 	299.9999999999108 	8.394130980684675e-14 	101324.9999999918
0.02877877877877833 	300.0000000000063 	7.871121744196487e-13 	101324.9999999918
0.03128128128128083 	299.9999999999469 	3.780340864006202e-13 	101324.9999999914
0.03378378378378333 	299.9999999999062 	8.688989239567846e-13 	101324.9999999915
0.03628628628628584 	299.9999999999737 	6.7193758522974e-13 	101324.9999999911
0.03878878878878834 	299.9999999999794 	6.5627687526493e-13 	101324.9999999911
0.04129129129129084 	299.9999999999753 	1.110123075546212e-12 	101324.9999999915
0.04379379379379333 	299.9999999999429 	1.366171839767143e-12 	101324.9999999915
0.04629629629629585 	299.9999999998937 	1.600000396455971e-12 	101324.9999999914
0.04879879879879834 	299.9999999999554 	2.076972620655213e-12 	101324.9999999916
0.05130130130130085 	300.0000000000132 	2.152033164038627e-12 	101324.9999999915
0.05380380380380335 	300.0000000000148 	2.041214617030638e-12 	101324.9999999915
0.05630630630630584 	299.9999999999899 	2.285300893189458e-12 	101324.9999999913
0.05880880880880836 	299.9999999999239 	1.579637826577804e-12 	101324.9999999913
0.06131131131131085 	299.999999999977 	1.329266836393487e-12 	101324.999999991
0.06381381381381336 	299.9999999999665 	1.202538149031438e-12 	101324.9999999907
0.06631631631631586 	299.9999999998946 	1.708516031270825e-12 	101324.9999999908
0.06881881881881835 	299.9999999999512 	2.029340022885764e-12 	101324.9999999911
0.07132132132132088 	299.9999999999854 	1.644785958398069e-12 	101324.9999999914
0.07382382382382337 	299.9999999999072 	1.311719303929018e-12 	101324.9999999915
0.07632632632632587 	299.9999999999737 	1.46071218411417e-12 	101324.9999999915
0.07882882882882837 	299.9999999999379 	1.600347010510843e-12 	101324.9999999914
0.08133133133133086 	299.9999999999868 	1.874688970488284e-12 	101324.9999999913
0.08383383383383337 	299.9999999999837 	1.473407311714155e-12 	101324.9999999909
0.08633633633633589 	299.9999999999084 	9.717399714897806e-13 	101324.9999999909
0.08883883883883838 	300.0000000000089 	1.781973690755579e-12 	101324.9999999909
0.09134134134134086 	299.9999999999829 	1.242022038050384e-12 	101324.9999999912
0.09384384384384339 	299.9999999999011 	1.657263265445215e-12 	101324.9999999915
0.09634634634634588 	299.9999999999679 	1.808715162244818e-12 	101324.9999999917
0.09884884884884838 	299.9999999999711 	2.765305838781862e-12 	101324.9999999915
0.1013513513513509 	300.0000000000159 	3.341413380255129e-12 	101324.9999999913
0.1038538538538534 	299.9999999999558 	3.02963518523896e-12 	101324.9999999913
0.1063563563563559 	300.0000000000149 	3.171676498159012e-12 	101324.9999999909
0.1088588588588584 	300.0000000000225 	2.927037160912953e-12 	101324.9999999906
0.1113613613613609 	299.9999999999237 	2.912331086328684e-12 	101324.9999999907
0.1138638638638634 	299.999999999949 	2.462926584500125e-12 	101324.9999999909
0.1163663663663659 	299.9999999999457 	2.480964612550371e-12 	101324.9999999912
0.1188688688688684 	299.9999999999714 	2.594166076462593e-12 	101324.999999991
0.1213713713713709 	299.9999999999917 	1.845961265447281e-12 	101324.9999999913
0.1238738738738734 	299.9999999999268 	1.709461453590569e-12 	101324.9999999912
0.1263763763763759 	299.9999999999818 	1.396540503352766e-12 	101324.999999991
0.1288788788788784 	299.9999999999861 	1.155568019578116e-12 	101324.9999999908
0.1313813813813809 	299.999999999985 	1.81657202007664e-12 	101324.9999999909
0.1338838838838834 	299.9999999999769 	2.718094073127411e-12 	101324.9999999907
0.1363863863863859 	300.0000000000269 	2.999451392253877e-12 	101324.9999999908
0.1388888888888884 	300.0000000000435 	3.150622895203803e-12 	101324.9999999903
0.1413913913913909 	299.9999999999989 	2.473369983888496e-12 	101324.9999999905
0.1438938938938934 	299.9999999999918 	2.771140933085192e-12 	101324.9999999907
0.1463963963963959 	299.9999999999611 	1.638422475083824e-12 	101324.999999991
0.1488988988988985 	299.9999999999149 	2.546593068295263e-12 	101324.999999991
0.1514014014014009 	299.9999999999703 	9.161317551911172e-13 	101324.999999991
0.1539039039039035 	299.9999999999627 	2.780959754229468e-12 	101324.9999999911
0.1564064064064059 	299.9999999999362 	5.125783908532141e-13 	101324.9999999909
0.1589089089089084 	299.9999999999802 	3.478627896840653e-12 	101324.9999999912
0.1614114114114109 	299.999999999975 	1.345348713072345e-12 	101324.9999999913
0.1639139139139134 	299.9999999999199 	3.718863011178383e-12 	101324.9999999912
0.166416416416416 	300.0000000000028 	3.224300158707032e-12 	101324.9999999912
0.1689189189189185 	300.0000000000269 	2.658463863180937e-12 	101324.9999999913
0.1714214214214209 	299.9999999999948 	2.952306699035615e-12 	101324.9999999912
0.1739239239239235 	299.9999999999891 	1.388628686517867e-12 	101324.9999999915
0.1764264264264259 	299.9999999999665 	3.278286429564907e-12 	101324.9999999916
0.1789289289289284 	300.0000000000043 	8.737377592045649e-13 	101324.9999999915
0.181431431431431 	299.9999999999648 	3.429848015710861e-12 	101324.9999999917
0.1839339339339334 	299.9999999999687 	1.63508749614743e-12 	101324.9999999917
0.186436436436436 	299.9999999999301 	2.879397900556636e-12 	101324.9999999919
0.1889389389389385 	299.9999999999852 	2.10555664734805e-12 	101324.999999992
0.191441441441441 	299.9999999999799 	1.526438983452113e-12 	101324.9999999919
0.1939439439439434 	299.9999999999226 	2.975807493819957e-12 	101324.999999992
0.196446446446446 	299.9999999999499 	1.29500717585764e-12 	101324.999999992
0.1989489489489485 	299.999999999969 	3.683941080499167e-12 	101324.9999999918
0.2014514514514509 	299.9999999999794 	1.649113264804724e-12 	101324.9999999914
0.2039539539539535 	299.9999999999932 	3.305606963139689e-12 	101324.9999999916
0.2064564564564559 	299.9999999999622 	2.449686343039559e-12 	101324.9999999916
0.2089589589589585 	299.9999999999856 	2.348393841654431e-12 	101324.9999999913
0.211461461461461 	299.9999999999346 	2.345222630553979e-12 	101324.9999999912
0.2139639639639635 	299.9999999999803 	1.822400739844075e-12 	101324.9999999911
0.2164664664664659 	299.9999999999935 	3.013403640233244e-12 	101324.9999999908
0.2189689689689684 	299.9999999999943 	9.178513008186767e-13 	101324.9999999911
0.221471471471471 	299.999999999993 	3.282002644074019e-12 	101324.9999999912
0.2239739739739735 	299.9999999999552 	1.043205967059728e-12 	101324.9999999913
0.226476476476476 	299.9999999999806 	3.525236852552779e-12 	101324.9999999911
0.2289789789789785 	299.9999999999963 	2.942920951909501e-12 	101324.9999999912
0.231481481481481 	299.99999999999 	3.417867683454778e-12 	101324.9999999912
0.2339839839839835 	299.9999999999882 	3.342010423003234e-12 	101324.9999999914
0.236486486486486 	300.0000000000185 	1.887144285413939e-12 	101324.9999999914
0.2389889889889885 	299.9999999999978 	2.816224659173218e-12 	101324.9999999916
0.241491491491491 	299.9999999999235 	9.199043389312479e-13 	101324.9999999913
0.2439939939939935 	299.9999999999804 	3.602131879689046e-12 	101324.9999999913
0.246496496496496 	299.9999999999904 	1.196934250421649e-12 	101324.9999999912
0.2489989989989985 	300.0000000000328 	2.981776090736933e-12 	101324.999999991
0.251501501501501 	300.0000000000277 	1.935579485498409e-12 	101324.9999999911
0.2540040040040035 	299.9999999999898 	2.228071840803688e-12 	101324.9999999911
0.256506506506506 	300.0000000000232 	2.593304995182873e-12 	101324.9999999912
0.2590090090090086 	299.9999999999108 	5.936449902369319e-13 	101324.9999999915
0.261511511511511 	299.999999999997 	2.585014786641553e-12 	101324.9999999917
0.2640140140140135 	299.9999999999899 	9.277092068582452e-13 	101324.9999999915
0.2665165165165161 	299.9999999999347 	1.905591833892024e-12 	101324.9999999916
0.2690190190190185 	300.0000000000028 	8.695656203761365e-13 	101324.9999999915
0.271521521521521 	300.0000000000028 	1.659712030864289e-12 	101324.9999999916
0.2740240240240235 	300.0000000000138 	1.844734906317224e-12 	101324.9999999915
0.276526526526526 	300.0000000000051 	1.005828771933104e-12 	101324.9999999915
0.2790290290290286 	299.9999999999422 	2.076232804456409e-12 	101324.9999999914
0.281531531531531 	299.9999999999343 	5.962273143631888e-13 	101324.9999999915
0.2840340340340335 	299.9999999999811 	2.879367866284603e-12 	101324.9999999917
0.2865365365365361 	299.9999999999601 	1.468227594146197e-12 	101324.9999999917
0.2890390390390385 	299.9999999999975 	2.832465172645938e-12 	101324.9999999916
0.291541541541541 	299.9999999999976 	2.672893691750907e-12 	101324.9999999914
0.2940440440440436 	299.9999999999908 	2.361948345334898e-12 	101324.9999999911
0.296546546546546 	299.999999999992 	3.564341916102065e-12 	101324.9999999909
0.2990490490490486 	299.9999999999396 	1.843128056059875e-12 	101324.9999999908
0.3015515515515511 	300.0000000000335 	5.142794273843193e-12 	101324.9999999909
0.3040540540540535 	299.9999999999941 	1.28295762742237e-12 	101324.9999999911
0.3065565565565562 	299.9999999999997 	5.188453026940986e-12 	101324.9999999911
0.3090590590590585 	299.9999999999914 	2.211968821866253e-12 	101324.9999999907
0.3115615615615611 	299.9999999999433 	3.130778881417227e-12 	101324.9999999909
0.3140640640640635 	300.0000000000038 	1.118657351878485e-12 	101324.9999999909
0.316566566566566 	299.9999999999954 	2.531139699403827e-12 	101324.9999999907
0.3190690690690687 	299.9999999999563 	6.352936243518335e-13 	101324.9999999907
0.3215715715715711 	300.0000000000141 	2.222597860247835e-12 	101324.9999999909
0.3240740740740735 	299.9999999999979 	7.132421930455117e-13 	101324.9999999911
0.326576576576576 	299.9999999999087 	1.575159885371739e-12 	101324.9999999911
0.3290790790790786 	300.0000000000038 	5.099868833996707e-13 	101324.999999991
0.3315815815815811 	300.0000000000271 	1.256139554880378e-12 	101324.999999991
0.3340840840840836 	299.9999999999872 	3.142751404517807e-13 	101324.9999999911
0.3365865865865861 	300.000000000047 	1.245443633753915e-12 	101324.9999999908
0.3390890890890886 	300.0000000000416 	5.411767232054184e-13 	101324.9999999904
0.3415915915915911 	300.0000000000031 	9.758573791746587e-13 	101324.9999999904
0.3440940940940935 	299.9999999999546 	6.831034030686257e-13 	101324.9999999905
0.3465965965965962 	300.0000000000284 	1.286508133862546e-12 	101324.9999999905
0.3490990990990985 	300.0000000000221 	1.396513888504618e-13 	101324.9999999904
0.3516016016016011 	299.9999999999851 	1.81282950147001e-13 	101324.9999999906
0.3541041041041035 	300.0000000000052 	4.162116757697963e-13 	101324.9999999906
0.3566066066066061 	299.9999999999578 	9.54607287960044e-13 	101324.9999999908
0.3591091091091085 	299.999999999926 	1.403318301171488e-12 	101324.9999999905
0.3616116116116112 	299.9999999999437 	1.717414315859931e-12 	101324.9999999905
0.3641141141141137 	299.9999999999375 	2.021166692291449e-12 	101324.9999999905
0.3666166166166161 	299.9999999999286 	2.49512460435715e-12 	101324.9999999906
0.3691191191191185 	300.0000000000378 	3.120645616020682e-12 	101324.9999999908
0.371621621621621 	300.0000000000139 	2.126407864671663e-12 	101324.9999999909
0.3741241241241237 	300.0000000000474 	2.763721471081029e-12 	101324.9999999912
0.3766266266266261 	300.0000000000297 	5.863142312487652e-13 	101324.9999999914
0.3791291291291286 	299.9999999999854 	2.81595527561439e-12 	101324.9999999915
0.3816316316316311 	299.9999999999232 	1.038153463337998e-12 	101324.9999999912
0.3841341341341336 	300.0000000000066 	2.437424289982815e-12 	101324.9999999909
0.3866366366366362 	299.9999999999922 	6.432657958991528e-13 	101324.9999999908
0.3891391391391387 	299.9999999999549 	2.039244631766778e-12 	101324.9999999906
0.391641641641641 	299.9999999999951 	8.620653739937143e-13 	101324.9999999906
0.3941441441441436 	300.0000000000048 	1.848300314486603e-12 	101324.9999999906
0.3966466466466462 	299.9999999999978 	9.381667188283149e-13 	101324.9999999905
0.3991491491491486 	299.999999999954 	1.671049681445008e-12 	101324.9999999905
0.4016516516516512 	299.999999999927 	6.369364365333184e-13 	101324.9999999907
0.4041541541541536 	299.9999999999587 	1.78621072082424e-12 	101324.999999991
0.4066566566566561 	299.9999999999577 	5.401877475521304e-13 	101324.9999999912
0.4091591591591587 	299.9999999999968 	1.585287088029232e-12 	101324.9999999911
0.4116616616616612 	300.0000000000088 	1.138552885968987e-13 	101324.9999999912
0.4141641641641635 	300.0000000000395 	4.07352908004303e-13 	101324.9999999912
0.4166666666666662 	299.9999999999939 	4.298759675227431e-13 	101324.9999999913
0.4191691691691687 	299.999999999944 	8.485481697753483e-13 	101324.9999999913
0.421671671671671 	300.0000000000088 	2.147713249747078e-12 	101324.9999999915
0.4241741741741737 	299.9999999999805 	1.871746095827714e-12 	101324.9999999915
0.4266766766766761 	299.9999999999568 	2.710865779766511e-12 	101324.9999999911
0.4291791791791785 	300.0000000000171 	2.776223683179057e-12 	101324.9999999909
0.4316816816816812 	300.0000000000081 	2.954619781893408e-12 	101324.9999999908
0.4341841841841836 	299.9999999999814 	3.170909299672002e-12 	101324.9999999907
0.4366866866866862 	299.9999999999251 	9.960983026348055e-13 	101324.9999999905
0.4391891891891885 	299.9999999999889 	2.382976656333251e-12 	101324.9999999906
0.4416916916916913 	299.9999999999825 	1.146252612898007e-12 	101324.9999999906
0.4441941941941936 	299.9999999999865 	2.134128012606439e-12 	101324.9999999905
0.4466966966966961 	299.9999999999212 	8.892935149525176e-13 	101324.9999999905
0.4491991991991987 	299.9999999999795 	1.444645806776956e-12 	101324.9999999905
0.4517017017017012 	299.9999999999786 	1.236635714227807e-12 	101324.9999999905
0.4542042042042035 	299.999999999982 	9.863123182050176e-13 	101324.9999999908
0.4567067067067062 	299.9999999999964 	8.445940707884761e-13 	101324.999999991
0.4592092092092087 	299.999999999934 	2.899764246160136e-13 	101324.9999999907
0.4617117117117112 	300.0000000000173 	3.791991712774992e-13 	101324.9999999908
0.4642142142142137 	299.9999999999657 	4.722707798985595e-13 	101324.9999999905
0.4667167167167162 	299.999999999991 	7.280845181345897e-13 	101324.9999999904
0.4692192192192187 	299.9999999999582 	9.539079432378332e-13 	101324.9999999903
0.4717217217217212 	300.0000000000098 	1.254317934621872e-12 	101324.9999999903
0.4742242242242236 	299.9999999999563 	1.243613588995295e-12 	101324.9999999906
0.4767267267267262 	299.9999999999779 	1.202847506213834e-12 	101324.999999991
0.4792292292292287 	300.000000000014 	7.002002591104518e-13 	101324.999999991
0.4817317317317312 	300.0000000000304 	1.226327051819868e-13 	101324.9999999911
0.4842342342342336 	299.9999999999847 	4.449135625289372e-13 	101324.9999999913
0.4867367367367362 	299.999999999955 	5.494817013948343e-13 	101324.9999999914
0.4892392392392387 	300.0000000000223 	9.750137128255067e-13 	101324.9999999913
0.4917417417417412 	300.0000000000064 	9.820348035682632e-13 	101324.9999999913
0.4942442442442437 	299.9999999999139 	1.112441997409782e-12 	101324.9999999912
0.4967467467467462 	299.9999999999343 	1.312872252115381e-12 	101324.9999999912
0.4992492492492487 	299.9999999999281 	1.18162707364881e-12 	101324.9999999909
0.5017517517517511 	299.9999999999596 	4.384150935219868e-13 	101324.9999999909
0.5042542542542537 	299.9999999999696 	7.286932944602002e-13 	101324.9999999909
0.5067567567567562 	299.9999999999533 	6.486356622664873e-13 	101324.999999991
0.5092592592592589 	299.9999999999733 	9.065659087154333e-13 	101324.9999999913
0.5117617617617611 	299.999999999961 	2.005760613517493e-12 	101324.9999999912
0.5142642642642637 	299.9999999999858 	1.197445924194783e-12 	101324.9999999911
0.5167667667667663 	299.999999999974 	2.880094210821283e-12 	101324.9999999909
0.5192692692692688 	299.9999999999318 	2.580521552134437e-12 	101324.9999999907
0.5217717717717714 	299.999999999947 	3.829062556511394e-12 	101324.9999999909
0.5242742742742736 	299.9999999999431 	2.49406353925907e-12 	101324.999999991
0.5267767767767763 	299.9999999999622 	3.228098493386484e-12 	101324.9999999911
0.5292792792792789 	299.9999999999441 	1.581685689163818e-12 	101324.9999999911
0.5317817817817813 	299.9999999999185 	2.761794220213016e-12 	101324.9999999912
0.5342842842842837 	300.0000000000131 	1.205119958508941e-12 	101324.999999991
0.5367867867867864 	300.0000000000005 	2.350217280271995e-12 	101324.9999999908
0.5392892892892888 	299.9999999999619 	6.323586959613257e-13 	101324.9999999906
0.5417917917917912 	300.0000000000039 	1.278210320401845e-12 	101324.9999999904
0.5442942942942938 	299.9999999999852 	3.544526937794218e-13 	101324.9999999906
0.5467967967967964 	299.9999999999572 	1.245971688913451e-12 	101324.9999999907
0.5492992992992988 	299.999999999948 	5.832074927495576e-13 	101324.9999999909
0.5518018018018012 	299.999999999941 	1.650949602681421e-12 	101324.9999999912
0.5543043043043039 	300.0000000000196 	1.157283523798181e-12 	101324.9999999914
0.5568068068068063 	299.9999999999935 	1.720749943807519e-12 	101324.9999999914
0.5593093093093087 	299.9999999999175 	6.80060922402321e-13 	101324.9999999914
0.5618118118118114 	299.9999999999679 	2.246422081643904e-12 	101324.9999999914
0.5643143143143137 	299.9999999999475 	9.230928655158109e-13 	101324.9999999913
0.5668168168168163 	299.9999999999902 	1.490240592849652e-12 	101324.9999999913
0.5693193193193188 	300.0000000000258 	1.236489369743326e-12 	101324.9999999911
0.5718218218218213 	300.0000000000214 	8.041326601459704e-13 	101324.9999999911
0.5743243243243239 	300.0000000000031 	1.795320694715537e-12 	101324.9999999909
0.5768268268268262 	300.0000000000058 	2.023747372372127e-12 	101324.9999999911
0.5793293293293288 	299.9999999999558 	2.423022060778403e-12 	101324.9999999911
0.5818318318318314 	299.9999999999298 	2.598306047166175e-12 	101324.9999999912
0.5843343343343338 	299.9999999999828 	3.509359972324366e-12 	101324.9999999911
0.5868368368368363 	299.9999999999785 	2.342341048612731e-12 	101324.9999999913
0.5893393393393387 	299.9999999999521 	2.210254525746638e-12 	101324.9999999913
0.5918418418418413 	299.9999999999439 	1.790398593612965e-12 	101324.9999999912
0.5943443443443439 	300.0000000000084 	1.743521960767642e-12 	101324.9999999913
0.5968468468468463 	300.0000000000121 	1.287085238997134e-12 	101324.9999999913
0.5993493493493487 	300.0000000000352 	1.052051970165215e-12 	101324.9999999911
0.6018518518518514 	299.9999999999806 	1.078431418495598e-12 	101324.9999999911
0.6043543543543537 	299.9999999999909 	1.190555229454587e-12 	101324.9999999911
0.6068568568568564 	299.9999999999799 	6.881664473359577e-13 	101324.9999999912
0.6093593593593587 	299.9999999999371 	8.158136632596873e-13 	101324.9999999911
0.6118618618618614 	299.999999999933 	1.385366435940468e-12 	101324.9999999912
0.6143643643643638 	300.0000000000115 	1.286728526972603e-12 	101324.9999999912
0.6168668668668662 	299.9999999999845 	1.587327636422577e-12 	101324.9999999912
0.6193693693693688 	299.9999999999596 	1.643797053095079e-12 	101324.9999999912
0.6218718718718714 	299.9999999999681 	1.597836823153128e-12 	101324.9999999914
0.6243743743743737 	299.9999999999418 	1.291580656422438e-12 	101324.9999999916
0.6268768768768762 	299.9999999999304 	1.312637621655213e-12 	101324.9999999918
0.629379379379379 	299.9999999999545 	4.455195028483408e-13 	101324.9999999921
0.6318818818818812 	299.9999999999813 	5.825395029057054e-13 	101324.9999999923
0.6343843843843838 	300.0000000000213 	9.463312481191336e-13 	101324.9999999925
0.6368868868868864 	299.9999999999888 	1.85883911072164e-12 	101324.9999999925
0.6393893893893888 	299.9999999999334 	2.213957003991809e-12 	101324.9999999925
0.6418918918918912 	300.0000000000121 	3.408027886381514e-12 	101324.9999999924
0.6443943943943939 	299.9999999999978 	3.115095964661318e-12 	101324.9999999925
0.6468968968968963 	299.999999999988 	4.076974682132856e-12 	101324.9999999924
0.6493993993993988 	299.9999999999783 	2.659837922313073e-12 	101324.9999999924
0.6519019019019012 	299.9999999999735 	3.466598683995849e-12 	101324.9999999924
0.6544044044044038 	299.9999999999156 	2.410903390620986e-12 	101324.9999999924
0.6569069069069065 	299.9999999999617 	2.794354282598241e-12 	101324.9999999923
0.6594094094094087 	299.9999999999656 	1.902862560292115e-12 	101324.9999999923
0.6619119119119113 	299.9999999999556 	1.960180552651949e-12 	101324.9999999924
0.664414414414414 	299.9999999999968 	1.295931720492225e-12 	101324.9999999925
0.6669169169169162 	300.0000000000198 	1.359554351727976e-12 	101324.9999999925
0.6694194194194188 	299.9999999999885 	1.392199021371653e-12 	101324.9999999927
0.6719219219219214 	299.9999999999312 	7.207051238998605e-13 	101324.9999999929
0.674424424424424 	299.9999999999773 	4.431981327169141e-13 	101324.999999993
0.6769269269269262 	299.9999999999298 	1.135459043456292e-12 	101324.9999999929
0.679429429429429 	300.0000000000074 	8.697518478372615e-13 	101324.9999999928
0.6819319319319311 	299.9999999999796 	1.647564131076814e-12 	101324.9999999927
0.6844344344344341 	299.9999999999917 	8.89419455438823e-13 	101324.9999999929
0.686936936936936 	299.9999999999882 	9.625394715950178e-13 	101324.999999993
0.6894394394394392 	299.9999999999845 	6.268164144469139e-14 	101324.9999999928
0.6919419419419413 	299.9999999999835 	1.402808369732028e-13 	101324.999999993
0.694444444444444 	299.9999999999455 	4.745449398365143e-13 	101324.9999999931
0.6969469469469463 	299.9999999999374 	1.196132066359272e-12 	101324.9999999931
0.6994494494494489 	299.9999999999308 	2.528115699901773e-12 	101324.999999993
0.7019519519519515 	299.9999999999883 	2.174593124058986e-12 	101324.9999999931
0.7044544544544538 	299.9999999999552 	3.549086263863084e-12 	101324.999999993
0.7069569569569564 	299.9999999999973 	2.170662339384883e-12 	101324.9999999929
0.7094594594594589 	299.999999999971 	4.111037427867327e-12 	101324.999999993
0.7119619619619615 	299.9999999999229 	2.440362964058611e-12 	101324.9999999931
0.7144644644644638 	299.9999999999545 	3.221523028840084e-12 	101324.999999993
0.7169669669669665 	299.9999999999286 	1.797052391246458e-12 	101324.9999999929
0.7194694694694688 	299.999999999992 	2.403986667063187e-12 	101324.999999993
0.7219719719719715 	299.9999999999892 	1.785470805261632e-12 	101324.9999999933
0.7244744744744737 	300.0000000000013 	2.014608921393004e-12 	101324.9999999935
0.7269769769769764 	299.9999999999938 	2.291332820571066e-12 	101324.9999999936
0.7294794794794791 	299.9999999999874 	1.282772164464365e-12 	101324.9999999937
0.7319819819819813 	299.9999999999817 	2.784989919068553e-12 	101324.9999999935
0.7344844844844839 	299.9999999999307 	1.970627308280071e-12 	101324.9999999932
0.7369869869869864 	299.9999999999561 	3.244292526735478e-12 	101324.9999999931
0.739489489489489 	299.9999999999475 	2.998839831497854e-12 	101324.999999993
0.7419919919919914 	299.9999999999379 	3.140402019444743e-12 	101324.9999999931
0.7444944944944939 	299.9999999999784 	3.738287049794929e-12 	101324.999999993
0.7469969969969963 	299.999999999973 	2.53312570227836e-12 	101324.9999999929
0.7494994994994989 	299.9999999999487 	4.203291391279984e-12 	101324.999999993
0.7520020020020015 	299.9999999999777 	2.404236861536271e-12 	101324.9999999931
0.7545045045045039 	299.9999999999734 	5.193849726629786e-12 	101324.9999999931
0.7570070070070062 	299.9999999999492 	3.211686765503626e-12 	101324.9999999931
0.7595095095095092 	299.9999999999391 	4.888377490707281e-12 	101324.9999999931
0.7620120120120112 	300.0000000000067 	4.37699308333886e-12 	101324.9999999934
0.7645145145145138 	299.9999999999879 	4.478043631579583e-12 	101324.9999999938
0.7670170170170165 	299.999999999938 	5.161633480553989e-12 	101324.9999999938
0.7695195195195191 	299.9999999999379 	4.764696524836439e-12 	101324.9999999941
0.7720220220220213 	299.9999999999436 	6.725218197571696e-12 	101324.9999999941
0.7745245245245239 	299.9999999999417 	5.221621742615012e-12 	101324.9999999941
0.7770270270270263 	299.9999999999738 	7.003301134316715e-12 	101324.9999999942
0.779529529529529 	299.9999999999844 	5.947112507423656e-12 	101324.9999999942
0.7820320320320313 	299.9999999999747 	6.741976121447884e-12 	101324.9999999942
0.784534534534534 	300.000000000004 	6.420736163644817e-12 	101324.9999999943
0.7870370370370364 	300.0000000000006 	5.503297919143759e-12 	101324.9999999944
0.7895395395395389 	299.999999999994 	5.882974292491311e-12 	101324.9999999945
0.7920420420420413 	299.9999999999817 	4.704360982639394e-12 	101324.9999999946
0.794544544544544 	299.9999999999768 	6.314100480519018e-12 	101324.9999999946
0.7970470470470463 	300.0000000000006 	4.089958569913609e-12 	101324.9999999946
0.799549549549549 	299.9999999999877 	6.504376107095724e-12 	101324.9999999948
0.8020520520520515 	299.9999999999942 	4.198786770702042e-12 	101324.9999999948
0.8045545545545539 	299.9999999999582 	6.131804962562708e-12 	101324.9999999947
0.8070570570570563 	299.9999999999836 	4.896785510693699e-12 	101324.9999999946
0.8095595595595589 	299.999999999962 	5.434790838444385e-12 	101324.9999999944
0.8120620620620614 	299.9999999999462 	5.580513648614693e-12 	101324.9999999944
0.8145645645645638 	299.9999999999978 	5.116608130058348e-12 	101324.9999999942
0.8170670670670666 	299.9999999999972 	5.213196439901155e-12 	101324.9999999942
0.8195695695695689 	299.9999999999811 	3.623122386556651e-12 	101324.9999999943
0.8220720720720714 	299.9999999999512 	5.653351897418876e-12 	101324.9999999942
0.8245745745745739 	299.9999999999975 	3.761616745720602e-12 	101324.9999999944
0.8270770770770765 	299.9999999999796 	5.455161146781913e-12 	101324.9999999945
0.8295795795795788 	299.9999999999607 	4.948078773866514e-12 	101324.9999999947
0.8320820820820815 	300.0000000000188 	6.020366386939512e-12 	101324.9999999951
0.834584584584584 	300.0000000000099 	5.407720463859992e-12 	101324.9999999953
0.8370870870870865 	299.9999999999709 	5.184469169783476e-12 	101324.9999999954
0.8395895895895891 	299.9999999999387 	5.760215080255437e-12 	101324.9999999953
0.8420920920920915 	299.9999999999578 	4.939617179970931e-12 	101324.9999999953
0.844594594594594 	299.9999999999494 	5.263981177129475e-12 	101324.9999999951
0.8470970970970964 	299.9999999999524 	5.511318618564984e-12 	101324.9999999951
0.8495995995995991 	299.9999999999907 	5.654543703065331e-12 	101324.9999999952
0.8521021021021015 	299.9999999999849 	6.582064018622128e-12 	101324.9999999951
0.8546046046046039 	299.9999999999818 	6.642106368689642e-12 	101324.9999999951
0.8571071071071066 	300.0000000000006 	7.819755930278998e-12 	101324.9999999951
0.8596096096096089 	299.9999999999711 	6.384123972140228e-12 	101324.9999999952
0.8621121121121116 	299.9999999999427 	9.165321667826385e-12 	101324.9999999954
0.8646146146146139 	299.9999999999969 	7.266496349602511e-12 	101324.9999999956
0.8671171171171166 	299.9999999999802 	8.916805691590781e-12 	101324.9999999957
0.8696196196196189 	299.9999999999544 	8.157615326104929e-12 	101324.9999999955
0.8721221221221216 	299.9999999999778 	8.42272489056097e-12 	101324.9999999953
0.874624624624624 	300.0000000000072 	7.432401199262784e-12 	101324.9999999952
0.8771271271271264 	300.0000000000026 	7.135789416969359e-12 	101324.9999999952
0.879629629629629 	300.0000000000017 	7.914858321761551e-12 	101324.9999999952
0.8821321321321317 	299.9999999999849 	6.721575617255522e-12 	101324.9999999953
0.8846346346346339 	299.9999999999395 	9.256524177966769e-12 	101324.9999999954
0.8871371371371364 	299.9999999999661 	7.380604867361655e-12 	101324.9999999954
0.8896396396396391 	299.9999999999675 	9.180865059451919e-12 	101324.9999999954
0.8921421421421414 	299.9999999999741 	8.060422140442785e-12 	101324.9999999955
0.8946446446446441 	299.9999999999906 	9.006218170055082e-12 	101324.9999999956
0.8971471471471464 	300.0000000000038 	8.589412422342497e-12 	101324.9999999957
0.8996496496496489 	299.9999999999843 	8.481864169891566e-12 	101324.9999999955
0.9021521521521517 	299.9999999999703 	9.541406774664436e-12 	101324.9999999954
0.9046546546546541 	299.9999999999936 	8.853252435146659e-12 	101324.9999999955
0.9071571571571564 	299.9999999999543 	9.417314089424045e-12 	101324.9999999956
0.9096596596596589 	299.9999999999571 	9.48804564676465e-12 	101324.9999999957
0.9121621621621616 	300.0000000000091 	9.846011223394311e-12 	101324.9999999957
0.9146646646646639 	299.9999999999819 	9.87444630301609e-12 	101324.9999999956
0.9171671671671666 	299.9999999999518 	9.464627649303158e-12 	101324.9999999954
0.9196696696696689 	299.9999999999991 	9.947094115655606e-12 	101324.9999999952
0.9221721721721714 	300.0000000000007 	8.364265636500396e-12 	101324.999999995
0.9246746746746741 	299.9999999999478 	1.035721341292617e-11 	101324.9999999951
0.9271771771771765 	299.999999999952 	7.89116246448583e-12 	101324.9999999955
0.9296796796796791 	299.9999999999928 	9.594197023256201e-12 	101324.9999999955
0.9321821821821816 	299.9999999999761 	8.598180366058816e-12 	101324.9999999954
0.9346846846846838 	299.9999999999553 	9.806645746616257e-12 	101324.9999999953
0.9371871871871866 	300.0000000000098 	9.387741295129985e-12 	101324.9999999952
0.9396896896896891 	300.0000000000127 	9.451453360780327e-12 	101324.9999999953
0.9421921921921914 	300.0000000000097 	9.683584289972267e-12 	101324.9999999953
0.9446946946946939 	299.9999999999712 	8.411643911252319e-12 	101324.9999999955
0.9471971971971965 	299.9999999999348 	1.018604019577725e-11 	101324.9999999957
0.9496996996996991 	299.9999999999646 	8.118595872204404e-12 	101324.9999999958
0.9522022022022016 	299.999999999973 	9.43592949411358e-12 	101324.9999999959
0.9547047047047038 	299.9999999999725 	8.617278183069368e-12 	101324.9999999961
0.9572072072072064 	299.9999999999662 	9.411258399092514e-12 	101324.9999999962
0.9597097097097093 	299.9999999999689 	8.92130321628073e-12 	101324.9999999963
0.9622122122122114 	299.9999999999613 	8.54096012705191e-12 	101324.9999999964
0.964714714714714 	299.9999999999631 	9.696213480704298e-12 	101324.9999999963
0.9672172172172167 	299.9999999999663 	9.300682767926147e-12 	101324.9999999963
0.969719719719719 	299.9999999999854 	1.043939198943665e-11 	101324.9999999963
0.9722222222222214 	299.9999999999806 	9.939854416165633e-12 	101324.9999999964
0.9747247247247239 	299.9999999999767 	1.041571604088994e-11 	101324.9999999964
0.9772272272272267 	300.0000000000024 	1.049470123989751e-11 	101324.9999999964
0.9797297297297292 	299.9999999999921 	1.002596489191275e-11 	101324.9999999961
0.9822322322322313 	299.9999999999955 	1.033144846225558e-11 	101324.9999999958
0.9847347347347344 	299.9999999999922 	8.882260374943557e-12 	101324.9999999958
0.9872372372372363 	299.9999999999563 	1.132435003128998e-11 	101324.999999996
0.9897397397397389 	299.9999999999726 	1.0161067065052e-11 	101324.9999999958
0.9922422422422417 	299.999999999955 	1.257135649373852e-11 	101324.9999999957
0.9947447447447441 	299.9999999999586 	1.140370832392851e-11 	101324.999999996
0.9972472472472468 	299.9999999999733 	1.228001583641128e-11 	101324.999999996
0.999749749749749 	299.9999999999692 	1.201990011135557e-11 	101324.9999999958
1.002252252252252 	299.999999999977 	1.278041413919475e-11 	101324.9999999958
1.004754754754754 	299.9999999999918 	1.290924525090093e-11 	101324.9999999956
1.007257257257256 	299.9999999999744 	1.197991852246726e-11 	101324.9999999955
1.009759759759759 	299.9999999999638 	1.431101954154383e-11 	101324.9999999954
1.012262262262261 	299.9999999999679 	1.278445873237035e-11 	101324.9999999956
1.014764764764764 	299.9999999999442 	1.415472170359674e-11 	101324.9999999959
1.017267267267267 	299.9999999999382 	1.286281734719345e-11 	101324.9999999961
1.019769769769769 	299.9999999999785 	1.327910857931164e-11 	101324.9999999964
1.022272272272272 	299.9999999999865 	1.250706500175432e-11 	101324.9999999964
1.024774774774774 	299.9999999999823 	1.246248503733153e-11 	101324.9999999962
1.027277277277277 	299.9999999999815 	1.359088806656683e-11 	101324.9999999962
1.029779779779779 	300.0000000000116 	1.264019075972772e-11 	101324.9999999962
1.032282282282282 	300.0000000000115 	1.300108890354476e-11 	101324.9999999964
1.034784784784784 	300.0000000000005 	1.183602534648363e-11 	101324.9999999965
1.037287287287286 	299.999999999974 	1.177114287076485e-11 	101324.9999999966
1.039789789789789 	299.9999999999779 	1.151288986757695e-11 	101324.9999999965
1.042292292292291 	300.0000000000068 	1.162670224060298e-11 	101324.9999999964
1.044794794794794 	300.0000000000226 	1.152602286614838e-11 	101324.9999999962
1.047297297297296 	300.0000000000349 	1.032832199944639e-11 	101324.9999999961
1.049799799799799 	299.9999999999938 	1.18130412953935e-11 	101324.999999996
1.052302302302302 	299.9999999999599 	1.013304307909472e-11 	101324.9999999959
1.054804804804804 	299.9999999999404 	1.19798247507635e-11 	101324.9999999959
1.057307307307306 	299.9999999999305 	1.148866700845946e-11 	101324.9999999958
1.059809809809809 	299.9999999999654 	1.283052942815671e-11 	101324.9999999957
1.062312312312312 	299.9999999999615 	1.233012728068849e-11 	101324.9999999957
1.064814814814814 	299.9999999999575 	1.285515642853462e-11 	101324.9999999958
1.067317317317317 	299.9999999999371 	1.245686096548256e-11 	101324.9999999959
1.069819819819819 	299.9999999999372 	1.20226180141453e-11 	101324.999999996
1.072322322322321 	299.9999999999966 	1.355362214911263e-11 	101324.9999999961
1.074824824824824 	300.0000000000192 	1.155503644583834e-11 	101324.9999999961
1.077327327327327 	300.0000000000317 	1.302643316880598e-11 	101324.999999996
1.079829829829829 	300.0000000000342 	1.19947011086685e-11 	101324.999999996
1.082332332332332 	300.0000000000059 	1.289866749318614e-11 	101324.9999999961
1.084834834834834 	299.9999999999884 	1.29759852840762e-11 	101324.9999999963
1.087337337337337 	299.9999999999555 	1.347417224501909e-11 	101324.9999999963
1.089839839839839 	299.9999999999419 	1.501984858892577e-11 	101324.999999996
1.092342342342342 	299.9999999999741 	1.354837836064083e-11 	101324.999999996
1.094844844844844 	299.9999999999757 	1.467798174770818e-11 	101324.9999999961
1.097347347347347 	299.9999999999508 	1.342545828844336e-11 	101324.9999999962
1.099849849849849 	299.99999999994 	1.597405738252824e-11 	101324.9999999964
1.102352352352352 	299.9999999999642 	1.386696166012821e-11 	101324.9999999964
1.104854854854854 	299.9999999999802 	1.549141863157819e-11 	101324.9999999964
1.107357357357357 	299.9999999999645 	1.375218572788292e-11 	101324.9999999965
1.109859859859859 	299.9999999999579 	1.511240804617489e-11 	101324.9999999967
1.112362362362362 	300.0000000000133 	1.427390604659471e-11 	101324.9999999967
1.114864864864865 	300.0000000000129 	1.459657582165016e-11 	101324.9999999966
1.117367367367367 	299.9999999999724 	1.552866309008661e-11 	101324.9999999964
1.119869869869869 	299.9999999999387 	1.404252489895315e-11 	101324.9999999967
1.122372372372372 	299.999999999964 	1.517613465594555e-11 	101324.999999997
1.124874874874874 	299.9999999999607 	1.398677259601822e-11 	101324.999999997
1.127377377377377 	299.9999999999667 	1.488513150184115e-11 	101324.9999999971
1.129879879879879 	300.0000000000125 	1.415956808336401e-11 	101324.9999999971
1.132382382382382 	300.0000000000309 	1.448116877909201e-11 	101324.999999997
1.134884884884884 	300.0000000000077 	1.369469680691922e-11 	101324.9999999971
1.137387387387387 	300.0000000000113 	1.360008877384265e-11 	101324.9999999971
1.139889889889889 	299.9999999999681 	1.507306030044496e-11 	101324.999999997
1.142392392392392 	299.9999999999603 	1.417116705274193e-11 	101324.9999999967
1.144894894894894 	300.0000000000122 	1.580151636348462e-11 	101324.9999999965
1.147397397397397 	299.9999999999975 	1.508882101312029e-11 	101324.9999999964
1.149899899899899 	299.9999999999492 	1.658192588270418e-11 	101324.9999999963
1.152402402402402 	299.9999999999391 	1.644658148538902e-11 	101324.9999999962
1.154904904904904 	299.9999999999693 	1.714546977382891e-11 	101324.9999999962
1.157407407407407 	299.9999999999691 	1.607660760736535e-11 	101324.9999999964
1.159909909909909 	299.9999999999433 	1.542968847815196e-11 	101324.9999999966
1.162412412412412 	299.9999999999371 	1.600170366613404e-11 	101324.9999999967
1.164914914914914 	299.9999999999642 	1.417506697463928e-11 	101324.9999999968
1.167417417417417 	299.9999999999721 	1.569245427766703e-11 	101324.9999999971
1.169919919919919 	300.000000000014 	1.492564675657365e-11 	101324.9999999973
1.172422422422422 	300.0000000000372 	1.577215672948948e-11 	101324.9999999974
1.174924924924925 	299.9999999999896 	1.471489274046038e-11 	101324.9999999976
1.177427427427427 	299.9999999999631 	1.507878747380126e-11 	101324.9999999978
1.179929929929929 	300.0000000000095 	1.553628623173962e-11 	101324.9999999978
1.182432432432432 	300.0000000000352 	1.378727989626219e-11 	101324.9999999978
1.184934934934934 	300.0000000000032 	1.477038509831733e-11 	101324.9999999978
1.187437437437437 	299.99999999998 	1.378988369162924e-11 	101324.9999999979
1.189939939939939 	299.9999999999746 	1.496105081854533e-11 	101324.9999999978
1.192442442442442 	299.9999999999447 	1.456951847783121e-11 	101324.9999999978
1.194944944944944 	299.9999999999421 	1.612859208245727e-11 	101324.9999999976
1.197447447447447 	299.9999999999908 	1.549547683963265e-11 	101324.9999999977
1.199949949949949 	300.0000000000102 	1.524262026517963e-11 	101324.9999999978
1.202452452452452 	299.9999999999628 	1.58004686150805e-11 	101324.9999999978
1.204954954954955 	299.9999999999566 	1.45867087264903e-11 	101324.9999999979
1.207457457457457 	299.9999999999846 	1.589601575195135e-11 	101324.999999998
1.20995995995996 	299.9999999999814 	1.484385658871436e-11 	101324.999999998
1.212462462462462 	299.9999999999882 	1.571248266689741e-11 	101324.9999999979
1.214964964964964 	299.9999999999902 	1.494739361929348e-11 	101324.9999999978
1.217467467467467 	299.9999999999868 	1.59795307125651e-11 	101324.9999999979
1.219969969969969 	299.9999999999757 	1.491881324294576e-11 	101324.9999999981
1.222472472472472 	300.0000000000168 	1.494382084458199e-11 	101324.9999999981
1.224974974974975 	300.0000000000381 	1.554462642283415e-11 	101324.9999999981
1.227477477477477 	299.9999999999974 	1.432380324520034e-11 	101324.9999999983
1.229979979979979 	299.9999999999847 	1.57499517034944e-11 	101324.9999999984
1.232482482482482 	299.9999999999606 	1.471631911508834e-11 	101324.9999999985
1.234984984984984 	299.9999999999591 	1.60816816350191e-11 	101324.9999999986
1.237487487487487 	299.9999999999802 	1.49512730516377e-11 	101324.9999999987
1.239989989989989 	299.9999999999827 	1.588179957538412e-11 	101324.9999999987
1.242492492492492 	300.0000000000085 	1.648780652936573e-11 	101324.9999999987
1.244994994994994 	299.9999999999814 	1.520919584447252e-11 	101324.9999999987
1.247497497497497 	299.999999999977 	1.682643776961324e-11 	101324.9999999985
1.249999999999999 	300 	1.651374891450912e-11 	101324.9999999982
