-1.25 	299.9885342303753 	1 	101295.6107373854
-1.247497497497497 	299.9935287091984 	1.052411029945736 	101320.3498391044
-1.244994994994995 	299.9925777645442 	0.9000190392378031 	101318.6486499293
-1.242492492492492 	299.9950644830117 	1.086143885221893 	101319.5286519656
-1.23998998998999 	300.0046765007868 	0.9734152456287046 	101330.7198955803
-1.237487487487487 	300.0076203994671 	1.014671317431345 	101333.9059654339
-1.234984984984985 	300.0110027351746 	1.024640453590988 	101338.0626463682
-1.232482482482482 	300.0138845967602 	1.046976912414304 	101341.397065263
-1.22997997997998 	300.0154987255362 	1.040020663986956 	101343.3495668417
-1.227477477477477 	300.0161047157175 	1.048986094167066 	101344.031545655
-1.224974974974975 	300.0166000999431 	1.048737026723615 	101344.6276294911
-1.222472472472472 	300.0180809487964 	1.052217035317483 	101346.3783363321
-1.21996996996997 	300.0206967128873 	1.060087487513675 	101349.4691883262
-1.217467467467467 	300.023634970004 	1.068268252037867 	101352.9438357008
-1.214964964964965 	300.0257909931329 	1.074082912046057 	101355.4933855422
-1.212462462462462 	300.026239577858 	1.075245453269637 	101356.0225872037
-1.20995995995996 	300.0246553272428 	1.070892449988589 	101354.1492909749
-1.207457457457457 	300.0216600267133 	1.062664564501144 	101350.6088696787
-1.204954954954955 	300.0184345807879 	1.053629408970437 	101346.7953223995
-1.202452452452452 	300.0158145282101 	1.046078962206714 	101343.6975319364
-1.19994994994995 	300.0139294085917 	1.040493321260052 	101341.4686964031
-1.197447447447447 	300.0124490989851 	1.036026060791569 	101339.7182307023
-1.194944944944945 	300.0109007784887 	1.031436317362783 	101337.8875011381
-1.192442442442442 	300.0090066537872 	1.025969472297349 	101335.6483555031
-1.18993993993994 	300.0067933855259 	1.01955190691811 	101333.0316643187
-1.187437437437437 	300.0042280492817 	1.012000507361725 	101329.9985702039
-1.184934934934935 	300.0010170774108 	1.002648918102193 	101326.2027674232
-1.182432432432432 	299.997061708413 	0.9913985289269337 	101321.5269384567
-1.17992992992993 	299.9929213112287 	0.9797654260451626 	101316.6321163786
-1.177427427427427 	299.9895462420601 	0.970222590005277 	101312.6424179939
-1.174924924924925 	299.9875472954291 	0.9643531614704481 	101310.2796101538
-1.172422422422422 	299.986700929392 	0.96153433913715 	101309.2789128864
-1.16991991991992 	299.9860263328712 	0.9591628689461819 	101308.4811462874
-1.167417417417417 	299.9844272386198 	0.9543864085096807 	101306.5911814157
-1.164914914914915 	299.9815329863802 	0.9462598843029073 	101303.1704117724
-1.162412412412412 	299.9780280619062 	0.9365758850266858 	101299.02748967
-1.15990990990991 	299.9751611396885 	0.9286504818681049 	101295.6389927048
-1.157407407407407 	299.9739434730193 	0.9252228061163148 	101294.2002582561
-1.154904904904904 	299.9746289476576 	0.9270051072511751 	101295.0105758884
-1.152402402402403 	299.9766669093538 	0.9325676658057249 	101297.4187905369
-1.1498998998999 	299.9791524412915 	0.9395414555688075 	101300.3561531442
-1.147397397397397 	299.9814711780203 	0.9462240953108338 	101303.0966447186
-1.144894894894895 	299.9835020370147 	0.9521329597338715 	101305.4972625534
-1.142392392392392 	299.985299275229 	0.9573333405764336 	101307.6218714716
-1.13988988988989 	299.9868586624791 	0.9618715538925264 	101309.4649688412
-1.137387387387387 	299.9882530853148 	0.9660303184557503 	101311.1131967998
-1.134884884884885 	299.9898084385114 	0.9707246854465025 	101312.9519398311
-1.132382382382382 	299.9920255114442 	0.9772920136051404 	101315.5726007518
-1.12987987987988 	299.9952775886901 	0.9866824042157603 	101319.4167371339
-1.127377377377377 	299.9994656660539 	0.9985641758513712 	101324.3679031688
-1.124874874874875 	300.0039111600041 	1.011092447015225 	101329.6233914909
-1.122372372372372 	300.0076822752058 	1.02178465975604 	101334.0818321058
-1.11986986986987 	300.0101644536368 	1.029006335987248 	101337.0167643315
-1.117367367367367 	300.0114467516898 	1.033000940484545 	101338.532792391
-1.114864864864865 	300.0122823167665 	1.035789948095182 	101339.5207183423
-1.112362362362362 	300.0136508628838 	1.039971739752225 	101341.1387883777
-1.10985985985986 	300.0161201986945 	1.04702361592699 	101344.0581047373
-1.107357357357357 	300.0194159107112 	1.056218057001832 	101347.954982814
-1.104854854854855 	300.0226015565773 	1.065093378129384 	101351.7217414893
-1.102352352352353 	300.0247357556931 	1.071126963887215 	101354.2451705754
-1.09984984984985 	300.0254137459354 	1.073157162047141 	101355.0467070444
-1.097347347347347 	300.0248056532999 	1.071551050491448 	101354.3274173335
-1.094844844844845 	300.0233291333327 	1.06740217823761 	101352.5820013994
-1.092342342342342 	300.0213394733507 	1.061725081828037 	101350.2299519387
-1.08983983983984 	300.0190884040887 	1.05531066354589 	101347.5681216917
-1.087337337337337 	300.0168745872583 	1.049033237252515 	101344.9505861785
-1.084834834834835 	300.015053709905 	1.043816254092878 	101342.7977197508
-1.082332332332332 	300.0137644854992 	1.03995830419556 	101341.2732561702
-1.07982982982983 	300.0126701796155 	1.036523554588183 	101339.9795760877
-1.077327327327327 	300.0110665447565 	1.031642367042371 	101338.0836429842
-1.074824824824825 	300.008336414134 	1.023711621543613 	101334.8559205279
-1.072322322322323 	300.0044372286775 	1.01267012328305 	101330.2462000707
-1.06981981981982 	300.0000553262119 	1.000369855998377 	101325.0657973559
-1.067317317317317 	299.9962373583124 	0.9895804286659401 	101320.5522241779
-1.064814814814815 	299.9936961288676 	0.9821743686742568 	101317.5480133738
-1.062312312312312 	299.9923096278951 	0.9778392698823677 	101315.9089646469
-1.05980980980981 	299.9912328513157 	0.9743664229723598 	101314.6361279512
-1.057307307307307 	299.9895274494255 	0.9692763272451957 	101312.6201866553
-1.054804804804805 	299.9867937547044 	0.9614801847671042 	101309.3888985621
-1.052302302302302 	299.9833558419574 	0.9517959912104474 	101305.3251289705
-1.0497997997998 	299.9799482992833 	0.9421724669750322 	101301.2972740526
-1.047297297297297 	299.9772439858618 	0.9344687045581993 	101298.100822762
-1.044794794794795 	299.9756061157031 	0.9297571491984866 	101296.1647581405
-1.042292292292292 	299.9751291375172 	0.9283582730362476 	101295.6013111806
-1.03978978978979 	299.9757556969208 	0.9301073453294491 	101296.3420697197
-1.037287287287287 	299.9772906046366 	0.9344193896241989 	101298.1556772458
-1.034784784784785 	299.979360817227 	0.9402295105414731 	101300.6023396606
-1.032282282282283 	299.9814571957793 	0.9461259007646765 	101303.080314134
-1.02977977977978 	299.9831061415879 	0.9508327669850302 	101305.0293553246
-1.027277277277277 	299.9841280880436 	0.9539041216918321 	101306.2373832837
-1.024774774774775 	299.9848271664584 	0.9561937153763462 	101307.0637535505
-1.022272272272272 	299.9859099821759 	0.9596026701580647 	101308.343696458
-1.01976976976977 	299.9880924601329 	0.9660173462794939 	101310.9233937185
-1.017267267267267 	299.9916053188061 	0.9760130622486982 	101315.075711047
-1.014764764764765 	299.9959568846758 	0.9882597593050702 	101320.2197965439
-1.012262262262262 	300.000187614728 	1.000206335540522 	101325.2213288912
-1.00975975975976 	300.003474191748 	1.009659367354873 	101329.1068490129
-1.007257257257257 	300.0056334638869 	1.016097700925213 	101331.6596998171
-1.004754754754755 	300.0071477122287 	1.020756948162235 	101333.4499794292
-1.002252252252252 	300.008742410494 	1.025556418969259 	101335.3352671135
-0.9997497497497498 	300.0109040209706 	1.031833999757527 	101337.8908467507
-0.9972472472472473 	300.013682940513 	1.039781118987166 	101341.1763796721
-0.9947447447447449 	300.0168053833482 	1.048684563944784 	101344.868171953
-0.9922422422422421 	300.0198828461054 	1.057459372077588 	101348.5069335547
-0.9897397397397399 	300.0225251142917 	1.064973965314716 	101351.6312027116
-0.9872372372372376 	300.0243480806031 	1.070126840316966 	101353.7868274041
-0.9847347347347346 	300.0250127086351 	1.071993278118943 	101354.5722506685
-0.9822322322322323 	300.0243805879445 	1.070248693228351 	101353.8244157479
-0.9797297297297296 	300.0227040314364 	1.065634136200046 	101351.8427042604
-0.9772272272272275 	300.0206363394889 	1.059925913553344 	101349.3983033892
-0.9747247247247248 	300.0189252331197 	1.055111046448317 	101347.3750705545
-0.9722222222222224 	300.0179425183281 	1.052154223901756 	101346.2130540909
-0.9697197197197196 	300.0173919818313 	1.050258654885203 	101345.562123072
-0.9672172172172175 	300.0164772910871 	1.047327544636757 	101344.4803706231
-0.9647147147147147 	300.0144601501345 	1.041428604904103 	101342.0955801581
-0.9622122122122124 	300.0111994864287 	1.032190902299936 	101338.2408124012
-0.9597097097097099 	300.0072503682225 	1.021073252344375 	101333.5718924997
-0.9572072072072073 	300.0034743194848 	1.010366436719117 	101329.1075344701
-0.9547047047047047 	300.0004954633381 	1.001763056727699 	101325.58588547
-0.9522022022022023 	299.9983891739569 	0.9955088232260028 	101323.0958441596
-0.9496996996996998 	299.9967518016439 	0.9905560755816188 	101321.160073255
-0.9471971971971973 	299.9950225572884 	0.9853991677304731 	101319.1159599111
-0.9446946946946947 	299.9928008893157 	0.9789254281230896 	101316.489798727
-0.9421921921921923 	299.989980223113 	0.9708060253333699 	101313.1553400842
-0.93968968968969 	299.9867011270225 	0.9614091350491989 	101309.2792795831
-0.9371871871871872 	299.9832473924562 	0.9515365083925835 	101305.1969424514
-0.9346846846846848 	299.9799890923656 	0.9422584223144823 	101301.3453618574
-0.9321821821821823 	299.9773708818382 	0.9348443912464561 	101298.2506612527
-0.9296796796796799 	299.9758502952276 	0.9305502098408485 	101296.4535038235
-0.9271771771771771 	299.9757088604106 	0.9301020954200053 	101296.2868421571
-0.9246746746746748 	299.9768212059997 	0.9331037515501159 	101297.6012956028
-0.9221721721721724 	299.9785869465755 	0.9379162873062543 	101299.6879244279
-0.9196696696696698 	299.9801988666911 	0.9423831339978206 	101301.5930346284
-0.9171671671671672 	299.981119872218 	0.9450798325394724 	101302.6816615722
-0.9146646646646649 	299.9814274523179 	0.9462093548375343 	101303.0454040664
-0.9121621621621623 	299.9817538989518 	0.9474421767930904 	101303.4316705309
-0.9096596596596597 	299.982858645904 	0.950795235681462 	101304.7374414023
-0.9071571571571573 	299.9851461651945 	0.9573631385157493 	101307.4409294253
-0.9046546546546547 	299.9884600808523 	0.96675403546602 	101311.3578822854
-0.9021521521521524 	299.9922403839211 	0.9774764701828383 	101315.8265101811
-0.8996496496496498 	299.995869275286 	0.9878472810182252 	101320.1164742823
-0.8971471471471473 	299.9989582026059 	0.9967722476300673 	101323.7681452992
-0.894644644644645 	300.0014379232369 	1.004020046193983 	101326.6996617472
-0.892142142142142 	300.0034805635387 	1.010043029379504 	101329.1145817869
-0.8896396396396397 	300.0053762571338 	1.015653762832665 	101331.355701979
-0.8871371371371374 	300.00745334656 	1.021782799615605 	101333.8112944017
-0.8846346346346349 	300.0100136763708 	1.029255980986719 	101336.8382983236
-0.8821321321321324 	300.0131987787302 	1.038414063138759 	101340.6039982111
-0.8796296296296297 	300.0168115239099 	1.04866383682035 	101344.8755197183
-0.8771271271271271 	300.0202663234471 	1.058388746081483 	101348.9604330009
-0.8746246246246248 	300.0228077116856 	1.065554510001384 	101351.9654852187
-0.8721221221221224 	300.0239209369531 	1.068794975070156 	101353.2816828159
-0.8696196196196196 	300.0236598851617 	1.068263217305792 	101352.9725273042
-0.8671171171171175 	300.022632370373 	1.065581433290719 	101351.7580829395
-0.8646146146146148 	300.0216234991731 	1.062831832171159 	101350.5655108856
-0.8621121121121121 	300.0210934290986 	1.061246134656259 	101349.9387889339
-0.8596096096096097 	300.0209114048828 	1.060498205087635 	101349.7233943735
-0.857107107107107 	300.0204949549851 	1.059059795167014 	101349.2304859383
-0.8546046046046049 	300.0192328513336 	1.055316756142933 	101347.7385008092
-0.8521021021021022 	300.0168950566489 	1.048646023190406 	101344.9748250755
-0.8495995995995997 	300.0137515814289 	1.039750087268038 	101341.2582588595
-0.8470970970970974 	300.0103657914309 	1.030132455321919 	101337.2552633132
-0.8445945945945946 	300.0072529591819 	1.021199536358203 	101333.5749776088
-0.8420920920920922 	300.0046483888292 	1.013632661026457 	101330.4956692313
-0.8395895895895897 	300.0025009103952 	1.007337262369564 	101327.9568228315
-0.8370870870870872 	300.0006109089657 	1.001779006757857 	101325.7224678531
-0.8345845845845846 	299.9987470256557 	0.9962908914434236 	101323.5190202379
-0.8320820820820823 	299.9966617858618 	0.9901505301488369 	101321.0539103338
-0.8295795795795798 	299.9940865048099 	0.9826155017117528 	101318.0096159684
-0.8270770770770772 	299.9908306148932 	0.9732085809027418 	101314.1608258582
-0.8245745745745746 	299.9869766858984 	0.9622164670387661 	101309.6051647843
-0.8220720720720721 	299.9829986044008 	0.950966322649316 	101304.9028827255
-0.8195695695695699 	299.9796341797066 	0.9414651800379761 	101300.9259600957
-0.817067067067067 	299.977536304007 	0.9354712430863341 	101298.4461567316
-0.8145645645645651 	299.9769197084533 	0.9335631254318688 	101297.7176791403
-0.8120620620620621 	299.9774486574825 	0.9348428648125988 	101298.342894907
-0.8095595595595597 	299.9784423269866 	0.9374839849697636 	101299.5170102479
-0.8070570570570572 	299.9792626124653 	0.9397580093818014 	101300.486403571
-0.8045545545545546 	299.9796311963593 	0.9408849332076137 	101300.9220926808
-0.8020520520520523 	299.9797021731086 	0.9412520629175732 	101301.006138462
-0.7995495495495494 	299.9799067766418 	0.9420176249020662 	101301.24826463
-0.7970470470470474 	299.9807083383459 	0.9444482386764945 	101302.1956438013
-0.7945445445445446 	299.9823986839321 	0.9493537192459828 	101304.1932069418
-0.7920420420420423 	299.9849996291322 	0.9567991727526414 	101307.2673641569
-0.7895395395395397 	299.9882651553606 	0.9661005592222786 	101311.1274719582
-0.7870370370370371 	299.9917611747719 	0.976052155940606 	101315.260009123
-0.7845345345345348 	299.9950099799127 	0.9853382058496802 	101319.1005833841
-0.7820320320320323 	299.9976745257102 	0.993042527267365 	101322.2506032975
-0.7795295295295296 	299.9997196690721 	0.9990845314457608 	101324.6683244379
-0.7770270270270272 	300.0014653481352 	1.004346056043243 	101326.7320502368
-0.7745245245245247 	300.0034605425813 	1.0103095967896 	101329.0907845875
-0.7720220220220222 	300.0061915835579 	1.018262638592133 	101332.3194887782
-0.7695195195195199 	300.0097603562624 	1.028445181279027 	101336.5386937431
-0.767017017017017 	300.0137437288366 	1.039699257566045 	101341.2483820621
-0.7645145145145147 	300.0173777656771 	1.049971310497949 	101345.5451440373
-0.7620120120120122 	300.0199833959917 	1.057441829950251 	101348.6260737313
-0.7595095095095097 	300.0213564605427 	1.06155037443047 	101350.249701216
-0.7570070070070072 	300.0218462151403 	1.063198565005204 	101350.8288175458
-0.7545045045045048 	300.0220628870695 	1.063986240029209 	101351.0850226088
-0.7520020020020022 	300.0224342296493 	1.065051066327026 	101351.5240579275
-0.7494994994994997 	300.0229363042939 	1.06635301881899 	101352.1176817677
-0.7469969969969972 	300.023168524439 	1.066850244739938 	101352.3919403411
-0.7444944944944945 	300.0226687989781 	1.065319089580525 	101351.8005626711
-0.7419919919919924 	300.021218436415 	1.061166621730157 	101350.0862772552
-0.7394894894894897 	300.0189452450336 	1.054710688615987 	101347.3989258952
-0.7369869869869872 	300.0161947702798 	1.046876668249632 	101344.1469296948
-0.7344844844844846 	300.0133320678153 	1.038677775694165 	101340.7622089131
-0.7319819819819822 	300.0106191849549 	1.0308705149513 	101337.5547347753
-0.7294794794794797 	300.0082018934807 	1.023888486808957 	101334.6967760139
-0.7269769769769773 	300.0061361137904 	1.017890226484117 	101332.2544305773
-0.7244744744744747 	300.0043790223179 	1.012734491688912 	101330.1771556658
-0.721971971971972 	300.0027465693119 	1.007884073249745 	101328.2471826877
-0.7194694694694695 	300.0009080845445 	1.002416686292739 	101326.0737705444
-0.7169669669669674 	299.9984848060782 	0.9953051088271789 	101323.2090944034
-0.7144644644644647 	299.9952382082528 	0.9859262350745178 	101319.3710840906
-0.711961961961962 	299.9912494253469 	0.9745344032572221 	101314.6559396543
-0.7094594594594597 	299.9869662554561 	0.9623737456091097 	101309.5928603478
-0.7069569569569573 	299.9830594928725 	0.9512882151343215 	101304.974777784
-0.7044544544544545 	299.9801547471907 	0.9429950234067496 	101301.5412625464
-0.7019519519519523 	299.9785753870486 	0.9383842635411965 	101299.6743430676
-0.6994494494494495 	299.9782193326276 	0.9371852750677495 	101299.2537604389
-0.6969469469469471 	299.9786279142884 	0.9381482165541435 	101299.7366123298
-0.6944444444444446 	299.9792033797502 	0.9396434960754133 	101300.4165818758
-0.6919419419419421 	299.9794829906552 	0.9404087074175953 	101300.7469300642
-0.6894394394394396 	299.9793475546792 	0.9401175299517555 	101300.5866717277
-0.6869369369369374 	299.9790703548092 	0.9395111220453483 	101300.2593276663
-0.6844344344344344 	299.9791758151566 	0.9400046063213281 	101300.3846194659
-0.6819319319319321 	299.9801589775451 	0.9429225744197605 	101301.5465530344
-0.6794294294294296 	299.9822002455681 	0.9487435790666746 	101303.9587876507
-0.6769269269269272 	299.9850498555274 	0.9567954196877986 	101307.3268191332
-0.6744244244244245 	299.9881625916649 	0.9656138498875501 	101311.0062985252
-0.6719219219219222 	299.9910040124812 	0.9737580996180019 	101314.3651896823
-0.6694194194194195 	299.9933382887316 	0.9805804443435655 	101317.1245267872
-0.6669169169169172 	299.995323540176 	0.9864861745681912 	101319.4714602281
-0.6644144144144146 	299.9973706750264 	0.9925626454495563 	101321.8914274445
-0.661911911911912 	299.9998695568883 	0.9998534414236393 	101324.8454615177
-0.6594094094094097 	300.002958270929 	1.008734664184977 	101328.4969866058
-0.656906906906907 	300.00645791796 	1.018730323426501 	101332.634320477
-0.6544044044044046 	300.00998596797 	1.028810191710235 	101336.8054865666
-0.6519019019019021 	300.013163718403 	1.037942467925815 	101340.5626517812
-0.6493993993993996 	300.0157921899062 	1.045571778409399 	101343.6703711913
-0.6468968968968971 	300.0179094094654 	1.051779128468836 	101346.1737495957
-0.6443943943943946 	300.019711153848 	1.057069424119033 	101348.3041283294
-0.6418918918918921 	300.0213845729793 	1.061925838645404 	101350.282758905
-0.6393893893893897 	300.0229506301853 	1.066386771304951 	101352.1345145147
-0.6368868868868871 	300.0242047810617 	1.069887578886361 	101353.6175069627
-0.6343843843843846 	300.0247936620394 	1.071469844708842 	101354.3136183191
-0.6318818818818821 	300.0243930248728 	1.070263992514259 	101353.8390814394
-0.6293793793793795 	300.0228951254861 	1.066003858392088 	101352.0687144821
-0.6268768768768773 	300.0205171299564 	1.059291471915202 	101349.2574791149
-0.6243743743743745 	300.0177366393661 	1.051439008358899 	101345.9697605434
-0.6218718718718721 	300.0151024975519 	1.043954904199925 	101342.8552214224
-0.6193693693693696 	300.0130118225533 	1.037932723644885 	101340.3834060927
-0.6168668668668671 	300.0115566681978 	1.033633280352367 	101338.6629520016
-0.6143643643643645 	300.0105097785171 	1.030444199821631 	101337.4252471671
-0.6118618618618621 	300.0094482935017 	1.027211255125253 	101336.1702514551
-0.6093593593593596 	300.0079449078484 	1.022758335101654 	101334.3929245785
-0.6068568568568571 	300.0057348359837 	1.016345773811876 	101331.7800996445
-0.6043543543543546 	300.0027909157191 	1.007883479037151 	101328.2997288855
-0.6018518518518521 	299.9992931668392 	0.9978555486292741 	101324.16475776
-0.5993493493493496 	299.9955279393791 	0.9870503814109884 	101319.7136028723
-0.5968468468468471 	299.9917776074703 	0.9762620389977957 	101315.2802176246
-0.5943443443443446 	299.9882547111606 	0.9661046638855015 	101311.1158125175
-0.591841841841842 	299.9850961088043 	0.9569877498922187 	101307.3820837721
-0.5893393393393397 	299.9823968663725 	0.9492006926701009 	101304.1914761141
-0.5868368368368371 	299.9802466728299 	0.9430059822584589 	101301.6498511029
-0.5843343343343346 	299.9787370965495 	0.9386587026661114 	101299.8654817247
-0.5818318318318321 	299.9779344282199 	0.9363345159019626 	101298.9167183323
-0.5793293293293297 	299.9778362517486 	0.9360167592892215 	101298.8009619584
-0.5768268268268271 	299.978345353204 	0.9374248834334984 	101299.4026477816
-0.5743243243243245 	299.9792777216291 	0.9400456274029054 	101300.5043454709
-0.5718218218218221 	299.9804157079186 	0.9432777426736654 	101301.8493728358
-0.5693193193193196 	299.9815835529364 	0.9466337524049602 	101303.2297824384
-0.5668168168168171 	299.9827065169744 	0.9499043064663514 	101304.5571123843
-0.5643143143143147 	299.983830758189 	0.9532131574257252 	101305.8860364649
-0.5618118118118121 	299.98509588672 	0.9569412507119412 	101307.3814039673
-0.5593093093093094 	299.9866718230771 	0.9615551716324438 	101309.2442066779
-0.5568068068068072 	299.9886886460636 	0.967412998296898 	101311.6282075432
-0.5543043043043046 	299.9911859007684 	0.974624170063227 	101314.5801161505
-0.551801801801802 	299.9940991856083 	0.9830118090568153 	101318.0239760302
-0.5492992992992995 	299.9972859675152 	0.9921810626263046 	101321.7911871801
-0.5467967967967969 	300.0005749874406 	1.001655308213175 	101325.6793998183
-0.5442942942942947 	300.0038187615696 	1.01102006314329 	101329.5142765061
-0.5417917917917919 	300.0069282208673 	1.020019437950086 	101333.190398904
-0.5392892892892895 	300.0098790918502 	1.028576212567927 	101336.6791871327
-0.536786786786787 	300.0126927913647 	1.036739299819699 	101340.0058308125
-0.5342842842842846 	300.0154011978298 	1.044588062514844 	101343.2080579192
-0.531781781781782 	300.018011232509 	1.052134133525904 	101346.2941049055
-0.5292792792792794 	300.020481732953 	1.059256420002501 	101349.2151619921
-0.526776776776777 	300.0227188593079 	1.065688737939573 	101351.8604088594
-0.5242742742742745 	300.0245910729171 	1.071059775479528 	101354.0742049644
-0.521771771771772 	300.0259561531391 	1.074968967652923 	101355.6883663407
-0.5192692692692695 	300.0266924805363 	1.077073809744529 	101356.559114296
-0.516766766766767 	300.0267261772162 	1.077163863340104 	101356.5984127125
-0.5142642642642645 	300.0260435078653 	1.07520529537507 	101355.7913521123
-0.511761761761762 	300.0246993659218 	1.071352519480018 	101354.2024733364
-0.5092592592592596 	300.0228062778276 	1.065922175766738 	101351.9641730905
-0.506756756756757 	300.0205131624627 	1.059338621238644 	101349.2528072808
-0.5042542542542544 	300.0179849250868 	1.052072324088827 	101346.2634768731
-0.5017517517517521 	300.0153818429538 	1.044581624719067 	101343.1857037866
-0.4992492492492494 	300.0128431492248 	1.037266247697143 	101340.184114227
-0.496746746746747 	300.0104770064817 	1.030438196545386 	101337.3865863896
-0.4942442442442445 	300.0083567428344 	1.024310381929431 	101334.8798052068
-0.4917417417417421 	300.0065221633722 	1.018999847371163 	101332.7108177131
-0.4892392392392395 	300.0049843547 	1.014541107024209 	101330.8927177514
-0.486736736736737 	300.0037323537626 	1.010904959536147 	101329.4125326694
-0.4842342342342345 	300.0027402668266 	1.008018740908684 	101328.2396409129
-0.481731731731732 	300.0019738048148 	1.005785035987637 	101327.3334982706
-0.4792292292292296 	300.0013956209362 	1.004097056112513 	101326.6499483095
-0.4767267267267268 	300.0009692128142 	1.002849956072487 	101326.1458344703
-0.4742242242242246 	300.0006614273076 	1.001948165881897 	101325.7819606569
-0.471721721721722 	300.0004437783833 	1.001309313299068 	101325.5246493679
-0.4692192192192195 	300.0002928658711 	1.000865540490892 	101325.3462358976
-0.4667167167167169 	300.0001901848302 	1.000563043985271 	101325.2248431553
-0.4642142142142145 	300.0001215802686 	1.000360564360038 	101325.1437365273
-0.461711711711712 	300.0000765412468 	1.000227391096983 	101325.090489856
-0.4592092092092094 	300.0000474711023 	1.000141276498633 	101325.0561221337
-0.456706706706707 	300.0000290143665 	1.000086500673999 	101325.0343018732
-0.4542042042042045 	300.0000174817376 	1.00005221097211 	101325.0206676452
-0.451701701701702 	300.0000103867361 	1.000031076303352 	101325.0122796689
-0.4491991991991995 	300.0000060872442 	1.000018245184257 	101325.0071966637
-0.4466966966966969 	300.0000035199016 	1.000010569113621 	101325.0041614524
-0.4441941941941945 	300.0000020087575 	1.000006042472624 	101325.002374885
-0.441691691691692 	300.0000011316304 	1.000003410249261 	101325.0013379302
-0.4391891891891895 	300.000000629494 	1.000001900452809 	101325.000744255
-0.436686686686687 	300.0000003458218 	1.000001046003579 	101325.0004088906
-0.4341841841841846 	300.0000001876827 	1.000000568711678 	101325.0002219142
-0.431681681681682 	300.0000001006138 	1.000000305524623 	101325.0001189993
-0.4291791791791794 	300.0000000532856 	1.000000162215188 	101325.0000630625
-0.426676676676677 	300.0000000278621 	1.000000085133764 	101325.0000330321
-0.4241741741741744 	300.0000000144133 	1.000000044173622 	101325.0000171039
-0.421671671671672 	300.0000000074097 	1.000000022666979 	101325.0000087562
-0.4191691691691694 	300.0000000037883 	1.000000011504997 	101325.0000044314
-0.4166666666666669 	300.0000000019269 	1.000000005778842 	101325.0000022168
-0.4141641641641645 	300.0000000009063 	1.000000002873142 	101325.0000010951
-0.411661661661662 	300.0000000004433 	1.000000001415122 	101325.0000005331
-0.4091591591591594 	300.00000000021 	1.00000000069089 	101325.0000002547
-0.406656656656657 	300.000000000048 	1.000000000335484 	101325.0000001182
-0.4041541541541545 	300.0000000000335 	1.000000000162404 	101325.000000052
-0.401651651651652 	299.9999999999655 	1.000000000078763 	101325.0000000197
-0.3991491491491494 	299.9999999999851 	1.000000000037301 	101325.0000000044
-0.396646646646647 	299.9999999999642 	1.000000000029177 	101324.9999999969
-0.3941441441441444 	299.9999999999928 	1.000000000002338 	101324.9999999937
-0.3916416416416419 	299.9999999999614 	0.9999999999996889 	101324.9999999921
-0.3891391391391395 	299.999999999967 	1.000000000005522 	101324.9999999918
-0.3866366366366368 	299.9999999999778 	1.000000000005449 	101324.999999992
-0.3841341341341344 	299.9999999999994 	1.000000000004502 	101324.9999999916
-0.381631631631632 	299.999999999952 	1.000000000003861 	101324.9999999914
-0.3791291291291294 	299.9999999999752 	1.00000000000351 	101324.9999999912
-0.3766266266266269 	299.9999999999998 	1.000000000003746 	101324.9999999912
-0.3741241241241244 	300.0000000000201 	1.000000000004672 	101324.999999991
-0.371621621621622 	300.000000000008 	1.00000000000407 	101324.999999991
-0.3691191191191194 	300.0000000000169 	1.000000000016236 	101324.9999999906
-0.366616616616617 	300.0000000000188 	0.9999999999976815 	101324.9999999903
-0.3641141141141143 	299.9999999999617 	0.9999999999975874 	101324.9999999899
-0.3616116116116119 	299.9999999999556 	1.000000000003587 	101324.9999999899
-0.3591091091091095 	299.999999999987 	1.000000000004153 	101324.9999999903
-0.356606606606607 	299.9999999999758 	1.000000000003761 	101324.9999999908
-0.3541041041041044 	299.9999999999931 	1.000000000004273 	101324.9999999912
-0.3516016016016019 	300.0000000000122 	1.000000000004279 	101324.9999999913
-0.3490990990990994 	300.0000000000094 	1.000000000003518 	101324.9999999917
-0.346596596596597 	300.000000000039 	1.000000000009473 	101324.9999999917
-0.3440940940940944 	300.0000000000445 	0.9999999999996231 	101324.999999992
-0.3415915915915919 	300.000000000035 	0.9999999999983699 	101324.9999999924
-0.3390890890890895 	299.9999999999869 	1.000000000000845 	101324.9999999921
-0.3365865865865869 	300.0000000000038 	1.000000000001634 	101324.9999999914
-0.3340840840840844 	299.9999999999978 	1.000000000002401 	101324.9999999911
-0.3315815815815819 	300.0000000000191 	1.000000000003754 	101324.999999991
-0.3290790790790794 	300.0000000000227 	1.000000000003515 	101324.9999999912
-0.3265765765765769 	299.9999999999491 	1.000000000002275 	101324.9999999913
-0.3240740740740744 	299.9999999999847 	1.00000000000127 	101324.9999999913
-0.3215715715715718 	300.0000000000003 	1.000000000000471 	101324.9999999911
-0.3190690690690695 	299.9999999999471 	1.000000000001585 	101324.9999999907
-0.3165665665665668 	299.9999999999858 	1.000000000002902 	101324.9999999909
-0.3140640640640644 	299.9999999999966 	1.000000000002611 	101324.9999999907
-0.311561561561562 	299.99999999995 	1.000000000001687 	101324.9999999912
-0.3090590590590593 	299.9999999999899 	0.9999999999989908 	101324.9999999907
-0.3065565565565568 	299.9999999999989 	1.000000000010972 	101324.9999999904
-0.3040540540540545 	299.9999999999942 	0.99999999999286 	101324.9999999905
-0.3015515515515518 	300.0000000000154 	0.9999999999951539 	101324.9999999911
-0.2990490490490494 	299.9999999999611 	1.000000000001881 	101324.9999999915
-0.2965465465465469 	299.9999999999818 	1.000000000002999 	101324.9999999918
-0.2940440440440444 	300.0000000000101 	1.000000000003206 	101324.9999999916
-0.2915415415415418 	300.0000000000173 	1.000000000003551 	101324.9999999914
-0.2890390390390395 	300.0000000000166 	1.000000000004282 	101324.999999991
-0.2865365365365368 	299.999999999985 	1.000000000004205 	101324.9999999899
-0.2840340340340343 	299.9999999999899 	1.000000000010064 	101324.9999999903
-0.2815315315315318 	299.9999999999677 	1.00000000000086 	101324.9999999911
-0.2790290290290295 	299.9999999999473 	1.000000000001563 	101324.9999999921
-0.2765265265265269 	299.9999999999879 	1.00000000000416 	101324.9999999915
-0.2740240240240244 	300.0000000000256 	1.000000000004087 	101324.9999999909
-0.2715215215215219 	300.0000000000286 	1.000000000003833 	101324.9999999906
-0.2690190190190194 	299.999999999963 	1.000000000002595 	101324.9999999907
-0.2665165165165169 	299.999999999975 	1.000000000000711 	101324.9999999905
-0.2640140140140144 	299.9999999999652 	0.9999999999991371 	101324.9999999898
-0.2615115115115119 	299.9999999999856 	1.000000000006275 	101324.9999999899
-0.2590090090090094 	299.9999999999364 	0.9999999999977174 	101324.9999999903
-0.2565065065065068 	299.9999999999805 	0.9999999999996791 	101324.9999999907
-0.2540040040040044 	299.9999999999973 	1.000000000003018 	101324.999999991
-0.2515015015015019 	300.0000000000321 	1.000000000003244 	101324.9999999908
-0.2489989989989994 	300.0000000000453 	1.000000000003252 	101324.9999999911
-0.2464964964964968 	300.0000000000078 	1.000000000002614 	101324.999999991
-0.2439939939939944 	300.000000000001 	1.000000000009668 	101324.9999999904
-0.2414914914914919 	299.9999999999707 	1.000000000001249 	101324.9999999903
-0.2389889889889893 	299.9999999999757 	1.000000000002347 	101324.99999999
-0.2364864864864869 	300.000000000013 	1.000000000004584 	101324.9999999904
-0.2339839839839843 	299.9999999999569 	1.000000000011561 	101324.9999999905
-0.2314814814814819 	299.9999999999662 	1.000000000000582 	101324.999999991
-0.2289789789789792 	299.9999999999285 	1.000000000000666 	101324.9999999918
-0.2264764764764769 	299.9999999999287 	1.000000000003485 	101324.999999992
-0.2239739739739743 	299.9999999999507 	1.000000000003748 	101324.9999999916
-0.2214714714714718 	299.9999999999298 	1.000000000004221 	101324.9999999912
-0.2189689689689693 	299.9999999999418 	1.000000000003751 	101324.9999999909
-0.2164664664664669 	299.9999999999732 	1.00000000000976 	101324.9999999905
-0.2139639639639643 	299.9999999999342 	0.9999999999994003 	101324.9999999903
-0.2114614614614618 	299.9999999999483 	1.000000000000973 	101324.9999999909
-0.2089589589589593 	299.9999999999939 	1.000000000003433 	101324.9999999915
-0.2064564564564568 	299.9999999999972 	1.000000000003644 	101324.9999999915
-0.2039539539539543 	299.9999999999216 	1.000000000004231 	101324.9999999921
-0.2014514514514518 	299.9999999999282 	1.000000000004692 	101324.9999999922
-0.1989489489489494 	299.9999999999606 	1.000000000012288 	101324.9999999916
-0.1964464464464468 	299.9999999999953 	1.000000000001886 	101324.999999991
-0.1939439439439443 	299.9999999999976 	1.000000000002124 	101324.9999999906
-0.1914414414414418 	299.9999999999424 	1.000000000004631 	101324.9999999909
-0.1889389389389393 	299.9999999999737 	1.000000000004798 	101324.9999999909
-0.1864364364364368 	300.0000000000264 	1.000000000004345 	101324.9999999906
-0.1839339339339343 	299.999999999987 	1.000000000003119 	101324.9999999902
-0.1814314314314318 	299.9999999999843 	1.000000000001846 	101324.9999999901
-0.1789289289289293 	299.9999999999204 	1.000000000001197 	101324.9999999906
-0.1764264264264268 	299.9999999999465 	1.00000000000032 	101324.9999999912
-0.1739239239239243 	299.9999999999091 	0.9999999999992754 	101324.9999999909
-0.1714214214214218 	299.999999999959 	1.000000000000442 	101324.9999999903
-0.1689189189189193 	299.9999999999423 	1.000000000002746 	101324.99999999
-0.1664164164164168 	299.9999999999819 	1.000000000004516 	101324.9999999899
-0.1639139139139143 	300.0000000000016 	1.000000000004923 	101324.9999999904
-0.1614114114114118 	300.0000000000186 	1.000000000001978 	101324.9999999908
-0.1589089089089093 	300.0000000000147 	1.000000000014782 	101324.999999991
-0.1564064064064068 	299.9999999999833 	0.9999999999943404 	101324.9999999912
-0.1539039039039043 	299.999999999992 	1.000000000003745 	101324.9999999906
-0.1514014014014018 	300.0000000000146 	0.9999999999985018 	101324.9999999909
-0.1488988988988993 	299.999999999999 	1.00000000000783 	101324.999999991
-0.1463963963963968 	299.999999999996 	1.000000000001485 	101324.9999999909
-0.1438938938938943 	299.9999999999658 	1.000000000003085 	101324.999999991
-0.1413913913913918 	299.9999999999287 	1.000000000004748 	101324.9999999911
-0.1388888888888893 	299.9999999999545 	1.000000000003134 	101324.999999991
-0.1363863863863868 	299.999999999922 	1.000000000002554 	101324.9999999913
-0.1338838838838843 	299.999999999895 	1.000000000002288 	101324.9999999909
-0.1313813813813818 	299.999999999965 	1.000000000002567 	101324.9999999914
-0.1288788788788793 	299.9999999999443 	1.000000000002907 	101324.999999991
-0.1263763763763768 	299.9999999999674 	1.000000000002686 	101324.9999999903
-0.1238738738738743 	299.9999999999399 	1.000000000002064 	101324.9999999899
-0.1213713713713717 	299.9999999999665 	1.000000000003487 	101324.9999999904
-0.1188688688688693 	300.0000000000138 	1.000000000004692 	101324.9999999906
-0.1163663663663668 	299.9999999999221 	1.000000000004678 	101324.9999999908
-0.1138638638638643 	299.9999999999613 	1.000000000011066 	101324.9999999906
-0.1113613613613618 	299.9999999999816 	0.9999999999988798 	101324.9999999901
-0.1088588588588592 	299.9999999999808 	1.000000000007103 	101324.9999999895
-0.1063563563563568 	299.9999999999687 	0.9999999999984077 	101324.9999999896
-0.1038538538538543 	299.9999999999748 	1.000000000000161 	101324.9999999905
-0.1013513513513517 	299.9999999999987 	1.000000000004257 	101324.9999999905
-0.09884884884884926 	299.9999999999738 	1.000000000005092 	101324.999999991
-0.09634634634634676 	299.9999999999219 	1.000000000003904 	101324.999999991
-0.09384384384384425 	299.9999999998879 	1.000000000002906 	101324.9999999907
-0.09134134134134177 	299.9999999999868 	1.000000000002593 	101324.9999999901
-0.08883883883883925 	300.0000000000033 	1.000000000002688 	101324.9999999894
-0.08633633633633674 	299.9999999999511 	1.000000000002762 	101324.9999999901
-0.08383383383383426 	299.9999999999882 	1.000000000004322 	101324.9999999908
-0.08133133133133173 	299.9999999999781 	1.000000000003772 	101324.9999999908
-0.07882882882882926 	299.9999999999129 	1.000000000002876 	101324.9999999912
-0.07632632632632676 	299.9999999999441 	1.000000000003023 	101324.999999991
-0.07382382382382424 	299.9999999999026 	1.000000000002998 	101324.9999999906
-0.07132132132132173 	299.9999999999617 	1.00000000000171 	101324.9999999905
-0.06881881881881925 	299.9999999999476 	1.000000000000463 	101324.9999999904
-0.06631631631631671 	299.9999999998921 	1.000000000000044 	101324.9999999906
-0.06381381381381425 	299.999999999929 	0.9999999999998017 	101324.9999999906
-0.06131131131131173 	299.99999999995 	1.000000000000411 	101324.9999999911
-0.05880880880880923 	299.9999999999534 	1.000000000000379 	101324.9999999907
-0.05630630630630672 	299.9999999999495 	1.000000000001134 	101324.9999999909
-0.05380380380380424 	300.0000000000163 	1.000000000001618 	101324.9999999906
-0.05130130130130173 	300.0000000000103 	1.000000000001624 	101324.9999999906
-0.04879879879879922 	299.999999999923 	1.000000000002297 	101324.9999999903
-0.04629629629629672 	299.999999999915 	1.00000000000291 	101324.9999999908
-0.04379379379379422 	299.9999999999275 	1.000000000002249 	101324.9999999909
-0.04129129129129173 	299.9999999999405 	1.000000000001713 	101324.9999999902
-0.03878878878878922 	299.9999999999935 	0.999999999999884 	101324.9999999898
-0.03628628628628671 	299.9999999999783 	0.9999999999995398 	101324.9999999903
-0.03378378378378422 	299.999999999918 	1.000000000000051 	101324.9999999903
-0.03128128128128172 	299.9999999999322 	1.000000000000187 	101324.9999999907
-0.02877877877877922 	299.9999999999926 	1.000000000000683 	101324.9999999911
-0.0262762762762767 	299.9999999999137 	1.00000000000052 	101324.9999999907
-0.02377377377377422 	299.9999999999608 	0.9999999999997696 	101324.9999999908
-0.0212712712712717 	299.9999999998973 	0.999999999999108 	101324.9999999904
-0.01876876876876921 	299.9999999999516 	0.9999999999991203 	101324.9999999907
-0.01626626626626671 	299.9999999999847 	0.9999999999985435 	101324.9999999914
-0.0137637637637642 	299.9999999999479 	0.9999999999983694 	101324.9999999912
-0.0112612612612617 	299.9999999999725 	0.9999999999981135 	101324.9999999911
-0.008758758758759198 	299.9999999999671 	0.9999999999988823 	101324.999999991
-0.006256256256256697 	299.999999999923 	0.9999999999991876 	101324.9999999911
-0.003753753753754195 	299.9999999999259 	0.9999999999992969 	101324.9999999909
-0.001251251251251693 	299.9999999999251 	0.9999999999995814 	101324.9999999903
0.00125125125125081 	299.9999999999118 	1.000000000000408 	101324.9999999904
0.003753753753753312 	299.9999999999173 	1.000000000000835 	101324.9999999906
0.006256256256255817 	299.9999999999113 	1.00000000000011 	101324.9999999906
0.008758758758758317 	299.9999999999272 	0.9999999999998507 	101324.9999999906
0.01126126126126082 	299.9999999999619 	1.000000000001341 	101324.9999999898
0.01376376376376332 	299.9999999999405 	1.00000000000209 	101324.9999999895
0.01626626626626582 	299.9999999999752 	1.000000000000392 	101324.9999999904
0.01876876876876833 	299.9999999999736 	0.9999999999991837 	101324.9999999912
0.02127127127127083 	299.9999999999213 	0.9999999999993423 	101324.9999999912
0.02377377377377332 	299.9999999999744 	0.9999999999990743 	101324.9999999908
0.02627627627627583 	299.9999999999227 	0.9999999999987992 	101324.9999999911
0.02877877877877833 	299.999999999964 	0.9999999999989186 	101324.9999999912
0.03128128128128083 	299.9999999999633 	0.9999999999988566 	101324.9999999909
0.03378378378378333 	299.9999999999207 	0.9999999999991577 	101324.9999999901
0.03628628628628584 	299.9999999999421 	1.000000000000656 	101324.9999999893
0.03878878878878834 	299.9999999999903 	1.000000000001511 	101324.9999999896
0.04129129129129084 	299.9999999999496 	1.000000000002164 	101324.9999999902
0.04379379379379333 	299.9999999999469 	1.000000000002289 	101324.9999999901
0.04629629629629585 	299.9999999999247 	1.0000000000016 	101324.99999999
0.04879879879879834 	299.9999999999104 	1.000000000000845 	101324.9999999908
0.05130130130130085 	299.9999999999867 	1.000000000000087 	101324.9999999911
0.05380380380380335 	300.0000000000174 	1.000000000000632 	101324.9999999911
0.05630630630630584 	299.9999999999855 	1.000000000001356 	101324.9999999912
0.05880880880880836 	299.9999999999405 	1.000000000000835 	101324.9999999905
0.06131131131131085 	299.9999999999515 	1.000000000000157 	101324.99999999
0.06381381381381336 	299.9999999999623 	0.9999999999993279 	101324.9999999906
0.06631631631631586 	299.9999999999179 	0.9999999999989323 	101324.9999999911
0.06881881881881835 	299.9999999999387 	0.999999999999408 	101324.9999999913
0.07132132132132088 	299.9999999999762 	0.9999999999992729 	101324.9999999903
0.07382382382382337 	299.9999999999193 	0.9999999999992246 	101324.9999999896
0.07632632632632587 	299.9999999999449 	0.9999999999993361 	101324.9999999896
0.07882882882882837 	299.9999999999418 	1.000000000000102 	101324.99999999
0.08133133133133086 	299.9999999999553 	0.9999999999998903 	101324.9999999903
0.08383383383383337 	299.9999999999765 	0.9999999999992142 	101324.9999999905
0.08633633633633589 	299.9999999999177 	0.9999999999981152 	101324.9999999912
0.08883883883883838 	299.9999999999814 	0.9999999999973278 	101324.999999991
0.09134134134134086 	299.9999999999793 	0.9999999999970385 	101324.9999999915
0.09384384384384339 	299.9999999999147 	0.9999999999974137 	101324.9999999911
0.09634634634634588 	299.9999999999446 	0.9999999999977368 	101324.9999999912
0.09884884884884838 	299.9999999999662 	0.9999999999971261 	101324.999999991
0.1013513513513509 	300.0000000000225 	0.9999999999976894 	101324.9999999904
0.1038538538538534 	299.9999999999867 	0.9999999999976427 	101324.9999999907
0.1063563563563559 	299.9999999999916 	0.9999999999975651 	101324.9999999905
0.1088588588588584 	300.0000000000185 	0.9999999999974533 	101324.9999999904
0.1113613613613609 	299.9999999999685 	0.999999999998325 	101324.99999999
0.1138638638638634 	299.999999999927 	0.9999999999979017 	101324.9999999899
0.1163663663663659 	299.9999999999308 	0.999999999997548 	101324.9999999896
0.1188688688688684 	299.9999999999482 	0.9999999999985223 	101324.9999999897
0.1213713713713709 	299.9999999999893 	0.9999999999991416 	101324.9999999903
0.1238738738738734 	299.9999999999387 	0.9999999999993958 	101324.9999999903
0.1263763763763759 	299.9999999999737 	0.9999999999986781 	101324.9999999901
0.1288788788788784 	299.9999999999814 	0.999999999997398 	101324.9999999894
0.1313813813813809 	299.999999999971 	0.9999999999976951 	101324.9999999894
0.1338838838838834 	299.9999999999757 	0.9999999999981847 	101324.9999999894
0.1363863863863859 	300.0000000000057 	0.9999999999985836 	101324.9999999901
0.1388888888888884 	300.0000000000351 	0.9999999999983837 	101324.9999999908
0.1413913913913909 	300.0000000000114 	0.9999999999988815 	101324.9999999909
0.1438938938938934 	299.9999999999938 	0.9999999999976588 	101324.9999999907
0.1463963963963959 	299.9999999999599 	0.9999999999969982 	101324.9999999903
0.1488988988988985 	299.9999999999171 	0.9999999999969251 	101324.9999999903
0.1514014014014009 	299.9999999999551 	0.9999999999965176 	101324.9999999903
0.1539039039039035 	299.9999999999555 	0.9999999999963813 	101324.999999991
0.1564064064064059 	299.9999999999337 	1.000000000003813 	101324.9999999907
0.1589089089089084 	299.9999999999571 	0.9999999999944387 	101324.9999999905
0.1614114114114109 	299.9999999999561 	0.9999999999975225 	101324.99999999
0.1639139139139134 	299.9999999999236 	0.9999999999997584 	101324.9999999897
0.166416416416416 	299.999999999957 	0.9999999999984385 	101324.9999999899
0.1689189189189185 	300.0000000000255 	0.9999999999967901 	101324.9999999899
0.1714214214214209 	300.0000000000129 	0.9999999999969 	101324.9999999896
0.1739239239239235 	299.9999999999887 	0.999999999998583 	101324.9999999894
0.1764264264264259 	299.9999999999694 	0.9999999999987993 	101324.9999999893
0.1789289289289284 	300.0000000000069 	1.000000000004939 	101324.999999989
0.181431431431431 	299.9999999999863 	0.9999999999944087 	101324.9999999896
0.1839339339339334 	299.9999999999835 	0.9999999999967873 	101324.9999999902
0.186436436436436 	299.9999999999478 	0.9999999999996677 	101324.9999999906
0.1889389389389385 	299.9999999999732 	0.9999999999994404 	101324.9999999901
0.191441441441441 	299.9999999999711 	0.9999999999989678 	101324.9999999901
0.1939439439439434 	299.9999999999392 	0.9999999999986302 	101324.9999999897
0.196446446446446 	299.999999999933 	1.000000000003153 	101324.9999999892
0.1989489489489485 	299.9999999999603 	0.9999999999912608 	101324.9999999895
0.2014514514514509 	299.9999999999811 	0.9999999999930189 	101324.99999999
0.2039539539539535 	299.9999999999824 	0.9999999999955833 	101324.9999999899
0.2064564564564559 	299.9999999999534 	0.9999999999958014 	101324.9999999897
0.2089589589589585 	299.9999999999715 	0.9999999999955834 	101324.9999999892
0.211461461461461 	299.9999999999476 	0.9999999999955487 	101324.9999999891
0.2139639639639635 	299.9999999999724 	0.9999999999960387 	101324.9999999898
0.2164664664664659 	300.0000000000119 	0.9999999999968192 	101324.9999999903
0.2189689689689684 	300.0000000000142 	1.000000000002288 	101324.9999999909
0.221471471471471 	300.0000000000092 	0.9999999999918404 	101324.999999991
0.2239739739739735 	299.9999999999667 	0.999999999993243 	101324.9999999906
0.226476476476476 	299.9999999999789 	0.9999999999948291 	101324.9999999901
0.2289789789789785 	299.9999999999973 	0.9999999999950171 	101324.99999999
0.231481481481481 	299.9999999999841 	0.9999999999947782 	101324.9999999896
0.2339839839839835 	299.9999999999724 	0.9999999999949146 	101324.9999999903
0.236486486486486 	300.0000000000093 	0.9999999999952389 	101324.9999999907
0.2389889889889885 	300.0000000000011 	0.9999999999959609 	101324.9999999903
0.241491491491491 	299.9999999999351 	1.000000000001547 	101324.9999999896
0.2439939939939935 	299.9999999999688 	0.9999999999919642 	101324.9999999894
0.246496496496496 	299.9999999999882 	0.9999999999945931 	101324.9999999898
0.2489989989989985 	300.0000000000418 	0.9999999999971071 	101324.9999999903
0.251501501501501 	300.0000000000388 	0.9999999999974936 	101324.9999999906
0.2540040040040035 	300.0000000000066 	0.9999999999983749 	101324.9999999909
0.256506506506506 	300.000000000024 	0.9999999999985321 	101324.9999999907
0.2590090090090086 	299.9999999999409 	1.000000000002296 	101324.9999999905
0.261511511511511 	299.9999999999839 	0.9999999999910711 	101324.9999999904
0.2640140140140135 	299.9999999999806 	0.9999999999941347 	101324.99999999
0.2665165165165161 	299.9999999999377 	0.9999999999970767 	101324.9999999894
0.2690190190190185 	299.9999999999864 	0.999999999997216 	101324.9999999892
0.271521521521521 	300.0000000000275 	0.999999999997546 	101324.9999999897
0.2740240240240235 	300.0000000000298 	0.9999999999973068 	101324.9999999895
0.276526526526526 	300.0000000000216 	0.9999999999959537 	101324.9999999896
0.2790290290290286 	299.9999999999607 	0.9999999999955356 	101324.9999999895
0.281531531531531 	299.9999999999335 	1.000000000001616 	101324.9999999893
0.2840340340340335 	299.9999999999644 	0.9999999999928836 	101324.999999989
0.2865365365365361 	299.9999999999702 	0.9999999999968114 	101324.9999999893
0.2890390390390385 	300.0000000000071 	0.9999999999994471 	101324.9999999897
0.291541541541541 	300.0000000000175 	0.9999999999989013 	101324.9999999898
0.2940440440440436 	300.0000000000132 	0.9999999999982244 	101324.9999999899
0.296546546546546 	300.0000000000121 	0.9999999999983891 	101324.9999999899
0.2990490490490486 	299.9999999999656 	0.9999999999989091 	101324.9999999897
0.3015515515515511 	300.0000000000007 	0.9999999999989422 	101324.9999999897
0.3040540540540535 	299.9999999999998 	1.000000000008691 	101324.9999999895
0.3065565565565562 	300.0000000000047 	0.9999999999894085 	101324.9999999893
0.3090590590590585 	299.9999999999995 	0.9999999999951077 	101324.9999999893
0.3115615615615611 	299.9999999999546 	0.9999999999996884 	101324.9999999898
0.3140640640640635 	300.0000000000002 	0.9999999999987098 	101324.99999999
0.316566566566566 	299.9999999999941 	0.9999999999985538 	101324.9999999894
0.3190690690690687 	299.9999999999432 	0.9999999999986112 	101324.9999999898
0.3215715715715711 	299.999999999987 	0.9999999999983518 	101324.99999999
0.3240740740740735 	299.9999999999899 	0.9999999999975542 	101324.9999999901
0.326576576576576 	299.9999999999399 	0.9999999999969478 	101324.9999999903
0.3290790790790786 	300.0000000000035 	0.9999999999971408 	101324.9999999904
0.3315815815815811 	300.0000000000231 	0.9999999999985204 	101324.9999999904
0.3340840840840836 	300.0000000000121 	1.000000000000323 	101324.9999999908
0.3365865865865861 	300.0000000000354 	1.000000000000941 	101324.999999991
0.3390890890890886 	300.0000000000487 	1.000000000000283 	101324.9999999907
0.3415915915915911 	300.0000000000204 	0.9999999999997005 	101324.9999999906
0.3440940940940935 	299.9999999999459 	1.000000000004239 	101324.9999999909
0.3465965965965962 	299.9999999999991 	0.9999999999948139 	101324.9999999905
0.3490990990990985 	300.0000000000145 	0.9999999999966682 	101324.9999999906
0.3516016016016011 	300.0000000000176 	0.999999999999777 	101324.9999999898
0.3541041041041035 	300.0000000000045 	1.000000000001102 	101324.9999999895
0.3566066066066061 	299.9999999999337 	1.000000000001999 	101324.9999999897
0.3591091091091085 	299.9999999999424 	1.000000000002586 	101324.9999999904
0.3616116116116112 	299.9999999999627 	1.000000000002386 	101324.9999999904
0.3641141141141137 	299.9999999999438 	1.000000000002333 	101324.9999999902
0.3666166166166161 	299.9999999999071 	1.000000000010023 	101324.9999999903
0.3691191191191185 	299.9999999999857 	0.9999999999901623 	101324.9999999901
0.371621621621621 	300.0000000000006 	0.9999999999943695 	101324.9999999904
0.3741241241241237 	300.0000000000228 	0.9999999999994004 	101324.9999999907
0.3766266266266261 	300.0000000000171 	0.9999999999988858 	101324.9999999909
0.3791291291291286 	299.9999999999969 	0.999999999999043 	101324.9999999911
0.3816316316316311 	299.9999999999501 	0.9999999999997922 	101324.9999999913
0.3841341341341336 	299.9999999999822 	0.9999999999996374 	101324.9999999911
0.3866366366366362 	299.9999999999779 	0.9999999999989171 	101324.9999999908
0.3891391391391387 	299.9999999999618 	0.9999999999988906 	101324.9999999907
0.391641641641641 	299.9999999999943 	0.9999999999992871 	101324.9999999904
0.3941441441441436 	300.0000000000016 	0.9999999999995375 	101324.9999999902
0.3966466466466462 	299.9999999999995 	1.000000000000429 	101324.9999999905
0.3991491491491486 	299.9999999999777 	1.000000000001245 	101324.9999999908
0.4016516516516512 	299.9999999999425 	1.000000000000846 	101324.9999999908
0.4041541541541536 	299.9999999999617 	1.000000000000148 	101324.9999999904
0.4066566566566561 	299.9999999999633 	1.000000000004138 	101324.9999999896
0.4091591591591587 	300.0000000000032 	0.9999999999947636 	101324.9999999897
0.4116616616616612 	300.0000000000214 	0.9999999999970957 	101324.99999999
0.4141641641641635 	300.0000000000368 	1.00000000000011 	101324.9999999903
0.4166666666666662 	300.0000000000219 	0.9999999999998508 	101324.9999999905
0.4191691691691687 	299.9999999999517 	0.9999999999992368 	101324.9999999907
0.421671671671671 	299.9999999999791 	0.9999999999994283 	101324.9999999904
0.4241741741741737 	299.9999999999669 	0.9999999999989317 	101324.9999999902
0.4266766766766761 	299.9999999999356 	0.9999999999996101 	101324.9999999898
0.4291791791791785 	299.9999999999818 	1.00000000000775 	101324.9999999894
0.4316816816816812 	299.9999999999833 	0.9999999999908888 	101324.9999999892
0.4341841841841836 	299.999999999997 	0.9999999999974711 	101324.9999999894
0.4366866866866862 	299.999999999962 	1.00000000000293 	101324.9999999892
0.4391891891891885 	299.9999999999983 	1.0000000000024 	101324.9999999897
0.4416916916916913 	300.0000000000069 	1.000000000001277 	101324.9999999903
0.4441941941941936 	299.9999999999911 	1.000000000001292 	101324.99999999
0.4466966966966961 	299.9999999999249 	1.000000000000795 	101324.9999999899
0.4491991991991987 	299.9999999999667 	1.000000000000047 	101324.9999999899
0.4517017017017012 	299.9999999999589 	0.9999999999996997 	101324.9999999899
0.4542042042042035 	299.9999999999899 	1.000000000000143 	101324.9999999903
0.4567067067067062 	300.0000000000032 	1.00000000000037 	101324.9999999906
0.4592092092092087 	299.999999999931 	1.000000000000333 	101324.9999999904
0.4617117117117112 	299.9999999999716 	0.9999999999990575 	101324.9999999905
0.4642142142142137 	299.9999999999467 	0.9999999999985024 	101324.9999999902
0.4667167167167162 	299.9999999999803 	0.9999999999985191 	101324.9999999898
0.4692192192192187 	299.9999999999511 	0.9999999999982283 	101324.9999999901
0.4717217217217212 	299.9999999999929 	0.9999999999982127 	101324.9999999904
0.4742242242242236 	299.9999999999642 	0.9999999999984908 	101324.9999999905
0.4767267267267262 	299.9999999999482 	0.9999999999976699 	101324.9999999902
0.4792292292292287 	299.9999999999974 	0.9999999999970556 	101324.99999999
0.4817317317317312 	300.0000000000201 	0.9999999999976394 	101324.99999999
0.4842342342342336 	300.0000000000114 	0.9999999999980591 	101324.9999999899
0.4867367367367362 	299.9999999999869 	0.9999999999986793 	101324.9999999899
0.4892392392392387 	300.0000000000099 	0.9999999999993534 	101324.9999999899
0.4917417417417412 	300.0000000000363 	0.9999999999998975 	101324.99999999
0.4942442442442437 	299.9999999999808 	1.00000000000125 	101324.9999999898
0.4967467467467462 	299.9999999999329 	1.000000000005657 	101324.9999999902
0.4992492492492487 	299.9999999998972 	0.9999999999985392 	101324.9999999903
0.5017517517517511 	299.9999999999207 	1.00000000000113 	101324.9999999901
0.5042542542542537 	299.9999999999754 	1.000000000002988 	101324.9999999903
0.5067567567567562 	299.9999999999719 	1.000000000001445 	101324.9999999903
0.5092592592592589 	299.9999999999553 	0.9999999999990526 	101324.9999999899
0.5117617617617611 	299.9999999999774 	0.9999999999980245 	101324.9999999895
0.5142642642642637 	300.0000000000081 	0.9999999999981104 	101324.9999999898
0.5167667667667663 	299.9999999999942 	1.000000000000943 	101324.9999999899
0.5192692692692688 	299.9999999999292 	1.000000000007603 	101324.9999999895
0.5217717717717714 	299.9999999999525 	0.9999999999901481 	101324.999999989
0.5242742742742736 	299.9999999999523 	0.9999999999949842 	101324.999999989
0.5267767767767763 	299.9999999999442 	0.9999999999985123 	101324.9999999891
0.5292792792792789 	299.9999999999409 	0.9999999999980689 	101324.9999999894
0.5317817817817813 	299.9999999999217 	0.9999999999983472 	101324.9999999898
0.5342842842842837 	299.9999999999717 	0.9999999999988303 	101324.9999999894
0.5367867867867864 	299.9999999999764 	0.9999999999990216 	101324.9999999896
0.5392892892892888 	299.9999999999382 	0.999999999998569 	101324.9999999895
0.5417917917917912 	299.9999999999545 	0.9999999999977518 	101324.9999999895
0.5442942942942938 	299.9999999999457 	0.9999999999965729 	101324.9999999897
0.5467967967967964 	299.9999999999636 	0.9999999999963384 	101324.9999999893
0.5492992992992988 	299.9999999999591 	0.9999999999974523 	101324.9999999886
0.5518018018018012 	299.9999999999473 	0.9999999999992154 	101324.9999999882
0.5543043043043039 	299.9999999999846 	1.00000000000042 	101324.9999999881
0.5568068068068063 	299.9999999999799 	1.000000000002575 	101324.9999999887
0.5593093093093087 	299.9999999999417 	1.000000000006605 	101324.9999999891
0.5618118118118114 	299.9999999999321 	0.9999999999973819 	101324.9999999892
0.5643143143143137 	299.9999999999123 	0.9999999999979581 	101324.9999999899
0.5668168168168163 	299.9999999999508 	0.9999999999994503 	101324.9999999902
0.5693193193193188 	300.0000000000003 	0.9999999999996465 	101324.9999999899
0.5718218218218213 	300.0000000000272 	0.9999999999994909 	101324.9999999893
0.5743243243243239 	300.0000000000297 	1.000000000000455 	101324.9999999886
0.5768268268268262 	300.000000000014 	1.00000000000041 	101324.9999999886
0.5793293293293288 	299.9999999999685 	1.000000000002673 	101324.9999999888
0.5818318318318314 	299.999999999945 	1.000000000008252 	101324.9999999892
0.5843343343343338 	299.999999999991 	0.9999999999912556 	101324.9999999891
0.5868368368368363 	299.9999999999828 	0.9999999999964625 	101324.9999999893
0.5893393393393387 	299.9999999999364 	1.000000000001344 	101324.9999999892
0.5918418418418413 	299.9999999999528 	1.000000000001096 	101324.999999989
0.5943443443443439 	299.9999999999936 	1.000000000000858 	101324.9999999892
0.5968468468468463 	300.0000000000148 	1.000000000001411 	101324.9999999894
0.5993493493493487 	300.0000000000425 	1.000000000002033 	101324.9999999896
0.6018518518518514 	300.0000000000243 	1.000000000001203 	101324.9999999893
0.6043543543543537 	300.0000000000177 	1.000000000000876 	101324.9999999888
0.6068568568568564 	300.0000000000013 	1.000000000001096 	101324.9999999884
0.6093593593593587 	299.9999999999379 	1.000000000002094 	101324.9999999886
0.6118618618618614 	299.9999999999256 	1.000000000003653 	101324.9999999891
0.6143643643643638 	299.9999999999947 	1.000000000003971 	101324.9999999893
0.6168668668668662 	299.9999999999964 	1.000000000003308 	101324.9999999893
0.6193693693693688 	299.9999999999758 	1.000000000004298 	101324.9999999892
0.6218718718718714 	299.9999999999914 	1.000000000006433 	101324.9999999894
0.6243743743743737 	299.9999999999779 	0.9999999999988229 	101324.9999999897
0.6268768768768762 	299.9999999999575 	1.000000000002249 	101324.9999999894
0.629379379379379 	299.9999999999731 	1.000000000004627 	101324.9999999888
0.6318818818818812 	299.9999999999866 	1.000000000003534 	101324.9999999886
0.6343843843843838 	300.0000000000161 	1.00000000000289 	101324.9999999887
0.6368868868868864 	300.0000000000048 	1.000000000002938 	101324.9999999885
0.6393893893893888 	299.9999999999511 	1.000000000002185 	101324.9999999888
0.6418918918918912 	299.9999999999735 	1.000000000004269 	101324.9999999889
0.6443943943943939 	299.9999999999612 	1.000000000008762 	101324.9999999889
0.6468968968968963 	299.9999999999651 	0.99999999999292 	101324.9999999887
0.6493993993993988 	299.999999999967 	0.9999999999981386 	101324.9999999887
0.6519019019019012 	299.9999999999804 	1.00000000000189 	101324.9999999881
0.6544044044044038 	299.9999999999378 	1.000000000000603 	101324.9999999882
0.6569069069069065 	299.9999999999317 	1.000000000000863 	101324.9999999884
0.6594094094094087 	299.9999999999577 	1.000000000002339 	101324.9999999882
0.6619119119119113 	299.9999999999709 	1.000000000002882 	101324.999999988
0.664414414414414 	299.9999999999896 	1.0000000000028 	101324.9999999885
0.6669169169169162 	299.9999999999936 	1.000000000003053 	101324.9999999887
0.6694194194194188 	299.9999999999794 	1.000000000002769 	101324.9999999888
0.6719219219219214 	299.9999999999457 	1.000000000002313 	101324.9999999885
0.674424424424424 	299.9999999999636 	1.000000000002244 	101324.9999999881
0.6769269269269262 	299.9999999999375 	1.000000000001929 	101324.999999988
0.679429429429429 	299.9999999999978 	1.000000000001572 	101324.9999999878
0.6819319319319311 	300.0000000000136 	1.000000000003486 	101324.9999999882
0.6844344344344341 	300.0000000000251 	1.00000000000742 	101324.9999999888
0.686936936936936 	300.0000000000235 	1.000000000001452 	101324.9999999891
0.6894394394394392 	300.0000000000188 	1.000000000004525 	101324.9999999889
0.6919419419419413 	300.0000000000069 	1.000000000006138 	101324.9999999888
0.694444444444444 	299.9999999999577 	1.000000000004668 	101324.9999999886
0.6969469469469463 	299.9999999999185 	1.000000000003936 	101324.9999999886
0.6994494494494489 	299.9999999999211 	1.00000000000406 	101324.9999999888
0.7019519519519515 	299.9999999999559 	1.00000000000423 	101324.9999999885
0.7044544544544538 	299.9999999999429 	1.000000000007473 	101324.9999999881
0.7069569569569564 	299.9999999999863 	1.000000000012146 	101324.999999988
0.7094594594594589 	299.9999999999738 	0.9999999999973019 	101324.9999999883
0.7119619619619615 	299.9999999999349 	1.000000000002235 	101324.999999989
0.7144644644644638 	299.9999999999526 	1.000000000005882 	101324.999999989
0.7169669669669665 	299.9999999999415 	1.000000000004279 	101324.9999999887
0.7194694694694688 	299.9999999999985 	1.000000000002497 	101324.9999999883
0.7219719719719715 	300.0000000000032 	1.000000000002217 	101324.9999999884
0.7244744744744737 	299.9999999999991 	1.000000000002797 	101324.9999999889
0.7269769769769764 	299.9999999999978 	1.000000000006988 	101324.9999999894
0.7294794794794791 	299.999999999996 	1.000000000011331 	101324.9999999892
0.7319819819819813 	299.9999999999795 	0.9999999999973013 	101324.9999999885
0.7344844844844839 	299.9999999999218 	1.000000000002609 	101324.9999999882
0.7369869869869864 	299.9999999999261 	1.000000000006652 	101324.9999999881
0.739489489489489 	299.9999999999477 	1.000000000006647 	101324.9999999885
0.7419919919919914 	299.9999999999449 	1.000000000005883 	101324.9999999886
0.7444944944944939 	299.9999999999515 	1.000000000007415 	101324.9999999886
0.7469969969969963 	299.9999999999671 	1.000000000008997 	101324.999999989
0.7494994994994989 	299.9999999999404 	1.000000000004917 	101324.9999999892
0.7520020020020015 	299.9999999999475 	1.0000000000108 	101324.9999999889
0.7545045045045039 	299.9999999999504 	0.9999999999980729 	101324.9999999889
0.7570070070070062 	299.9999999999413 	1.000000000001884 	101324.9999999887
0.7595095095095092 	299.9999999999467 	1.000000000004753 	101324.9999999886
0.7620120120120112 	299.9999999999851 	1.000000000004287 	101324.9999999886
0.7645145145145138 	299.9999999999861 	1.000000000004192 	101324.9999999887
0.7670170170170165 	299.9999999999486 	1.000000000007827 	101324.9999999888
0.7695195195195191 	299.9999999999196 	1.000000000010362 	101324.9999999888
0.7720220220220213 	299.9999999999348 	0.9999999999952556 	101324.9999999889
0.7745245245245239 	299.9999999999262 	0.9999999999996232 	101324.9999999889
0.7770270270270263 	299.9999999999276 	1.000000000003652 	101324.9999999887
0.779529529529529 	299.9999999999534 	1.000000000003928 	101324.9999999886
0.7820320320320313 	299.9999999999566 	1.000000000004454 	101324.9999999885
0.784534534534534 	299.9999999999897 	1.000000000005605 	101324.9999999883
0.7870370370370364 	299.9999999999872 	1.000000000005673 	101324.9999999885
0.7895395395395389 	299.9999999999727 	1.000000000004784 	101324.9999999886
0.7920420420420413 	299.9999999999768 	1.000000000003983 	101324.9999999884
0.794544544544544 	299.9999999999773 	1.000000000008025 	101324.9999999881
0.7970470470470463 	300.0000000000063 	1.000000000011384 	101324.9999999881
0.799549549549549 	300.0000000000074 	0.9999999999978486 	101324.999999988
0.8020520520520515 	299.9999999999859 	1.000000000003281 	101324.9999999883
0.8045545545545539 	299.9999999999426 	1.000000000007506 	101324.9999999888
0.8070570570570563 	299.9999999999491 	1.000000000006951 	101324.9999999887
0.8095595595595589 	299.9999999999452 	1.00000000000503 	101324.9999999881
0.8120620620620614 	299.9999999999549 	1.000000000003901 	101324.9999999875
0.8145645645645638 	300.0000000000041 	1.000000000003719 	101324.9999999873
0.8170670670670666 	300.0000000000277 	1.00000000000782 	101324.9999999871
0.8195695695695689 	300.0000000000068 	1.000000000010848 	101324.9999999875
0.8220720720720714 	299.9999999999518 	0.9999999999977547 	101324.9999999876
0.8245745745745739 	299.9999999999517 	1.000000000002192 	101324.9999999877
0.8270770770770765 	299.9999999999621 	1.00000000000553 	101324.9999999881
0.8295795795795788 	299.9999999999636 	1.000000000005693 	101324.9999999883
0.8320820820820815 	299.9999999999995 	1.000000000005597 	101324.9999999886
0.834584584584584 	300.0000000000014 	1.000000000008124 	101324.9999999886
0.8370870870870865 	299.9999999999653 	1.000000000008707 	101324.9999999885
0.8395895895895891 	299.9999999999318 	1.00000000000103 	101324.9999999884
0.8420920920920915 	299.9999999999585 	1.000000000003498 	101324.9999999884
0.844594594594594 	299.9999999999537 	1.000000000005982 	101324.9999999884
0.8470970970970964 	299.9999999999503 	1.000000000006939 	101324.9999999884
0.8495995995995991 	299.9999999999922 	1.000000000007432 	101324.9999999886
0.8521021021021015 	299.9999999999891 	1.000000000007607 	101324.9999999887
0.8546046046046039 	299.9999999999688 	1.000000000007123 	101324.9999999885
0.8571071071071066 	299.9999999999875 	1.000000000010818 	101324.9999999881
0.8596096096096089 	299.9999999999773 	1.000000000012811 	101324.9999999879
0.8621121121121116 	299.9999999999628 	0.999999999999919 	101324.9999999882
0.8646146146146139 	300.0000000000009 	1.000000000004662 	101324.9999999886
0.8671171171171166 	299.9999999999778 	1.000000000007863 	101324.9999999884
0.8696196196196189 	299.9999999999354 	1.000000000006743 	101324.999999988
0.8721221221221216 	299.9999999999646 	1.000000000005427 	101324.9999999882
0.874624624624624 	299.9999999999962 	1.000000000005076 	101324.9999999884
0.8771271271271264 	299.9999999999939 	1.000000000004963 	101324.9999999883
0.879629629629629 	299.9999999999939 	1.000000000009604 	101324.9999999882
0.8821321321321317 	299.9999999999808 	1.000000000011865 	101324.9999999885
0.8846346346346339 	299.9999999999461 	0.9999999999990514 	101324.9999999888
0.8871371371371364 	299.9999999999479 	1.000000000003545 	101324.9999999886
0.8896396396396391 	299.9999999999513 	1.000000000006911 	101324.9999999883
0.8921421421421414 	299.9999999999528 	1.000000000006772 	101324.9999999883
0.8946446446446441 	299.9999999999704 	1.000000000006484 	101324.9999999889
0.8971471471471464 	299.9999999999911 	1.000000000008462 	101324.9999999893
0.8996496496496489 	299.9999999999889 	1.000000000008601 	101324.999999989
0.9021521521521517 	299.999999999982 	1.000000000001463 	101324.9999999888
0.9046546546546541 	299.9999999999914 	1.000000000004177 	101324.9999999883
0.9071571571571564 	299.9999999999671 	1.00000000000599 	101324.999999988
0.9096596596596589 	299.9999999999451 	1.000000000005804 	101324.9999999885
0.9121621621621616 	299.9999999999795 	1.000000000005744 	101324.9999999886
0.9146646646646639 	299.9999999999719 	1.000000000006045 	101324.999999989
0.9171671671671666 	299.9999999999469 	1.000000000006282 	101324.9999999892
0.9196696696696689 	299.9999999999737 	1.000000000011314 	101324.9999999891
0.9221721721721714 	299.9999999999774 	1.000000000011812 	101324.9999999892
0.9246746746746741 	299.9999999999378 	0.9999999999982883 	101324.9999999891
0.9271771771771765 	299.9999999999511 	1.00000000000334 	101324.9999999886
0.9296796796796791 	299.9999999999726 	1.000000000006289 	101324.9999999879
0.9321821821821816 	299.9999999999613 	1.000000000004887 	101324.9999999878
0.9346846846846838 	299.9999999999499 	1.000000000004196 	101324.9999999881
0.9371871871871866 	299.9999999999881 	1.000000000005094 	101324.9999999886
0.9396896896896891 	299.9999999999972 	1.000000000006058 	101324.9999999888
0.9421921921921914 	299.9999999999923 	1.000000000010798 	101324.999999989
0.9446946946946939 	299.9999999999825 	1.000000000010738 	101324.9999999891
0.9471971971971965 	299.9999999999548 	0.9999999999979419 	101324.9999999883
0.9496996996996991 	299.9999999999482 	1.000000000003069 	101324.9999999877
0.9522022022022016 	299.9999999999714 	1.000000000006779 	101324.9999999881
0.9547047047047038 	299.9999999999905 	1.000000000006999 	101324.9999999887
0.9572072072072064 	299.9999999999861 	1.000000000006609 	101324.9999999888
0.9597097097097093 	299.9999999999733 	1.000000000008787 	101324.9999999888
0.9622122122122114 	299.9999999999611 	1.000000000009438 	101324.9999999885
0.964714714714714 	299.9999999999461 	1.00000000000426 	101324.9999999883
0.9672172172172167 	299.9999999999367 	1.000000000006847 	101324.9999999885
0.969719719719719 	299.9999999999631 	1.000000000008095 	101324.9999999889
0.9722222222222214 	299.9999999999759 	1.000000000007302 	101324.9999999893
0.9747247247247239 	299.9999999999745 	1.00000000000606 	101324.999999989
0.9772272272272267 	299.9999999999971 	1.000000000005632 	101324.9999999886
0.9797297297297292 	299.9999999999883 	1.000000000005687 	101324.9999999885
0.9822322322322313 	299.9999999999796 	1.000000000011308 	101324.9999999886
0.9847347347347344 	299.9999999999734 	1.000000000011893 	101324.9999999886
0.9872372372372363 	299.9999999999412 	1.00000000000028 	101324.9999999884
0.9897397397397389 	299.9999999999357 	1.000000000005244 	101324.9999999881
0.9922422422422417 	299.9999999999316 	1.000000000007845 	101324.9999999879
0.9947447447447441 	299.9999999999582 	1.000000000007027 	101324.9999999877
0.9972472472472468 	299.9999999999695 	1.000000000006658 	101324.9999999877
0.999749749749749 	299.9999999999629 	1.000000000006402 	101324.9999999875
1.002252252252252 	299.9999999999661 	1.000000000005472 	101324.9999999875
1.004754754754754 	299.9999999999856 	1.000000000010567 	101324.9999999877
1.007257257257256 	299.9999999999768 	1.000000000010969 	101324.9999999878
1.009759759759759 	299.9999999999656 	1.00000000000002 	101324.9999999883
1.012262262262261 	299.9999999999683 	1.000000000005036 	101324.9999999884
1.014764764764764 	299.9999999999438 	1.0000000000076 	101324.9999999879
1.017267267267267 	299.9999999999235 	1.00000000000624 	101324.9999999876
1.019769769769769 	299.9999999999544 	1.000000000004543 	101324.999999988
1.022272272272272 	299.9999999999795 	1.000000000006613 	101324.999999988
1.024774774774774 	299.9999999999876 	1.000000000006867 	101324.9999999875
1.027277277277277 	299.9999999999861 	1.000000000001977 	101324.9999999876
1.029779779779779 	300.0000000000067 	1.000000000005144 	101324.9999999882
1.032282282282282 	300.0000000000103 	1.000000000007565 	101324.9999999883
1.034784784784784 	300.0000000000067 	1.000000000007369 	101324.9999999883
1.037287287287286 	299.9999999999872 	1.000000000006803 	101324.9999999884
1.039789789789789 	299.9999999999804 	1.000000000007414 	101324.9999999885
1.042292292292291 	300.0000000000089 	1.00000000000766 	101324.9999999884
1.044794794794794 	300.0000000000334 	1.00000000001264 	101324.9999999887
1.047297297297296 	300.0000000000468 	1.000000000010825 	101324.999999989
1.049799799799799 	300.0000000000214 	0.9999999999992679 	101324.9999999885
1.052302302302302 	299.9999999999877 	1.000000000004365 	101324.9999999875
1.054804804804804 	299.9999999999511 	1.000000000007057 	101324.9999999869
1.057307307307306 	299.999999999928 	1.000000000005743 	101324.9999999874
1.059809809809809 	299.9999999999518 	1.000000000005035 	101324.9999999875
1.062312312312312 	299.9999999999553 	1.00000000000532 	101324.9999999876
1.064814814814814 	299.9999999999555 	1.000000000005885 	101324.9999999883
1.067317317317317 	299.9999999999354 	1.000000000012395 	101324.9999999884
1.069819819819819 	299.9999999999223 	1.000000000011086 	101324.9999999881
1.072322322322321 	299.999999999971 	0.9999999999998592 	101324.9999999882
1.074824824824824 	300.0000000000149 	1.000000000005039 	101324.9999999879
1.077327327327327 	300.0000000000335 	1.000000000008113 	101324.9999999878
1.079829829829829 	300.0000000000452 	1.000000000007183 	101324.9999999878
1.082332332332332 	300.000000000014 	1.000000000006622 	101324.9999999879
1.084834834834834 	299.9999999999783 	1.000000000013107 	101324.999999988
1.087337337337337 	299.9999999999428 	1.000000000011492 	101324.9999999879
1.089839839839839 	299.9999999999187 	1.000000000000441 	101324.9999999875
1.092342342342342 	299.9999999999438 	1.000000000005316 	101324.9999999872
1.094844844844844 	299.9999999999493 	1.000000000014103 	101324.9999999873
1.097347347347347 	299.9999999999318 	1.000000000011766 	101324.9999999875
1.099849849849849 	299.9999999999227 	0.9999999999999278 	101324.9999999876
1.102352352352352 	299.999999999946 	1.000000000004337 	101324.9999999874
1.104854854854854 	299.9999999999681 	1.000000000007811 	101324.9999999872
1.107357357357357 	299.9999999999573 	1.000000000008133 	101324.9999999874
1.109859859859859 	299.9999999999483 	1.00000000000741 	101324.9999999875
1.112362362362362 	299.9999999999932 	1.00000000001244 	101324.9999999875
1.114864864864865 	300.000000000005 	1.000000000009947 	101324.9999999875
1.117367367367367 	299.9999999999706 	1.00000000000015 	101324.9999999875
1.119869869869869 	299.999999999935 	1.000000000006039 	101324.9999999877
1.122372372372372 	299.9999999999504 	1.000000000008753 	101324.9999999877
1.124874874874874 	299.9999999999577 	1.000000000007548 	101324.9999999875
1.127377377377377 	299.9999999999517 	1.000000000007273 	101324.9999999875
1.129879879879879 	299.9999999999814 	1.000000000007732 	101324.9999999877
1.132382382382382 	300.0000000000279 	1.000000000007098 	101324.9999999877
1.134884884884884 	300.0000000000232 	1.00000000001295 	101324.9999999881
1.137387387387387 	300.0000000000146 	1.000000000010655 	101324.9999999881
1.139889889889889 	299.9999999999714 	1.00000000000046 	101324.9999999873
1.142392392392392 	299.9999999999499 	1.000000000005428 	101324.9999999868
1.144894894894894 	299.9999999999907 	1.0000000000078 	101324.9999999866
1.147397397397397 	299.9999999999928 	1.000000000007035 	101324.9999999867
1.149899899899899 	299.9999999999571 	1.000000000006569 	101324.999999987
1.152402402402402 	299.9999999999353 	1.000000000006766 	101324.9999999873
1.154904904904904 	299.9999999999518 	1.00000000000667 	101324.9999999874
1.157407407407407 	299.9999999999534 	1.000000000012857 	101324.9999999873
1.159909909909909 	299.9999999999333 	1.000000000009918 	101324.9999999872
1.162412412412412 	299.9999999999284 	0.9999999999993409 	101324.9999999869
1.164914914914914 	299.9999999999507 	1.000000000004213 	101324.999999987
1.167417417417417 	299.9999999999495 	1.000000000006941 	101324.999999987
1.169919919919919 	299.9999999999824 	1.000000000006364 	101324.9999999869
1.172422422422422 	300.0000000000223 	1.000000000005703 	101324.9999999867
1.174924924924925 	300.0000000000097 	1.000000000012078 	101324.9999999866
1.177427427427427 	299.9999999999798 	1.000000000008927 	101324.9999999869
1.179929929929929 	299.9999999999962 	0.9999999999993607 	101324.9999999872
1.182432432432432 	300.0000000000343 	1.000000000006106 	101324.999999987
1.184934934934934 	300.0000000000153 	1.000000000009894 	101324.9999999871
1.187437437437437 	299.9999999999797 	1.000000000008422 	101324.9999999874
1.189939939939939 	299.9999999999638 	1.000000000006565 	101324.9999999875
1.192442442442442 	299.9999999999419 	1.000000000006573 	101324.9999999876
1.194944944944944 	299.9999999999301 	1.000000000006765 	101324.9999999873
1.197447447447447 	299.9999999999764 	1.000000000013134 	101324.9999999872
1.199949949949949 	300.0000000000127 	1.000000000009856 	101324.9999999874
1.202452452452452 	299.9999999999752 	1.000000000000317 	101324.9999999879
1.204954954954955 	299.9999999999538 	1.0000000000059 	101324.9999999884
1.207457457457457 	299.9999999999665 	1.000000000009486 	101324.9999999884
1.20995995995996 	299.9999999999736 	1.000000000008987 	101324.9999999882
1.212462462462462 	299.9999999999833 	1.000000000007659 	101324.9999999878
1.214964964964964 	299.9999999999861 	1.000000000006943 	101324.9999999875
1.217467467467467 	299.999999999991 	1.000000000006322 	101324.9999999873
1.219969969969969 	299.9999999999682 	1.000000000012526 	101324.9999999874
1.222472472472472 	299.9999999999878 	1.000000000008607 	101324.9999999873
1.224974974974975 	300.0000000000236 	1.000000000000016 	101324.9999999872
1.227477477477477 	299.9999999999968 	1.00000000000621 	101324.9999999873
1.229979979979979 	299.9999999999826 	1.000000000009233 	101324.9999999875
1.232482482482482 	299.9999999999577 	1.000000000008743 	101324.9999999873
1.234984984984984 	299.9999999999495 	1.000000000007524 	101324.9999999871
1.237487487487487 	299.9999999999739 	1.000000000013561 	101324.9999999872
1.239989989989989 	299.9999999999854 	1.000000000009203 	101324.9999999871
1.242492492492492 	300.000000000007 	1.000000000000097 	101324.999999987
1.244994994994994 	299.9999999999844 	1.000000000005725 	101324.9999999867
1.247497497497497 	299.9999999999898 	1.000000000008067 	101324.9999999866
1.249999999999999 	299.9999999999484 	1.000000000007503 	101324.9999999868
