-1.25 	257.7836037248974 	0.002267948908928795 	101325.0087964594
-1.247497497497497 	300.0324311785391 	0.00219765267560951 	101325.0150868702
-1.244994994994995 	300.0010875387059 	0.00210905927916892 	101325.0095837707
-1.242492492492492 	300.0000165300941 	0.002009551401771617 	101325.0140254347
-1.23998998998999 	300.0000085449643 	0.001904046464280986 	101325.0101310121
-1.237487487487487 	300.0000112128048 	0.001792872716423624 	101325.013223978
-1.234984984984985 	300.0000088288231 	0.00167922698801198 	101325.0104697566
-1.232482482482482 	300.0000106594025 	0.001562608835984493 	101325.0125688798
-1.22997997997998 	300.000008930336 	0.001446558221740558 	101325.0105878932
-1.227477477477477 	300.0000101641949 	0.001329601496654274 	101325.0119878695
-1.224974974974975 	300.0000089258265 	0.001215430377443678 	101325.010580416
-1.222472472472472 	300.0000097731091 	0.001102111950132779 	101325.0115321598
-1.21996996996997 	300.000008896479 	0.000993215677756688 	101325.0105452539
-1.217467467467467 	300.0000094660737 	0.0008862558349410494 	101325.0111686859
-1.214964964964965 	300.0000088274509 	0.0007852451803683029 	101325.010458647
-1.212462462462462 	300.0000091821145 	0.0006865302803732306 	101325.0108313407
-1.20995995995996 	300.0000087381746 	0.0005951334411379809 	101325.0103505441
-1.207457457457457 	300.0000089530949 	0.0005059523876394486 	101325.0105658159
-1.204954954954955 	300.0000086984694 	0.0004251454894251565 	101325.0103068178
-1.202452452452452 	300.0000087990281 	0.0003462934577912349 	101325.0103830681
-1.19994994994995 	300.0000086741467 	0.0002764662064748758 	101325.010274082
-1.197447447447447 	300.0000085769119 	0.0002083478762716966 	101325.0101178353
-1.194944944944945 	300.0000085580197 	0.0001496043197306343 	101325.0101326056
-1.192442442442442 	300.0000082015135 	9.240120107219593e-05 	101325.009676568
-1.18993993993994 	300.0000083634689 	4.446616736886209e-05 	101325.0099095134
-1.187437437437437 	300.0000078867869 	4.679836256204397e-05 	101325.0093100215
-1.184934934934935 	300.0000081490634 	4.578602262477009e-05 	101325.0096559653
-1.182432432432432 	300.0000076195911 	8.766245251819893e-05 	101325.0089901462
-1.17992992992993 	300.0000079120439 	0.0001226392600312339 	101325.0093694052
-1.177427427427427 	300.0000074027756 	0.0001595042858998433 	101325.0087320663
-1.174924924924925 	300.000007898965 	0.0001888779577252146 	101325.009354215
-1.172422422422422 	300.0000072526639 	0.0002200920113298853 	101325.008556435
-1.16991991991992 	300.0000079049888 	0.0002434549993361262 	101325.0093615278
-1.167417417417417 	300.000007111215 	0.0002688130729866966 	101325.0083943078
-1.164914914914915 	300.0000078871442 	0.0002855895326995015 	101325.0093392018
-1.162412412412412 	300.0000070397571 	0.0003041709762770126 	101325.0083069344
-1.15990990990991 	300.0000077388194 	0.0003133795394027041 	101325.0091620024
-1.157407407407407 	300.0000068738696 	0.0003236227531540264 	101325.0081129192
-1.154904904904904 	300.0000071424112 	0.0003210723232040195 	101325.0084566042
-1.152402402402403 	300.0000066451069 	0.000318204319496537 	101325.0078447202
-1.1498998998999 	300.0000068092481 	0.0003083669603325351 	101325.008063243
-1.147397397397397 	300.0000063818189 	0.0003029107318060421 	101325.0075355033
-1.144894894894895 	300.0000066064639 	0.000291056848963733 	101325.0078218025
-1.142392392392392 	300.0000062785016 	0.0002845779330303662 	101325.0074111817
-1.13988988988989 	300.0000065491666 	0.0002714705085575599 	101325.0077511288
-1.137387387387387 	300.0000062594954 	0.0002645353404325674 	101325.0073897419
-1.134884884884885 	300.0000065051718 	0.000250905072890185 	101325.0076967918
-1.132382382382382 	300.0000061496517 	0.0002436663162544048 	101325.0072613465
-1.12987987987988 	300.000006337815 	0.0002300604886959529 	101325.0075041213
-1.127377377377377 	300.0000059123425 	0.0002226739866090919 	101325.006982303
-1.124874874874875 	300.0000060787722 	0.0002092320322772223 	101325.0071932229
-1.122372372372372 	300.0000056381299 	0.0002019331150126598 	101325.0066599591
-1.11986986986987 	300.0000058098362 	0.0001886523609849924 	101325.0068746512
-1.117367367367367 	300.0000054148327 	0.0001816537088118576 	101325.0063952233
-1.114864864864865 	300.0000056080342 	0.0001685199591974063 	101325.0066353379
-1.112362362362362 	300.0000052878201 	0.0001619828324511913 	101325.0062473591
-1.10985985985986 	300.0000054890365 	0.0001490690957810518 	101325.0064949401
-1.107357357357357 	300.000005209299 	0.0001430850895724411 	101325.0061549133
-1.104854854854855 	300.0000053744927 	0.0001306439893506335 	101325.0063573738
-1.102352352352353 	300.0000050646264 	0.0001251626540618136 	101325.00598287
-1.09984984984985 	300.0000051742388 	0.0001134362782102792 	101325.006118736
-1.097347347347347 	300.0000048335563 	0.0001083935096841471 	101325.0057093598
-1.094844844844845 	300.0000049118532 	9.738020383819733e-05 	101325.0058080687
-1.092342342342342 	300.0000046003355 	9.286259526546353e-05 	101325.005435918
-1.08983983983984 	300.0000046724302 	8.243291512812706e-05 	101325.0055270484
-1.087337337337337 	300.0000044282298 	7.859090581993609e-05 	101325.0052345073
-1.084834834834835 	300.0000044946641 	6.87306170835682e-05 	101325.0053160937
-1.082332332332332 	300.0000042960129 	6.558669409844055e-05 	101325.0050776702
-1.07982982982983 	300.0000043429227 	5.640048395452958e-05 	101325.005134828
-1.077327327327327 	300.0000041639611 	5.38978233426903e-05 	101325.0049205492
-1.074824824824825 	300.0000041763793 	4.544910704472752e-05 	101325.0049371013
-1.072322322322323 	300.0000040028908 	4.355848712908493e-05 	101325.0047306637
-1.06981981981982 	300.0000039831702 	3.58563131919057e-05 	101325.0047089347
-1.067317317317317 	300.0000038257413 	3.454688434068854e-05 	101325.0045215284
-1.064814814814815 	300.0000037853774 	2.757647940168002e-05 	101325.0044746333
-1.062312312312312 	300.0000036402121 	2.681470028918757e-05 	101325.0043022477
-1.05980980980981 	300.0000035747071 	2.05812394246146e-05 	101325.004225807
-1.057307307307307 	300.0000034358429 	2.032006635664642e-05 	101325.004061691
-1.054804804804805 	300.0000033553878 	1.478137758639962e-05 	101325.0039671229
-1.052302302302302 	300.0000032327687 	1.499081815317373e-05 	101325.0038215416
-1.0497997997998 	300.0000031443731 	1.011000309729095e-05 	101325.0037172532
-1.047297297297297 	300.0000030306987 	1.072984290064897e-05 	101325.0035830614
-1.044794794794795 	300.0000029396141 	8.03654397809492e-06 	101325.0034755084
-1.042292292292292 	300.0000028479814 	8.607530168917774e-06 	101325.0033670461
-1.03978978978979 	300.0000027807521 	7.822551003268075e-06 	101325.0032874405
-1.037287287287287 	300.0000027299521 	8.073687095847597e-06 	101325.0032269204
-1.034784784784785 	300.0000026938134 	7.728355770994677e-06 	101325.0031838846
-1.032282282282283 	300.0000026608068 	7.74134589113051e-06 	101325.0031451595
-1.02977977977978 	300.0000026176311 	7.598625069793598e-06 	101325.0030942773
-1.027277277277277 	300.0000025557468 	7.355842202022206e-06 	101325.0030210906
-1.024774774774775 	300.0000024661001 	7.194486055553554e-06 	101325.0029148814
-1.022272272272272 	300.0000023491226 	6.730050938178373e-06 	101325.0027765696
-1.01976976976977 	300.0000022071175 	6.436037300383803e-06 	101325.0026091661
-1.017267267267267 	300.0000020565029 	5.938559752598596e-06 	101325.0024319368
-1.014764764764765 	300.0000019131934 	5.553606112455638e-06 	101325.0022629298
-1.012262262262262 	300.0000017948834 	5.208153280468468e-06 	101325.0021226664
-1.00975975975976 	300.0000017093662 	4.956608155163909e-06 	101325.0020206125
-1.007257257257257 	300.0000016524322 	4.784748209249333e-06 	101325.0019525285
-1.004754754754755 	300.0000016140804 	4.672086557971294e-06 	101325.0019072177
-1.002252252252252 	300.0000015836099 	4.584498418171848e-06 	101325.0018720654
-0.9997497497497498 	300.0000015480405 	4.476734354103319e-06 	101325.0018307663
-0.9972472472472473 	300.000001492258 	4.309895246968293e-06 	101325.001764574
-0.9947447447447449 	300.0000014096696 	4.068425083507643e-06 	101325.0016658097
-0.9922422422422421 	300.0000013064569 	3.769417042068501e-06 	101325.0015426582
-0.9897397397397399 	300.0000011888895 	3.430846258573018e-06 	101325.0014037647
-0.9872372372372376 	300.0000010548505 	3.046354489808053e-06 	101325.0012466867
-0.9847347347347346 	300.0000009032139 	2.61401354851787e-06 	101325.0010690898
-0.9822322322322323 	300.0000007435478 	2.158804515556282e-06 	101325.0008808716
-0.9797297297297296 	300.000000596935 	1.739961584339681e-06 	101325.0007065939
-0.9772272272272275 	300.0000004889527 	1.433479240806396e-06 	101325.0005772994
-0.9747247247247248 	300.0000004351788 	1.278764192412756e-06 	101325.0005126223
-0.9722222222222224 	300.0000004322004 	1.262403029616213e-06 	101325.0005094077
-0.9697197197197196 	300.0000004553827 	1.318796270147218e-06 	101325.0005380579
-0.9672172172172175 	300.0000004679412 	1.347256329054141e-06 	101325.0005543104
-0.9647147147147147 	300.0000004414957 	1.270368107207032e-06 	101325.0005237687
-0.9622122122122124 	300.000000366313 	1.053502033670228e-06 	101325.0004346761
-0.9597097097097099 	300.0000002462517 	7.062018305308645e-07 	101325.0002918273
-0.9572072072072073 	300.0000000965443 	2.732860909191885e-07 	101325.0001137054
-0.9547047047047047 	299.999999932909 	2.747106711652911e-07 	101324.9999191662
-0.9522022022022023 	299.9999997690479 	6.696833199153113e-07 	101324.999724886
-0.9496996996996998 	299.9999996226252 	1.088097993172054e-06 	101324.9995515877
-0.9471971971971973 	299.9999995095769 	1.41192668824673e-06 	101324.9994178177
-0.9446946946946947 	299.9999994377064 	1.619677312547092e-06 	101324.9993328539
-0.9421921921921923 	299.9999994048975 	1.718735259555268e-06 	101324.9992939102
-0.93968968968969 	299.9999993985995 	1.743996681984446e-06 	101324.9992862965
-0.9371871871871872 	299.9999993997242 	1.747986695068259e-06 	101324.9992876409
-0.9346846846846848 	299.9999993884761 	1.786203028339834e-06 	101324.9992746236
-0.9321821821821823 	299.9999993489848 	1.903764030391088e-06 	101324.9992283452
-0.9296796796796799 	299.9999992723247 	2.125552740880313e-06 	101324.9991381255
-0.9271771771771771 	299.9999991594594 	2.447673432885973e-06 	101324.999005168
-0.9246746746746748 	299.9999990225338 	2.836711064949033e-06 	101324.9988436177
-0.9221721721721724 	299.9999988802623 	3.241845694032086e-06 	101324.9986755842
-0.9196696696696698 	299.9999987506114 	3.612522643665651e-06 	101324.9985224208
-0.9171671671671672 	299.9999986453687 	3.916170010779544e-06 	101324.998397986
-0.9146646646646649 	299.99999856785 	4.142832066750792e-06 	101324.998306076
-0.9121621621621623 	299.9999985137422 	4.302523964321484e-06 	101324.9982418583
-0.9096596596596597 	299.999998475354 	4.416423606639576e-06 	101324.9981964434
-0.9071571571571573 	299.9999984461686 	4.502723537979595e-06 	101324.9981618665
-0.9046546546546547 	299.9999984220116 	4.573927294720186e-06 	101324.9981333318
-0.9021521521521524 	299.9999984003277 	4.637773148920737e-06 	101324.9981079234
-0.8996496496496498 	299.9999983777548 	4.70502312514551e-06 	101324.9980813879
-0.8971471471471473 	299.9999983473476 	4.796513593854903e-06 	101324.9980455415
-0.894644644644645 	299.9999982990771 	4.939458624514189e-06 	101324.9979886363
-0.892142142142142 	299.9999982234177 	5.159557245979235e-06 	101324.9978994154
-0.8896396396396397 	299.9999981168208 	5.465520261631772e-06 	101324.9977736002
-0.8871371371371374 	299.9999979862981 	5.836426052367448e-06 	101324.9976195503
-0.8846346346346349 	299.9999978501397 	6.222207438507023e-06 	101324.9974585785
-0.8821321321321324 	299.9999977317315 	6.557751653042244e-06 	101324.9973184356
-0.8796296296296297 	299.9999976514978 	6.786228477439536e-06 	101324.9972234698
-0.8771271271271271 	299.9999976191781 	6.881460298162341e-06 	101324.9971852574
-0.8746246246246248 	299.9999976291096 	6.859954373526286e-06 	101324.9971969754
-0.8721221221221224 	299.9999976611946 	6.777121719956849e-06 	101324.9972348789
-0.8696196196196196 	299.9999976886829 	6.706662694482202e-06 	101324.9972673347
-0.8671171171171175 	299.9999976881785 	6.713286983088535e-06 	101324.9972666852
-0.8646146146146148 	299.9999976471718 	6.831043485882472e-06 	101324.9972184411
-0.8621121121121121 	299.9999975679083 	7.05510743436337e-06 	101324.9971249399
-0.8596096096096097 	299.9999974641061 	7.348440522187411e-06 	101324.9970022716
-0.857107107107107 	299.9999973540172 	7.661334036991786e-06 	101324.9968720566
-0.8546046046046049 	299.9999972535023 	7.949794095721143e-06 	101324.9967529599
-0.8521021021021022 	299.9999971719866 	8.185048396434438e-06 	101324.9966564544
-0.8495995995995997 	299.9999971134353 	8.354485090106323e-06 	101324.9965873953
-0.8470970970970974 	299.9999970789325 	8.453739441120044e-06 	101324.9965469724
-0.8445945945945946 	299.9999970686122 	8.484285946910097e-06 	101324.9965348196
-0.8420920920920922 	299.9999970803433 	8.453790321021407e-06 	101324.9965483287
-0.8395895895895897 	299.9999971073246 	8.380888165124652e-06 	101324.996579826
-0.8370870870870872 	299.9999971368953 	8.302033452889689e-06 	101324.9966145388
-0.8345845845845846 	299.9999971518155 	8.264374653299062e-06 	101324.9966322606
-0.8320820820820823 	299.9999971353454 	8.314398732932319e-06 	101324.9966132471
-0.8295795795795798 	299.9999970784228 	8.477376857051443e-06 	101324.9965464597
-0.8270770770770772 	299.9999969851943 	8.740725817953972e-06 	101324.9964364405
-0.8245745745745746 	299.9999968733479 	9.055692475117745e-06 	101324.9963042356
-0.8220720720720721 	299.9999967688894 	9.349998036412173e-06 	101324.9961804931
-0.8195695695695699 	299.9999966962579 	9.555893400346315e-06 	101324.9960943264
-0.817067067067067 	299.9999966700438 	9.632584410798624e-06 	101324.9960632218
-0.8145645645645651 	299.9999966905146 	9.578204837325096e-06 	101324.9960874292
-0.8120620620620621 	299.9999967440445 	9.430935709487218e-06 	101324.9961506571
-0.8095595595595597 	299.9999968084353 	9.251504284408248e-06 	101324.9962268906
-0.8070570570570572 	299.9999968616058 	9.101760114181983e-06 	101324.9962900346
-0.8045545545545546 	299.9999968881407 	9.026618773973093e-06 	101324.9963214758
-0.8020520520520523 	299.9999968815856 	9.04546702370482e-06 	101324.9963133359
-0.7995495495495494 	299.9999968437594 	9.153336465949761e-06 	101324.9962680269
-0.7970470470470474 	299.9999967828427 	9.32653421430718e-06 	101324.9961956426
-0.7945445445445446 	299.9999967107278 	9.530752162027473e-06 	101324.9961104631
-0.7920420420420423 	299.9999966402111 	9.728798087457196e-06 	101324.9960278355
-0.7895395395395397 	299.9999965838796 	9.885234091706898e-06 	101324.9959623483
-0.7870370370370371 	299.9999965530786 	9.969717057919934e-06 	101324.9959267536
-0.7845345345345348 	299.9999965557129 	9.961696712175504e-06 	101324.9959298681
-0.7820320320320323 	299.9999965932796 	9.857807610607003e-06 	101324.9959732738
-0.7795295295295296 	299.9999966585636 	9.67690761953656e-06 	101324.9960490836
-0.7770270270270272 	299.9999967373635 	9.457965956602272e-06 	101324.9961410233
-0.7745245245245247 	299.9999968116093 	9.250553769247332e-06 	101324.9962283958
-0.7720220220220222 	299.9999968639802 	9.103008032893214e-06 	101324.9962907881
-0.7695195195195199 	299.9999968817348 	9.050718538258503e-06 	101324.9963129147
-0.767017017017017 	299.9999968610424 	9.105549824784197e-06 	101324.996289532
-0.7645145145145147 	299.9999968088186 	9.249281127653301e-06 	101324.9962283818
-0.7620120120120122 	299.9999967411839 	9.436983258488439e-06 	101324.9961486692
-0.7595095095095097 	299.9999966785395 	9.610434442415368e-06 	101324.9960750464
-0.7570070070070072 	299.9999966401501 	9.714839337805295e-06 	101324.9960303822
-0.7545045045045048 	299.9999966395583 	9.71176104410245e-06 	101324.996030684
-0.7520020020020022 	299.9999966823228 	9.586925119145739e-06 	101324.9960822972
-0.7494994994994997 	299.9999967649933 	9.351992497379943e-06 	101324.9961803662
-0.7469969969969972 	299.9999968749414 	9.04252569037405e-06 	101324.9963096248
-0.7444944944944945 	299.9999969933926 	8.70985459026401e-06 	101324.9964483024
-0.7419919919919924 	299.9999971010093 	8.407178598852246e-06 	101324.9965739718
-0.7394894894894897 	299.9999971827748 	8.175519969268569e-06 	101324.9966696209
-0.7369869869869872 	299.9999972317609 	8.035264371001233e-06 	101324.9967270549
-0.7344844844844846 	299.9999972479689 	7.985617910254777e-06 	101324.9967464181
-0.7319819819819822 	299.9999972372551 	8.01100314256833e-06 	101324.9967342574
-0.7294794794794797 	299.9999972088185 	8.086680774059701e-06 	101324.996701419
-0.7269769769769773 	299.9999971739149 	8.181526655500623e-06 	101324.996660958
-0.7244744744744747 	299.9999971440715 	8.263144046179382e-06 	101324.9966263125
-0.721971971971972 	299.9999971290804 	8.303908520338478e-06 	101324.9966087719
-0.7194694694694695 	299.9999971346799 	8.288763974958378e-06 	101324.9966145364
-0.7169669669669674 	299.9999971618995 	8.214445482218723e-06 	101324.996645122
-0.7144644644644647 	299.9999972095088 	8.083649810817909e-06 	101324.9966992172
-0.711961961961962 	299.999997274243 	7.902553562865964e-06 	101324.9967738724
-0.7094594594594597 	299.9999973520214 	7.680009842965306e-06 	101324.9968649231
-0.7069569569569573 	299.999997437735 	7.433183264777789e-06 	101324.9969664092
-0.7044544544544545 	299.9999975242575 	7.18310970938107e-06 	101324.9970696042
-0.7019519519519523 	299.9999976048927 	6.948445661335084e-06 	101324.9971661098
-0.6994494494494495 	299.9999976753893 	6.74230469781873e-06 	101324.9972505726
-0.6969469469469471 	299.9999977353901 	6.564144831254982e-06 	101324.9973221664
-0.6944444444444446 	299.999997788513 	6.405286650897245e-06 	101324.997385452
-0.6919419419419421 	299.9999978415517 	6.249702688523749e-06 	101324.9974485453
-0.6894394394394396 	299.9999978999621 	6.078006747343177e-06 	101324.9975182308
-0.6869369369369374 	299.999997967186 	5.881909842925456e-06 	101324.9975982585
-0.6844344344344344 	299.9999980419919 	5.664244778559784e-06 	101324.9976871371
-0.6819319319319321 	299.9999981192314 	5.440643053184256e-06 	101324.9977787773
-0.6794294294294296 	299.9999981936747 	5.227387616764908e-06 	101324.9978666293
-0.6769269269269272 	299.9999982626691 	5.029918899661182e-06 	101324.9979476914
-0.6744244244244245 	299.9999983264562 	4.846353104229626e-06 	101324.9980221688
-0.6719219219219222 	299.9999983879786 	4.6671305406007e-06 	101324.998094125
-0.6694194194194195 	299.9999984508546 	4.485985397058361e-06 	101324.9981678718
-0.6669169169169172 	299.999998517065 	4.295498938777675e-06 	101324.9982461384
-0.6644144144144146 	299.9999985881886 	4.087832684397563e-06 	101324.9983308008
-0.661911911911912 	299.9999986656546 	3.862615448646945e-06 	101324.998423051
-0.6594094094094097 	299.9999987483117 	3.620886135562485e-06 	101324.9985212336
-0.656906906906907 	299.9999988341188 	3.37271647521253e-06 	101324.9986227887
-0.6544044044044046 	299.9999989200522 	3.127202379383019e-06 	101324.9987241037
-0.6519019019019021 	299.9999990037289 	2.886052711949331e-06 	101324.9988225517
-0.6493993993993996 	299.9999990848842 	2.651078843671362e-06 	101324.9989181049
-0.6468968968968971 	299.999999164682 	2.419764220913082e-06 	101324.9990122442
-0.6443943943943946 	299.9999992437242 	2.191181050196956e-06 	101324.9991054893
-0.6418918918918921 	299.9999993228917 	1.963278646646543e-06 	101324.9991985604
-0.6393893893893897 	299.9999994035152 	1.731116569229428e-06 	101324.9992931037
-0.6368868868868871 	299.9999994871679 	1.489620833233527e-06 	101324.9993913276
-0.6343843843843846 	299.9999995756338 	1.233320231060428e-06 	101324.9994957206
-0.6318818818818821 	299.999999669024 	9.624296480132568e-07 	101324.9996067646
-0.6293793793793795 	299.9999997658611 	6.803541360347063e-07 	101324.9997222624
-0.6268768768768773 	299.999999863517 	3.947659512762864e-07 	101324.9998388165
-0.6243743743743745 	299.9999999607453 	1.129510152921785e-07 	101324.9999543113
-0.6218718718718721 	300.0000000561392 	1.84041124917522e-07 	101325.0000669436
-0.6193693693693696 	300.0000001490042 	4.314720108602369e-07 	101325.000176548
-0.6168668668668671 	300.0000002402797 	6.948050775848343e-07 	101325.0002840091
-0.6143643643643645 	300.0000003295832 	9.53375227157753e-07 	101325.0003895237
-0.6118618618618621 	300.0000004169642 	1.208292229307902e-06 	101325.0004932914
-0.6093593593593596 	300.0000005046207 	1.4647567868708e-06 	101325.0005973946
-0.6068568568568571 	300.0000005963923 	1.732171301432108e-06 	101325.000706028
-0.6043543543543546 	300.0000006955198 	2.018067716561168e-06 	101325.0008227865
-0.6018518518518521 	300.0000008012521 	2.320216378353163e-06 	101325.0009468637
-0.5993493493493496 	300.0000009081863 	2.625747604710607e-06 	101325.0010724107
-0.5968468468468471 	300.0000010105049 	2.920686973291569e-06 	101325.0011929591
-0.5943443443443446 	300.0000011068983 	3.201841886772844e-06 	101325.0013070777
-0.591841841841842 	300.000001201144 	3.478426450965392e-06 	101325.0014192406
-0.5893393393393397 	300.0000012980511 	3.761353701578386e-06 	101325.001534634
-0.5868368368368371 	300.0000013984064 	4.052121599718941e-06 	101325.0016537938
-0.5843343343343346 	300.0000014991637 	4.343812481981542e-06 	101325.0017731712
-0.5818318318318321 	300.0000015982485 	4.6314498570355e-06 	101325.0018903346
-0.5793293293293297 	300.0000016967922 	4.918122290689674e-06 	101325.0020069244
-0.5768268268268271 	300.0000017973596 	5.209101777216347e-06 	101325.0021257372
-0.5743243243243245 	300.0000018993945 	5.502804695369516e-06 	101325.0022461216
-0.5718218218218221 	300.0000019995833 	5.791110122448456e-06 	101325.0023640817
-0.5693193193193196 	300.0000020961706 	6.069865019859181e-06 	101325.0024773888
-0.5668168168168171 	300.0000021918017 	6.346822079181903e-06 	101325.0025895153
-0.5643143143143147 	300.0000022922193 	6.636559891736507e-06 	101325.0027072776
-0.5618118118118121 	300.0000024004175 	6.946677844666674e-06 	101325.0028342994
-0.5593093093093094 	300.0000025129473 	7.269279483804289e-06 	101325.00296702
-0.5568068068068072 	300.0000026227701 	7.586287610530498e-06 	101325.0030972206
-0.5543043043043046 	300.0000027244758 	7.88296799257314e-06 	101325.0032183471
-0.551801801801802 	300.0000028175787 	8.157443009972471e-06 	101325.0033297685
-0.5492992992992995 	300.0000029063738 	8.419154367847395e-06 	101325.0034358905
-0.5467967967967969 	300.000002995405 	8.680297008569133e-06 	101325.0035420742
-0.5442942942942947 	300.0000030875668 	8.949068717660407e-06 	101325.003651625
-0.5417917917917919 	300.0000031838948 	9.229249680915762e-06 	101325.0037658704
-0.5392892892892895 	300.0000032850703 	9.52271540766223e-06 	101325.0038855796
-0.536786786786787 	300.0000033911624 	9.829327031135776e-06 	101325.0040109383
-0.5342842842842846 	300.0000035002548 	1.014364071225809e-05 	101325.0041398405
-0.531781781781782 	300.0000036081547 	1.045414531173204e-05 	101325.0042672462
-0.5292792792792794 	300.0000037105154 	1.074914724868577e-05 	101325.0043878168
-0.526776776776777 	300.0000038061139 	1.102567251916714e-05 	101325.0045001466
-0.5242742742742745 	300.0000038982578 	1.12917460776784e-05 	101325.0046080351
-0.521771771771772 	300.0000039910314 	1.155815453265905e-05 	101325.0047166024
-0.5192692692692695 	300.0000040851452 	1.182727425191315e-05 	101325.0048269405
-0.516766766766767 	300.0000041777716 	1.20921491583516e-05 	101325.0049354696
-0.5142642642642645 	300.0000042661169 	1.234744709035046e-05 	101325.0050392929
-0.511761761761762 	300.0000043529275 	1.260048680209149e-05 	101325.0051415752
-0.5092592592592596 	300.0000044445305 	1.286711665935618e-05 	101325.0052498794
-0.506756756756757 	300.0000045439457 	1.315467980979395e-05 	101325.0053679879
-0.5042542542542544 	300.0000046464425 	1.344991431937532e-05 	101325.0054899722
-0.5017517517517521 	300.0000047421871 	1.372813677719066e-05 	101325.0056042556
-0.4992492492492494 	300.0000048262638 	1.397693753588645e-05 	101325.0057048625
-0.496746746746747 	300.0000049042653 	1.421023174000718e-05 	101325.0057982643
-0.4942442442442445 	300.0000049873469 	1.445534996220715e-05 	101325.0058974612
-0.4917417417417421 	300.0000050805138 	1.47242783561538e-05 	101325.0060083211
-0.4892392392392395 	300.0000051765858 	1.499870102618844e-05 	101325.0061223504
-0.486736736736737 	300.0000052626586 	1.524662995553797e-05 	101325.0062243827
-0.4842342342342345 	300.0000053335011 	1.545558575654149e-05 	101325.0063082706
-0.481731731731732 	300.0000053983508 	1.564863214038239e-05 	101325.0063846274
-0.4792292292292296 	300.0000054722236 	1.586473621675779e-05 	101325.0064717156
-0.4767267267267268 	300.0000055621693 	1.612142759176717e-05 	101325.0065778314
-0.4742242242242246 	300.0000056597504 	1.639681852579762e-05 	101325.0066927634
-0.471721721721722 	300.0000057485684 	1.665049985369188e-05 	101325.0067974958
-0.4692192192192195 	300.000005821141 	1.686328998156977e-05 	101325.0068829745
-0.4667167167167169 	300.0000058858188 	1.705652609944118e-05 	101325.0069592759
-0.4642142142142145 	300.0000059588912 	1.726976701486462e-05 	101325.0070452767
-0.461711711711712 	300.000006046244 	1.751763010866571e-05 	101325.0071483254
-0.4592092092092094 	300.000006135775 	1.77684243780716e-05 	101325.0072540323
-0.456706706706707 	300.0000062064591 	1.796877115685407e-05 	101325.0073374583
-0.4542042042042045 	300.0000062481431 	1.809492085505143e-05 	101325.0073868869
-0.451701701701702 	300.000006275166 	1.8184263111911e-05 	101325.0074187731
-0.4491991991991995 	300.0000063171626 	1.831420305739754e-05 	101325.0074683476
-0.4466966966966969 	300.0000063963946 	1.854151098932054e-05 	101325.0075618961
-0.4441941941941945 	300.0000065077078 	1.885143544780037e-05 	101325.0076932567
-0.441691691691692 	300.0000066193805 	1.916151259754021e-05 	101325.0078252252
-0.4391891891891895 	300.0000066967339 	1.938091880095029e-05 	101325.0079165803
-0.436686686686687 	300.0000067281086 	1.948033226624075e-05 	101325.0079537709
-0.4341841841841846 	300.000006735436 	1.951664249171554e-05 	101325.00796252
-0.431681681681682 	300.0000067575037 	1.959139013429309e-05 	101325.0079888449
-0.4291791791791794 	300.0000068210815 	1.977372465760475e-05 	101325.0080641622
-0.426676676676677 	300.0000069200692 	2.004764918802004e-05 	101325.0081812777
-0.4241741741741744 	300.0000070202601 	2.032350944324822e-05 	101325.0082996002
-0.421671671671672 	300.0000070847431 	2.050527163557631e-05 	101325.008375659
-0.4191691691691694 	300.0000071018471 	2.056277222593696e-05 	101325.0083956492
-0.4166666666666669 	300.0000070942436 	2.055578772552491e-05 	101325.0083864515
-0.4141641641641645 	300.0000071026923 	2.059177803912979e-05 	101325.0083964882
-0.411661661661662 	300.000007157346 	2.074848358725065e-05 	101325.008460858
-0.4091591591591594 	300.000007254488 	2.101669515527312e-05 	101325.0085756751
-0.406656656656657 	300.0000073590426 	2.130343039193795e-05 	101325.008699407
-0.4041541541541545 	300.000007427548 	2.149293415680946e-05 	101325.0087803778
-0.401651651651652 	300.0000074362063 	2.152381213889216e-05 	101325.0087909865
-0.3991491491491494 	300.0000073987143 	2.143147635409458e-05 	101325.0087468083
-0.396646646646647 	300.0000073568675 	2.132816519558329e-05 	101325.0086977052
-0.3941441441441444 	300.0000073557717 	2.133346073383638e-05 	101325.0086967052
-0.3916416416416419 	300.0000074153555 	2.150074470953246e-05 	101325.0087675396
-0.3891391391391395 	300.0000075187549 	2.178421119804285e-05 	101325.0088899704
-0.3866366366366368 	300.0000076218371 	2.206623787382891e-05 	101325.0090119674
-0.3841341341341344 	300.0000076799996 	2.222693188345973e-05 	101325.0090806611
-0.381631631631632 	300.00000767349 	2.221405971112494e-05 	101325.0090728771
-0.3791291291291294 	300.0000076197467 	2.207394682516853e-05 	101325.0090089185
-0.3766266266266269 	300.0000075631013 	2.192636678724161e-05 	101325.0089414741
-0.3741241241241244 	300.0000075506832 	2.18984061001826e-05 	101325.0089262926
-0.371621621621622 	300.0000076066161 	2.205481207270277e-05 	101325.0089919671
-0.3691191191191194 	300.0000077182464 	2.236080623121531e-05 	101325.0091235745
-0.366616616616617 	300.0000078412068 	2.269593630991525e-05 	101325.0092687152
-0.3641141141141143 	300.0000079206659 	2.291108392783221e-05 	101325.0093626823
-0.3616116116116119 	300.0000079172385 	2.289889063776292e-05 	101325.009358719
-0.3591091091091095 	300.0000078257449 	2.264629098513749e-05 	101325.0092506683
-0.356606606606607 	300.0000076797693 	2.224603093103601e-05 	101325.0090783677
-0.3541041041041044 	300.0000075388118 	2.186099895402756e-05 	101325.0089119743
-0.3516016016016019 	300.0000074636729 	2.165881110006957e-05 	101325.008823378
-0.3490990990990994 	300.0000074931721 	2.174598621747567e-05 	101325.0088584911
-0.346596596596597 	300.0000076286522 	2.212483861869444e-05 	101325.0090187599
-0.3440940940940944 	300.0000078313199 	2.268835337409895e-05 	101325.009258505
-0.3415915915915919 	300.0000080361461 	2.325649767703159e-05 	101325.0095008273
-0.3390890890890895 	300.0000081742014 	2.363710195628578e-05 	101325.0096641867
-0.3365865865865869 	300.0000081940687 	2.368675914063492e-05 	101325.0096876577
-0.3340840840840844 	300.0000080771779 	2.335512642963912e-05 	101325.0095495159
-0.3315815815815819 	300.0000078450373 	2.270248857478394e-05 	101325.0092750266
-0.3290790790790794 	300.0000075532007 	2.188373963977278e-05 	101325.0089299504
-0.3265765765765769 	300.0000072747512 	2.110348971310856e-05 	101325.0086008312
-0.3240740740740744 	300.0000070807941 	2.05611902822156e-05 	101325.0083712991
-0.3215715715715718 	300.0000070235224 	2.040493306543929e-05 	101325.0083034297
-0.3190690690690695 	300.0000071262186 	2.069983283140937e-05 	101325.0084248395
-0.3165665665665668 	300.0000073779386 	2.141344105978035e-05 	101325.0087222109
-0.3140640640640644 	300.0000077345811 	2.242255740589877e-05 	101325.009143736
-0.311561561561562 	300.0000081301778 	2.354229375261518e-05 	101325.0096115193
-0.3090590590590593 	300.0000084925271 	2.456713695362971e-05 	101325.0100397623
-0.3065565565565568 	300.0000087551265 	2.530817283919098e-05 	101325.0103502187
-0.3040540540540545 	300.000008866692 	2.56184077062924e-05 	101325.010482168
-0.3015515515515518 	300.0000087958711 	2.540779547574741e-05 	101325.0103984619
-0.2990490490490494 	300.0000085330117 	2.464888005174603e-05 	101325.0100879136
-0.2965465465465469 	300.0000080899367 	2.337397982080807e-05 	101325.0095641076
-0.2940440440440444 	300.0000074952425 	2.166470690225875e-05 	101325.0088610899
-0.2915415415415418 	300.0000067895072 	1.963621108623099e-05 	101325.0080267963
-0.2890390390390395 	300.0000060185279 	1.741872243003768e-05 	101325.0071153678
-0.2865365365365368 	300.0000052269868 	1.513963770324419e-05 	101325.0061796443
-0.2840340340340343 	300.0000044533778 	1.290901634288167e-05 	101325.0052650489
-0.2815315315315318 	300.000003726652 	1.081110620896378e-05 	101325.0044060083
-0.2790290290290295 	300.0000030664584 	8.902545386464582e-06 	101325.003625443
-0.2765265265265269 	300.0000024833956 	7.215001514276029e-06 	101325.0029360342
-0.2740240240240244 	300.0000019810499 	5.759702540874833e-06 	101325.0023421146
-0.2715215215215219 	300.0000015577976 	4.532389681083885e-06 	101325.0018417215
-0.2690190190190194 	300.0000012082107 	3.518077825490796e-06 	101325.001428552
-0.2665165165165169 	300.0000009250388 	2.695214549607748e-06 	101325.0010936599
-0.2640140140140144 	300.0000006992882 	2.03902867693414e-06 	101325.000826828
-0.2615115115115119 	300.0000005223761 	1.524079535412023e-06 	101325.0006175979
-0.2590090090090094 	300.0000003855787 	1.125997832268557e-06 	101325.0004559797
-0.2565065065065068 	300.0000002815718 	8.226024387702166e-07 	101325.0003328975
-0.2540040040040044 	300.0000002033539 	5.944664918725062e-07 	101325.0002404151
-0.2515015015015019 	300.0000001453797 	4.251053662812965e-07 	101325.0001718096
-0.2489989989989994 	300.0000001028639 	3.009140183698097e-07 	101325.0001215356
-0.2464964964964968 	300.0000000719987 	2.109020142889368e-07 	101325.000085125
-0.2439939939939944 	300.0000000499617 	1.464054647120602e-07 	101325.0000590508
-0.2414914914914919 	300.0000000342918 	1.00678318997697e-07 	101325.0000405801
-0.2389889889889893 	300.0000000233853 	6.861233602775525e-08 	101325.0000276325
-0.2364864864864869 	300.0000000158161 	4.633863546548241e-08 	101325.0000186481
-0.2339839839839843 	300.0000000104535 	3.103382798960592e-08 	101325.0000124745
-0.2314814814814819 	300.0000000069826 	2.060227650740544e-08 	101325.0000082732
-0.2289789789789792 	300.0000000044941 	1.357167846962851e-08 	101325.0000054402
-0.2264764764764769 	300.0000000029362 	8.863010257153821e-09 	101325.0000035468
-0.2239739739739743 	300.0000000018907 	5.747139677086916e-09 	101325.0000022925
-0.2214714714714718 	300.0000000011651 	3.69529918903504e-09 	101325.0000014687
-0.2189689689689693 	300.0000000007562 	2.359924388736772e-09 	101325.0000009321
-0.2164664664664669 	300.0000000004785 	1.49631410979997e-09 	101325.0000005854
-0.2139639639639643 	300.0000000002157 	9.414326225478294e-10 	101325.0000003632
-0.2114614614614618 	300.0000000001635 	5.887734847632697e-10 	101325.0000002218
-0.2089589589589593 	300.00000000011 	3.665630159136005e-10 	101325.0000001326
-0.2064564564564568 	300.0000000000604 	2.261565725619463e-10 	101325.0000000767
-0.2039539539539543 	299.9999999999143 	1.411744233187225e-10 	101325.0000000421
-0.2014514514514518 	299.9999999999586 	8.433609044359975e-11 	101325.0000000206
-0.1989489489489494 	299.9999999999702 	5.519108984509527e-11 	101325.0000000077
-0.1964464464464468 	299.9999999999968 	3.067939979760911e-11 	101324.9999999999
-0.1939439439439443 	299.9999999999924 	2.285838273412375e-11 	101324.9999999951
-0.1914414414414418 	299.9999999998798 	1.156389751155805e-11 	101324.9999999919
-0.1889389389389393 	300.000000000018 	1.00789181880454e-11 	101324.9999999899
-0.1864364364364368 	300.0000000000696 	5.118946913976039e-12 	101324.9999999887
-0.1839339339339343 	299.9999999999638 	6.377608104068067e-12 	101324.999999988
-0.1814314314314318 	299.9999999999947 	2.237773338642645e-12 	101324.9999999878
-0.1789289289289293 	299.9999999998576 	4.950882668405254e-12 	101324.9999999874
-0.1764264264264268 	299.9999999999708 	6.037177145471315e-13 	101324.9999999874
-0.1739239239239243 	299.9999999998554 	5.466171574107429e-12 	101324.9999999873
-0.1714214214214218 	299.9999999999761 	1.787473436095925e-12 	101324.9999999872
-0.1689189189189193 	299.9999999999255 	6.469849842308469e-12 	101324.9999999874
-0.1664164164164168 	299.9999999999982 	3.052383963001966e-12 	101324.9999999876
-0.1639139139139143 	299.9999999999771 	8.15996103288127e-12 	101324.9999999877
-0.1614114114114118 	300.0000000000409 	3.973617857326227e-12 	101324.9999999877
-0.1589089089089093 	300.0000000000009 	1.066746269993456e-11 	101324.999999988
-0.1564064064064068 	299.9999999999833 	4.89491773643656e-12 	101324.9999999879
-0.1539039039039043 	299.9999999999862 	1.140904857484726e-11 	101324.999999988
-0.1514014014014018 	300.0000000000357 	3.079047748284366e-12 	101324.999999988
-0.1488988988988993 	299.9999999999763 	1.186707011759611e-11 	101324.999999988
-0.1463963963963968 	299.9999999999972 	1.289920178890601e-12 	101324.9999999882
-0.1438938938938943 	299.9999999999301 	1.051855388917244e-11 	101324.9999999881
-0.1413913913913918 	299.9999999998919 	8.463876832791886e-13 	101324.999999988
-0.1388888888888893 	299.9999999999716 	8.121631155338874e-12 	101324.9999999876
-0.1363863863863868 	299.9999999998395 	1.036855158393419e-12 	101324.9999999873
-0.1338838838838843 	299.9999999998627 	5.77096964156999e-12 	101324.9999999872
-0.1313813813813818 	299.999999999994 	5.16934766342028e-13 	101324.9999999871
-0.1288788788788793 	299.99999999994 	5.044268955900943e-12 	101324.9999999872
-0.1263763763763768 	299.9999999999575 	5.144593804815614e-13 	101324.9999999872
-0.1238738738738743 	299.9999999998888 	5.01442474919964e-12 	101324.999999987
-0.1213713713713717 	299.9999999999583 	1.056583221332425e-12 	101324.999999987
-0.1188688688688693 	300.0000000000001 	5.826533034700318e-12 	101324.9999999867
-0.1163663663663668 	299.999999999861 	1.543672779122821e-12 	101324.9999999865
-0.1138638638638643 	299.999999999987 	6.193439022035075e-12 	101324.9999999862
-0.1113613613613618 	299.999999999979 	1.896570048485988e-12 	101324.9999999863
-0.1088588588588592 	299.9999999999599 	6.654121852121889e-12 	101324.9999999862
-0.1063563563563568 	299.9999999999161 	1.836560939449892e-12 	101324.9999999862
-0.1038538538538543 	299.9999999999479 	5.821508006023388e-12 	101324.9999999861
-0.1013513513513517 	300.0000000000213 	4.888559341660284e-13 	101324.9999999859
-0.09884884884884926 	299.9999999999093 	6.399323511428425e-12 	101324.999999986
-0.09634634634634676 	299.999999999829 	2.54546792349159e-12 	101324.999999986
-0.09384384384384425 	299.999999999899 	6.708277139868594e-12 	101324.9999999865
-0.09134134134134177 	300.0000000000338 	4.056443852978752e-12 	101324.9999999865
-0.08883883883883925 	300.0000000000133 	7.103905869445465e-12 	101324.9999999865
-0.08633633633633674 	299.9999999999272 	5.04822559509429e-12 	101324.9999999869
-0.08383383383383426 	300.0000000000147 	5.749541950333622e-12 	101324.999999987
-0.08133133133133173 	299.9999999999544 	5.619978621632183e-12 	101324.9999999869
-0.07882882882882926 	299.9999999998266 	5.447466279260961e-12 	101324.9999999869
-0.07632632632632676 	299.9999999999284 	4.339598293987287e-12 	101324.9999999869
-0.07382382382382424 	299.9999999998462 	4.041253922447694e-12 	101324.9999999867
-0.07132132132132173 	300.0000000000145 	3.575526154693079e-12 	101324.9999999865
-0.06881881881881925 	299.999999999931 	3.945284303878004e-12 	101324.9999999862
-0.06631631631631671 	299.9999999998452 	2.911380962606297e-12 	101324.9999999864
-0.06381381381381425 	299.999999999947 	3.286882189915205e-12 	101324.9999999867
-0.06131131131131173 	299.9999999999496 	3.367292325829737e-12 	101324.9999999865
-0.05880880880880923 	299.9999999998846 	3.435617302035213e-12 	101324.9999999865
-0.05630630630630672 	299.9999999999642 	3.21274855400827e-12 	101324.9999999865
-0.05380380380380424 	300.0000000000218 	3.253428020234827e-12 	101324.9999999865
-0.05130130130130173 	300.0000000000214 	3.01667448948848e-12 	101324.9999999867
-0.04879879879879922 	299.9999999999 	2.632256121072608e-12 	101324.999999987
-0.04629629629629672 	299.999999999874 	1.197049980639778e-12 	101324.9999999872
-0.04379379379379422 	299.9999999999099 	1.245191269839309e-12 	101324.9999999874
-0.04129129129129173 	299.9999999999644 	1.457357873826981e-12 	101324.9999999873
-0.03878878878878922 	299.9999999999748 	1.619417844932005e-12 	101324.999999987
-0.03628628628628671 	299.9999999999742 	1.633782041349029e-12 	101324.9999999867
-0.03378378378378422 	299.9999999998811 	2.225925482961042e-12 	101324.9999999868
-0.03128128128128172 	299.9999999999462 	1.670030938025396e-12 	101324.9999999872
-0.02877877877877922 	299.9999999999507 	2.578747038286005e-12 	101324.9999999875
-0.0262762762762767 	299.9999999998574 	2.444327859428034e-12 	101324.9999999877
-0.02377377377377422 	300.0000000000275 	2.589908170456496e-12 	101324.9999999877
-0.0212712712712717 	299.999999999863 	2.487569118949091e-12 	101324.9999999874
-0.01876876876876921 	299.9999999999432 	1.926012929469731e-12 	101324.9999999874
-0.01626626626626671 	300.0000000000194 	2.296798452373211e-12 	101324.9999999872
-0.0137637637637642 	299.9999999999499 	2.243819540572323e-12 	101324.999999987
-0.0112612612612617 	300.0000000000173 	2.480838745710737e-12 	101324.999999987
-0.008758758758759198 	299.9999999999882 	2.345388265734235e-12 	101324.9999999868
-0.006256256256256697 	299.999999999834 	2.690000487229671e-12 	101324.9999999865
-0.003753753753754195 	299.9999999999293 	2.031683920978201e-12 	101324.9999999861
-0.001251251251251693 	299.9999999998955 	2.67765080842291e-12 	101324.999999986
0.00125125125125081 	299.9999999999274 	2.150822438561184e-12 	101324.999999986
0.003753753753753312 	299.9999999999411 	1.936626442094792e-12 	101324.9999999859
0.006256256256255817 	299.9999999998296 	1.200800300577743e-12 	101324.9999999859
0.008758758758758317 	299.9999999999912 	1.175126448276209e-12 	101324.9999999857
0.01126126126126082 	300.0000000000123 	1.300591934946695e-12 	101324.9999999859
0.01376376376376332 	299.9999999999473 	1.392121566402982e-12 	101324.9999999864
0.01626626626626582 	300.0000000000161 	8.032759714279532e-13 	101324.999999987
0.01876876876876833 	299.9999999999327 	1.149027963735399e-12 	101324.9999999873
0.02127127127127083 	299.9999999999488 	4.527095421440555e-13 	101324.9999999873
0.02377377377377332 	299.9999999999943 	9.508731340836229e-13 	101324.9999999874
0.02627627627627583 	299.9999999998503 	1.214706198249125e-12 	101324.9999999874
0.02877877877877833 	300.0000000000083 	8.97306498439808e-13 	101324.9999999872
0.03128128128128083 	299.9999999999252 	8.030232576045339e-13 	101324.9999999872
0.03378378378378333 	299.9999999998604 	6.999037944038979e-14 	101324.9999999875
0.03628628628628584 	299.9999999999472 	1.503884995469637e-13 	101324.9999999874
0.03878878878878834 	299.9999999999665 	7.094883654138705e-13 	101324.9999999874
0.04129129129129084 	299.9999999999636 	7.591709860387942e-13 	101324.9999999874
0.04379379379379333 	299.9999999999186 	8.752938715111605e-13 	101324.9999999873
0.04629629629629585 	299.9999999998363 	5.904984353710405e-13 	101324.999999987
0.04879879879879834 	299.9999999999318 	1.370842389245206e-12 	101324.9999999867
0.05130130130130085 	300.0000000000177 	1.302543816211615e-12 	101324.9999999865
0.05380380380380335 	300.0000000000334 	1.442187943313454e-12 	101324.9999999864
0.05630630630630584 	299.9999999999873 	1.355428693524e-12 	101324.9999999864
0.05880880880880836 	299.9999999998811 	9.604880197898508e-13 	101324.9999999865
0.06131131131131085 	299.9999999999547 	6.240337754475808e-13 	101324.9999999867
0.06381381381381336 	299.9999999999399 	5.014360654784937e-13 	101324.9999999868
0.06631631631631586 	299.99999999984 	4.874798098741161e-13 	101324.9999999869
0.06881881881881835 	299.9999999999304 	6.603934660329571e-13 	101324.9999999869
0.07132132132132088 	299.999999999984 	3.627458136156065e-13 	101324.9999999868
0.07382382382382337 	299.9999999998469 	2.770859377449183e-13 	101324.9999999869
0.07632632632632587 	299.9999999999516 	1.65635018133371e-13 	101324.999999987
0.07882882882882837 	299.9999999999102 	4.107496329030638e-13 	101324.9999999871
0.08133133133133086 	299.9999999999705 	1.575290639418358e-13 	101324.9999999869
0.08383383383383337 	299.9999999999809 	1.354625164467657e-13 	101324.9999999869
0.08633633633633589 	299.9999999998619 	3.739590628815947e-14 	101324.999999987
0.08883883883883838 	300.000000000009 	8.444724631487497e-13 	101324.9999999868
0.09134134134134086 	299.9999999999737 	6.437154696351538e-13 	101324.9999999867
0.09384384384384339 	299.999999999842 	9.611778743713077e-13 	101324.9999999864
0.09634634634634588 	299.9999999999491 	1.445653971310669e-12 	101324.9999999861
0.09884884884884838 	299.999999999957 	1.251780750372596e-12 	101324.999999986
0.1013513513513509 	300.0000000000302 	1.613397967862158e-12 	101324.9999999858
0.1038538538538534 	299.9999999999288 	1.30264948614992e-12 	101324.9999999858
0.1063563563563559 	300.0000000000204 	1.846572852743943e-12 	101324.9999999854
0.1088588588588584 	300.0000000000311 	1.576278383752438e-12 	101324.9999999857
0.1113613613613609 	299.9999999998782 	2.63429678913594e-12 	101324.9999999858
0.1138638638638634 	299.9999999999282 	2.894424881944332e-12 	101324.9999999857
0.1163663663663659 	299.9999999999305 	3.100818967813169e-12 	101324.9999999858
0.1188688688688684 	299.9999999999454 	2.67770703302203e-12 	101324.9999999859
0.1213713713713709 	299.9999999999949 	1.704735985440848e-12 	101324.9999999861
0.1238738738738734 	299.9999999998898 	1.618244030164206e-12 	101324.9999999863
0.1263763763763759 	299.9999999999778 	1.286360683586542e-12 	101324.9999999864
0.1288788788788784 	299.9999999999815 	1.147090301583921e-12 	101324.9999999865
0.1313813813813809 	299.9999999999793 	8.547109304950078e-13 	101324.9999999866
0.1338838838838834 	299.9999999999579 	8.363415158435202e-13 	101324.9999999864
0.1363863863863859 	300.000000000033 	2.464028468772357e-13 	101324.9999999865
0.1388888888888884 	300.0000000000664 	5.479264101020828e-13 	101324.9999999865
0.1413913913913909 	300.0000000000056 	8.825506701884618e-13 	101324.9999999868
0.1438938938938934 	299.9999999999829 	3.90167367631107e-13 	101324.9999999871
0.1463963963963959 	299.9999999999339 	1.420518020855099e-12 	101324.999999987
0.1488988988988985 	299.9999999998624 	1.104702652380198e-12 	101324.9999999871
0.1514014014014009 	299.9999999999546 	1.104515853772365e-12 	101324.9999999871
0.1539039039039035 	299.9999999999459 	2.073775605437244e-12 	101324.9999999869
0.1564064064064059 	299.9999999999002 	1.406127418941439e-12 	101324.9999999868
0.1589089089089084 	299.9999999999582 	2.445122927201993e-12 	101324.9999999865
0.1614114114114109 	299.9999999999529 	1.017353432325097e-12 	101324.9999999865
0.1639139139139134 	299.9999999998836 	1.722278087438711e-12 	101324.9999999865
0.166416416416416 	300.0000000000055 	1.201255399935702e-12 	101324.9999999862
0.1689189189189185 	300.0000000000529 	2.203647299005048e-12 	101324.9999999862
0.1714214214214209 	300.000000000007 	2.531819644747784e-12 	101324.9999999862
0.1739239239239235 	299.9999999999947 	2.4150202005616e-12 	101324.9999999864
0.1764264264264259 	299.9999999999495 	4.15581241954719e-12 	101324.9999999862
0.1789289289289284 	300.0000000000169 	2.185442520803126e-12 	101324.9999999865
0.181431431431431 	299.999999999953 	3.644592332329776e-12 	101324.9999999865
0.1839339339339334 	299.9999999999627 	2.18669291341343e-12 	101324.9999999865
0.186436436436436 	299.9999999999002 	2.797370270422647e-12 	101324.9999999863
0.1889389389389385 	299.9999999999787 	2.382245450071917e-12 	101324.9999999862
0.191441441441441 	299.9999999999665 	2.162946743616685e-12 	101324.9999999864
0.1939439439439434 	299.9999999998698 	3.458138807893587e-12 	101324.9999999866
0.196446446446446 	299.999999999917 	2.200842392664163e-12 	101324.9999999866
0.1989489489489485 	299.9999999999591 	4.199157043793105e-12 	101324.9999999867
0.2014514514514509 	299.9999999999763 	2.447523807685998e-12 	101324.999999987
0.2039539539539535 	299.9999999999838 	3.953157802007257e-12 	101324.999999987
0.2064564564564559 	299.9999999999362 	3.300749780942477e-12 	101324.999999987
0.2089589589589585 	299.9999999999746 	3.244109999710363e-12 	101324.9999999871
0.211461461461461 	299.9999999999035 	2.909678566606841e-12 	101324.9999999871
0.2139639639639635 	299.9999999999766 	2.021016826409431e-12 	101324.9999999872
0.2164664664664659 	300.000000000006 	3.413763369833861e-12 	101324.9999999873
0.2189689689689684 	300.0000000000056 	1.833429636792647e-12 	101324.9999999873
0.221471471471471 	299.9999999999992 	4.541772738613644e-12 	101324.9999999872
0.2239739739739735 	299.9999999999342 	2.609590764979235e-12 	101324.999999987
0.226476476476476 	299.9999999999825 	4.410526957523989e-12 	101324.9999999872
0.2289789789789785 	299.9999999999878 	3.934074919873702e-12 	101324.9999999869
0.231481481481481 	299.9999999999517 	4.658147261679443e-12 	101324.9999999869
0.2339839839839835 	299.9999999999963 	4.972962527625116e-12 	101324.9999999872
0.236486486486486 	300.0000000000318 	3.394392360398166e-12 	101324.9999999872
0.2389889889889885 	299.9999999999936 	3.955062167768673e-12 	101324.9999999871
0.241491491491491 	299.9999999998752 	1.145879699095445e-12 	101324.9999999872
0.2439939939939935 	299.9999999999736 	4.020230668645928e-12 	101324.9999999873
0.246496496496496 	299.9999999999858 	1.949332088743016e-12 	101324.9999999873
0.2489989989989985 	300.0000000000491 	3.647001124208433e-12 	101324.9999999873
0.251501501501501 	300.0000000000412 	2.229699389178581e-12 	101324.9999999873
0.2540040040040035 	299.9999999999778 	1.992924819021432e-12 	101324.9999999874
0.256506506506506 	300.0000000000337 	1.949207638264896e-12 	101324.9999999876
0.2590090090090086 	299.9999999998698 	5.826743067743364e-13 	101324.9999999878
0.261511511511511 	300.0000000000094 	2.699954643471048e-12 	101324.999999988
0.2640140140140135 	299.9999999999881 	1.225198780199572e-12 	101324.9999999882
0.2665165165165161 	299.9999999998989 	3.440603981430853e-12 	101324.9999999881
0.2690190190190185 	300.0000000000188 	2.164700918748883e-12 	101324.999999988
0.271521521521521 	300.000000000021 	3.060162039867929e-12 	101324.999999988
0.2740240240240235 	300.0000000000211 	2.888942064135217e-12 	101324.9999999877
0.276526526526526 	300.0000000000076 	2.694388454103967e-12 	101324.9999999875
0.2790290290290286 	299.9999999999117 	3.58633818029878e-12 	101324.9999999875
0.281531531531531 	299.9999999998903 	2.998441340676174e-12 	101324.9999999874
0.2840340340340335 	299.9999999999714 	3.844515681895915e-12 	101324.9999999874
0.2865365365365361 	299.9999999999362 	3.552849828897175e-12 	101324.9999999873
0.2890390390390385 	299.9999999999902 	3.345278866767447e-12 	101324.9999999875
0.291541541541541 	299.9999999999901 	3.416909082821055e-12 	101324.9999999875
0.2940440440440436 	299.9999999999876 	1.520188780123455e-12 	101324.9999999878
0.296546546546546 	299.9999999999872 	3.305057123422182e-12 	101324.9999999879
0.2990490490490486 	299.9999999999077 	1.345239755217339e-12 	101324.9999999881
0.3015515515515511 	300.0000000000538 	4.594222810620718e-12 	101324.9999999882
0.3040540540540535 	300.0000000000156 	2.406338226198271e-12 	101324.9999999883
0.3065565565565562 	299.9999999999787 	5.424794359692128e-12 	101324.9999999883
0.3090590590590585 	299.9999999999794 	2.267272195963134e-12 	101324.9999999882
0.3115615615615611 	299.9999999999038 	4.517728160432801e-12 	101324.9999999881
0.3140640640640635 	300.0000000000128 	8.001388779468901e-13 	101324.9999999881
0.316566566566566 	299.9999999999922 	4.542755315249145e-12 	101324.9999999882
0.3190690690690687 	299.9999999999232 	1.526350941196458e-12 	101324.9999999882
0.3215715715715711 	300.0000000000239 	4.890140182023784e-12 	101324.9999999881
0.3240740740740735 	300.000000000001 	2.429052667659267e-12 	101324.9999999881
0.326576576576576 	299.9999999998671 	5.484245114721009e-12 	101324.999999988
0.3290790790790786 	300.0000000000136 	3.573062349511794e-12 	101324.9999999879
0.3315815815815811 	300.0000000000477 	5.180002108039039e-12 	101324.999999988
0.3340840840840836 	299.9999999999792 	3.689219467873096e-12 	101324.999999988
0.3365865865865861 	300.0000000000759 	4.655002992401743e-12 	101324.9999999882
0.3390890890890886 	300.0000000000704 	2.01238248877738e-12 	101324.9999999885
0.3415915915915911 	299.9999999999993 	3.044354404466803e-12 	101324.9999999883
0.3440940940940935 	299.9999999999355 	1.13973028843989e-12 	101324.999999988
0.3465965965965962 	300.0000000000433 	2.833993946723246e-12 	101324.9999999881
0.3490990990990985 	300.0000000000339 	1.248161725243351e-12 	101324.9999999878
0.3516016016016011 	299.9999999999862 	1.434648257401739e-12 	101324.9999999876
0.3541041041041035 	300.0000000000064 	1.24895738425127e-12 	101324.9999999876
0.3566066066066061 	299.999999999931 	4.157684991888827e-13 	101324.9999999877
0.3591091091091085 	299.9999999998869 	2.377751005050646e-12 	101324.9999999877
0.3616116116116112 	299.9999999999129 	1.248616942249486e-12 	101324.9999999878
0.3641141141141137 	299.9999999999061 	3.947835752859643e-12 	101324.9999999878
0.3666166166166161 	299.9999999998976 	1.482212925109584e-12 	101324.9999999879
0.3691191191191185 	300.0000000000583 	6.336578249505385e-12 	101324.9999999881
0.371621621621621 	300.0000000000135 	1.39699765671452e-12 	101324.9999999882
0.3741241241241237 	300.0000000000721 	5.438620140330176e-12 	101324.9999999882
0.3766266266266261 	300.0000000000447 	1.644761055243713e-12 	101324.9999999879
0.3791291291291286 	299.9999999999812 	4.64981201407551e-12 	101324.9999999876
0.3816316316316311 	299.99999999989 	1.98228063364838e-12 	101324.9999999875
0.3841341341341336 	300.0000000000179 	4.560370770374876e-12 	101324.9999999874
0.3866366366366362 	299.9999999999945 	2.043590080724424e-12 	101324.9999999875
0.3891391391391387 	299.9999999999397 	4.262616377029524e-12 	101324.9999999873
0.391641641641641 	299.9999999999972 	2.429456832399447e-12 	101324.9999999874
0.3941441441441436 	300.0000000000124 	4.09109012597329e-12 	101324.9999999876
0.3966466466466462 	300.0000000000016 	2.29795103628e-12 	101324.9999999876
0.3991491491491486 	299.9999999999299 	3.622586828107809e-12 	101324.9999999876
0.4016516516516512 	299.999999999877 	2.74094233579361e-12 	101324.9999999877
0.4041541541541536 	299.9999999999258 	4.744278619062821e-12 	101324.9999999879
0.4066566566566561 	299.9999999999287 	3.131094521231732e-12 	101324.999999988
0.4091591591591587 	299.9999999999932 	4.555034608744063e-12 	101324.9999999881
0.4116616616616612 	300.0000000000097 	2.859687899672505e-12 	101324.999999988
0.4141641641641635 	300.0000000000629 	2.547975740769185e-12 	101324.9999999881
0.4166666666666662 	299.9999999999972 	2.417814944792411e-12 	101324.9999999881
0.4191691691691687 	299.999999999921 	1.544084122365341e-12 	101324.9999999881
0.421671671671671 	300.0000000000232 	4.024538792384747e-12 	101324.9999999881
0.4241741741741737 	299.9999999999682 	1.557692431973932e-12 	101324.9999999881
0.4266766766766761 	299.9999999999368 	4.959931225376294e-12 	101324.999999988
0.4291791791791785 	300.0000000000308 	2.193641679714358e-12 	101324.999999988
0.4316816816816812 	300.0000000000168 	5.235122578296315e-12 	101324.9999999882
0.4341841841841836 	299.999999999977 	2.060390534933612e-12 	101324.9999999883
0.4366866866866862 	299.9999999998827 	3.801936867457637e-12 	101324.9999999884
0.4391891891891885 	299.9999999999755 	1.067730759984473e-12 	101324.9999999883
0.4416916916916913 	299.9999999999715 	3.499583329794168e-12 	101324.9999999884
0.4441941941941936 	299.9999999999807 	1.433647301002391e-12 	101324.9999999884
0.4466966966966961 	299.9999999998842 	3.651065292667752e-12 	101324.9999999884
0.4491991991991987 	299.9999999999693 	2.252645732246764e-12 	101324.9999999885
0.4517017017017012 	299.9999999999633 	3.080967322352054e-12 	101324.9999999883
0.4542042042042035 	299.9999999999902 	2.472710636194752e-12 	101324.9999999886
0.4567067067067062 	299.999999999999 	2.450549287640867e-12 	101324.9999999888
0.4592092092092087 	299.9999999999011 	2.776692903720231e-12 	101324.9999999888
0.4617117117117112 	300.0000000000302 	3.398513897490921e-12 	101324.999999989
0.4642142142142137 	299.9999999999492 	4.029019899947182e-12 	101324.9999999892
0.4667167167167162 	299.9999999999972 	4.456568939813003e-12 	101324.9999999894
0.4692192192192187 	299.9999999999362 	4.311521427548275e-12 	101324.9999999892
0.4717217217217212 	300.0000000000206 	5.20683967296814e-12 	101324.9999999893
0.4742242242242236 	299.9999999999473 	4.844220018074313e-12 	101324.9999999892
0.4767267267267262 	299.9999999999485 	5.217162097855961e-12 	101324.9999999892
0.4792292292292287 	300.0000000000299 	5.086318100783538e-12 	101324.999999989
0.4817317317317312 	300.0000000000525 	4.477006671419013e-12 	101324.9999999888
0.4842342342342336 	299.9999999999782 	4.484030917664323e-12 	101324.9999999886
0.4867367367367362 	299.9999999999374 	3.71323629922584e-12 	101324.9999999888
0.4892392392392387 	300.0000000000432 	4.292022579492451e-12 	101324.9999999887
0.4917417417417412 	300.0000000000106 	2.533998942052759e-12 	101324.9999999888
0.4942442442442437 	299.999999999873 	3.62598157330764e-12 	101324.9999999887
0.4967467467467462 	299.9999999998992 	2.577611603544321e-12 	101324.9999999885
0.4992492492492487 	299.999999999891 	4.396240401660113e-12 	101324.9999999884
0.5017517517517511 	299.9999999999463 	2.805161239223028e-12 	101324.9999999885
0.5042542542542537 	299.9999999999559 	3.265510880055271e-12 	101324.9999999885
0.5067567567567562 	299.9999999999313 	3.769426074491659e-12 	101324.9999999886
0.5092592592592589 	299.9999999999513 	3.751518006938789e-12 	101324.9999999888
0.5117617617617611 	299.9999999999501 	5.323989945448273e-12 	101324.9999999889
0.5142642642642637 	299.9999999999892 	3.232281076328808e-12 	101324.999999989
0.5167667667667663 	299.9999999999665 	5.732022361213311e-12 	101324.9999999892
0.5192692692692688 	299.9999999998869 	2.030346383301898e-12 	101324.9999999893
0.5217717717717714 	299.9999999999297 	6.657390991815574e-12 	101324.9999999892
0.5242742742742736 	299.99999999993 	1.505750735074714e-12 	101324.999999989
0.5267767767767763 	299.9999999999526 	5.351428957009756e-12 	101324.9999999889
0.5292792792792789 	299.999999999925 	1.849681531191475e-12 	101324.9999999888
0.5317817817817813 	299.9999999998823 	5.45275379747387e-12 	101324.9999999887
0.5342842842842837 	300.0000000000165 	3.84114121982598e-12 	101324.9999999889
0.5367867867867864 	299.9999999999983 	6.519684421282798e-12 	101324.9999999891
0.5392892892892888 	299.9999999999358 	5.467577378549801e-12 	101324.9999999889
0.5417917917917912 	299.9999999999943 	7.440431971468884e-12 	101324.999999989
0.5442942942942938 	299.9999999999717 	5.863225857677557e-12 	101324.999999989
0.5467967967967964 	299.9999999999305 	7.211091403803969e-12 	101324.999999989
0.5492992992992988 	299.9999999999288 	5.930897181455212e-12 	101324.9999999892
0.5518018018018012 	299.9999999999264 	6.9549850239585e-12 	101324.9999999892
0.5543043043043039 	300.0000000000206 	5.15464534085017e-12 	101324.9999999892
0.5568068068068063 	299.9999999999849 	6.065855010453954e-12 	101324.9999999893
0.5593093093093087 	299.999999999879 	4.390172508666714e-12 	101324.9999999894
0.5618118118118114 	299.9999999999343 	6.710509187158986e-12 	101324.9999999894
0.5643143143143137 	299.9999999999088 	5.211827824693916e-12 	101324.9999999893
0.5668168168168163 	299.9999999999856 	6.378053630745946e-12 	101324.9999999894
0.5693193193193188 	300.0000000000358 	6.171040471645752e-12 	101324.9999999893
0.5718218218218213 	300.000000000031 	5.919243001598156e-12 	101324.9999999893
0.5743243243243239 	300.0000000000131 	7.205023766272032e-12 	101324.9999999896
0.5768268268268262 	299.9999999999957 	5.105803392799876e-12 	101324.9999999898
0.5793293293293288 	299.9999999999238 	8.281076601978029e-12 	101324.9999999897
0.5818318318318314 	299.9999999998997 	4.539512240819328e-12 	101324.9999999896
0.5843343343343338 	299.9999999999905 	9.311170493585069e-12 	101324.9999999896
0.5868368368368363 	299.9999999999769 	4.369751790490117e-12 	101324.9999999894
0.5893393393393387 	299.9999999999266 	8.841906896363665e-12 	101324.9999999895
0.5918418418418413 	299.9999999999296 	5.702506552156699e-12 	101324.9999999897
0.5943443443443439 	300.0000000000196 	9.34013123994502e-12 	101324.9999999899
0.5968468468468463 	300.0000000000235 	7.517531374221071e-12 	101324.9999999903
0.5993493493493487 	300.0000000000539 	9.801631869547541e-12 	101324.9999999907
0.6018518518518514 	299.9999999999871 	8.213772055583619e-12 	101324.999999991
0.6043543543543537 	300.0000000000047 	9.883891636082439e-12 	101324.9999999911
0.6068568568568564 	299.9999999999856 	7.932999768110262e-12 	101324.9999999911
0.6093593593593587 	299.9999999999103 	9.778407171227387e-12 	101324.9999999909
0.6118618618618614 	299.9999999998996 	8.444425822730488e-12 	101324.9999999906
0.6143643643643638 	300.0000000000188 	9.748707677576732e-12 	101324.9999999905
0.6168668668668662 	299.999999999989 	7.195859168339126e-12 	101324.9999999907
0.6193693693693688 	299.9999999999515 	8.49219488626465e-12 	101324.9999999909
0.6218718718718714 	299.9999999999589 	5.91003181119975e-12 	101324.9999999909
0.6243743743743737 	299.9999999999087 	8.363630373180649e-12 	101324.9999999907
0.6268768768768762 	299.9999999998972 	6.440262418417886e-12 	101324.9999999909
0.629379379379379 	299.9999999999441 	7.682104142464545e-12 	101324.999999991
0.6318818818818812 	299.9999999999741 	7.347229042459569e-12 	101324.9999999907
0.6343843843843838 	300.0000000000263 	7.685006268541364e-12 	101324.9999999903
0.6368868868868864 	299.9999999999868 	8.982929748375655e-12 	101324.9999999902
0.6393893893893888 	299.9999999999017 	7.593900093612661e-12 	101324.9999999903
0.6418918918918912 	299.9999999999992 	1.07899600347705e-11 	101324.9999999903
0.6443943943943939 	299.9999999999678 	6.434885421171232e-12 	101324.9999999903
0.6468968968968963 	299.9999999999797 	1.178303749045419e-11 	101324.99999999
0.6493993993993988 	299.999999999968 	6.894084696533654e-12 	101324.9999999898
0.6519019019019012 	299.9999999999741 	1.185644311882115e-11 	101324.9999999899
0.6544044044044038 	299.9999999998723 	8.79992160427127e-12 	101324.9999999899
0.6569069069069065 	299.9999999999341 	1.316914824087758e-11 	101324.99999999
0.6594094094094087 	299.9999999999462 	1.040454127034623e-11 	101324.9999999902
0.6619119119119113 	299.999999999943 	1.272040043697697e-11 	101324.9999999903
0.664414414414414 	300.0000000000134 	9.956996956190887e-12 	101324.9999999904
0.6669169169169162 	300.0000000000195 	1.095130155207525e-11 	101324.9999999905
0.6694194194194188 	299.9999999999754 	8.779452379272637e-12 	101324.9999999904
0.6719219219219214 	299.9999999998956 	1.069976582220514e-11 	101324.9999999904
0.674424424424424 	299.9999999999621 	9.90276312212044e-12 	101324.9999999902
0.6769269269269262 	299.9999999998872 	1.109176690720698e-11 	101324.9999999901
0.679429429429429 	300.0000000000038 	9.910833630286306e-12 	101324.99999999
0.6819319319319311 	299.9999999999767 	1.072383178921645e-11 	101324.9999999902
0.6844344344344341 	300.0000000000025 	9.689150876380242e-12 	101324.9999999904
0.686936936936936 	300.0000000000018 	1.172803038377032e-11 	101324.9999999904
0.6894394394394392 	300.0000000000051 	1.058782166777613e-11 	101324.9999999905
0.6919419419419413 	299.9999999999818 	1.093284303757897e-11 	101324.9999999907
0.694444444444444 	299.9999999999056 	1.064564164020275e-11 	101324.9999999911
0.6969469469469463 	299.9999999998927 	1.029216275396948e-11 	101324.9999999912
0.6994494494494489 	299.999999999896 	1.111297260152005e-11 	101324.9999999912
0.7019519519519515 	299.9999999999773 	9.971332453190559e-12 	101324.9999999913
0.7044544544544538 	299.9999999999347 	1.213321017388315e-11 	101324.9999999914
0.7069569569569564 	299.9999999999995 	9.915882690041548e-12 	101324.9999999915
0.7094594594594589 	299.9999999999584 	1.378381373638156e-11 	101324.9999999914
0.7119619619619615 	299.999999999891 	1.070148288670489e-11 	101324.9999999914
0.7144644644644638 	299.9999999999499 	1.361973823702321e-11 	101324.9999999914
0.7169669669669665 	299.9999999999043 	1.207801557130087e-11 	101324.9999999914
0.7194694694694688 	299.9999999999944 	1.339456401652868e-11 	101324.9999999914
0.7219719719719715 	299.9999999999866 	1.225247218273582e-11 	101324.9999999912
0.7244744744744737 	300.0000000000146 	1.296099029869667e-11 	101324.9999999911
0.7269769769769764 	300.0000000000029 	1.38805714639272e-11 	101324.9999999909
0.7294794794794791 	299.999999999982 	1.251314711942602e-11 	101324.9999999907
0.7319819819819813 	299.9999999999659 	1.518542799347656e-11 	101324.9999999906
0.7344844844844839 	299.9999999998876 	1.271137568296134e-11 	101324.9999999906
0.7369869869869864 	299.9999999999276 	1.443542164655551e-11 	101324.999999991
0.739489489489489 	299.999999999927 	1.381402169505441e-11 	101324.9999999911
0.7419919919919914 	299.9999999999089 	1.389279756634815e-11 	101324.9999999913
0.7444944944944939 	299.999999999977 	1.468901090174285e-11 	101324.9999999913
0.7469969969969963 	299.9999999999552 	1.273559932226326e-11 	101324.9999999914
0.7494994994994989 	299.9999999999114 	1.590048252274142e-11 	101324.9999999913
0.7520020020020015 	299.9999999999538 	1.297871868204527e-11 	101324.9999999915
0.7545045045045039 	299.9999999999516 	1.807551744268186e-11 	101324.9999999916
0.7570070070070062 	299.999999999926 	1.484203848482102e-11 	101324.9999999917
0.7595095095095092 	299.9999999999156 	1.725687721550841e-11 	101324.9999999919
0.7620120120120112 	300.0000000000107 	1.58360429430075e-11 	101324.9999999922
0.7645145145145138 	299.9999999999872 	1.587347547180791e-11 	101324.9999999925
0.7670170170170165 	299.9999999999183 	1.623968229389891e-11 	101324.9999999929
0.7695195195195191 	299.9999999999005 	1.436149771831862e-11 	101324.9999999931
0.7720220220220213 	299.9999999999128 	1.747819327902748e-11 	101324.9999999932
0.7745245245245239 	299.9999999999073 	1.467664432015036e-11 	101324.9999999934
0.7770270270270263 	299.999999999965 	1.745624172155927e-11 	101324.9999999934
0.779529529529529 	299.9999999999802 	1.623162877455761e-11 	101324.9999999933
0.7820320320320313 	299.9999999999612 	1.748886127340173e-11 	101324.9999999932
0.784534534534534 	300.0000000000047 	1.767818789770897e-11 	101324.9999999933
0.7870370370370364 	300.000000000002 	1.777912079366546e-11 	101324.9999999932
0.7895395395395389 	299.9999999999965 	1.901682114624481e-11 	101324.9999999931
0.7920420420420413 	299.9999999999752 	1.751771909938764e-11 	101324.9999999932
0.794544544544544 	299.9999999999568 	1.951583529689928e-11 	101324.9999999931
0.7970470470470463 	300.0000000000002 	1.679576624290656e-11 	101324.9999999931
0.799549549549549 	299.9999999999829 	2.125476558585436e-11 	101324.9999999931
0.8020520520520515 	299.9999999999805 	1.763398440619861e-11 	101324.999999993
0.8045545545545539 	299.9999999999236 	2.043135408098419e-11 	101324.9999999929
0.8070570570570563 	299.9999999999653 	1.87551777794752e-11 	101324.9999999928
0.8095595595595589 	299.9999999999375 	1.932174986883228e-11 	101324.9999999927
0.8120620620620614 	299.9999999999209 	1.913442535580724e-11 	101324.9999999925
0.8145645645645638 	300.0000000000022 	1.84213175115329e-11 	101324.9999999926
0.8170670670670666 	300.0000000000041 	1.883076159789819e-11 	101324.9999999928
0.8195695695695689 	299.9999999999798 	1.700752103485705e-11 	101324.9999999928
0.8220720720720714 	299.9999999999268 	2.052134741257864e-11 	101324.9999999925
0.8245745745745739 	299.9999999999908 	1.725294402206253e-11 	101324.9999999924
0.8270770770770765 	299.9999999999619 	1.985908802249732e-11 	101324.9999999922
0.8295795795795788 	299.9999999999389 	1.844750716564138e-11 	101324.999999992
0.8320820820820815 	300.0000000000157 	1.939364674702736e-11 	101324.9999999919
0.834584584584584 	300.0000000000051 	1.88596569590131e-11 	101324.9999999919
0.8370870870870865 	299.9999999999545 	1.875887579251845e-11 	101324.9999999923
0.8395895895895891 	299.9999999999061 	1.973438208886313e-11 	101324.9999999925
0.8420920920920915 	299.9999999999297 	1.886497755348741e-11 	101324.9999999924
0.844594594594594 	299.9999999999313 	1.969247964159238e-11 	101324.9999999925
0.8470970970970964 	299.999999999952 	2.014026954878451e-11 	101324.9999999928
0.8495995995995991 	299.999999999989 	2.059884271765149e-11 	101324.9999999929
0.8521021021021015 	299.9999999999759 	2.153461389781669e-11 	101324.9999999929
0.8546046046046039 	299.9999999999692 	2.090969608461995e-11 	101324.9999999927
0.8571071071071066 	300.0000000000035 	2.23107932251095e-11 	101324.9999999928
0.8596096096096089 	299.9999999999555 	1.876552738969098e-11 	101324.9999999929
0.8621121121121116 	299.9999999999116 	2.15311443828982e-11 	101324.9999999928
0.8646146146146139 	299.9999999999957 	1.803368066554417e-11 	101324.9999999929
0.8671171171171166 	299.9999999999623 	2.019741411935839e-11 	101324.9999999931
0.8696196196196189 	299.9999999999205 	1.958743708349031e-11 	101324.9999999935
0.8721221221221216 	299.9999999999756 	2.070685701465212e-11 	101324.9999999938
0.874624624624624 	300.000000000004 	2.045124813041922e-11 	101324.9999999938
0.8771271271271264 	300.0000000000002 	1.980152417820624e-11 	101324.9999999939
0.879629629629629 	300.0000000000086 	2.057499497956236e-11 	101324.9999999939
0.8821321321321317 	299.9999999999759 	1.866945856563093e-11 	101324.9999999938
0.8846346346346339 	299.9999999998963 	2.251564058748185e-11 	101324.9999999937
0.8871371371371364 	299.9999999999451 	1.997690147221646e-11 	101324.9999999938
0.8896396396396391 	299.9999999999482 	2.179244245576212e-11 	101324.9999999939
0.8921421421421414 	299.9999999999491 	1.962585470978734e-11 	101324.999999994
0.8946446446446441 	299.9999999999769 	2.087201322765864e-11 	101324.999999994
0.8971471471471464 	300.0000000000013 	2.063992864361968e-11 	101324.9999999942
0.8996496496496489 	299.9999999999788 	2.054393759022808e-11 	101324.9999999944
0.9021521521521517 	299.999999999964 	2.195151409748966e-11 	101324.9999999945
0.9046546546546541 	299.999999999995 	2.062484861369324e-11 	101324.9999999948
0.9071571571571564 	299.9999999999404 	2.126609982936546e-11 	101324.9999999951
0.9096596596596589 	299.9999999999322 	2.078751203341384e-11 	101324.9999999952
0.9121621621621616 	300.0000000000082 	2.092675137343118e-11 	101324.9999999951
0.9146646646646639 	299.9999999999699 	2.117955569712602e-11 	101324.9999999948
0.9171671671671666 	299.9999999999351 	2.118588603999382e-11 	101324.9999999946
0.9196696696696689 	300.0000000000086 	2.246958911418023e-11 	101324.9999999945
0.9221721721721714 	299.9999999999943 	2.0582636395078e-11 	101324.9999999946
0.9246746746746741 	299.9999999999188 	2.382934905620513e-11 	101324.9999999949
0.9271771771771765 	299.999999999939 	2.057477555669077e-11 	101324.9999999948
0.9296796796796791 	299.9999999999931 	2.275154151455864e-11 	101324.9999999948
0.9321821821821816 	299.9999999999554 	2.111546367100893e-11 	101324.9999999948
0.9346846846846838 	299.9999999999293 	2.250745707748021e-11 	101324.9999999947
0.9371871871871866 	300.0000000000132 	2.191459568604726e-11 	101324.9999999949
0.9396896896896891 	300.0000000000134 	2.193358390876387e-11 	101324.9999999953
0.9421921921921914 	300.0000000000118 	2.200306297102611e-11 	101324.9999999956
0.9446946946946939 	299.9999999999612 	2.041841666598736e-11 	101324.9999999958
0.9471971971971965 	299.9999999999073 	2.302060126456283e-11 	101324.9999999959
0.9496996996996991 	299.9999999999579 	2.040040621134707e-11 	101324.999999996
0.9522022022022016 	299.9999999999769 	2.244019623156994e-11 	101324.999999996
0.9547047047047038 	299.9999999999662 	2.087857956882387e-11 	101324.9999999958
0.9572072072072064 	299.9999999999455 	2.195646831618614e-11 	101324.9999999957
0.9597097097097093 	299.9999999999573 	2.162570140403876e-11 	101324.9999999958
0.9622122122122114 	299.9999999999559 	2.172944952108427e-11 	101324.9999999958
0.964714714714714 	299.9999999999457 	2.26097135831161e-11 	101324.9999999958
0.9672172172172167 	299.9999999999439 	2.091155918433455e-11 	101324.999999996
0.969719719719719 	299.9999999999776 	2.168433231752754e-11 	101324.9999999963
0.9722222222222214 	299.9999999999761 	2.096943541568058e-11 	101324.9999999963
0.9747247247247239 	299.9999999999687 	2.132374295495987e-11 	101324.9999999963
0.9772272272272267 	300.0000000000104 	2.189738026447497e-11 	101324.9999999962
0.9797297297297292 	299.9999999999895 	2.176092687762176e-11 	101324.9999999961
0.9822322322322313 	299.9999999999909 	2.261085431220905e-11 	101324.9999999958
0.9847347347347344 	299.9999999999823 	2.101004701452614e-11 	101324.999999996
0.9872372372372363 	299.9999999999259 	2.431886485235672e-11 	101324.999999996
0.9897397397397389 	299.9999999999505 	2.12636802294444e-11 	101324.9999999961
0.9922422422422417 	299.9999999999317 	2.418988748693893e-11 	101324.9999999961
0.9947447447447441 	299.9999999999602 	2.25384571378514e-11 	101324.9999999964
0.9972472472472468 	299.9999999999644 	2.345388004715464e-11 	101324.9999999965
0.999749749749749 	299.9999999999567 	2.276956971800055e-11 	101324.9999999963
1.002252252252252 	299.9999999999673 	2.338249558406751e-11 	101324.9999999963
1.004754754754754 	299.9999999999907 	2.327509364385358e-11 	101324.9999999963
1.007257257257256 	299.9999999999681 	2.213248563370382e-11 	101324.9999999964
1.009759759759759 	299.9999999999534 	2.457636386369e-11 	101324.9999999965
1.012262262262261 	299.999999999948 	2.161342610453545e-11 	101324.9999999968
1.014764764764764 	299.9999999999136 	2.379113739507829e-11 	101324.9999999971
1.017267267267267 	299.9999999999026 	2.300439313635393e-11 	101324.9999999974
1.019769769769769 	299.9999999999686 	2.464975290464744e-11 	101324.9999999974
1.022272272272272 	299.9999999999848 	2.405047543333314e-11 	101324.9999999973
1.024774774774774 	299.9999999999846 	2.397871864371457e-11 	101324.999999997
1.027277277277277 	299.9999999999789 	2.515408357236516e-11 	101324.9999999968
1.029779779779779 	300.0000000000153 	2.376752519643718e-11 	101324.9999999966
1.032282282282282 	300.0000000000162 	2.493896512622553e-11 	101324.9999999965
1.034784784784784 	300.0000000000033 	2.425459800188463e-11 	101324.9999999966
1.037287287287286 	299.9999999999605 	2.501492764028923e-11 	101324.9999999969
1.039789789789789 	299.9999999999642 	2.490717676007083e-11 	101324.9999999969
1.042292292292291 	300.0000000000107 	2.488630644962968e-11 	101324.9999999969
1.044794794794794 	300.0000000000362 	2.485146886692264e-11 	101324.9999999969
1.047297297297296 	300.0000000000629 	2.395909857517405e-11 	101324.9999999971
1.049799799799799 	299.9999999999974 	2.692587073525145e-11 	101324.9999999972
1.052302302302302 	299.999999999945 	2.466079901383229e-11 	101324.9999999973
1.054804804804804 	299.9999999999168 	2.695269477601411e-11 	101324.9999999974
1.057307307307306 	299.9999999999013 	2.552742916060177e-11 	101324.9999999976
1.059809809809809 	299.9999999999536 	2.65544523684048e-11 	101324.9999999978
1.062312312312312 	299.9999999999494 	2.520989897317725e-11 	101324.9999999979
1.064814814814814 	299.9999999999446 	2.55142638908125e-11 	101324.9999999981
1.067317317317317 	299.9999999999088 	2.514818876055754e-11 	101324.9999999984
1.069819819819819 	299.9999999999118 	2.509689923156622e-11 	101324.9999999985
1.072322322322321 	299.9999999999989 	2.733501186202557e-11 	101324.9999999984
1.074824824824824 	300.0000000000282 	2.483489006549507e-11 	101324.9999999981
1.077327327327327 	300.0000000000496 	2.647023380872453e-11 	101324.9999999981
1.079829829829829 	300.0000000000637 	2.439245182401045e-11 	101324.9999999981
1.082332332332332 	300.0000000000165 	2.504039938479145e-11 	101324.999999998
1.084834834834834 	299.9999999999741 	2.444781220097213e-11 	101324.9999999979
1.087337337337337 	299.999999999925 	2.505569543079133e-11 	101324.9999999979
1.089839839839839 	299.9999999999085 	2.763445284619882e-11 	101324.9999999977
1.092342342342342 	299.9999999999603 	2.585706218766772e-11 	101324.9999999977
1.094844844844844 	299.9999999999598 	2.719798015901884e-11 	101324.9999999976
1.097347347347347 	299.9999999999216 	2.517203430010192e-11 	101324.9999999975
1.099849849849849 	299.9999999999047 	2.838864717021439e-11 	101324.9999999975
1.102352352352352 	299.9999999999431 	2.523153678383635e-11 	101324.9999999975
1.104854854854854 	299.999999999971 	2.753393201469983e-11 	101324.9999999975
1.107357357357357 	299.9999999999488 	2.543329329792088e-11 	101324.9999999978
1.109859859859859 	299.9999999999397 	2.74446511657366e-11 	101324.9999999981
1.112362362362362 	300.0000000000221 	2.611945014532768e-11 	101324.9999999982
1.114864864864865 	300.0000000000215 	2.648316059439544e-11 	101324.9999999983
1.117367367367367 	299.9999999999592 	2.79008421071784e-11 	101324.9999999982
1.119869869869869 	299.9999999999133 	2.613936635163517e-11 	101324.9999999983
1.122372372372372 	299.9999999999564 	2.799412441395532e-11 	101324.9999999984
1.124874874874874 	299.9999999999471 	2.680150408717349e-11 	101324.9999999984
1.127377377377377 	299.999999999954 	2.832100284381428e-11 	101324.9999999985
1.129879879879879 	300.0000000000289 	2.723341868495941e-11 	101324.9999999987
1.132382382382382 	300.0000000000559 	2.762823338446757e-11 	101324.9999999987
1.134884884884884 	300.0000000000169 	2.636381217388778e-11 	101324.9999999988
1.137387387387387 	300.0000000000246 	2.54938227323974e-11 	101324.9999999988
1.139889889889889 	299.9999999999563 	2.683675344701724e-11 	101324.9999999987
1.142392392392392 	299.9999999999441 	2.51574320738996e-11 	101324.9999999984
1.144894894894894 	300.000000000026 	2.710140558677407e-11 	101324.9999999984
1.147397397397397 	299.999999999996 	2.573782316403462e-11 	101324.9999999986
1.149899899899899 	299.9999999999171 	2.683969063066477e-11 	101324.9999999987
1.152402402402402 	299.9999999999046 	2.554595896561348e-11 	101324.9999999989
1.154904904904904 	299.9999999999507 	2.633521479529507e-11 	101324.999999999
1.157407407407407 	299.9999999999505 	2.59018597906777e-11 	101324.9999999989
1.159909909909909 	299.9999999999168 	2.624635569477241e-11 	101324.9999999987
1.162412412412412 	299.9999999999123 	2.786155167289023e-11 	101324.9999999987
1.164914914914914 	299.999999999945 	2.553952883577622e-11 	101324.9999999988
1.167417417417417 	299.9999999999552 	2.730199192698277e-11 	101324.9999999989
1.169919919919919 	300.0000000000244 	2.59711647010019e-11 	101324.999999999
1.172422422422422 	300.0000000000614 	2.729163476703857e-11 	101324.9999999992
1.174924924924925 	299.9999999999931 	2.562690052859072e-11 	101324.9999999994
1.177427427427427 	299.9999999999511 	2.591329396690933e-11 	101324.9999999993
1.179929929929929 	300.0000000000184 	2.663850173739925e-11 	101324.9999999992
1.182432432432432 	300.0000000000566 	2.454064010934173e-11 	101324.9999999992
1.184934934934934 	300.0000000000032 	2.651629360281508e-11 	101324.9999999992
1.187437437437437 	299.9999999999565 	2.582608241667747e-11 	101324.9999999992
1.189939939939939 	299.9999999999458 	2.760274186093482e-11 	101324.999999999
1.192442442442442 	299.99999999991 	2.662370313976828e-11 	101324.999999999
1.194944944944944 	299.9999999999148 	2.79809893357578e-11 	101324.9999999991
1.197447447447447 	299.9999999999916 	2.657248387001135e-11 	101324.9999999993
1.199949949949949 	300.0000000000194 	2.59730868633779e-11 	101324.9999999994
1.202452452452452 	299.9999999999475 	2.675798473925191e-11 	101324.9999999995
1.204954954954955 	299.9999999999353 	2.527861046554164e-11 	101324.9999999996
1.207457457457457 	299.9999999999735 	2.747714565963385e-11 	101324.9999999996
1.20995995995996 	299.9999999999733 	2.645658276813799e-11 	101324.9999999996
1.212462462462462 	299.999999999992 	2.802158253956336e-11 	101324.9999999994
1.214964964964964 	299.9999999999895 	2.673766569783961e-11 	101324.9999999993
1.217467467467467 	299.999999999974 	2.816356112678072e-11 	101324.9999999994
1.219969969969969 	299.9999999999544 	2.706180753758982e-11 	101324.9999999992
1.222472472472472 	300.0000000000248 	2.739120401302521e-11 	101324.9999999992
1.224974974974975 	300.0000000000629 	2.812864503963188e-11 	101324.9999999992
1.227477477477477 	299.9999999999965 	2.591671993270557e-11 	101324.9999999992
1.229979979979979 	299.9999999999786 	2.740211065686647e-11 	101324.9999999993
1.232482482482482 	299.9999999999438 	2.586043336136927e-11 	101324.9999999992
1.234984984984984 	299.9999999999433 	2.81296073029505e-11 	101324.999999999
1.237487487487487 	299.9999999999732 	2.686702533710527e-11 	101324.999999999
1.239989989989989 	299.9999999999745 	2.797866257595084e-11 	101324.999999999
1.242492492492492 	300.0000000000174 	2.871139050633248e-11 	101324.999999999
1.244994994994994 	299.9999999999779 	2.706309130121316e-11 	101324.9999999992
1.247497497497497 	299.9999999999881 	2.889954688842632e-11 	101324.9999999991
1.249999999999999 	300.0000000003644 	2.806818152903366e-11 	101324.9999999991
