-1.25 	300 	0.0002497083265691762 	101325
-1.247497497497497 	299.9931103214803 	0.01322984808146694 	101318.0918113452
-1.244994994994995 	299.9887911889029 	0.03426508349773101 	101311.7426718093
-1.242492492492492 	299.9832507636088 	0.04912785832405162 	101305.1984365829
-1.23998998998999 	299.9780695379006 	0.06329032412507131 	101299.0766180465
-1.237487487487487 	299.9732953381605 	0.07718432677915654 	101293.4335753844
-1.234984984984985 	299.9690371439701 	0.0894792186947166 	101288.4007672025
-1.232482482482482 	299.9653347814559 	0.1002255045684106 	101284.0250073053
-1.22997997997998 	299.9622602934911 	0.1091323306652122 	101280.3913666868
-1.227477477477477 	299.9599494353286 	0.1158491711050663 	101277.6602994428
-1.224974974974975 	299.9583650965876 	0.1203705172500378 	101275.787817382
-1.222472472472472 	299.9575005049786 	0.1228166701811451 	101274.7659732018
-1.21996996996997 	299.9574209126007 	0.1230480965637049 	101274.6719195409
-1.217467467467467 	299.9581386380295 	0.1209704709362416 	101275.5200555061
-1.214964964964965 	299.9596540908262 	0.1166007192402397 	101277.3109258621
-1.212462462462462 	299.9619580930021 	0.1098974413684439 	101280.0337308014
-1.20995995995996 	299.9649973555486 	0.1011163799243446 	101283.6255563339
-1.207457457457457 	299.9686677510495 	0.09060536229531116 	101287.9634244753
-1.204954954954955 	299.9728464240812 	0.07854631747860624 	101292.9021585203
-1.202452452452452 	299.9775010872865 	0.06506968582716491 	101298.4036750402
-1.19994994994995 	299.9825874129127 	0.05032678568276065 	101304.4156687607
-1.197447447447447 	299.987987221919 	0.03466538154181307 	101310.7984556899
-1.194944944944945 	299.9935848784369 	0.01847456890119021 	101317.4154430932
-1.192442442442442 	299.9992727307201 	0.00816499830650958 	101324.1393978441
-1.18993993993994 	300.0049776923892 	0.01447118065453676 	101330.8838666531
-1.187437437437437 	300.0106074809647 	0.03068941782326627 	101337.539816413
-1.184934934934935 	300.0160685472898 	0.04647864252355334 	101343.9965802153
-1.182432432432432 	300.0212727644158 	0.06152204381153516 	101350.1499601023
-1.17992992992993 	300.0260968870765 	0.0754685710783117 	101355.8541982798
-1.177427427427427 	300.0304236705102 	0.08797318572040268 	101360.9705313681
-1.174924924924925 	300.0341721089457 	0.09879066732398217 	101365.4031750633
-1.172422422422422 	300.0372738714489 	0.1077887956364149 	101369.071202401
-1.16991991991992 	300.0396877773849 	0.114805132290783 	101371.9258942196
-1.167417417417417 	300.0414033173425 	0.1197486126516551 	101373.95477845
-1.164914914914915 	300.0423844265079 	0.1225119474489991 	101375.115088409
-1.162412412412412 	300.042575234106 	0.1230072021038079 	101375.3407724001
-1.15990990990991 	300.041952016664 	0.1212166820734192 	101374.6038048809
-1.157407407407407 	300.0405206933713 	0.1170999575070074 	101372.9112502987
-1.154904904904904 	300.0383129246691 	0.1107447830166861 	101370.3005094516
-1.152402402402403 	300.0353955651256 	0.10230018576576 	101366.8506033694
-1.1498998998999 	300.0318394657787 	0.09200996136501069 	101362.6454941464
-1.147397397397397 	300.0277146520078 	0.08014091905122429 	101357.7680093113
-1.144894894894895 	300.0230979140273 	0.06679869455844378 	101352.3090198292
-1.142392392392392 	300.0180649242852 	0.05221251767015157 	101346.3581020028
-1.13988988988989 	300.012704995248 	0.03667467640738162 	101340.0208249729
-1.137387387387387 	300.0071291947577 	0.02051170721096067 	101333.4286413548
-1.134884884884885 	300.0014356434879 	0.007779815637847933 	101326.6975325998
-1.132382382382382 	299.9957116890509 	0.01243538132115694 	101319.9307943635
-1.12987987987988 	299.9900342655741 	0.02886780451586045 	101313.2194051313
-1.127377377377377 	299.9844949925988 	0.04487584611352752 	101306.6715695823
-1.124874874874875 	299.9792236819305 	0.06008628323538933 	101300.4407870955
-1.122372372372372 	299.9743606840071 	0.07410390383764814 	101294.6928475038
-1.11986986986987 	299.969996430551 	0.08670926994101866 	101289.5346067706
-1.117367367367367 	299.9662062809164 	0.09770745850413294 	101285.0550820364
-1.114864864864865 	299.9630349848688 	0.106936863927699 	101281.3070240513
-1.112362362362362 	299.9605132198063 	0.1142234989852069 	101278.3267056289
-1.10985985985986 	299.9587010848508 	0.1193824799416503 	101276.1849988116
-1.107357357357357 	299.9576703205184 	0.1223532906782001 	101274.9667567894
-1.104854854854855 	299.957440384838 	0.1230029676108462 	101274.6950093894
-1.102352352352353 	299.9580288880009 	0.1213089242475862 	101275.3904319418
-1.09984984984985 	299.9594100048674 	0.1173324205232349 	101277.0225485699
-1.097347347347347 	299.9615342734489 	0.1111339346253259 	101279.5329321834
-1.094844844844845 	299.9643569781097 	0.1029672467574581 	101282.8688130669
-1.092342342342342 	299.9678330285179 	0.09298236656996024 	101286.9769572935
-1.08983983983984 	299.9718789614894 	0.08129135712260213 	101291.7587639243
-1.087337337337337 	299.976452574908 	0.06808668000957624 	101297.164450681
-1.084834834834835 	299.9814631072104 	0.05357382020237995 	101303.0867820461
-1.082332332332332 	299.9867955221548 	0.03813355596604109 	101309.3898570658
-1.07982982982983 	299.9923318015113 	0.0221327134144629 	101315.9342301474
-1.077327327327327 	299.9979571473526 	0.007227683482765423 	101322.5841942469
-1.074824824824825 	300.0036291384413 	0.01056368367328798 	101329.289622963
-1.072322322322323 	300.0092778505391 	0.02685634644275883 	101335.9678640832
-1.06981981981982 	300.0147756050895 	0.04275847002974404 	101342.467935198
-1.067317317317317 	300.0200042345937 	0.05788278508909789 	101348.6501230851
-1.064814814814815 	300.0248622476756 	0.07192905513133045 	101354.3943529174
-1.062312312312312 	300.029269368339 	0.08465379405530658 	101359.6056348555
-1.05980980980981 	300.0331584140066 	0.09587582055444052 	101364.2045005725
-1.057307307307307 	300.0364546636495 	0.1054179243605574 	101368.1024888341
-1.054804804804805 	300.0390896922316 	0.1130482646008038 	101371.2186575787
-1.052302302302302 	300.041009820555 	0.1185658931373385 	101373.4894638778
-1.0497997997998 	300.0421572991218 	0.1218370961290341 	101374.8465347398
-1.047297297297297 	300.0425035575695 	0.1228319295826991 	101375.2560672379
-1.044794794794795 	300.0420546364751 	0.121552791084499 	101374.7252040927
-1.042292292292292 	300.0408231674247 	0.118001751912272 	101373.2689875121
-1.03978978978979 	300.0388330234003 	0.1122459149012789 	101370.9155918036
-1.037287287287287 	300.0361236003129 	0.1043667452027798 	101367.7115827373
-1.034784784784785 	300.0327310846732 	0.09456227880756317 	101363.6998888088
-1.032282282282283 	300.0287303602219 	0.08304536624743018 	101358.9690960925
-1.02977977977978 	300.0242164509398 	0.06998075945152712 	101353.6316584584
-1.027277277277277 	300.0192706360217 	0.05565056285785408 	101347.7837344912
-1.024774774774775 	300.0139750944402 	0.04031512451661415 	101341.5225369333
-1.022272272272272 	300.0084323776554 	0.02427872313531319 	101334.9693911807
-1.01976976976977 	300.0027328419094 	0.007863852714909175 	101328.2311248922
-1.017267267267267 	299.9969883460946 	0.009661139074493922 	101321.4400421764
-1.014764764764765 	299.9912838376135 	0.02525959018740714 	101314.6965459924
-1.012262262262262 	299.9857225029347 	0.04133619988087501 	101308.1225814145
-1.00975975975976 	299.9804287241294 	0.05663074565200527 	101301.8651834003
-1.007257257257257 	299.9755100132925 	0.07083888681582381 	101296.0513364913
-1.004754754754755 	299.9710363907169 	0.08377053897709774 	101290.7637916435
-1.002252252252252 	299.9670920597355 	0.09520610748166247 	101286.1019915028
-0.9997497497497498 	299.9637403862459 	0.1049118944248299 	101282.140745652
-0.9972472472472473 	299.9610551758651 	0.1126357931576704 	101278.9672525234
-0.9947447447447449 	299.9591090682126 	0.1182038414270859 	101276.6672244476
-0.9922422422422421 	299.9579453462169 	0.1215744277821186 	101275.291831674
-0.9897397397397399 	299.9575594115776 	0.1226715751296615 	101274.8357106068
-0.9872372372372376 	299.9579688917175 	0.1215160577243499 	101275.3195968619
-0.9847347347347346 	299.9591569622274 	0.1180913026475705 	101276.7235654447
-0.9822322322322323 	299.9611044419605 	0.1124345888077961 	101279.0250242695
-0.9797297297297296 	299.963767947744 	0.1047469933131559 	101282.172734114
-0.9772272272272275 	299.9670879436133 	0.09516259510666851 	101286.0964081055
-0.9747247247247248 	299.9709881174851 	0.08386652071934723 	101290.705932019
-0.9722222222222224 	299.975424557784 	0.07103684399816482 	101295.9494329424
-0.9697197197197196 	299.9803133560147 	0.05686957003584017 	101301.7278348906
-0.9672172172172175 	299.9855634493922 	0.04167801087302678 	101307.9335337106
-0.9647147147147147 	299.9910571502159 	0.0258057567404806 	101314.4274861988
-0.9622122122122124 	299.9966693536304 	0.009579979552708753 	101321.0618640475
-0.9597097097097099 	300.0023246105411 	0.009284053588967573 	101327.7474309525
-0.9572072072072073 	300.0079427216697 	0.02295416743082708 	101334.3894254031
-0.9547047047047047 	300.0134235846427 	0.03882372361011998 	101340.8694540638
-0.9522022022022023 	300.0186768259515 	0.05403600775634608 	101347.0806430286
-0.9496996996996998 	300.0236095676831 	0.06830895002009313 	101352.9131843291
-0.9471971971971973 	300.028140201346 	0.0814078981566002 	101358.2704625343
-0.9446946946946947 	300.0321784965067 	0.09305637758380916 	101363.0457666397
-0.9421921921921923 	300.0356275549986 	0.1030448074563583 	101367.1244363959
-0.93968968968969 	300.0384172932309 	0.1111230638205681 	101370.423518029
-0.9371871871871872 	300.0405032099256 	0.1170932155706775 	101372.8903807856
-0.9346846846846848 	300.0418338202202 	0.1209028653086621 	101374.4640256868
-0.9321821821821823 	300.0423873370071 	0.1224769133946339 	101375.1186694786
-0.9296796796796799 	300.0421503218015 	0.1217989668463445 	101374.8383986231
-0.9271771771771771 	300.0411191384533 	0.1188508563740068 	101373.6190086371
-0.9246746746746748 	300.0393175342551 	0.1136413225802524 	101371.488586167
-0.9221721721721724 	300.036789973229 	0.1063075779503305 	101368.4996412362
-0.9196696696696698 	300.0335660830816 	0.09700949619329859 	101364.6873193117
-0.9171671671671672 	300.0297211430845 	0.0859274581605788 	101360.1407256815
-0.9146646646646649 	300.0253276665893 	0.07321043140853607 	101354.9456245422
-0.9121621621621623 	300.0204606633286 	0.05909379573255877 	101349.1908482761
-0.9096596596596597 	300.0152114248833 	0.04389022782482296 	101342.9843475276
-0.9071571571571573 	300.0096972771092 	0.02792198167895365 	101336.4648956267
-0.9046546546546547 	300.0040109473233 	0.01156820055223984 	101329.7421878553
-0.9021521521521524 	299.9982935559987 	0.009020701506703359 	101322.9830547388
-0.8996496496496498 	299.9926064761265 	0.02144279932730891 	101316.2600981492
-0.8971471471471473 	299.9870262214126 	0.03756316420993604 	101309.663708249
-0.894644644644645 	299.9816680418896 	0.05305571254135037 	101303.3301075072
-0.892142142142142 	299.9766406023786 	0.06756730619706482 	101297.3877072088
-0.8896396396396397 	299.9720379135973 	0.08084740940997408 	101291.9475548506
-0.8871371371371374 	299.9679655822611 	0.09265956629123336 	101287.134438376
-0.8846346346346349 	299.9644865426125 	0.1027312291797049 	101283.0226459245
-0.8821321321321324 	299.9616690853487 	0.1108623779197835 	101279.6928254223
-0.8796296296296297 	299.9595738827193 	0.1168855261850479 	101277.216614527
-0.8771271271271271 	299.9582398293372 	0.1207271331614 	101275.6399033886
-0.8746246246246248 	299.9576825394902 	0.1223213861011705 	101274.98127
-0.8721221221221224 	299.9579250861998 	0.1216396564477804 	101275.267888879
-0.8696196196196196 	299.9589438024479 	0.11869199505177 	101276.4717028308
-0.8671171171171175 	299.9607171034987 	0.113543988781322 	101278.5673205994
-0.8646146146146148 	299.9632072098382 	0.1063527520760609 	101281.5100991109
-0.8621121121121121 	299.9663593676752 	0.09724750880391976 	101285.2353910072
-0.8596096096096097 	299.9701198223925 	0.08635922284193037 	101289.6797476141
-0.857107107107107 	299.9744491042693 	0.07385648320613913 	101294.7965398913
-0.8546046046046049 	299.9792509654247 	0.0599576581024765 	101300.4721423453
-0.8521021021021022 	299.984425243139 	0.04497999731102983 	101306.5881755536
-0.8495995995995997 	299.9898520184929 	0.02931462271713118 	101313.0029542613
-0.8470970970970974 	299.995405308958 	0.01325597652186846 	101319.5676176723
-0.8445945945945946 	300.0010051607803 	0.008196949695058804 	101326.187596253
-0.8420920920920922 	300.0065899704933 	0.01906873582395577 	101332.7901564674
-0.8395895895895897 	300.0120775564533 	0.03497108193359517 	101339.2780558017
-0.8370870870870872 	300.0173751913241 	0.05028684525034751 	101345.5416736399
-0.8345845845845846 	300.0223838919605 	0.06476313720491676 	101351.46395373
-0.8320820820820823 	300.0270108472603 	0.07812995288459254 	101356.9350593108
-0.8295795795795798 	300.0311622001475 	0.09011186608667994 	101361.8440219687
-0.8270770770770772 	300.0347503246041 	0.1005077315842439 	101366.0870974881
-0.8245745745745746 	300.0377064770063 	0.1090368542120312 	101369.5829602884
-0.8220720720720721 	300.0399716840097 	0.115541335567608 	101372.2618286628
-0.8195695695695699 	300.0414876396574 	0.1198949161316643 	101374.0546431916
-0.817067067067067 	300.0422261488403 	0.1220271887998267 	101374.9280882504
-0.8145645645645651 	300.0421768463272 	0.1219144851880602 	101374.8697869118
-0.8120620620620621 	300.0413456201404 	0.1195206631590144 	101373.886860487
-0.8095595595595597 	300.0397522510333 	0.1149038281281549 	101372.0026951521
-0.8070570570570572 	300.0374188615051 	0.1081327718506593 	101369.2433501674
-0.8045545545545546 	300.0343709309653 	0.09934890468125003 	101365.6391053521
-0.8020520520520523 	300.0306767158376 	0.08869184116963306 	101361.2707021813
-0.7995495495495494 	300.0264069118035 	0.07631265668937798 	101356.2218118758
-0.7970470470470474 	300.0216425480423 	0.06250575975597794 	101350.5883426592
-0.7945445445445446 	300.016478224128 	0.04754584156980585 	101344.4821652095
-0.7920420420420423 	300.0110188478116 	0.03177805996275723 	101338.0274204106
-0.7895395395395397 	300.0053694515243 	0.01551824723119796 	101331.3482992191
-0.7870370370370371 	299.999660272946 	0.007544201113198888 	101324.5988084963
-0.7845345345345348 	299.9939477548155 	0.01756505922902054 	101317.84570343
-0.7820320320320323 	299.9883169686381 	0.03381742992719621 	101311.1894986748
-0.7795295295295296 	299.9828910636384 	0.04949441370531191 	101304.7757976809
-0.7770270270270272 	299.9777798568767 	0.06424517920922922 	101298.7343086961
-0.7745245245245247 	299.9730838704155 	0.07783407737100721 	101293.1838491361
-0.7720220220220222 	299.9688983830334 	0.08997892142263132 	101288.2369570771
-0.7695195195195199 	299.9652833777795 	0.1004325603454127 	101283.9644254364
-0.767017017017017 	299.962320406756 	0.1089688584795013 	101280.4626398767
-0.7645145145145147 	299.9600788274554 	0.115418463155077 	101277.8134158372
-0.7620120120120122 	299.9585869329877 	0.1197362613845469 	101276.0501734454
-0.7595095095095097 	299.9578585261273 	0.1218167029950217 	101275.1893017834
-0.7570070070070072 	299.9579134930451 	0.1216718190689419 	101275.2542319855
-0.7545045045045048 	299.9587393043851 	0.1192617998448195 	101276.2301062436
-0.7520020020020022 	299.96033699772 	0.1146091663573628 	101278.1181625405
-0.7494994994994997 	299.9626788051594 	0.1078967327681381 	101280.8856692985
-0.7469969969969972 	299.965695581677 	0.09917403937771287 	101284.4509492092
-0.7444944944944945 	299.9693284237484 	0.08866964378980766 	101288.7444435403
-0.7419919919919924 	299.9735215343196 	0.07657309907939855 	101293.7002863263
-0.7394894894894897 	299.9781811988504 	0.06304714952347126 	101299.2077437297
-0.7369869869869872 	299.9832302013508 	0.04844617211297203 	101305.1756383311
-0.7344844844844846 	299.988568920933 	0.03302267367768569 	101311.4862753497
-0.7319819819819822 	299.99406538756 	0.01711084048901922 	101317.9836716225
-0.7294794794794797 	299.9996378782395 	0.006230428046420029 	101324.5712595502
-0.7269769769769773 	300.0052063875805 	0.01509234045956995 	101331.1544475748
-0.7244744744744747 	300.0107043539198 	0.03099825411664745 	101337.6545431644
-0.721971971971972 	300.0160456853112 	0.04643396120149605 	101343.9697619876
-0.7194694694694695 	300.0211261745588 	0.06113176445074322 	101349.9768426335
-0.7169669669669674 	300.0258503877758 	0.07477392084911014 	101355.5629082937
-0.7144644644644647 	300.030118849131 	0.08710297983642437 	101360.6102899727
-0.711961961961962 	300.033837507986 	0.09785535989476465 	101365.0076916133
-0.7094594594594597 	300.0369368939611 	0.1068100212089493 	101368.6729129852
-0.7069569569569573 	300.0393641500382 	0.1138048276575361 	101371.5433856673
-0.7044544544544545 	300.0410621033599 	0.1186927966835199 	101373.5514335765
-0.7019519519519523 	300.0420020222923 	0.1214071347171119 	101374.6630651174
-0.6994494494494495 	300.04216560921 	0.1218757681771671 	101374.8565412127
-0.6969469469469471 	300.0415483566599 	0.1200973418173164 	101374.1266306774
-0.6944444444444446 	300.0401625040905 	0.1160937304321249 	101372.487861562
-0.6919419419419421 	300.0380233767536 	0.1098746200117615 	101369.9582582433
-0.6894394394394396 	300.035136623864 	0.1015540523063524 	101366.5445951658
-0.6869369369369374 	300.0315592751616 	0.09121772119112453 	101362.3143614264
-0.6844344344344344 	300.0273664963742 	0.07908333071496007 	101357.3565148092
-0.6819319319319321 	300.0226652828802 	0.06550067765837284 	101351.7976650416
-0.6794294294294296 	300.0175768849144 	0.05076973806076063 	101345.7812135829
-0.6769269269269272 	300.012209893299 	0.03524569372156845 	101339.4356312008
-0.6744244244244245 	300.0066332136904 	0.01916102397684743 	101332.8424208237
-0.6719219219219222 	300.0009586590492 	0.005235530464442751 	101326.1337918742
-0.6694194194194195 	299.995233695483 	0.01384370374440213 	101319.3658999872
-0.6669169169169172 	299.9895482590671 	0.03024961694220656 	101312.64503573
-0.6644144144144146 	299.9840501432225 	0.04612733911546486 	101306.1458932251
-0.661911911911912 	299.9788743198898 	0.06109965977981462 	101300.0279955799
-0.6594094094094097 	299.9741163510583 	0.07484954512214408 	101294.4042170257
-0.656906906906907 	299.9698449971376 	0.08719411584244298 	101289.3557875721
-0.6544044044044046 	299.9661178963688 	0.09798657771959263 	101284.9507686588
-0.6519019019019021 	299.9629897249041 	0.1070231775930308 	101281.2536901656
-0.6493993993993996 	299.9605408238014 	0.1140951697096482 	101278.3594771726
-0.6468968968968971 	299.9588479987812 	0.1189542641132573 	101276.3587491989
-0.6443943943943946 	299.957968063213 	0.1214645569126894 	101275.3187855998
-0.6418918918918921 	299.957918516483 	0.1216186063536004 	101275.2602178246
-0.6393893893893897 	299.9586672030188 	0.1194899869777532 	101276.1449385723
-0.6368868868868871 	299.9601303797616 	0.1152670347122575 	101277.8740471038
-0.6343843843843846 	299.962248503668 	0.1091224728417841 	101280.377198007
-0.6318818818818821 	299.9649777497725 	0.1012058320400775 	101283.6026441439
-0.6293793793793795 	299.968316876533 	0.0915454222768446 	101287.5489828197
-0.6268768768768773 	299.9722737491472 	0.0800934790585901 	101292.2255382756
-0.6243743743743745 	299.9768339347462 	0.06691980226923229 	101297.6155849448
-0.6218718718718721 	299.9819030852126 	0.05223116954031408 	101303.6072728022
-0.6193693693693696 	299.9873535427041 	0.03649707098768448 	101310.0496930223
-0.6168668668668671 	299.9929863474283 	0.02026965086181204 	101316.708144606
-0.6143643643643645 	299.998612460707 	0.004037120736055991 	101323.3590705007
-0.6118618618618621 	300.0040712938109 	0.01177575526288934 	101329.8125581522
-0.6093593593593596 	300.0092858108188 	0.02685819868246534 	101335.9774978055
-0.6068568568568571 	300.0142710287657 	0.04132161948665895 	101341.8715796196
-0.6043543543543546 	300.0190847120738 	0.05528160371076746 	101347.5630925517
-0.6018518518518521 	300.0237668755156 	0.06883639151059036 	101353.0993170202
-0.5993493493493496 	300.0282926177723 	0.08190620826062112 	101358.4507977343
-0.5968468468468471 	300.0325519545155 	0.09417518141434697 	101363.4874822181
-0.5943443443443446 	300.0363589832019 	0.1051152617600122 	101367.9894719093
-0.591841841841842 	300.0394836700688 	0.1140752371339345 	101371.6847068652
-0.5893393393393397 	300.0416962070175 	0.1204056773906048 	101374.3013434476
-0.5868368368368371 	300.0428127821078 	0.1235884333958821 	101375.6219095666
-0.5843343343343346 	300.0427331757567 	0.123342733839621 	101375.5277626727
-0.5818318318318321 	300.0414624983705 	0.1196878785599965 	101374.025201479
-0.5793293293293297 	300.0391155913981 	0.1129523272645834 	101371.2499301482
-0.5768268268268271 	300.035900372277 	0.1037276960854159 	101367.4478109012
-0.5743243243243245 	300.0320858065898 	0.09277839677367068 	101362.9370207359
-0.5718218218218221 	300.0279615850348 	0.08092760983478588 	101358.0601914595
-0.5693193193193196 	300.0237975095743 	0.06894381701817925 	101353.1363848827
-0.5668168168168171 	300.0198119371018 	0.05745393858480167 	101348.4237932938
-0.5643143143143147 	300.0161578537288 	0.04690265249582153 	101344.1032839542
-0.5618118118118121 	300.0129255985657 	0.03755577829396683 	101340.2816352521
-0.5593093093093094 	300.010153216082 	0.02952800780555218 	101337.0037905989
-0.5568068068068072 	300.0078389636169 	0.02281844976446966 	101334.267654898
-0.5543043043043046 	300.0059536400398 	0.01734602906955292 	101332.0386756504
-0.551801801801802 	300.0044514464834 	0.01298082136120381 	101330.2626851294
-0.5492992992992995 	300.0032787295098 	0.009569385623632005 	101328.8762361964
-0.5467967967967969 	300.0023804425923 	0.006953572241797836 	101327.8142407308
-0.5442942942942947 	300.0017044895977 	0.004983232077711758 	101327.0151025855
-0.5417917917917919 	300.0012042893728 	0.003523783061324977 	101326.4237484048
-0.5392892892892895 	300.0008399704859 	0.002459796707760979 	101325.9930388715
-0.536786786786787 	300.0005785949004 	0.001695751556925816 	101325.6840325854
-0.5342842842842846 	300.0003937577806 	0.001154954925833774 	101325.4655126096
-0.531781781781782 	300.0002648389702 	0.000777431462403972 	101325.3131009925
-0.5292792792792794 	300.000176106832 	0.0005173648960726454 	101325.2081992102
-0.526776776776777 	300.0001158098864 	0.0003404892193018711 	101325.1369143429
-0.5242742742742745 	300.000075338256 	0.0002216697291752721 	101325.0890674395
-0.521771771771772 	300.0000484956616 	0.00014279839913863 	101325.0573332096
-0.5192692692692695 	300.0000308970077 	9.104672576919383e-05 	101325.0365275773
-0.516766766766767 	300.0000194877874 	5.74689534714597e-05 	101325.023039151
-0.5142642642642645 	300.0000121712537 	3.591931057392593e-05 	101325.0143893411
-0.511761761761762 	300.000007528858 	2.223521795235992e-05 	101325.0089009572
-0.5092592592592596 	300.0000046135381 	1.363517990457086e-05 	101325.0054543318
-0.506756756756757 	300.0000028010667 	8.284579128646159e-06 	101325.0033116056
-0.5042542542542544 	300.0000016853912 	4.98825268034459e-06 	101325.0019925398
-0.5017517517517521 	300.0000010051554 	2.976952750092525e-06 	101325.0011882886
-0.4992492492492494 	300.0000005942642 	1.761209032694337e-06 	101325.000702514
-0.496746746746747 	300.0000003483019 	1.033088979301132e-06 	101325.0004117885
-0.4942442442442445 	300.0000002024007 	6.009158307735371e-07 	101325.000239356
-0.4917417417417421 	300.0000001166542 	3.466654591288791e-07 	101325.0001379832
-0.4892392392392395 	300.0000000666974 	1.983701920066684e-07 	101325.0000788999
-0.486736736736737 	300.0000000378212 	1.126148766561268e-07 	101325.0000447555
-0.4842342342342345 	300.0000000212274 	6.342814270047167e-08 	101325.0000251871
-0.481731731731732 	300.0000000119419 	3.545534734452156e-08 	101325.0000140639
-0.4792292292292296 	300.000000006622 	1.966539157002062e-08 	101325.0000077918
-0.4767267267267268 	300.0000000035774 	1.083241145645126e-08 	101325.0000042831
-0.4742242242242246 	300.0000000019733 	5.917972305226152e-09 	101325.0000023352
-0.471721721721722 	300.0000000010222 	3.216022531448816e-09 	101325.000001262
-0.4692192192192195 	300.0000000005491 	1.731129644180567e-09 	101325.0000006753
-0.4667167167167169 	300.0000000002096 	9.300915145660676e-10 	101325.0000003566
-0.4642142142142145 	300.000000000159 	4.928257031981754e-10 	101325.0000001851
-0.461711711711712 	300.0000000001038 	2.634811874677119e-10 	101325.0000000931
-0.4592092092092094 	300.0000000000535 	1.376497782773577e-10 	101325.0000000443
-0.456706706706707 	300.0000000000776 	7.485998003647407e-11 	101325.0000000186
-0.4542042042042045 	299.9999999999453 	3.897105323891847e-11 	101325.0000000052
-0.451701701701702 	299.9999999999546 	2.296258070891776e-11 	101324.9999999984
-0.4491991991991995 	299.9999999999549 	1.220128840180097e-11 	101324.9999999948
-0.4466966966966969 	299.9999999999475 	9.851890225891586e-12 	101324.999999993
-0.4441941941941945 	299.9999999999937 	4.461804098621341e-12 	101324.9999999922
-0.441691691691692 	299.999999999952 	6.547666394574751e-12 	101324.9999999917
-0.4391891891891895 	299.9999999999892 	1.4254825732517e-12 	101324.9999999913
-0.436686686686687 	299.9999999999686 	5.348768141826881e-12 	101324.9999999912
-0.4341841841841846 	299.9999999999983 	2.683013542820104e-12 	101324.9999999911
-0.431681681681682 	299.9999999999404 	4.362191579202445e-12 	101324.9999999909
-0.4291791791791794 	299.9999999999244 	1.914102989112254e-12 	101324.9999999908
-0.426676676676677 	299.9999999998967 	3.417145084533407e-12 	101324.9999999907
-0.4241741741741744 	299.9999999999628 	1.58703019534278e-12 	101324.9999999907
-0.421671671671672 	300.000000000006 	3.042093455845836e-12 	101324.9999999907
-0.4191691691691694 	300.0000000000595 	8.642411316374832e-13 	101324.9999999906
-0.4166666666666669 	300.0000000000693 	3.589384859613982e-12 	101324.9999999907
-0.4141641641641645 	299.9999999999318 	2.724196454907235e-12 	101324.9999999906
-0.411661661661662 	300.0000000000056 	4.014877680308595e-12 	101324.9999999907
-0.4091591591591594 	300.0000000000002 	3.106049406053805e-12 	101324.9999999905
-0.406656656656657 	299.999999999933 	4.291975653538792e-12 	101324.9999999905
-0.4041541541541545 	300.0000000000143 	1.882700508090027e-12 	101324.9999999904
-0.401651651651652 	299.999999999914 	3.982232086335066e-12 	101324.9999999905
-0.3991491491491494 	299.9999999999972 	1.542032735535717e-12 	101324.9999999907
-0.396646646646647 	299.999999999951 	4.182336298246246e-12 	101324.9999999908
-0.3941441441441444 	299.9999999999823 	2.932279163331829e-12 	101324.999999991
-0.3916416416416419 	299.9999999999283 	3.56410715972389e-12 	101324.9999999911
-0.3891391391391395 	299.9999999999501 	1.85206419777473e-12 	101324.9999999913
-0.3866366366366368 	299.9999999999538 	2.580029766454415e-12 	101324.9999999914
-0.3841341341341344 	299.9999999999957 	9.452799979229717e-13 	101324.9999999916
-0.381631631631632 	299.9999999999444 	1.787674837562187e-12 	101324.9999999917
-0.3791291291291294 	300.0000000000021 	1.242785618194225e-12 	101324.9999999915
-0.3766266266266269 	300.0000000000243 	1.117704796836336e-12 	101324.9999999913
-0.3741241241241244 	300.0000000000279 	2.079608570577281e-12 	101324.9999999912
-0.371621621621622 	300.0000000000206 	6.125439799751135e-13 	101324.999999991
-0.3691191191191194 	300.0000000000178 	3.165760256718524e-12 	101324.999999991
-0.366616616616617 	300.0000000000145 	1.064379258994994e-12 	101324.999999991
-0.3641141141141143 	299.9999999999615 	2.987589422421448e-12 	101324.9999999909
-0.3616116116116119 	299.9999999999433 	1.062055546522382e-12 	101324.9999999911
-0.3591091091091095 	299.9999999999841 	2.204333213415375e-12 	101324.999999991
-0.356606606606607 	299.9999999999682 	1.892959950977021e-12 	101324.999999991
-0.3541041041041044 	299.9999999999895 	1.81147413914035e-12 	101324.9999999911
-0.3516016016016019 	300.0000000000097 	2.541313874605314e-12 	101324.9999999913
-0.3490990990990994 	299.9999999999926 	5.567620361452857e-13 	101324.9999999914
-0.346596596596597 	300.0000000000463 	2.699437120859894e-12 	101324.9999999915
-0.3440940940940944 	300.0000000000532 	6.299333150624763e-13 	101324.9999999915
-0.3415915915915919 	300.000000000021 	3.186925131145026e-12 	101324.9999999913
-0.3390890890890895 	299.999999999975 	8.876070401332624e-13 	101324.9999999912
-0.3365865865865869 	300.0000000000186 	1.937407947057908e-12 	101324.999999991
-0.3340840840840844 	300.0000000000024 	7.926033635444459e-13 	101324.9999999911
-0.3315815815815819 	300.0000000000222 	1.962266893577597e-12 	101324.9999999913
-0.3290790790790794 	300.0000000000243 	8.93953566776978e-13 	101324.9999999911
-0.3265765765765769 	299.9999999999229 	1.794955830442458e-12 	101324.9999999911
-0.3240740740740744 	299.9999999999943 	8.895313427022089e-13 	101324.9999999909
-0.3215715715715718 	300.0000000000069 	2.264647586105859e-12 	101324.9999999908
-0.3190690690690695 	299.9999999999283 	5.657388924509039e-13 	101324.9999999906
-0.3165665665665668 	299.9999999999894 	3.114083787556819e-12 	101324.9999999906
-0.3140640640640644 	300.0000000000041 	6.485816067053162e-13 	101324.9999999906
-0.311561561561562 	299.9999999999222 	4.414720088897831e-12 	101324.9999999905
-0.3090590590590593 	299.9999999999922 	1.413362921441778e-12 	101324.9999999906
-0.3065565565565568 	300.0000000000026 	6.025502502378219e-12 	101324.9999999907
-0.3040540540540545 	300.0000000000037 	1.443871839685848e-12 	101324.9999999909
-0.3015515515515518 	300.0000000000404 	5.951648715580674e-12 	101324.9999999908
-0.2990490490490494 	299.9999999999472 	2.452101961950323e-12 	101324.9999999907
-0.2965465465465469 	299.9999999999838 	5.053096918565257e-12 	101324.9999999908
-0.2940440440440444 	299.9999999999935 	3.433953540597136e-12 	101324.9999999908
-0.2915415415415418 	300.000000000004 	4.159957009672024e-12 	101324.9999999906
-0.2890390390390395 	300.0000000000074 	3.979950764611924e-12 	101324.9999999908
-0.2865365365365368 	299.999999999982 	2.398296793034226e-12 	101324.9999999907
-0.2840340340340343 	300.0000000000013 	3.833200473675189e-12 	101324.9999999906
-0.2815315315315318 	299.9999999999198 	8.825417338965739e-13 	101324.9999999908
-0.2790290290290295 	299.9999999999573 	2.625941546107776e-12 	101324.9999999908
-0.2765265265265269 	300.0000000000042 	1.306067411123278e-12 	101324.9999999909
-0.2740240240240244 	300.0000000000276 	2.035952067948826e-12 	101324.9999999909
-0.2715215215215219 	300.0000000000116 	1.685052075217434e-12 	101324.9999999909
-0.2690190190190194 	299.9999999999412 	1.705546971602425e-12 	101324.9999999908
-0.2665165165165169 	300.0000000000002 	2.273927592578352e-12 	101324.9999999907
-0.2640140140140144 	299.999999999965 	1.331510466049468e-12 	101324.9999999907
-0.2615115115115119 	300.0000000000015 	3.371160018967726e-12 	101324.9999999908
-0.2590090090090094 	299.9999999999269 	1.986515055315518e-12 	101324.9999999908
-0.2565065065065068 	299.9999999999921 	3.102320076670048e-12 	101324.9999999907
-0.2540040040040044 	299.999999999996 	3.849948208802704e-12 	101324.9999999908
-0.2515015015015019 	300.0000000000401 	3.095906574396264e-12 	101324.9999999907
-0.2489989989989994 	300.0000000000455 	5.386456606406058e-12 	101324.9999999908
-0.2464964964964968 	299.9999999999912 	3.376850138160929e-12 	101324.999999991
-0.2439939939939944 	299.9999999999944 	7.314581004431985e-12 	101324.999999991
-0.2414914914914919 	299.9999999999646 	3.073878067280771e-12 	101324.9999999909
-0.2389889889889893 	300.0000000000025 	7.562663385566432e-12 	101324.9999999909
-0.2364864864864869 	300.000000000025 	3.290202217564517e-12 	101324.9999999911
-0.2339839839839843 	299.9999999999238 	7.719968148625174e-12 	101324.9999999912
-0.2314814814814819 	299.9999999999807 	3.330446613741385e-12 	101324.9999999912
-0.2289789789789792 	299.9999999999131 	6.71216316764668e-12 	101324.9999999913
-0.2264764764764769 	299.9999999999421 	3.709338239558255e-12 	101324.9999999914
-0.2239739739739743 	299.9999999999553 	5.074146283695482e-12 	101324.9999999915
-0.2214714714714718 	299.9999999999347 	3.799594711519808e-12 	101324.9999999913
-0.2189689689689693 	299.999999999967 	3.466815818776421e-12 	101324.9999999911
-0.2164664664664669 	299.9999999999828 	5.329953516609415e-12 	101324.9999999909
-0.2139639639639643 	299.9999999999256 	3.936537852251703e-12 	101324.9999999912
-0.2114614614614618 	299.9999999999695 	4.581203168264413e-12 	101324.9999999912
-0.2089589589589593 	299.9999999999895 	4.79473580183829e-12 	101324.9999999912
-0.2064564564564568 	299.9999999999902 	4.357964723171077e-12 	101324.9999999911
-0.2039539539539543 	299.9999999999077 	5.298302964122933e-12 	101324.9999999912
-0.2014514514514518 	299.9999999999429 	2.132290203734476e-12 	101324.9999999912
-0.1989489489489494 	299.9999999999671 	5.504552378401064e-12 	101324.9999999912
-0.1964464464464468 	299.9999999999919 	1.962322778592981e-12 	101324.9999999911
-0.1939439439439443 	299.9999999999899 	5.609585356405578e-12 	101324.9999999909
-0.1914414414414418 	299.9999999999128 	2.768741031443175e-12 	101324.9999999909
-0.1889389389389393 	300.0000000000069 	4.445141491183035e-12 	101324.9999999912
-0.1864364364364368 	300.0000000000432 	2.954915503410498e-12 	101324.999999991
-0.1839339339339343 	299.9999999999713 	4.332274021452371e-12 	101324.999999991
-0.1814314314314318 	299.9999999999937 	3.077492480479124e-12 	101324.999999991
-0.1789289289289293 	299.9999999998915 	4.457724807887937e-12 	101324.9999999908
-0.1764264264264268 	299.9999999999797 	1.914473453301208e-12 	101324.9999999908
-0.1739239239239243 	299.9999999998957 	4.662916851711535e-12 	101324.9999999908
-0.1714214214214218 	299.999999999991 	5.543470600830221e-13 	101324.9999999908
-0.1689189189189193 	299.9999999999505 	5.293514288417736e-12 	101324.999999991
-0.1664164164164168 	300.000000000006 	1.684972101652351e-12 	101324.9999999909
-0.1639139139139143 	299.9999999999819 	6.423101289806943e-12 	101324.9999999908
-0.1614114114114118 	300.0000000000292 	3.090713784530606e-12 	101324.9999999907
-0.1589089089089093 	299.999999999998 	8.27302383145627e-12 	101324.9999999908
-0.1564064064064068 	299.9999999999829 	4.462181136408616e-12 	101324.9999999906
-0.1539039039039043 	299.9999999999895 	9.067640910924212e-12 	101324.9999999903
-0.1514014014014018 	300.0000000000252 	3.079381688013287e-12 	101324.9999999903
-0.1488988988988993 	299.9999999999803 	8.99178070394961e-12 	101324.9999999903
-0.1463963963963968 	300.0000000000001 	1.229893555689598e-12 	101324.9999999904
-0.1438938938938943 	299.9999999999518 	8.352891295475929e-12 	101324.9999999905
-0.1413913913913918 	299.9999999999208 	1.193890409141794e-12 	101324.9999999902
-0.1388888888888893 	299.9999999999775 	6.048464772002013e-12 	101324.9999999901
-0.1363863863863868 	299.9999999998802 	8.535721738174766e-13 	101324.99999999
-0.1338838838838843 	299.9999999999102 	3.586688256637072e-12 	101324.9999999898
-0.1313813813813818 	299.9999999999936 	3.138532232623094e-13 	101324.99999999
-0.1288788788788793 	299.9999999999591 	2.97030801184738e-12 	101324.9999999897
-0.1263763763763768 	299.9999999999656 	4.573185483661203e-13 	101324.9999999898
-0.1238738738738743 	299.999999999926 	3.254966805285729e-12 	101324.9999999899
-0.1213713713713717 	299.9999999999803 	2.303485773973418e-13 	101324.9999999899
-0.1188688688688693 	300.0000000000059 	4.683703329677286e-12 	101324.99999999
-0.1163663663663668 	299.9999999999033 	4.886052783051615e-13 	101324.99999999
-0.1138638638638643 	299.99999999999 	5.200411110547086e-12 	101324.9999999905
-0.1113613613613618 	299.999999999981 	8.512793332046732e-13 	101324.9999999908
-0.1088588588588592 	299.9999999999721 	6.129347995177022e-12 	101324.999999991
-0.1063563563563568 	299.9999999999524 	5.125061859205869e-13 	101324.999999991
-0.1038538538538543 	299.9999999999721 	5.337823772872494e-12 	101324.9999999914
-0.1013513513513517 	300.0000000000147 	1.180295089399655e-12 	101324.9999999915
-0.09884884884884926 	299.9999999999413 	5.084538075457904e-12 	101324.9999999913
-0.09634634634634676 	299.9999999998885 	2.430469437886766e-12 	101324.9999999914
-0.09384384384384425 	299.999999999927 	4.698086212792008e-12 	101324.9999999912
-0.09134134134134177 	300.0000000000233 	2.860373365877834e-12 	101324.9999999913
-0.08883883883883925 	300.0000000000097 	4.707305689731948e-12 	101324.9999999911
-0.08633633633633674 	299.9999999999521 	3.768284451380996e-12 	101324.9999999911
-0.08383383383383426 	300.0000000000111 	4.000729766018079e-12 	101324.9999999909
-0.08133133133133173 	299.9999999999636 	3.592815338494841e-12 	101324.9999999909
-0.07882882882882926 	299.9999999998769 	2.83850207238957e-12 	101324.9999999908
-0.07632632632632676 	299.9999999999565 	1.939620226255051e-12 	101324.9999999909
-0.07382382382382424 	299.9999999998909 	1.936611580105349e-12 	101324.9999999906
-0.07132132132132173 	300.0000000000119 	8.666783211181133e-13 	101324.9999999906
-0.06881881881881925 	299.9999999999605 	1.234443909356222e-12 	101324.9999999905
-0.06631631631631671 	299.9999999998881 	8.511988064910166e-13 	101324.9999999906
-0.06381381381381425 	299.999999999952 	1.311514339392749e-12 	101324.9999999907
-0.06131131131131173 	299.9999999999536 	1.43804816362018e-12 	101324.9999999909
-0.05880880880880923 	299.9999999999151 	1.414842077192765e-12 	101324.9999999909
-0.05630630630630672 	299.9999999999653 	1.127919726776242e-12 	101324.9999999912
-0.05380380380380424 	300.0000000000164 	1.417208833467248e-12 	101324.9999999912
-0.05130130130130173 	300.0000000000135 	1.884563054143592e-12 	101324.9999999912
-0.04879879879879922 	299.9999999999412 	1.869803621441345e-12 	101324.9999999908
-0.04629629629629672 	299.9999999999265 	1.255416845401052e-12 	101324.9999999906
-0.04379379379379422 	299.9999999999128 	1.098400158099678e-12 	101324.9999999904
-0.04129129129129173 	299.9999999999783 	7.047564687096504e-13 	101324.9999999903
-0.03878878878878922 	299.9999999999799 	6.690329118012862e-13 	101324.9999999902
-0.03628628628628671 	299.999999999977 	3.462335909600134e-13 	101324.99999999
-0.03378378378378422 	299.9999999999233 	3.951095352645102e-13 	101324.9999999898
-0.03128128128128172 	299.9999999999685 	1.181626398223801e-13 	101324.9999999899
-0.02877877877877922 	299.999999999966 	8.177411721112624e-13 	101324.9999999903
-0.0262762762762767 	299.9999999998919 	4.62146637551436e-13 	101324.9999999905
-0.02377377377377422 	300.0000000000201 	2.593362798955463e-13 	101324.9999999907
-0.0212712712712717 	299.9999999998952 	1.773245964279327e-13 	101324.999999991
-0.01876876876876921 	299.9999999999702 	2.63656628679807e-14 	101324.9999999909
-0.01626626626626671 	300.0000000000133 	5.71421438613419e-13 	101324.999999991
-0.0137637637637642 	299.9999999999635 	4.312879622438697e-13 	101324.9999999912
-0.0112612612612617 	300.0000000000162 	1.141892940727057e-12 	101324.999999991
-0.008758758758759198 	299.9999999999987 	1.015541159284213e-12 	101324.9999999907
-0.006256256256256697 	299.9999999998846 	1.639147943888464e-12 	101324.9999999908
-0.003753753753754195 	299.9999999999537 	1.224094592069438e-12 	101324.9999999909
-0.001251251251251693 	299.9999999999239 	1.74304150364425e-12 	101324.9999999909
0.00125125125125081 	299.999999999953 	1.147600562425285e-12 	101324.9999999911
0.003753753753753312 	299.999999999963 	1.274852970270247e-12 	101324.999999991
0.006256256256255817 	299.9999999998784 	6.614034361176084e-13 	101324.999999991
0.008758758758758317 	299.999999999985 	1.250756086599007e-12 	101324.9999999911
0.01126126126126082 	300.0000000000107 	1.894839197879471e-12 	101324.9999999909
0.01376376376376332 	299.9999999999652 	2.447970355463026e-12 	101324.9999999909
0.01626626626626582 	300.0000000000125 	2.536023229988679e-12 	101324.9999999908
0.01876876876876833 	299.9999999999534 	2.523334136555945e-12 	101324.9999999906
0.02127127127127083 	299.9999999999667 	1.457799395795513e-12 	101324.9999999904
0.02377377377377332 	299.9999999999932 	7.768200855622492e-13 	101324.9999999903
0.02627627627627583 	299.9999999998991 	6.11291957887941e-13 	101324.9999999904
0.02877877877877833 	300.0000000000063 	5.351008985396912e-13 	101324.9999999905
0.03128128128128083 	299.9999999999407 	7.176266740677476e-13 	101324.9999999909
0.03378378378378333 	299.9999999998967 	7.162992356052664e-13 	101324.9999999909
0.03628628628628584 	299.9999999999724 	6.621925765520966e-14 	101324.9999999909
0.03878878878878834 	299.9999999999772 	6.196667751798888e-13 	101324.9999999909
0.04129129129129084 	299.9999999999707 	4.504993976892067e-13 	101324.9999999908
0.04379379379379333 	299.9999999999386 	2.448405832070778e-13 	101324.9999999908
0.04629629629629585 	299.9999999998812 	3.935593367886765e-13 	101324.9999999905
0.04879879879879834 	299.9999999999516 	1.157480106748731e-13 	101324.9999999903
0.05130130130130085 	300.000000000014 	3.702332256348841e-14 	101324.9999999906
0.05380380380380335 	300.0000000000165 	1.499134109683087e-13 	101324.9999999904
0.05630630630630584 	299.9999999999897 	1.0072561085367e-13 	101324.9999999903
0.05880880880880836 	299.9999999999146 	2.370643614766202e-13 	101324.9999999903
0.06131131131131085 	299.9999999999756 	3.906589363971611e-13 	101324.9999999903
0.06381381381381336 	299.9999999999616 	8.997657414263204e-13 	101324.9999999902
0.06631631631631586 	299.9999999998814 	4.217732805568777e-13 	101324.9999999901
0.06881881881881835 	299.9999999999441 	4.863825837116071e-13 	101324.9999999902
0.07132132132132088 	299.999999999986 	7.595995511783521e-13 	101324.9999999904
0.07382382382382337 	299.9999999998957 	1.406329882543668e-12 	101324.9999999903
0.07632632632632587 	299.9999999999699 	1.520017178836295e-12 	101324.9999999901
0.07882882882882837 	299.9999999999296 	1.249197668784887e-12 	101324.9999999901
0.08133133133133086 	299.9999999999841 	1.411991148297356e-12 	101324.9999999903
0.08383383383383337 	299.9999999999828 	1.17528513574705e-12 	101324.9999999902
0.08633633633633589 	299.9999999998995 	6.281584709249435e-13 	101324.9999999902
0.08883883883883838 	300.0000000000107 	1.281192102933312e-12 	101324.9999999902
0.09134134134134086 	299.9999999999828 	4.209252442546909e-13 	101324.9999999903
0.09384384384384339 	299.9999999998875 	9.936304132783028e-13 	101324.9999999901
0.09634634634634588 	299.9999999999623 	1.847654035618279e-12 	101324.9999999903
0.09884884884884838 	299.9999999999681 	2.445780555052514e-12 	101324.9999999904
0.1013513513513509 	300.0000000000215 	2.782993819858209e-12 	101324.9999999903
0.1038538538538534 	299.99999999995 	2.86628436630596e-12 	101324.9999999906
0.1063563563563559 	300.000000000019 	2.613680372560855e-12 	101324.9999999906
0.1088588588588584 	300.0000000000247 	2.113950453872335e-12 	101324.9999999907
0.1113613613613609 	299.9999999999179 	2.693755756014293e-12 	101324.9999999907
0.1138638638638634 	299.9999999999438 	2.843661836636157e-12 	101324.9999999905
0.1163663663663659 	299.9999999999404 	2.732401598473358e-12 	101324.9999999904
0.1188688688688684 	299.9999999999673 	2.616954389693676e-12 	101324.9999999904
0.1213713713713709 	299.9999999999905 	1.885321291568089e-12 	101324.9999999904
0.1238738738738734 	299.9999999999187 	2.804598823238339e-12 	101324.9999999904
0.1263763763763759 	299.999999999981 	3.54422817315275e-12 	101324.9999999903
0.1288788788788784 	299.9999999999867 	3.557935949653188e-12 	101324.9999999901
0.1313813813813809 	299.9999999999845 	3.650537852523931e-12 	101324.9999999903
0.1338838838838834 	299.9999999999744 	3.268516839061295e-12 	101324.99999999
0.1363863863863859 	300.0000000000325 	2.583446905991069e-12 	101324.9999999902
0.1388888888888884 	300.0000000000494 	2.522936320765409e-12 	101324.9999999902
0.1413913913913909 	300.0000000000006 	1.449201759643329e-12 	101324.9999999903
0.1438938938938934 	299.9999999999914 	1.850322805233072e-12 	101324.9999999901
0.1463963963963959 	299.9999999999582 	5.918142330254815e-13 	101324.99999999
0.1488988988988985 	299.999999999906 	1.88972312412674e-12 	101324.99999999
0.1514014014014009 	299.9999999999682 	4.211907125449352e-13 	101324.99999999
0.1539039039039035 	299.9999999999584 	2.797582436081182e-12 	101324.9999999898
0.1564064064064059 	299.9999999999276 	3.722414533796579e-13 	101324.99999999
0.1589089089089084 	299.9999999999778 	3.538646620515614e-12 	101324.9999999902
0.1614114114114109 	299.9999999999744 	9.526664664821624e-13 	101324.9999999904
0.1639139139139134 	299.9999999999131 	3.016156781076059e-12 	101324.9999999905
0.166416416416416 	300.0000000000031 	2.749333434812342e-12 	101324.9999999906
0.1689189189189185 	300.0000000000304 	3.215716714891678e-12 	101324.9999999905
0.1714214214214209 	299.9999999999933 	3.95351310926199e-12 	101324.9999999901
0.1739239239239235 	299.9999999999883 	2.292024603011563e-12 	101324.9999999901
0.1764264264264259 	299.9999999999638 	3.861020291494938e-12 	101324.9999999898
0.1789289289289284 	300.0000000000065 	1.161305040675394e-12 	101324.9999999897
0.181431431431431 	299.9999999999616 	3.507905765164794e-12 	101324.9999999899
0.1839339339339334 	299.9999999999678 	1.596036837388898e-12 	101324.9999999899
0.186436436436436 	299.9999999999213 	2.823700833875426e-12 	101324.9999999901
0.1889389389389385 	299.9999999999831 	2.497201995186772e-12 	101324.9999999901
0.191441441441441 	299.9999999999772 	2.141223414735831e-12 	101324.9999999902
0.1939439439439434 	299.9999999999126 	3.638566656466524e-12 	101324.9999999902
0.196446446446446 	299.9999999999412 	2.355653612748342e-12 	101324.9999999903
0.1989489489489485 	299.9999999999654 	5.127450746025045e-12 	101324.99999999
0.2014514514514509 	299.9999999999766 	2.968483947829542e-12 	101324.9999999901
0.2039539539539535 	299.999999999991 	4.778201811188744e-12 	101324.9999999901
0.2064564564564559 	299.9999999999579 	4.401946970787607e-12 	101324.9999999901
0.2089589589589585 	299.9999999999821 	4.448409180001962e-12 	101324.9999999901
0.211461461461461 	299.9999999999293 	3.61515166449632e-12 	101324.9999999902
0.2139639639639635 	299.9999999999808 	2.593235966381223e-12 	101324.99999999
0.2164664664664659 	299.9999999999951 	4.001524055513728e-12 	101324.9999999903
0.2189689689689684 	299.9999999999945 	2.203586928264625e-12 	101324.9999999904
0.221471471471471 	299.9999999999916 	5.030546456838181e-12 	101324.9999999904
0.2239739739739735 	299.9999999999491 	2.912366239107899e-12 	101324.9999999905
0.226476476476476 	299.9999999999774 	4.456554435010418e-12 	101324.9999999906
0.2289789789789785 	299.9999999999978 	3.389958075542717e-12 	101324.9999999905
0.231481481481481 	299.9999999999883 	3.2619783903627e-12 	101324.9999999905
0.2339839839839835 	299.9999999999839 	3.36847231754661e-12 	101324.9999999903
0.236486486486486 	300.0000000000181 	2.521841453596885e-12 	101324.9999999902
0.2389889889889885 	299.9999999999961 	3.949107170396743e-12 	101324.9999999904
0.241491491491491 	299.9999999999131 	1.67427744155413e-12 	101324.9999999903
0.2439939939939935 	299.9999999999808 	4.121808452954154e-12 	101324.9999999901
0.246496496496496 	299.9999999999879 	1.464919249282524e-12 	101324.9999999901
0.2489989989989985 	300.0000000000367 	2.450854170328982e-12 	101324.9999999902
0.251501501501501 	300.000000000031 	5.60010055568588e-13 	101324.9999999904
0.2540040040040035 	299.9999999999887 	1.283594118455233e-13 	101324.9999999906
0.256506506506506 	300.0000000000257 	8.193113144125814e-13 	101324.9999999906
0.2590090090090086 	299.9999999999011 	1.335300659393444e-12 	101324.9999999907
0.261511511511511 	299.9999999999965 	1.82592941368882e-12 	101324.999999991
0.2640140140140135 	299.9999999999877 	1.229623707499146e-12 	101324.9999999908
0.2665165165165161 	299.9999999999258 	1.236657903850921e-12 	101324.9999999905
0.2690190190190185 	300.0000000000024 	3.02253915693586e-13 	101324.9999999904
0.271521521521521 	300.0000000000024 	2.802110888464909e-13 	101324.99999999
0.2740240240240235 	300.0000000000151 	1.945705165773557e-13 	101324.99999999
0.276526526526526 	300.0000000000061 	8.896831105923463e-13 	101324.99999999
0.2790290290290286 	299.9999999999343 	1.062833397134559e-12 	101324.9999999899
0.281531531531531 	299.999999999925 	6.136840489187375e-13 	101324.9999999899
0.2840340340340335 	299.9999999999787 	1.937064130841005e-12 	101324.9999999898
0.2865365365365361 	299.9999999999528 	2.005627697356416e-13 	101324.9999999898
0.2890390390390385 	299.999999999996 	7.678406993395867e-13 	101324.9999999898
0.291541541541541 	299.9999999999953 	8.481460298546264e-13 	101324.9999999896
0.2940440440440436 	299.9999999999905 	5.03306810103648e-13 	101324.9999999898
0.296546546546546 	299.9999999999897 	2.147251708550604e-12 	101324.9999999898
0.2990490490490486 	299.999999999933 	9.591674502237404e-13 	101324.9999999899
0.3015515515515511 	300.0000000000388 	3.530901561547888e-12 	101324.9999999902
0.3040540540540535 	299.9999999999933 	2.337483914604396e-12 	101324.9999999905
0.3065565565565562 	299.9999999999997 	4.7973355658423e-12 	101324.9999999907
0.3090590590590585 	299.9999999999907 	1.941386615016695e-12 	101324.9999999907
0.3115615615615611 	299.9999999999367 	4.006989768640073e-12 	101324.9999999909
0.3140640640640635 	300.0000000000045 	5.44435725419276e-13 	101324.9999999907
0.316566566566566 	299.9999999999949 	3.447895876280152e-12 	101324.9999999906
0.3190690690690687 	299.9999999999507 	6.746899185237008e-13 	101324.9999999903
0.3215715715715711 	300.0000000000159 	2.88940152252386e-12 	101324.9999999906
0.3240740740740735 	299.9999999999989 	7.3026324230808e-13 	101324.9999999907
0.326576576576576 	299.9999999999007 	1.914563596465847e-12 	101324.9999999907
0.3290790790790786 	300.0000000000059 	1.728180557370377e-13 	101324.9999999907
0.3315815815815811 	300.0000000000329 	4.170771114023757e-13 	101324.9999999908
0.3340840840840836 	299.9999999999864 	8.743667132607675e-13 	101324.9999999908
0.3365865865865861 	300.0000000000529 	1.384052524040601e-12 	101324.9999999908
0.3390890890890886 	300.0000000000479 	4.535142973414928e-13 	101324.9999999909
0.3415915915915911 	300.0000000000052 	1.184688758408221e-12 	101324.9999999909
0.3440940940940935 	299.9999999999516 	9.440947338584613e-13 	101324.9999999907
0.3465965965965962 	300.0000000000344 	4.944359459820299e-13 	101324.9999999908
0.3490990990990985 	300.0000000000251 	5.466287051885301e-13 	101324.9999999906
0.3516016016016011 	299.9999999999837 	6.197493830797165e-14 	101324.9999999906
0.3541041041041035 	300.0000000000065 	3.002768638853266e-13 	101324.9999999906
0.3566066066066061 	299.999999999953 	7.682060775177092e-13 	101324.9999999904
0.3591091091091085 	299.9999999999175 	1.889143807736753e-12 	101324.9999999902
0.3616116116116112 	299.999999999938 	1.45057499061653e-12 	101324.99999999
0.3641141141141137 	299.9999999999301 	2.487458214881693e-12 	101324.9999999898
0.3666166166166161 	299.9999999999212 	2.886274167392152e-12 	101324.9999999895
0.3691191191191185 	300.0000000000428 	3.072204793819305e-12 	101324.9999999894
0.371621621621621 	300.0000000000147 	2.347695517781415e-12 	101324.9999999894
0.3741241241241237 	300.0000000000511 	2.48133194253744e-12 	101324.9999999896
0.3766266266266261 	300.0000000000335 	1.58555690692825e-12 	101324.9999999896
0.3791291291291286 	299.9999999999829 	1.59928446816242e-12 	101324.9999999896
0.3816316316316311 	299.9999999999129 	1.702939143520508e-12 	101324.9999999896
0.3841341341341336 	300.0000000000073 	1.178272682309955e-12 	101324.9999999895
0.3866366366366362 	299.9999999999915 	1.406345128340322e-12 	101324.9999999898
0.3891391391391387 	299.9999999999511 	9.474585327207288e-13 	101324.9999999901
0.391641641641641 	299.9999999999959 	8.689568380580316e-13 	101324.9999999901
0.3941441441441436 	300.0000000000064 	1.011281452020727e-12 	101324.9999999904
0.3966466466466462 	299.9999999999989 	4.86497627283849e-13 	101324.9999999904
0.3991491491491486 	299.9999999999501 	1.352456667533991e-12 	101324.9999999901
0.4016516516516512 	299.9999999999185 	4.801226529273068e-13 	101324.9999999902
0.4041541541541536 	299.9999999999542 	1.348974803730583e-12 	101324.9999999903
0.4066566566566561 	299.9999999999519 	6.348871885568613e-13 	101324.9999999902
0.4091591591591587 	299.9999999999963 	2.321677880925502e-12 	101324.9999999901
0.4116616616616612 	300.0000000000097 	1.161101149632696e-12 	101324.9999999902
0.4141641641641635 	300.0000000000465 	1.437155376548331e-12 	101324.9999999903
0.4166666666666662 	299.999999999994 	1.212087097962849e-12 	101324.9999999904
0.4191691691691687 	299.9999999999387 	6.907118690108874e-13 	101324.9999999902
0.421671671671671 	300.0000000000121 	2.221429698497947e-12 	101324.9999999901
0.4241741741741737 	299.9999999999787 	2.040316277898471e-12 	101324.9999999902
0.4266766766766761 	299.9999999999532 	3.035584589730878e-12 	101324.9999999903
0.4291791791791785 	300.000000000019 	2.704008340758026e-12 	101324.9999999905
0.4316816816816812 	300.00000000001 	3.272729445924213e-12 	101324.9999999904
0.4341841841841836 	299.9999999999802 	2.592677454570311e-12 	101324.9999999904
0.4366866866866862 	299.9999999999176 	2.345166328985528e-12 	101324.9999999904
0.4391891891891885 	299.9999999999864 	1.686159731174022e-12 	101324.9999999904
0.4416916916916913 	299.9999999999797 	1.59834827765854e-12 	101324.9999999905
0.4441941941941936 	299.9999999999849 	1.57666469890814e-12 	101324.9999999906
0.4466966966966961 	299.9999999999127 	1.099161035882412e-12 	101324.9999999905
0.4491991991991987 	299.9999999999773 	5.307969152543842e-13 	101324.9999999904
0.4517017017017012 	299.9999999999746 	1.027495901819911e-12 	101324.9999999902
0.4542042042042035 	299.9999999999807 	9.704743771436679e-13 	101324.9999999901
0.4567067067067062 	299.9999999999951 	1.185302418239842e-12 	101324.9999999899
0.4592092092092087 	299.9999999999256 	1.474258977217141e-12 	101324.9999999901
0.4617117117117112 	300.0000000000182 	1.170103145295293e-12 	101324.9999999901
0.4642142142142137 	299.9999999999611 	1.214142491285712e-12 	101324.9999999901
0.4667167167167162 	299.9999999999907 	1.137978972003414e-12 	101324.99999999
0.4692192192192187 	299.9999999999545 	4.819516694484041e-13 	101324.9999999901
0.4717217217217212 	300.0000000000131 	2.381434978857238e-13 	101324.9999999901
0.4742242242242236 	299.9999999999523 	8.333043656387699e-13 	101324.9999999901
0.4767267267267262 	299.9999999999757 	1.19059177243055e-12 	101324.99999999
0.4792292292292287 	300.0000000000147 	1.362207596682385e-12 	101324.9999999902
0.4817317317317312 	300.0000000000332 	1.450258852230189e-12 	101324.9999999904
0.4842342342342336 	299.9999999999854 	8.51858779724783e-13 	101324.9999999906
0.4867367367367362 	299.9999999999516 	1.120747271020368e-12 	101324.9999999908
0.4892392392392387 	300.0000000000243 	1.111704454161843e-12 	101324.9999999907
0.4917417417417412 	300.0000000000078 	9.837402248128911e-13 	101324.9999999905
0.4942442442442437 	299.9999999999056 	1.115962503520936e-12 	101324.9999999903
0.4967467467467462 	299.9999999999267 	1.594193756325625e-12 	101324.9999999902
0.4992492492492487 	299.9999999999213 	9.250588960414715e-13 	101324.9999999902
0.5017517517517511 	299.9999999999555 	4.097291496328108e-13 	101324.9999999901
0.5042542542542537 	299.9999999999658 	1.36371928535173e-13 	101324.99999999
0.5067567567567562 	299.9999999999467 	3.416052420071648e-13 	101324.9999999901
0.5092592592592589 	299.9999999999696 	4.651374077580144e-13 	101324.99999999
0.5117617617617611 	299.9999999999555 	1.656830605540347e-12 	101324.9999999899
0.5142642642642637 	299.9999999999843 	1.76100591821947e-12 	101324.99999999
0.5167667667667663 	299.9999999999708 	2.606260369055536e-12 	101324.9999999902
0.5192692692692688 	299.9999999999241 	3.069214566871951e-12 	101324.9999999904
0.5217717717717714 	299.9999999999418 	3.555395714136161e-12 	101324.9999999904
0.5242742742742736 	299.999999999938 	3.204423412295447e-12 	101324.9999999903
0.5267767767767763 	299.9999999999574 	2.518027003951676e-12 	101324.9999999903
0.5292792792792789 	299.9999999999377 	2.154325675234274e-12 	101324.99999999
0.5317817817817813 	299.9999999999088 	3.086475984716575e-12 	101324.9999999898
0.5342842842842837 	300.0000000000135 	1.490718636392237e-12 	101324.9999999896
0.5367867867867864 	300.0000000000013 	3.000984152015312e-12 	101324.9999999897
0.5392892892892888 	299.9999999999572 	1.679847057646185e-12 	101324.9999999898
0.5417917917917912 	300.0000000000058 	2.840737735672282e-12 	101324.99999999
0.5442942942942938 	299.999999999984 	1.296863714691702e-12 	101324.99999999
0.5467967967967964 	299.9999999999526 	2.082657363412997e-12 	101324.99999999
0.5492992992992988 	299.9999999999435 	7.625696249387045e-13 	101324.9999999903
0.5518018018018012 	299.9999999999353 	1.714563824161851e-12 	101324.9999999904
0.5543043043043039 	300.0000000000236 	1.097501614557429e-12 	101324.9999999905
0.5568068068068063 	299.999999999994 	1.798074731145906e-12 	101324.9999999906
0.5593093093093087 	299.9999999999079 	8.551995628385638e-13 	101324.9999999905
0.5618118118118114 	299.9999999999652 	2.900913281933944e-12 	101324.9999999906
0.5643143143143137 	299.9999999999455 	2.387331024220124e-12 	101324.9999999906
0.5668168168168163 	299.9999999999917 	3.804913681334088e-12 	101324.9999999906
0.5693193193193188 	300.0000000000306 	4.11101665906574e-12 	101324.9999999907
0.5718218218218213 	300.0000000000247 	3.530533259838685e-12 	101324.9999999908
0.5743243243243239 	300.0000000000038 	4.483421009541491e-12 	101324.9999999907
0.5768268268268262 	300.0000000000063 	2.778546602998639e-12 	101324.9999999908
0.5793293293293288 	299.9999999999515 	4.974206439798496e-12 	101324.9999999908
0.5818318318318314 	299.9999999999227 	1.903119733787214e-12 	101324.9999999909
0.5843343343343338 	299.9999999999806 	4.976920054857472e-12 	101324.999999991
0.5868368368368363 	299.9999999999763 	1.474920141305851e-12 	101324.9999999907
0.5893393393393387 	299.9999999999488 	4.242012686514074e-12 	101324.9999999906
0.5918418418418413 	299.9999999999387 	1.973041437750302e-12 	101324.9999999905
0.5943443443443439 	300.0000000000099 	3.829068914448133e-12 	101324.9999999904
0.5968468468468463 	300.0000000000144 	1.503764535438972e-12 	101324.9999999906
0.5993493493493487 	300.0000000000381 	2.843228928376744e-12 	101324.9999999906
0.6018518518518514 	299.9999999999802 	1.476684662976481e-12 	101324.9999999906
0.6043543543543537 	299.9999999999907 	2.95396729324797e-12 	101324.9999999908
0.6068568568568564 	299.9999999999789 	1.850204082253583e-12 	101324.999999991
0.6093593593593587 	299.9999999999294 	3.282819112808003e-12 	101324.999999991
0.6118618618618614 	299.9999999999251 	3.118440702681687e-12 	101324.9999999912
0.6143643643643638 	300.0000000000136 	4.348774972094227e-12 	101324.9999999912
0.6168668668668662 	299.9999999999836 	2.429890469613773e-12 	101324.9999999912
0.6193693693693688 	299.9999999999567 	3.619559660998683e-12 	101324.9999999912
0.6218718718718714 	299.9999999999646 	1.612468235016574e-12 	101324.9999999913
0.6243743743743737 	299.9999999999354 	3.111739781000945e-12 	101324.9999999913
0.6268768768768762 	299.9999999999245 	1.505142004123511e-12 	101324.9999999914
0.629379379379379 	299.9999999999525 	2.622666394242581e-12 	101324.9999999915
0.6318818818818812 	299.9999999999807 	2.390713965729238e-12 	101324.9999999915
0.6343843843843838 	300.0000000000256 	2.32430901495448e-12 	101324.9999999915
0.6368868868868864 	299.9999999999867 	2.988456513911736e-12 	101324.9999999915
0.6393893893893888 	299.9999999999255 	2.121769886157324e-12 	101324.9999999916
0.6418918918918912 	300.000000000014 	5.015655048416163e-12 	101324.9999999915
0.6443943943943939 	299.9999999999981 	2.146240400010589e-12 	101324.9999999915
0.6468968968968963 	299.9999999999876 	5.307659058346874e-12 	101324.9999999913
0.6493993993993988 	299.9999999999769 	2.224926752061768e-12 	101324.9999999913
0.6519019019019012 	299.9999999999699 	4.077704625376621e-12 	101324.9999999914
0.6544044044044038 	299.9999999999054 	2.015289274855146e-12 	101324.9999999915
0.6569069069069065 	299.9999999999545 	4.032541095642642e-12 	101324.9999999917
0.6594094094094087 	299.9999999999623 	1.986637739677685e-12 	101324.9999999919
0.6619119119119113 	299.9999999999528 	4.628102765851706e-12 	101324.9999999918
0.664414414414414 	299.9999999999986 	3.190459590154002e-12 	101324.9999999917
0.6669169169169162 	300.0000000000213 	5.023764704771592e-12 	101324.9999999919
0.6694194194194188 	299.9999999999864 	3.408710282664603e-12 	101324.9999999916
0.6719219219219214 	299.9999999999222 	4.496671527703692e-12 	101324.9999999915
0.674424424424424 	299.9999999999726 	3.254886500714397e-12 	101324.9999999916
0.6769269269269262 	299.9999999999206 	4.076972078285861e-12 	101324.9999999917
0.679429429429429 	300.0000000000055 	3.415353507225522e-12 	101324.9999999918
0.6819319319319311 	299.9999999999783 	3.992252026918452e-12 	101324.9999999918
0.6844344344344341 	299.999999999991 	3.626478503419624e-12 	101324.9999999919
0.686936936936936 	299.9999999999869 	4.589572535028934e-12 	101324.9999999919
0.6894394394394392 	299.9999999999827 	4.115519319384109e-12 	101324.9999999919
0.6919419419419413 	299.9999999999825 	4.205136485233931e-12 	101324.9999999921
0.694444444444444 	299.9999999999371 	4.452306612081226e-12 	101324.9999999922
0.6969469469469463 	299.9999999999293 	4.549212882542538e-12 	101324.9999999923
0.6994494494494489 	299.9999999999247 	5.695641161053685e-12 	101324.9999999924
0.7019519519519515 	299.9999999999882 	5.302591955021608e-12 	101324.999999993
0.7044544544544538 	299.9999999999512 	6.797335675084027e-12 	101324.9999999931
0.7069569569569564 	299.999999999999 	4.818978313962671e-12 	101324.9999999932
0.7094594594594589 	299.9999999999698 	6.748096808265155e-12 	101324.9999999932
0.7119619619619615 	299.999999999918 	4.857585140368696e-12 	101324.9999999933
0.7144644644644638 	299.9999999999521 	6.538479315847046e-12 	101324.9999999933
0.7169669669669665 	299.9999999999239 	5.709453345614985e-12 	101324.9999999933
0.7194694694694688 	299.9999999999943 	6.765192581933521e-12 	101324.9999999934
0.7219719719719715 	299.9999999999889 	6.179163170082258e-12 	101324.9999999933
0.7244744744744737 	300.0000000000033 	6.117603347411241e-12 	101324.9999999933
0.7269769769769764 	299.9999999999952 	5.753309982191109e-12 	101324.9999999934
0.7294794794794791 	299.9999999999872 	4.147535177722371e-12 	101324.9999999935
0.7319819819819813 	299.9999999999782 	5.585789163983971e-12 	101324.9999999934
0.7344844844844839 	299.9999999999222 	3.933423849085364e-12 	101324.9999999935
0.7369869869869864 	299.9999999999516 	5.297001361560248e-12 	101324.9999999936
0.739489489489489 	299.999999999945 	4.958251619650815e-12 	101324.9999999936
0.7419919919919914 	299.9999999999334 	4.905169362430191e-12 	101324.9999999935
0.7444944944944939 	299.9999999999774 	5.16868436705881e-12 	101324.9999999933
0.7469969969969963 	299.9999999999713 	3.457512455912912e-12 	101324.9999999933
0.7494994994994989 	299.9999999999412 	5.350930630649622e-12 	101324.9999999932
0.7520020020020015 	299.9999999999746 	2.92366812180542e-12 	101324.9999999934
0.7545045045045039 	299.9999999999712 	5.733209457390694e-12 	101324.9999999935
0.7570070070070062 	299.9999999999469 	3.667900336019056e-12 	101324.9999999934
0.7595095095095092 	299.999999999936 	5.894487106731776e-12 	101324.9999999935
0.7620120120120112 	300.0000000000065 	5.541047369655777e-12 	101324.9999999935
0.7645145145145138 	299.9999999999862 	6.159565628477257e-12 	101324.9999999936
0.7670170170170165 	299.9999999999318 	6.973634960149908e-12 	101324.9999999936
0.7695195195195191 	299.9999999999294 	5.951783648123932e-12 	101324.9999999936
0.7720220220220213 	299.9999999999387 	8.199352136799888e-12 	101324.9999999935
0.7745245245245239 	299.9999999999361 	6.497773086160831e-12 	101324.9999999934
0.7770270270270263 	299.9999999999693 	8.658263291402167e-12 	101324.9999999935
0.779529529529529 	299.9999999999806 	7.780573465243738e-12 	101324.9999999936
0.7820320320320313 	299.9999999999731 	8.451911559803645e-12 	101324.9999999937
0.784534534534534 	300.0000000000057 	7.966319999287144e-12 	101324.9999999938
0.7870370370370364 	300.0000000000011 	7.350505610524649e-12 	101324.9999999939
0.7895395395395389 	299.999999999994 	8.040779812602027e-12 	101324.9999999942
0.7920420420420413 	299.9999999999828 	7.124426499265387e-12 	101324.9999999944
0.794544544544544 	299.9999999999768 	8.936452839232777e-12 	101324.9999999947
0.7970470470470463 	300.000000000002 	6.76089970234828e-12 	101324.9999999948
0.799549549549549 	299.9999999999889 	1.004514781666118e-11 	101324.9999999947
0.8020520520520515 	299.9999999999927 	7.388755517253461e-12 	101324.9999999946
0.8045545545545539 	299.999999999952 	9.011674466440801e-12 	101324.9999999946
0.8070570570570563 	299.9999999999814 	7.547608985125243e-12 	101324.9999999944
0.8095595595595589 	299.9999999999587 	8.112745090539034e-12 	101324.9999999943
0.8120620620620614 	299.9999999999409 	8.03010908077088e-12 	101324.9999999942
0.8145645645645638 	299.9999999999984 	7.873492006558163e-12 	101324.9999999943
0.8170670670670666 	299.9999999999987 	8.566954977311257e-12 	101324.9999999942
0.8195695695695689 	299.9999999999799 	7.282512420642679e-12 	101324.9999999941
0.8220720720720714 	299.9999999999456 	9.755941576248393e-12 	101324.9999999942
0.8245745745745739 	299.999999999998 	7.683727100852766e-12 	101324.9999999942
0.8270770770770765 	299.9999999999772 	9.793529732758967e-12 	101324.9999999944
0.8295795795795788 	299.9999999999561 	9.157542526061345e-12 	101324.9999999944
0.8320820820820815 	300.0000000000207 	1.026261476650828e-11 	101324.9999999946
0.834584584584584 	300.0000000000108 	9.54550781402992e-12 	101324.9999999947
0.8370870870870865 	299.999999999967 	8.978376593547869e-12 	101324.9999999947
0.8395895895895891 	299.9999999999301 	9.298469784325459e-12 	101324.9999999945
0.8420920920920915 	299.9999999999517 	8.542421442447199e-12 	101324.9999999944
0.844594594594594 	299.9999999999428 	9.198299821445296e-12 	101324.9999999945
0.8470970970970964 	299.9999999999475 	9.564096799702071e-12 	101324.9999999947
0.8495995995995991 	299.9999999999913 	9.09888085652675e-12 	101324.9999999948
0.8521021021021015 	299.9999999999834 	9.322465245445304e-12 	101324.9999999945
0.8546046046046039 	299.9999999999811 	8.714442477130022e-12 	101324.9999999944
0.8571071071071066 	300.0000000000024 	9.417734368329657e-12 	101324.9999999945
0.8596096096096089 	299.9999999999673 	7.293938128422419e-12 	101324.9999999944
0.8621121121121116 	299.9999999999355 	9.792008461135317e-12 	101324.9999999946
0.8646146146146139 	299.9999999999967 	7.023505949697466e-12 	101324.9999999948
0.8671171171171166 	299.9999999999787 	8.582037445255206e-12 	101324.9999999949
0.8696196196196189 	299.9999999999499 	7.968106301010249e-12 	101324.9999999949
0.8721221221221216 	299.9999999999759 	8.939404103228016e-12 	101324.9999999951
0.874624624624624 	300.0000000000082 	8.677089518499433e-12 	101324.999999995
0.8771271271271264 	300.0000000000037 	8.693929655574612e-12 	101324.999999995
0.879629629629629 	300.0000000000016 	9.40255256272666e-12 	101324.999999995
0.8821321321321317 	299.9999999999833 	7.92365200252603e-12 	101324.9999999951
0.8846346346346339 	299.9999999999312 	1.038313344084585e-11 	101324.999999995
0.8871371371371364 	299.9999999999629 	8.082488142621699e-12 	101324.9999999951
0.8896396396396391 	299.9999999999656 	1.034679905481677e-11 	101324.9999999951
0.8921421421421414 	299.9999999999719 	9.475042836861424e-12 	101324.9999999952
0.8946446446446441 	299.9999999999872 	1.039953379668969e-11 	101324.9999999955
0.8971471471471464 	300.0000000000047 	9.556145368534024e-12 	101324.9999999956
0.8996496496496489 	299.9999999999825 	8.989906175776614e-12 	101324.9999999958
0.9021521521521517 	299.9999999999677 	9.38276475103696e-12 	101324.9999999957
0.9046546546546541 	299.9999999999937 	8.087956963587614e-12 	101324.9999999957
0.9071571571571564 	299.9999999999487 	8.856939720093211e-12 	101324.9999999958
0.9096596596596589 	299.9999999999524 	9.108646549271581e-12 	101324.9999999957
0.9121621621621616 	300.0000000000113 	9.10690778442153e-12 	101324.9999999955
0.9146646646646639 	299.9999999999814 	9.143428100321915e-12 	101324.9999999954
0.9171671671671666 	299.9999999999468 	8.933718439484372e-12 	101324.9999999955
0.9196696696696689 	299.9999999999993 	9.512130199774688e-12 	101324.9999999954
0.9221721721721714 	300.000000000003 	8.044681765207016e-12 	101324.9999999954
0.9246746746746741 	299.9999999999432 	1.107190815897479e-11 	101324.9999999953
0.9271771771771765 	299.9999999999476 	9.257726896142768e-12 	101324.9999999953
0.9296796796796791 	299.9999999999919 	1.122608678372448e-11 	101324.9999999955
0.9321821821821816 	299.999999999971 	9.95394748799777e-12 	101324.9999999956
0.9346846846846838 	299.9999999999495 	1.118468236215632e-11 	101324.9999999956
0.9371871871871866 	300.0000000000105 	1.071441258735342e-11 	101324.9999999956
0.9396896896896891 	300.000000000013 	1.070802273397714e-11 	101324.9999999957
0.9421921921921914 	300.0000000000106 	1.113393239505872e-11 	101324.9999999956
0.9446946946946939 	299.9999999999693 	1.033100802198594e-11 	101324.9999999958
0.9471971971971965 	299.9999999999275 	1.271582912329905e-11 	101324.9999999959
0.9496996996996991 	299.9999999999636 	1.084276196599335e-11 	101324.999999996
0.9522022022022016 	299.9999999999741 	1.227288918620336e-11 	101324.9999999959
0.9547047047047038 	299.9999999999715 	1.069630052050929e-11 	101324.9999999958
0.9572072072072064 	299.9999999999611 	1.108436745744974e-11 	101324.9999999959
0.9597097097097093 	299.9999999999648 	1.076736399529489e-11 	101324.999999996
0.9622122122122114 	299.9999999999584 	1.077867834984078e-11 	101324.9999999959
0.964714714714714 	299.9999999999585 	1.249002515416298e-11 	101324.9999999958
0.9672172172172167 	299.9999999999622 	1.182379642077909e-11 	101324.9999999959
0.969719719719719 	299.9999999999842 	1.246338558239879e-11 	101324.9999999959
0.9722222222222214 	299.9999999999797 	1.170320763109522e-11 	101324.9999999957
0.9747247247247239 	299.9999999999752 	1.17745436523284e-11 	101324.9999999955
0.9772272272272267 	300.000000000004 	1.146611216111795e-11 	101324.9999999953
0.9797297297297292 	299.9999999999909 	1.12222781588064e-11 	101324.9999999952
0.9822322322322313 	299.9999999999933 	1.202404353836806e-11 	101324.9999999953
0.9847347347347344 	299.9999999999885 	1.055704462538824e-11 	101324.9999999952
0.9872372372372363 	299.9999999999478 	1.268736192171262e-11 	101324.9999999949
0.9897397397397389 	299.9999999999658 	1.030545564859609e-11 	101324.9999999949
0.9922422422422417 	299.9999999999491 	1.208294547167192e-11 	101324.9999999951
0.9947447447447441 	299.9999999999569 	1.088256310173429e-11 	101324.9999999953
0.9972472472472468 	299.9999999999725 	1.213046071335216e-11 	101324.9999999953
0.999749749749749 	299.9999999999678 	1.198968736865776e-11 	101324.9999999953
1.002252252252252 	299.9999999999764 	1.256645995492172e-11 	101324.9999999954
1.004754754754754 	299.9999999999926 	1.258161520204466e-11 	101324.9999999953
1.007257257257256 	299.9999999999731 	1.144896234158282e-11 	101324.9999999954
1.009759759759759 	299.9999999999614 	1.300190124125775e-11 	101324.9999999955
1.012262262262261 	299.9999999999658 	1.07397527520081e-11 	101324.9999999956
1.014764764764764 	299.9999999999399 	1.266010818378935e-11 	101324.9999999958
1.017267267267267 	299.9999999999335 	1.195961948573348e-11 	101324.999999996
1.019769769769769 	299.9999999999774 	1.30003708424608e-11 	101324.9999999961
1.022272272272272 	299.9999999999856 	1.262765565014727e-11 	101324.9999999961
1.024774774774774 	299.9999999999831 	1.245677063708382e-11 	101324.9999999963
1.027277277277277 	299.9999999999824 	1.310290158432506e-11 	101324.9999999963
1.029779779779779 	300.0000000000156 	1.202587557970519e-11 	101324.9999999963
1.032282282282282 	300.0000000000152 	1.291177818594633e-11 	101324.9999999964
1.034784784784784 	300.0000000000035 	1.226971214401515e-11 	101324.9999999963
1.037287287287286 	299.9999999999744 	1.275870208659733e-11 	101324.9999999966
1.039789789789789 	299.9999999999777 	1.317396366635173e-11 	101324.9999999968
1.042292292292291 	300.0000000000093 	1.363235091986512e-11 	101324.9999999968
1.044794794794794 	300.0000000000274 	1.350476373657952e-11 	101324.9999999967
1.047297297297296 	300.0000000000408 	1.215856811212986e-11 	101324.9999999966
1.049799799799799 	299.9999999999948 	1.387583410620923e-11 	101324.9999999965
1.052302302302302 	299.9999999999553 	1.203495069816328e-11 	101324.9999999964
1.054804804804804 	299.9999999999351 	1.374231683478653e-11 	101324.9999999966
1.057307307307306 	299.9999999999258 	1.289471891554751e-11 	101324.9999999965
1.059809809809809 	299.9999999999628 	1.405827445409051e-11 	101324.9999999962
1.062312312312312 	299.9999999999585 	1.343075407074724e-11 	101324.9999999961
1.064814814814814 	299.999999999956 	1.402066412747705e-11 	101324.9999999962
1.067317317317317 	299.9999999999339 	1.378383711148531e-11 	101324.9999999961
1.069819819819819 	299.9999999999307 	1.360659700464699e-11 	101324.999999996
1.072322322322321 	299.9999999999964 	1.564167812715249e-11 	101324.9999999959
1.074824824824824 	300.0000000000247 	1.402613439496192e-11 	101324.9999999958
1.077327327327327 	300.0000000000358 	1.516278113548103e-11 	101324.9999999957
1.079829829829829 	300.0000000000377 	1.336426751921793e-11 	101324.9999999957
1.082332332332332 	300.0000000000068 	1.433540996986298e-11 	101324.9999999959
1.084834834834834 	299.9999999999861 	1.426452854527963e-11 	101324.999999996
1.087337337337337 	299.9999999999508 	1.422641796309542e-11 	101324.9999999962
1.089839839839839 	299.9999999999368 	1.551503904681635e-11 	101324.9999999963
1.092342342342342 	299.9999999999724 	1.385979101496445e-11 	101324.9999999962
1.094844844844844 	299.9999999999723 	1.479594955151722e-11 	101324.9999999964
1.097347347347347 	299.9999999999452 	1.317795602875566e-11 	101324.9999999968
1.099849849849849 	299.999999999933 	1.572987914041261e-11 	101324.9999999969
1.102352352352352 	299.9999999999619 	1.34756106846285e-11 	101324.9999999968
1.104854854854854 	299.999999999982 	1.550669988830785e-11 	101324.9999999968
1.107357357357357 	299.9999999999629 	1.424532566832657e-11 	101324.9999999969
1.109859859859859 	299.9999999999525 	1.63560255684208e-11 	101324.9999999969
1.112362362362362 	300.0000000000152 	1.55561196415777e-11 	101324.9999999967
1.114864864864865 	300.0000000000151 	1.55922352063579e-11 	101324.9999999968
1.117367367367367 	299.9999999999685 	1.658926092816067e-11 	101324.9999999968
1.119869869869869 	299.999999999933 	1.543691281712746e-11 	101324.9999999966
1.122372372372372 	299.9999999999603 	1.710573122156453e-11 	101324.9999999967
1.124874874874874 	299.9999999999554 	1.605849948327982e-11 	101324.9999999967
1.127377377377377 	299.9999999999623 	1.718345692400513e-11 	101324.9999999967
1.129879879879879 	300.0000000000146 	1.668074496200302e-11 	101324.9999999967
1.132382382382382 	300.0000000000337 	1.697953818567126e-11 	101324.9999999967
1.134884884884884 	300.0000000000075 	1.592669786601642e-11 	101324.9999999969
1.137387387387387 	300.0000000000125 	1.577991657565562e-11 	101324.9999999969
1.139889889889889 	299.9999999999642 	1.711005958919088e-11 	101324.9999999967
1.142392392392392 	299.9999999999566 	1.557614158301381e-11 	101324.9999999969
1.144894894894894 	300.0000000000146 	1.653737438947222e-11 	101324.9999999969
1.147397397397397 	299.9999999999974 	1.523752658073216e-11 	101324.9999999968
1.149899899899899 	299.9999999999432 	1.705156609432263e-11 	101324.9999999967
1.152402402402402 	299.9999999999312 	1.710668745077409e-11 	101324.9999999965
1.154904904904904 	299.9999999999641 	1.80529429877338e-11 	101324.9999999966
1.157407407407407 	299.9999999999645 	1.717996077671868e-11 	101324.9999999967
1.159909909909909 	299.9999999999378 	1.708200181857334e-11 	101324.9999999967
1.162412412412412 	299.9999999999318 	1.897160762716341e-11 	101324.9999999968
1.164914914914914 	299.9999999999592 	1.801291482057792e-11 	101324.9999999969
1.167417417417417 	299.9999999999673 	1.948272200482343e-11 	101324.9999999969
1.169919919919919 	300.0000000000149 	1.807707966880719e-11 	101324.9999999971
1.172422422422422 	300.0000000000406 	1.900292481943264e-11 	101324.9999999974
1.174924924924925 	299.9999999999887 	1.806611614830245e-11 	101324.9999999974
1.177427427427427 	299.9999999999589 	1.879517514411576e-11 	101324.9999999973
1.179929929929929 	300.0000000000097 	1.958175608189902e-11 	101324.9999999971
1.182432432432432 	300.0000000000392 	1.754056181888497e-11 	101324.9999999971
1.184934934934934 	300.0000000000047 	1.828867627149946e-11 	101324.9999999971
1.187437437437437 	299.999999999979 	1.677032436450382e-11 	101324.9999999973
1.189939939939939 	299.9999999999723 	1.71749050441715e-11 	101324.9999999974
1.192442442442442 	299.9999999999371 	1.577112037483249e-11 	101324.9999999974
1.194944944944944 	299.9999999999339 	1.710017926058457e-11 	101324.9999999974
1.197447447447447 	299.9999999999887 	1.660388741456326e-11 	101324.9999999977
1.199949949949949 	300.0000000000101 	1.643427018287321e-11 	101324.9999999977
1.202452452452452 	299.9999999999588 	1.720679049750135e-11 	101324.9999999976
1.204954954954955 	299.9999999999518 	1.615855964217936e-11 	101324.9999999976
1.207457457457457 	299.9999999999807 	1.804639784250503e-11 	101324.9999999976
1.20995995995996 	299.9999999999789 	1.768924261415214e-11 	101324.9999999974
1.212462462462462 	299.9999999999876 	1.937431025284519e-11 	101324.9999999973
1.214964964964964 	299.9999999999889 	1.867170735534277e-11 	101324.9999999971
1.217467467467467 	299.9999999999854 	1.981927762963862e-11 	101324.999999997
1.219969969969969 	299.9999999999716 	1.929807281073795e-11 	101324.999999997
1.222472472472472 	300.0000000000178 	2.001954152276921e-11 	101324.9999999971
1.224974974974975 	300.0000000000426 	2.059014624335586e-11 	101324.9999999971
1.227477477477477 	299.9999999999962 	1.845468499076406e-11 	101324.9999999974
1.229979979979979 	299.9999999999811 	1.9104764950094e-11 	101324.9999999976
1.232482482482482 	299.9999999999545 	1.748636253944982e-11 	101324.9999999977
1.234984984984984 	299.9999999999541 	1.88549222740094e-11 	101324.9999999978
1.237487487487487 	299.9999999999775 	1.73414024525273e-11 	101324.9999999978
1.239989989989989 	299.9999999999798 	1.778355700459461e-11 	101324.9999999981
1.242492492492492 	300.0000000000077 	1.813199577974273e-11 	101324.9999999982
1.244994994994994 	299.9999999999785 	1.658956725237525e-11 	101324.9999999982
1.247497497497497 	299.9999999999753 	1.77120101184909e-11 	101324.9999999983
1.249999999999999 	300 	1.686732789362707e-11 	101324.9999999983
