-1.25 	300 	0.07204084276959029 	101295.6107373854
-1.247497497497497 	299.9745578849661 	0.07079192795283984 	101296.1600248036
-1.244994994994995 	299.9760580185427 	0.06919095600452463 	101296.7180678602
-1.242492492492492 	299.9765504969072 	0.06800627687364874 	101297.280400176
-1.23998998998999 	299.977028989292 	0.06651738385544728 	101297.8467179681
-1.237487487487487 	299.9775131862466 	0.0651516244652084 	101298.4190560274
-1.234984984984985 	299.9780017276061 	0.06373730776113515 	101298.9965077964
-1.232482482482482 	299.9784944301277 	0.06230893253309079 	101299.5788794258
-1.22997997997998 	299.978990591588 	0.06087085804855653 	101300.1653423883
-1.227477477477477 	299.9794902122914 	0.05942325712424256 	101300.7558968916
-1.224974974974975 	299.9799944362044 	0.05796483980699921 	101301.3518936824
-1.222472472472472 	299.9805027514686 	0.05649454915145405 	101301.9527296997
-1.21996996996997 	299.9810144741423 	0.05500781700518189 	101302.5575960935
-1.217467467467467 	299.9815289774818 	0.05351102271697317 	101303.1657500146
-1.214964964964965 	299.9820470365885 	0.05201411670902592 	101303.7781107336
-1.212462462462462 	299.9825689012433 	0.0505058831166248 	101304.3949721525
-1.20995995995996 	299.9830932040803 	0.04898704730881927 	101305.0147174348
-1.207457457457457 	299.9836206262394 	0.04745592735700754 	101305.6381539236
-1.204954954954955 	299.9841514527855 	0.0459136512390245 	101306.2656165237
-1.202452452452452 	299.9846849186606 	0.04437252029083909 	101306.8962008503
-1.19994994994995 	299.9852210749445 	0.04282298022540017 	101307.5299694424
-1.197447447447447 	299.9857613407027 	0.04125828456439821 	101308.1685984562
-1.194944944944945 	299.9863041880729 	0.03968233742842477 	101308.8102795877
-1.192442442442442 	299.9868470332014 	0.0381047287931827 	101309.4519611403
-1.18993993993994 	299.9873925216349 	0.03652671224961078 	101310.0967732393
-1.187437437437437 	299.9879438941813 	0.03493431773049504 	101310.7485431472
-1.184934934934935 	299.9884972232908 	0.03333320099174534 	101311.4026259817
-1.182432432432432 	299.9890487269728 	0.03173160584399044 	101312.0545537338
-1.17992992992993 	299.9896014410622 	0.0301275605066078 	101312.7079167733
-1.177427427427427 	299.9901582422222 	0.02851753134364213 	101313.3661157998
-1.174924924924925 	299.9907182557305 	0.02689653424779383 	101314.0281149391
-1.172422422422422 	299.9912807934582 	0.0252667674718552 	101314.6930995124
-1.16991991991992 	299.9918460112978 	0.02362914756362994 	101315.3612536385
-1.167417417417417 	299.9924119794188 	0.02198948600250037 	101316.0302965624
-1.164914914914915 	299.9929758356344 	0.02035764792910674 	101316.6968476737
-1.162412412412412 	299.9935366711438 	0.01873235554261439 	101317.3598343742
-1.15990990990991 	299.9940976322205 	0.01710423500124177 	101318.0229733114
-1.157407407407407 	299.9946643623173 	0.0154603938858626 	101318.6929324252
-1.154904904904904 	299.9952395020244 	0.01379574675354437 	101319.3728336981
-1.152402402402403 	299.9958198755846 	0.01211675952663715 	101320.0589255133
-1.1498998998999 	299.9963998179923 	0.01043856603441138 	101320.7445127802
-1.147397397397397 	299.9969740436582 	0.008776215350432949 	101321.4233478275
-1.144894894894895 	299.9975413827437 	0.007130982333404361 	101322.0940452442
-1.142392392392392 	299.9981051853936 	0.00549697564632631 	101322.7605619737
-1.13988988988989 	299.9986694959184 	0.003861918885486191 	101323.427678028
-1.137387387387387 	299.999236766677 	0.002215057618702749 	101324.0982924724
-1.134884884884885 	299.9998100973214 	0.000773297003957295 	101324.7760706474
-1.132382382382382 	300.0003876171314 	0.001113666119344247 	101325.4588020419
-1.12987987987988 	300.0009647774436 	0.002785064351814346 	101326.1411120707
-1.127377377377377 	300.001540566579 	0.004453036667590187 	101326.8218070905
-1.124874874874875 	300.0021151655593 	0.00611763675363918 	101327.5011011898
-1.122372372372372 	300.0026887969713 	0.007779435607446627 	101328.1792570637
-1.11986986986987 	300.0032615972532 	0.0094388129350672 	101328.8564352533
-1.117367367367367 	300.0038336110509 	0.01109590163308333 	101329.5326880264
-1.114864864864865 	300.0044048169727 	0.01275064414138448 	101330.2079896084
-1.112362362362362 	300.0049751538187 	0.01440286592328484 	101330.8822673115
-1.10985985985986 	300.0055445388545 	0.01605233011806209 	101331.5554232107
-1.107357357357357 	300.0061128788624 	0.01769876700506232 	101332.2273467598
-1.104854854854855 	300.0066800751674 	0.01934189042291945 	101332.8979213666
-1.102352352352353 	300.00724602682 	0.02098140810075713 	101333.5670276115
-1.09984984984985 	300.0078106318865 	0.02261702464240974 	101334.2345447676
-1.097347347347347 	300.0083737876709 	0.02424844196728341 	101334.9003515799
-1.094844844844845 	300.0089353915253 	0.02587536257601893 	101335.5643266474
-1.092342342342342 	300.0094953408844 	0.02749748985811155 	101336.2263486221
-1.08983983983984 	300.0100535333158 	0.02911452592039646 	101336.8862963332
-1.087337337337337 	300.0106098664974 	0.03072617424261351 	101337.5440488502
-1.084834834834835 	300.0111642384429 	0.0323321404031552 	101338.1994855593
-1.082332332332332 	300.0117165475726 	0.03393212919151561 	101338.8524861824
-1.07982982982983 	300.012266692392 	0.03552584633086663 	101339.5029308515
-1.077327327327327 	300.0128145719474 	0.03711300008708896 	101340.1507001852
-1.074824824824825 	300.0133600857683 	0.03869329910032578 	101340.795675292
-1.072322322322323 	300.0139031337384 	0.04026645291205852 	101341.4377377778
-1.06981981981982 	300.0144436161877 	0.04183217306439096 	101342.0767696979
-1.067317317317317 	300.0149814336897 	0.04339017196429888 	101342.7126536388
-1.064814814814815 	300.0155164876719 	0.04494016315287486 	101343.3452728118
-1.062312312312312 	300.0160486799174 	0.04648186268620827 	101343.9745110678
-1.05980980980981 	300.0165779126739 	0.04801498782897261 	101344.6002529374
-1.057307307307307 	300.0171040889484 	0.04953925637318062 	101345.2223835266
-1.054804804804805 	300.0176271121219 	0.05105438886491533 	101345.8407885444
-1.052302302302302 	300.0181468861103 	0.05256010781765137 	101346.4553543993
-1.0497997997998 	300.0186633153454 	0.05405613605533725 	101347.0659681988
-1.047297297297297 	300.0191763052767 	0.05554219892603005 	101347.6725178502
-1.044794794794795 	300.0196857619021 	0.05701802439932631 	101348.2748920222
-1.042292292292292 	300.0201915913736 	0.05848334139328321 	101348.8729801362
-1.03978978978979 	300.0206937008023 	0.05993788109420098 	101349.4666724153
-1.037287287287287 	300.0211919985085 	0.06138137691478422 	101350.0558598231
-1.034784784784785 	300.0216863933036 	0.06281356351593581 	101350.6404342201
-1.032282282282283 	300.0221767938419 	0.06423417841119476 	101351.2202883503
-1.02977977977978 	300.0226631096918 	0.06564296154048026 	101351.7953157476
-1.027277277277277 	300.0231452526572 	0.06703965383254815 	101352.365410877
-1.024774774774775 	300.0236231348464 	0.06842399898875531 	101352.9304690449
-1.022272272272272 	300.0240966673679 	0.06979574352662317 	101353.4903864395
-1.01976976976977 	300.0245657621765 	0.07115463503127779 	101354.0450602078
-1.017267267267267 	300.0250303343053 	0.07250042375866581 	101354.5943883405
-1.014764764764765 	300.0254903004789 	0.07383286324657524 	101355.1382699135
-1.012262262262262 	300.0259455751342 	0.07515170852821146 	101355.6766050626
-1.00975975975976 	300.0263960716593 	0.07645671744672071 	101356.2092948594
-1.007257257257257 	300.0268417074931 	0.07774765108341167 	101356.7362415575
-1.004754754754755 	300.0272824047792 	0.07902427217535715 	101357.2573483903
-1.002252252252252 	300.0277180849221 	0.08028634652944958 	101357.7725196381
-0.9997497497497498 	300.0281486644116 	0.08153364350223911 	101358.2816609463
-0.9972472472472473 	300.0285740589772 	0.08276593411094434 	101358.7846789105
-0.9947447447447449 	300.0289941914335 	0.08398299225081853 	101359.2814811422
-0.9922422422422421 	300.0294089921487 	0.08518459514367423 	101359.7719765327
-0.9897397397397399 	300.0298183896759 	0.08637052209654361 	101360.2560750138
-0.9872372372372376 	300.0302223039256 	0.0875405561972698 	101360.733687908
-0.9847347347347346 	300.030620651396 	0.08869448358409721 	101361.2047277753
-0.9822322322322323 	300.0310133559349 	0.08983209175648665 	101361.6691079162
-0.9797297297297296 	300.0314003539729 	0.09095317210452675 	101362.1267430739
-0.9772272272272275 	300.0317815861517 	0.09205751987541209 	101362.5775494371
-0.9747247247247248 	300.0321569841261 	0.09314493209255383 	101363.0214441696
-0.9722222222222224 	300.0325264685326 	0.09421520955532861 	101363.458345973
-0.9697197197197196 	300.0328899585988 	0.09526815660315816 	101363.8881747483
-0.9672172172172175 	300.0332473846989 	0.09630357938227725 	101364.3108512736
-0.9647147147147147 	300.0335986922823 	0.09732128794225305 	101364.7262980716
-0.9622122122122124 	300.0339438320764 	0.09832109595060402 	101365.1344389333
-0.9597097097097099 	300.0342827469496 	0.09930281969627525 	101365.5351986536
-0.9572072072072073 	300.034615366886 	0.1002662799053774 	101365.9285040719
-0.9547047047047047 	300.0349416152266 	0.1012113003178385 	101366.3142832554
-0.9522022022022023 	300.0352614197964 	0.1021377065835819 	101366.6924648724
-0.9496996996996998 	300.035574722755 	0.1030453287801621 	101367.0629794488
-0.9471971971971973 	300.0358814792958 	0.1039340001768803 	101367.425758885
-0.9446946946946947 	300.0361816484777 	0.104803556699217 	101367.7807360863
-0.9421921921921923 	300.0364751848883 	0.1056538401437112 	101368.1278463815
-0.93968968968969 	300.0367620321587 	0.1064846955976696 	101368.4670265474
-0.9371871871871872 	300.0370421247018 	0.1072959694178963 	101368.7982137215
-0.9346846846846848 	300.0373153968193 	0.1080875129597785 	101369.1213471492
-0.9321821821821823 	300.0375817890493 	0.108859181488167 	101369.4363678128
-0.9296796796796799 	300.0378412506779 	0.1096108319068287 	101369.7432170509
-0.9271771771771771 	300.0380937405806 	0.1103423258193257 	101370.0418382687
-0.9246746746746748 	300.0383392242322 	0.111053529184502 	101370.3321769977
-0.9221721721721724 	300.0385776680537 	0.1117443100704469 	101370.6141790948
-0.9196696696696698 	300.0388090361482 	0.1124145417868821 	101370.8877925038
-0.9171671671671672 	300.0390332895085 	0.1130641032043377 	101371.1529681669
-0.9146646646646649 	300.0392503841605 	0.113692875384283 	101371.4096574142
-0.9121621621621623 	300.0394602738195 	0.1143007423920524 	101371.6578124397
-0.9096596596596597 	300.0396629143258 	0.1148875930632863 	101371.8973882292
-0.9071571571571573 	300.0398582630319 	0.1154533193864945 	101372.1283406911
-0.9046546546546547 	300.0400462791375 	0.1159978159204152 	101372.3506261762
-0.9021521521521524 	300.0402269258696 	0.1165209826787724 	101372.5642041009
-0.8996496496496498 	300.0404001699915 	0.1170227250923449 	101372.7690361889
-0.8971471471471473 	300.0405659791526 	0.1175029501728574 	101372.9650840651
-0.894644644644645 	300.0407243225477 	0.1179615676040916 	101373.1523107218
-0.892142142142142 	300.0408751724638 	0.118398493354911 	101373.3306820549
-0.8896396396396397 	300.0410185020581 	0.1188136468279356 	101373.5001651063
-0.8871371371371374 	300.0411542848665 	0.1192069491358127 	101373.6607274713
-0.8846346346346349 	300.0412824968323 	0.1195783278988827 	101373.8123394544
-0.8821321321321324 	300.0414031160971 	0.1199277173972142 	101373.9549744966
-0.8796296296296297 	300.0415161211339 	0.1202550530273655 	101374.0886064143
-0.8771271271271271 	300.0416214898765 	0.1205602714446702 	101374.2132087178
-0.8746246246246248 	300.0417192031848 	0.1208433166528387 	101374.3287583449
-0.8721221221221224 	300.0418092450184 	0.1211041393337912 	101374.4352361157
-0.8696196196196196 	300.041891597771 	0.1213426887315381 	101374.5326211451
-0.8671171171171175 	300.0419662433587 	0.1215589148341802 	101374.6208917373
-0.8646146146146148 	300.0420331694715 	0.1217527811581744 	101374.7000334775
-0.8621121121121121 	300.0420923672397 	0.1219242576726127 	101374.7700356429
-0.8596096096096097 	300.0421438218636 	0.1220733041322881 	101374.8308806755
-0.857107107107107 	300.0421875196352 	0.1221998862464578 	101374.8825526229
-0.8546046046046049 	300.04222345925 	0.1223039942548534 	101374.9250496024
-0.8521021021021022 	300.042251638034 	0.1223856153200659 	101374.9583685907
-0.8495995995995997 	300.0422720411391 	0.1224447152143716 	101374.9824920485
-0.8470970970970974 	300.0422846616729 	0.1224812787986408 	101374.997411754
-0.8445945945945946 	300.0422895108808 	0.1224953247474709 	101375.0031407651
-0.8420920920920922 	300.0422865879543 	0.1224868466106132 	101374.9996779247
-0.8395895895895897 	300.0422758712827 	0.1224558052375992 	101374.9869992702
-0.8370870870870872 	300.0422573657111 	0.1224022118600132 	101374.9651094005
-0.8345845845845846 	300.042231100284 	0.122326126588024 	101374.934042268
-0.8320820820820823 	300.0421970744406 	0.1222275501631611 	101374.8937976251
-0.8295795795795798 	300.0421552629692 	0.122106437942764 	101374.8443456003
-0.8270770770770772 	300.0421056828336 	0.1219628355849489 	101374.7857063071
-0.8245745745745746 	300.0420483827366 	0.1217968481875083 	101374.7179374171
-0.8220720720720721 	300.0419833583358 	0.1216084693774431 	101374.6410337021
-0.8195695695695699 	300.0419105698753 	0.1213976295200669 	101374.5549481836
-0.817067067067067 	300.0418300490106 	0.1211644116750705 	101374.4597184637
-0.8145645645645651 	300.0417418753435 	0.1209089894636207 	101374.355438581
-0.8120620620620621 	300.0416460422671 	0.1206313533105156 	101374.2421006288
-0.8095595595595597 	300.0415424829771 	0.1203313805653365 	101374.1196257476
-0.8070570570570572 	300.0414312386911 	0.1200091838595818 	101373.988062866
-0.8045545545545546 	300.0413124377661 	0.1196650466002865 	101373.8475636187
-0.8020520520520523 	300.041186085303 	0.1192989823886469 	101373.698133966
-0.7995495495495494 	300.0410520664383 	0.1189107669718588 	101373.5396381908
-0.7970470470470474 	300.0409104055529 	0.1185004881944355 	101373.3721052962
-0.7945445445445446 	300.0407613009463 	0.1180685909515399 	101373.1957698038
-0.7920420420420423 	300.0406048129836 	0.1176152048019109 	101373.0107029585
-0.7895395395395397 	300.0404407619217 	0.1171399567137154 	101372.8166922164
-0.7870370370370371 	300.0402690869912 	0.1166427598568341 	101372.6136659618
-0.7845345345345348 	300.0400900548002 	0.1161242304953539 	101372.4019395579
-0.7820320320320323 	300.0399038756021 	0.1155848266706294 	101372.1817614977
-0.7795295295295296 	300.0397103445866 	0.1150240989474949 	101371.9528895259
-0.7770270270270272 	300.0395092002478 	0.1144415171934347 	101371.7150145174
-0.7745245245245247 	300.0393006721627 	0.1138376505056908 	101371.4684082559
-0.7720220220220222 	300.0390852351288 	0.113213566621566 	101371.2136321727
-0.7695195195195199 	300.0388628596887 	0.1125691775350358 	101370.9506511935
-0.767017017017017 	300.0386330203063 	0.1119033271892163 	101370.67884377
-0.7645145145145147 	300.038395598143 	0.1112158316956355 	101370.3980699421
-0.7620120120120122 	300.0381512581936 	0.1105082521412506 	101370.1091163758
-0.7595095095095097 	300.037900538664 	0.109781785123686 	101369.812619132
-0.7570070070070072 	300.0376429714763 	0.1090353296856564 	101369.5080242087
-0.7545045045045048 	300.0373777320405 	0.1082670574548541 	101369.1943568647
-0.7520020020020022 	300.0371050197278 	0.1074775454738073 	101368.8718537582
-0.7494994994994997 	300.0368260308189 	0.1066695981110822 	101368.5419293677
-0.7469969969969972 	300.0365413100161 	0.1058444106777632 	101368.2052271349
-0.7444944944944945 	300.0362498239028 	0.1049995335118117 	101367.8605246951
-0.7419919919919924 	300.0359503391974 	0.1041321804556418 	101367.5063643863
-0.7394894894894897 	300.0356433716736 	0.1032437199212976 	101367.1433572687
-0.7369869869869872 	300.0353308371187 	0.1023387041029493 	101366.7737684986
-0.7344844844844846 	300.0350135460523 	0.1014189403412614 	101366.398555287
-0.7319819819819822 	300.0346898816003 	0.1004805105822222 	101366.0158048489
-0.7294794794794797 	300.0343577569582 	0.09951855176196582 	101365.6230509534
-0.7269769769769773 	300.0340175742845 	0.09853423835581203 	101365.2207709506
-0.7244744744744747 	300.0336722014779 	0.09753453779446172 	101364.8123562978
-0.721971971971972 	300.0333235689441 	0.09652397125270587 	101364.4000875644
-0.7194694694694695 	300.0329699972863 	0.09549832040599883 	101363.9819768801
-0.7169669669669674 	300.0326078864812 	0.0944489012774816 	101363.5537683835
-0.7144644644644647 	300.0322361444862 	0.09337330832131677 	101363.114173777
-0.711961961961962 	300.0318580596889 	0.09227977621290159 	101362.6670834974
-0.7094594594594597 	300.0314779677409 	0.09117887463900029 	101362.2176225905
-0.7069569569569573 	300.0310961956543 	0.0900711756787948 	101361.7661738145
-0.7044544544544545 	300.0307081696853 	0.08894527456820281 	101361.3073272064
-0.7019519519519523 	300.0303091767599 	0.08778967385289886 	101360.8355126075
-0.6994494494494495 	300.029899853395 	0.08660627502275635 	101360.3514874465
-0.6969469469469471 	300.029486255421 	0.08541033042607474 	101359.8624142097
-0.6944444444444446 	300.0290739326906 	0.08421557599764534 	101359.3748521597
-0.6919419419419421 	300.0286619417771 	0.08301937059822039 	101358.8876802716
-0.6894394394394396 	300.0282431643429 	0.08180369668723542 	101358.3924795612
-0.6869369369369374 	300.0278110737022 	0.08055228258495287 	101357.8815358519
-0.6844344344344344 	300.0273665092432 	0.07926759859412646 	101357.3558479794
-0.6819319319319321 	300.0269176900438 	0.07797069934313913 	101356.8251377894
-0.6794294294294296 	300.0264730267576 	0.07668289037569577 	101356.2993473424
-0.6769269269269272 	300.0260332142523 	0.07540566792737038 	101355.7792918375
-0.6744244244244245 	300.0255899686176 	0.07411763332216446 	101355.255171704
-0.6719219219219222 	300.0251328538031 	0.0727920767210492 	101354.7146490085
-0.6694194194194195 	300.0246584489439 	0.07142049755830804 	101354.1536852192
-0.6669169169169172 	300.024173948694 	0.07002175756969084 	101353.5807933563
-0.6644144144144146 	300.0236919177721 	0.06862844976262177 	101353.01083047
-0.661911911911912 	300.023220324745 	0.06726109881521841 	101352.4532129158
-0.6594094094094097 	300.0227558822 	0.06591090671676832 	101351.9040467336
-0.656906906906907 	300.0222860179874 	0.06454492568536624 	101351.3484640115
-0.6544044044044046 	300.0217980437599 	0.06313004193834706 	101350.7714659125
-0.6519019019019021 	300.0212887106749 	0.06165799297652746 	101350.1692189093
-0.6493993993993996 	300.020767149002 	0.06015303716216341 	101349.5525246193
-0.6468968968968971 	300.0202490316215 	0.0586565902171678 	101348.939914196
-0.6443943943943946 	300.0197460615818 	0.05719952381350179 	101348.3452183503
-0.6418918918918921 	300.0192580144056 	0.05578108535158442 	101347.7681626066
-0.6393893893893897 	300.0187725351143 	0.05436827841165866 	101347.1941334842
-0.6368868868868871 	300.0182726128753 	0.0529157226287339 	101346.6030196372
-0.6343843843843846 	300.0177469387514 	0.05139332126425361 	101345.9814576524
-0.6318818818818821 	300.0171968984425 	0.04980498873557385 	101345.3310958145
-0.6293793793793795 	300.0166361841237 	0.04818763801191057 	101344.6681290429
-0.6268768768768773 	300.016083416188 	0.04659144241671903 	101344.0145712918
-0.6243743743743745 	300.0155520452447 	0.0450529213854873 	101343.3864169667
-0.6218718718718721 	300.0150435440941 	0.04357563712939224 	101342.7852336715
-0.6193693693693696 	300.0145463625657 	0.04212805476812813 	101342.1973034026
-0.6168668668668671 	300.0140413832123 	0.04065851582166949 	101341.6002076408
-0.6143643643643645 	300.0135111240282 	0.03911924714919564 	101340.9732467159
-0.6118618618618621 	300.0129474708986 	0.03748808648272242 	101340.3068059089
-0.6093593593593596 	300.0123553326901 	0.03577859655483856 	101339.6066984734
-0.6068568568568571 	300.0117507616087 	0.03403491657675649 	101338.8919087693
-0.6043543543543546 	300.0111545577749 	0.0323143256374699 	101338.187028795
-0.6018518518518521 	300.0105842979013 	0.03066539447067767 	101337.5128339803
-0.5993493493493496 	300.0100480456448 	0.02911051861493973 	101336.8788495801
-0.5968468468468471 	300.0095417901424 	0.02763864231429733 	101336.2803250421
-0.5943443443443446 	300.0090510175847 	0.02620939479505829 	101335.7000951054
-0.591841841841842 	300.0085553300336 	0.02476577766204571 	101335.1140420996
-0.5893393393393397 	300.0080342551707 	0.02325040895365802 	101334.4979644753
-0.5868368368368371 	300.0074725556441 	0.02162050513923798 	101333.8338533381
-0.5843343343343346 	300.0068638570499 	0.01985817179775341 	101333.1141802137
-0.5818318318318321 	300.0062119962835 	0.01797426162336131 	101332.3434889676
-0.5793293293293297 	300.0055300571129 	0.01600570142396749 	101331.5372540459
-0.5768268268268271 	300.0048375502361 	0.01400759341098955 	101330.71854507
-0.5743243243243245 	300.0041565544078 	0.01204245277623812 	101329.9134646366
-0.5718218218218221 	300.0035078896433 	0.01016962659460995 	101329.1466243854
-0.5693193193193196 	300.0029084442102 	0.008437644133235432 	101328.4379859125
-0.5668168168168171 	300.0023699405106 	0.0068804391746016 	101327.8014031735
-0.5643143143143147 	300.0018987646101 	0.005516704980054406 	101327.2444211929
-0.5618118118118121 	300.0014964942058 	0.004351323325617402 	101326.7689011071
-0.5593093093093094 	300.0011608311374 	0.003377987186692064 	101326.3721231767
-0.5568068068068072 	300.0008866913325 	0.002582301198595169 	101326.048074848
-0.5543043043043046 	300.000667266842 	0.001944825929056149 	101325.7887064191
-0.551801801801802 	300.0004949447444 	0.001443726259105281 	101325.5850174287
-0.5492992992992995 	300.000362027308 	0.001056855473168933 	101325.4279073597
-0.5467967967967969 	300.0002612404371 	0.0007632371368908207 	101325.3087772712
-0.5442942942942947 	300.0001860504788 	0.0005439926275443624 	101325.2199036231
-0.5417917917917919 	300.0001308215686 	0.0003828096452237216 	101325.1546243582
-0.5392892892892895 	300.0000908539628 	0.0002660642466268027 	101325.1073839954
-0.536786786786787 	300.0000623409848 	0.0001827059973744765 	101325.0736828333
-0.5342842842842846 	300.0000422774885 	0.0001240002195680388 	101325.049968817
-0.531781781781782 	300.0000283454482 	8.32010211172556e-05 	101325.0335020224
-0.5292792792792794 	300.0000187941413 	5.520739301887015e-05 	101325.0222130475
-0.526776776776777 	300.0000123266507 	3.623659359616708e-05 	101325.0145689901
-0.5242742742742745 	300.0000079995914 	2.353376179102163e-05 	101325.0094546936
-0.521771771771772 	300.0000051380175 	1.512641900602225e-05 	101325.0060725152
-0.5192692692692695 	300.0000032667483 	9.624581999744338e-06 	101325.0038609451
-0.516766766766767 	300.000002056604 	6.063529653084693e-06 	101325.0024306261
-0.5142642642642645 	300.0000012822064 	3.783172560298329e-06 	101325.0015154199
-0.511761761761762 	300.0000007918343 	2.338099759606761e-06 	101325.000935889
-0.5092592592592596 	300.0000004844933 	1.431610698275929e-06 	101325.0005726303
-0.506756756756757 	300.0000002937007 	8.686142397502912e-07 	101325.0003471849
-0.5042542542542544 	300.0000001765201 	5.223182483222288e-07 	101325.000208621
-0.5017517517517521 	300.0000001051812 	3.113414729906308e-07 	101325.0001242615
-0.4992492492492494 	300.0000000621297 	1.839846637178295e-07 	101325.0000733773
-0.496746746746747 	300.0000000363486 	1.078120959392544e-07 	101325.0000429629
-0.4942442442442445 	300.000000021056 	6.264900684565235e-08 	101325.0000249451
-0.4917417417417421 	300.0000000121002 	3.611345607219235e-08 	101325.0000143642
-0.4892392392392395 	300.0000000069034 	2.064841224907971e-08 	101325.0000082035
-0.486736736736737 	300.0000000038991 	1.171831699873605e-08 	101325.0000046466
-0.4842342342342345 	300.0000000021357 	6.595565449024505e-09 	101325.0000026097
-0.481731731731732 	300.0000000012698 	3.689126719799565e-09 	101325.0000014527
-0.4792292292292296 	300.0000000007073 	2.04404443149898e-09 	101325.0000008005
-0.4767267267267268 	300.0000000003137 	1.129699372450375e-09 	101325.000000436
-0.4742242242242246 	300.0000000001879 	6.140433826550642e-10 	101325.0000002337
-0.471721721721722 	300.0000000000555 	3.367070807405003e-10 	101325.0000001222
-0.4692192192192195 	300.0000000000194 	1.783535893538448e-10 	101325.0000000612
-0.4667167167167169 	299.9999999999345 	9.808389039273369e-11 	101325.0000000279
-0.4642142142142145 	300.0000000000119 	5.018003657053252e-11 	101325.0000000101
-0.461711711711712 	300.0000000000223 	2.969148642869706e-11 	101325.0000000007
-0.4592092092092094 	300.0000000000172 	1.498544485363991e-11 	101324.999999996
-0.456706706706707 	300.0000000000546 	1.10805297782377e-11 	101324.9999999934
-0.4542042042042045 	299.9999999999329 	6.303514245334399e-12 	101324.9999999921
-0.451701701701702 	299.9999999999496 	5.84685575663829e-12 	101324.9999999915
-0.4491991991991995 	299.9999999999512 	2.441757538510114e-12 	101324.9999999911
-0.4466966966966969 	299.9999999999345 	3.781071287082662e-12 	101324.9999999909
-0.4441941941941945 	299.9999999999923 	1.056798649284844e-12 	101324.9999999905
-0.441691691691692 	299.9999999999516 	3.494124877983351e-12 	101324.9999999905
-0.4391891891891895 	299.9999999999837 	2.924490791526995e-12 	101324.9999999903
-0.436686686686687 	299.999999999965 	3.797339167807275e-12 	101324.9999999903
-0.4341841841841846 	299.9999999999939 	3.378139540017705e-12 	101324.9999999906
-0.431681681681682 	299.999999999943 	4.475404402256697e-12 	101324.9999999906
-0.4291791791791794 	299.9999999998998 	1.923412388365147e-12 	101324.9999999904
-0.426676676676677 	299.9999999999064 	3.039780442577187e-12 	101324.9999999906
-0.4241741741741744 	299.9999999999657 	1.663691115190686e-12 	101324.9999999909
-0.421671671671672 	300.0000000000067 	2.520855164960307e-12 	101324.9999999909
-0.4191691691691694 	300.0000000000529 	7.115028846847532e-13 	101324.9999999911
-0.4166666666666669 	300.0000000000613 	2.524131370592234e-12 	101324.9999999913
-0.4141641641641645 	299.9999999999279 	1.285497094551164e-12 	101324.9999999912
-0.411661661661662 	300.0000000000078 	2.780746802013391e-12 	101324.9999999914
-0.4091591591591594 	300.0000000000028 	2.359007060492343e-12 	101324.9999999914
-0.406656656656657 	299.99999999993 	4.072683806614942e-12 	101324.9999999913
-0.4041541541541545 	300.0000000000167 	1.985820128534066e-12 	101324.9999999913
-0.401651651651652 	299.9999999999147 	4.813427624357161e-12 	101324.9999999913
-0.3991491491491494 	299.999999999998 	9.322526652742793e-13 	101324.9999999911
-0.396646646646647 	299.9999999999538 	5.50062018208434e-12 	101324.9999999912
-0.3941441441441444 	299.9999999999762 	1.727038238790728e-12 	101324.9999999911
-0.3916416416416419 	299.9999999999261 	4.770142323709194e-12 	101324.999999991
-0.3891391391391395 	299.9999999999576 	1.143321129829837e-12 	101324.9999999912
-0.3866366366366368 	299.9999999999552 	4.078644249161975e-12 	101324.9999999911
-0.3841341341341344 	299.9999999999965 	1.947315293955188e-12 	101324.9999999911
-0.381631631631632 	299.9999999999541 	3.152865537099168e-12 	101324.9999999911
-0.3791291291291294 	300.0000000000102 	2.09776247441208e-12 	101324.9999999914
-0.3766266266266269 	300.000000000024 	1.761858449044576e-12 	101324.9999999915
-0.3741241241241244 	300.0000000000267 	2.515014741216694e-12 	101324.9999999913
-0.371621621621622 	300.0000000000136 	7.326990742333677e-13 	101324.9999999912
-0.3691191191191194 	300.0000000000027 	3.582929229245748e-12 	101324.9999999912
-0.366616616616617 	300.0000000000092 	1.244824306779878e-12 	101324.9999999914
-0.3641141141141143 	299.9999999999608 	4.344798953094522e-12 	101324.9999999914
-0.3616116116116119 	299.9999999999424 	2.765184334008217e-12 	101324.9999999915
-0.3591091091091095 	299.9999999999881 	3.57879756866404e-12 	101324.9999999918
-0.356606606606607 	299.9999999999814 	2.594045769384892e-12 	101324.9999999916
-0.3541041041041044 	299.99999999998 	1.947372428778718e-12 	101324.9999999914
-0.3516016016016019 	300.0000000000007 	2.531457804564144e-12 	101324.9999999913
-0.3490990990990994 	299.9999999999829 	1.581490387113797e-12 	101324.9999999915
-0.346596596596597 	300.0000000000449 	4.191082291797241e-12 	101324.9999999912
-0.3440940940940944 	300.0000000000559 	2.135443132115985e-12 	101324.9999999912
-0.3415915915915919 	300.0000000000181 	4.749850192354783e-12 	101324.9999999911
-0.3390890890890895 	299.9999999999749 	2.310767805603885e-12 	101324.9999999911
-0.3365865865865869 	300.0000000000211 	3.453304238933146e-12 	101324.9999999911
-0.3340840840840844 	300.0000000000063 	1.478333448451959e-12 	101324.9999999911
-0.3315815815815819 	300.0000000000275 	1.841769258127302e-12 	101324.9999999911
-0.3290790790790794 	300.000000000017 	2.730964480818367e-13 	101324.9999999909
-0.3265765765765769 	299.9999999999259 	1.709947262061428e-12 	101324.9999999908
-0.3240740740740744 	299.9999999999947 	7.636125794313863e-13 	101324.9999999907
-0.3215715715715718 	300.0000000000067 	2.776155234481546e-12 	101324.9999999909
-0.3190690690690695 	299.9999999999208 	7.425589254013484e-13 	101324.9999999909
-0.3165665665665668 	299.999999999989 	3.178808330710799e-12 	101324.9999999907
-0.3140640640640644 	300.000000000001 	9.770528453326322e-13 	101324.9999999908
-0.311561561561562 	299.999999999923 	4.874395966962922e-12 	101324.9999999909
-0.3090590590590593 	299.9999999999941 	9.906046416979657e-13 	101324.9999999911
-0.3065565565565568 	300.0000000000034 	6.147681731113667e-12 	101324.9999999912
-0.3040540540540545 	300.0000000000194 	1.498466189504989e-12 	101324.9999999909
-0.3015515515515518 	300.0000000000363 	6.132795225763928e-12 	101324.999999991
-0.2990490490490494 	299.9999999999431 	2.425000954458275e-12 	101324.9999999912
-0.2965465465465469 	299.999999999981 	5.560905672174102e-12 	101324.9999999909
-0.2940440440440444 	300.0000000000009 	3.90106651721204e-12 	101324.9999999911
-0.2915415415415418 	299.9999999999975 	5.159548917570033e-12 	101324.9999999911
-0.2890390390390395 	300.0000000000013 	4.870836710605065e-12 	101324.9999999911
-0.2865365365365368 	299.9999999999766 	3.762852510958636e-12 	101324.9999999912
-0.2840340340340343 	300.0000000000034 	4.645668454537492e-12 	101324.9999999913
-0.2815315315315318 	299.9999999999242 	2.615573306607669e-12 	101324.9999999912
-0.2790290290290295 	299.9999999999556 	3.391807626726364e-12 	101324.9999999914
-0.2765265265265269 	300.0000000000124 	2.297447138323041e-12 	101324.9999999915
-0.2740240240240244 	300.0000000000373 	3.149737413215266e-12 	101324.9999999917
-0.2715215215215219 	300.0000000000166 	4.226166506937424e-12 	101324.9999999918
-0.2690190190190194 	299.999999999942 	4.460292967938343e-12 	101324.9999999916
-0.2665165165165169 	299.9999999999963 	5.680195135776017e-12 	101324.9999999918
-0.2640140140140144 	299.9999999999665 	4.012651824474908e-12 	101324.9999999919
-0.2615115115115119 	299.9999999999999 	5.383852574271834e-12 	101324.999999992
-0.2590090090090094 	299.999999999934 	2.895866323777117e-12 	101324.9999999922
-0.2565065065065068 	299.9999999999974 	3.646091045431333e-12 	101324.9999999919
-0.2540040040040044 	300.0000000000015 	3.928627788166373e-12 	101324.9999999919
-0.2515015015015019 	300.000000000041 	3.334223463854768e-12 	101324.9999999917
-0.2489989989989994 	300.00000000005 	5.382173530313871e-12 	101324.9999999918
-0.2464964964964968 	299.9999999999928 	3.380197290387919e-12 	101324.9999999914
-0.2439939939939944 	299.9999999999988 	7.256836276406091e-12 	101324.9999999914
-0.2414914914914919 	299.999999999974 	2.615062270555557e-12 	101324.9999999912
-0.2389889889889893 	300.0000000000045 	6.571515900081194e-12 	101324.9999999912
-0.2364864864864869 	300.0000000000246 	2.231722270562118e-12 	101324.999999991
-0.2339839839839843 	299.9999999999208 	6.577891307619009e-12 	101324.9999999909
-0.2314814814814819 	299.9999999999802 	2.25090352757718e-12 	101324.9999999911
-0.2289789789789792 	299.999999999918 	5.206288132916825e-12 	101324.9999999912
-0.2264764764764769 	299.9999999999434 	1.953871063469756e-12 	101324.9999999914
-0.2239739739739743 	299.9999999999584 	3.079021419424572e-12 	101324.9999999918
-0.2214714714714718 	299.9999999999368 	1.307810759540764e-12 	101324.9999999918
-0.2189689689689693 	299.9999999999682 	3.633829493769013e-13 	101324.9999999917
-0.2164664664664669 	299.9999999999761 	9.499094396635121e-13 	101324.999999992
-0.2139639639639643 	299.999999999923 	1.04631401413352e-12 	101324.9999999918
-0.2114614614614618 	299.9999999999711 	1.689135934083025e-13 	101324.9999999918
-0.2089589589589593 	299.9999999999959 	3.397046140122833e-14 	101324.9999999921
-0.2064564564564568 	299.9999999999937 	1.94226371985624e-13 	101324.9999999921
-0.2039539539539543 	299.9999999999051 	8.240987892645754e-13 	101324.999999992
-0.2014514514514518 	299.9999999999461 	1.140244578201111e-12 	101324.9999999917
-0.1989489489489494 	299.9999999999768 	2.250833115101706e-12 	101324.9999999916
-0.1964464464464468 	299.9999999999976 	6.86787322941749e-13 	101324.9999999913
-0.1939439439439443 	299.9999999999855 	2.773557260341711e-12 	101324.999999991
-0.1914414414414418 	299.9999999999144 	4.167834764403924e-13 	101324.9999999911
-0.1889389389389393 	300.000000000006 	1.935554509821852e-12 	101324.9999999913
-0.1864364364364368 	300.0000000000404 	9.06265946351327e-13 	101324.9999999913
-0.1839339339339343 	299.9999999999733 	2.891575722816187e-12 	101324.9999999915
-0.1814314314314318 	299.9999999999957 	1.94225399250965e-12 	101324.9999999918
-0.1789289289289293 	299.9999999998989 	3.772871028978345e-12 	101324.9999999918
-0.1764264264264268 	299.9999999999774 	1.055607470814466e-12 	101324.9999999916
-0.1739239239239243 	299.9999999998918 	4.538702205308373e-12 	101324.9999999913
-0.1714214214214218 	299.9999999999877 	5.893412508984339e-13 	101324.9999999909
-0.1689189189189193 	299.9999999999521 	5.192819185859377e-12 	101324.9999999909
-0.1664164164164168 	300.0000000000058 	1.666313700272798e-12 	101324.9999999909
-0.1639139139139143 	299.9999999999882 	6.872312586516932e-12 	101324.9999999912
-0.1614114114114118 	300.0000000000327 	3.050972077146036e-12 	101324.9999999912
-0.1589089089089093 	299.9999999999997 	7.734151649858306e-12 	101324.9999999911
-0.1564064064064068 	299.9999999999859 	4.622170148733067e-12 	101324.9999999907
-0.1539039039039043 	299.9999999999914 	8.43796304057271e-12 	101324.999999991
-0.1514014014014018 	300.0000000000232 	3.673265635398952e-12 	101324.9999999907
-0.1488988988988993 	299.9999999999966 	7.802415351133764e-12 	101324.9999999903
-0.1463963963963968 	299.9999999999993 	2.532938977603581e-12 	101324.9999999904
-0.1438938938938943 	299.9999999999492 	6.535625127547465e-12 	101324.9999999903
-0.1413913913913918 	299.9999999999204 	1.234594600746539e-12 	101324.9999999907
-0.1388888888888893 	299.9999999999774 	5.303662223574173e-12 	101324.9999999906
-0.1363863863863868 	299.9999999998853 	5.636155389897824e-13 	101324.9999999908
-0.1338838838838843 	299.9999999999163 	3.792010428417533e-12 	101324.9999999907
-0.1313813813813818 	299.9999999999944 	5.529483033681561e-13 	101324.9999999909
-0.1288788788788793 	299.9999999999694 	4.216070526096066e-12 	101324.9999999906
-0.1263763763763768 	299.9999999999714 	1.006539160461668e-12 	101324.9999999906
-0.1238738738738743 	299.9999999999234 	3.869672675845585e-12 	101324.9999999907
-0.1213713713713717 	299.9999999999747 	8.026729553163469e-13 	101324.9999999909
-0.1188688688688693 	300.0000000000035 	4.051173640203066e-12 	101324.999999991
-0.1163663663663668 	299.9999999998967 	1.412641338238992e-12 	101324.9999999911
-0.1138638638638643 	299.9999999999889 	4.409385424954928e-12 	101324.999999991
-0.1113613613613618 	299.9999999999865 	1.508735366075615e-12 	101324.9999999911
-0.1088588588588592 	299.9999999999739 	5.066958557415589e-12 	101324.999999991
-0.1063563563563568 	299.999999999945 	1.758066172836171e-12 	101324.9999999911
-0.1038538538538543 	299.9999999999752 	4.019338592038311e-12 	101324.9999999909
-0.1013513513513517 	300.0000000000178 	2.278475539650348e-13 	101324.999999991
-0.09884884884884926 	299.9999999999325 	4.087073216753623e-12 	101324.9999999909
-0.09634634634634676 	299.9999999998894 	1.35692522717988e-12 	101324.9999999908
-0.09384384384384425 	299.9999999999252 	4.243362667720151e-12 	101324.9999999908
-0.09134134134134177 	300.0000000000258 	2.093108148235112e-12 	101324.9999999903
-0.08883883883883925 	300.0000000000041 	3.494839561532123e-12 	101324.9999999902
-0.08633633633633674 	299.9999999999515 	2.703016521698201e-12 	101324.9999999901
-0.08383383383383426 	300.0000000000085 	4.102735633533117e-12 	101324.9999999902
-0.08133133133133173 	299.9999999999643 	3.82465735730524e-12 	101324.9999999903
-0.07882882882882926 	299.9999999998832 	3.136944438449506e-12 	101324.9999999905
-0.07632632632632676 	299.999999999956 	2.233260630229561e-12 	101324.9999999906
-0.07382382382382424 	299.999999999893 	1.780289316784778e-12 	101324.9999999906
-0.07132132132132173 	300.0000000000166 	1.350427250247205e-12 	101324.9999999908
-0.06881881881881925 	299.9999999999632 	1.487246476986685e-12 	101324.9999999909
-0.06631631631631671 	299.9999999998936 	7.755365299244936e-13 	101324.9999999914
-0.06381381381381425 	299.9999999999544 	7.576549267956885e-13 	101324.9999999915
-0.06131131131131173 	299.9999999999561 	1.23257375604577e-13 	101324.9999999916
-0.05880880880880923 	299.9999999999124 	2.00713371559185e-13 	101324.9999999914
-0.05630630630630672 	299.9999999999682 	3.10224869246727e-13 	101324.9999999914
-0.05380380380380424 	300.0000000000173 	8.355743864204004e-14 	101324.9999999914
-0.05130130130130173 	300.0000000000165 	1.93065352182164e-13 	101324.9999999914
-0.04879879879879922 	299.9999999999374 	8.006753613798913e-13 	101324.9999999915
-0.04629629629629672 	299.9999999999271 	5.14980378892824e-13 	101324.9999999913
-0.04379379379379422 	299.9999999999121 	1.364290008763574e-12 	101324.9999999913
-0.04129129129129173 	299.9999999999763 	6.35131254961395e-13 	101324.9999999913
-0.03878878878878922 	299.9999999999827 	1.051377290711175e-12 	101324.9999999908
-0.03628628628628671 	299.9999999999792 	1.355986952620397e-12 	101324.9999999904
-0.03378378378378422 	299.9999999999176 	2.240817907859006e-12 	101324.9999999907
-0.03128128128128172 	299.9999999999619 	9.956230612585757e-13 	101324.9999999908
-0.02877877877877922 	299.9999999999616 	1.887883125000311e-12 	101324.9999999908
-0.0262762762762767 	299.9999999998978 	1.089022339164308e-12 	101324.999999991
-0.02377377377377422 	300.0000000000218 	1.406977483343466e-12 	101324.9999999909
-0.0212712712712717 	299.9999999998992 	1.763125390700973e-12 	101324.9999999908
-0.01876876876876921 	299.9999999999629 	1.599479162979404e-12 	101324.9999999908
-0.01626626626626671 	300.0000000000164 	1.978309316869541e-12 	101324.9999999908
-0.0137637637637642 	299.999999999964 	1.329199195052108e-12 	101324.9999999906
-0.0112612612612617 	300.0000000000178 	1.295453334778323e-12 	101324.9999999908
-0.008758758758759198 	299.9999999999956 	1.205113029607077e-12 	101324.999999991
-0.006256256256256697 	299.9999999998777 	1.873584069126567e-12 	101324.999999991
-0.003753753753754195 	299.9999999999555 	1.786554901410478e-12 	101324.9999999909
-0.001251251251251693 	299.9999999999292 	2.726296792561749e-12 	101324.9999999905
0.00125125125125081 	299.9999999999505 	2.668700054932905e-12 	101324.9999999908
0.003753753753753312 	299.9999999999613 	3.077453307833683e-12 	101324.9999999913
0.006256256256255817 	299.9999999998886 	2.507168651989979e-12 	101324.9999999909
0.008758758758758317 	299.9999999999825 	2.6643780479713e-12 	101324.9999999913
0.01126126126126082 	300.0000000000037 	2.361583927626994e-12 	101324.9999999914
0.01376376376376332 	299.9999999999665 	1.672560041635686e-12 	101324.9999999912
0.01626626626626582 	300.0000000000101 	9.228921899252552e-13 	101324.9999999913
0.01876876876876833 	299.9999999999495 	1.182855329322668e-12 	101324.9999999912
0.02127127127127083 	299.9999999999627 	5.93472034579203e-13 	101324.9999999912
0.02377377377377332 	299.9999999999906 	7.158955063757328e-13 	101324.9999999911
0.02627627627627583 	299.9999999998975 	2.962945230296077e-13 	101324.999999991
0.02877877877877833 	300.0000000000123 	1.607329565260162e-13 	101324.9999999907
0.03128128128128083 	299.9999999999518 	6.712061645384032e-13 	101324.9999999908
0.03378378378378333 	299.9999999998948 	9.243926413925145e-14 	101324.9999999906
0.03628628628628584 	299.9999999999692 	8.531066558955304e-14 	101324.9999999907
0.03878878878878834 	299.9999999999876 	2.890663341413875e-13 	101324.999999991
0.04129129129129084 	299.9999999999762 	4.62425712668952e-13 	101324.9999999911
0.04379379379379333 	299.9999999999458 	3.811244708227604e-13 	101324.9999999907
0.04629629629629585 	299.9999999998824 	2.408172838961281e-13 	101324.9999999907
0.04879879879879834 	299.9999999999565 	3.992127302635203e-13 	101324.9999999907
0.05130130130130085 	300.0000000000119 	9.732524413846141e-13 	101324.9999999907
0.05380380380380335 	300.00000000002 	9.344145387606746e-13 	101324.9999999905
0.05630630630630584 	299.9999999999919 	1.261733595782439e-12 	101324.9999999908
0.05880880880880836 	299.9999999999182 	3.695818433414964e-13 	101324.9999999907
0.06131131131131085 	299.9999999999623 	5.255778628939913e-13 	101324.9999999911
0.06381381381381336 	299.9999999999591 	1.408016682202149e-13 	101324.9999999908
0.06631631631631586 	299.9999999998874 	3.287815695286249e-13 	101324.9999999909
0.06881881881881835 	299.9999999999501 	1.17196792449431e-12 	101324.9999999906
0.07132132132132088 	299.9999999999848 	9.29582624045244e-13 	101324.9999999909
0.07382382382382337 	299.9999999998907 	2.026037988752263e-12 	101324.9999999909
0.07632632632632587 	299.9999999999667 	1.993014814232153e-12 	101324.9999999911
0.07882882882882837 	299.9999999999341 	2.021478190382467e-12 	101324.9999999911
0.08133133133133086 	299.9999999999781 	2.115787116174648e-12 	101324.9999999913
0.08383383383383337 	299.9999999999854 	1.959759032689385e-12 	101324.9999999913
0.08633633633633589 	299.9999999999006 	2.385397075084995e-12 	101324.9999999915
0.08883883883883838 	300.0000000000022 	2.9695676620026e-12 	101324.9999999916
0.09134134134134086 	299.9999999999763 	2.352630921435812e-12 	101324.9999999918
0.09384384384384339 	299.9999999998891 	2.542456994875426e-12 	101324.9999999916
0.09634634634634588 	299.9999999999588 	2.489671452102932e-12 	101324.9999999914
0.09884884884884838 	299.9999999999748 	2.687714742740561e-12 	101324.9999999912
0.1013513513513509 	300.0000000000185 	2.802809299577256e-12 	101324.9999999912
0.1038538538538534 	299.9999999999519 	2.539859498523947e-12 	101324.9999999913
0.1063563563563559 	300.0000000000051 	2.767904241865368e-12 	101324.9999999912
0.1088588588588584 	300.0000000000283 	1.8648310350172e-12 	101324.999999991
0.1113613613613609 	299.9999999999134 	2.239364030885577e-12 	101324.9999999914
0.1138638638638634 	299.9999999999403 	2.87142453512683e-12 	101324.9999999913
0.1163663663663659 	299.9999999999528 	2.956827827580805e-12 	101324.9999999914
0.1188688688688684 	299.9999999999782 	2.968813560408903e-12 	101324.9999999913
0.1213713713713709 	300.000000000006 	2.002531357439007e-12 	101324.9999999911
0.1238738738738734 	299.9999999999227 	2.863534883795109e-12 	101324.999999991
0.1263763763763759 	299.9999999999804 	3.112131695346573e-12 	101324.9999999909
0.1288788788788784 	299.9999999999807 	3.172280515026533e-12 	101324.9999999909
0.1313813813813809 	299.9999999999793 	2.900525047816162e-12 	101324.9999999907
0.1338838838838834 	299.9999999999776 	2.922643796363678e-12 	101324.9999999909
0.1363863863863859 	300.0000000000141 	2.844132571047491e-12 	101324.9999999907
0.1388888888888884 	300.0000000000435 	3.574736300072475e-12 	101324.9999999908
0.1413913913913909 	300.0000000000093 	3.133552690635834e-12 	101324.9999999906
0.1438938938938934 	299.9999999999952 	4.220743647877884e-12 	101324.9999999904
0.1463963963963959 	299.999999999957 	3.408731514528844e-12 	101324.9999999906
0.1488988988988985 	299.9999999999067 	4.507985199403908e-12 	101324.9999999902
0.1514014014014009 	299.9999999999661 	3.031750931717362e-12 	101324.9999999903
0.1539039039039035 	299.9999999999607 	5.746638264249924e-12 	101324.9999999903
0.1564064064064059 	299.9999999999257 	3.193378405214503e-12 	101324.9999999903
0.1589089089089084 	299.9999999999731 	6.412643730718566e-12 	101324.9999999903
0.1614114114114109 	299.9999999999691 	3.388107432941674e-12 	101324.9999999901
0.1639139139139134 	299.999999999905 	4.944741829351188e-12 	101324.9999999903
0.166416416416416 	300.0000000000068 	4.018257391344596e-12 	101324.9999999901
0.1689189189189185 	300.0000000000332 	3.621272556838557e-12 	101324.9999999902
0.1714214214214209 	300.000000000004 	3.700829986864777e-12 	101324.9999999901
0.1739239239239235 	299.9999999999903 	1.860607283639611e-12 	101324.99999999
0.1764264264264259 	299.9999999999674 	3.877475703247718e-12 	101324.99999999
0.1789289289289284 	300.0000000000072 	1.251761181778964e-12 	101324.99999999
0.181431431431431 	299.999999999964 	3.252507379975182e-12 	101324.99999999
0.1839339339339334 	299.9999999999662 	1.118686772259362e-12 	101324.9999999901
0.186436436436436 	299.9999999999296 	1.988096224992342e-12 	101324.9999999905
0.1889389389389385 	299.9999999999785 	1.851000415219007e-12 	101324.9999999907
0.191441441441441 	299.9999999999724 	1.899282335039879e-12 	101324.9999999907
0.1939439439439434 	299.9999999999182 	3.21129678411256e-12 	101324.9999999909
0.196446446446446 	299.9999999999425 	1.930823793974498e-12 	101324.9999999909
0.1989489489489485 	299.9999999999651 	4.354534638330418e-12 	101324.9999999911
0.2014514514514509 	299.9999999999845 	2.216850205093064e-12 	101324.9999999911
0.2039539539539535 	299.9999999999941 	3.447393610543754e-12 	101324.999999991
0.2064564564564559 	299.9999999999552 	2.068385812110201e-12 	101324.9999999908
0.2089589589589585 	299.999999999984 	2.853993480754801e-12 	101324.9999999906
0.211461461461461 	299.9999999999255 	2.955375657917447e-12 	101324.9999999906
0.2139639639639635 	299.9999999999739 	2.592646694442882e-12 	101324.9999999905
0.2164664664664659 	299.9999999999986 	4.258204884813911e-12 	101324.9999999902
0.2189689689689684 	299.9999999999986 	2.829872727072875e-12 	101324.99999999
0.221471471471471 	299.9999999999938 	5.465453050964887e-12 	101324.9999999901
0.2239739739739735 	299.9999999999537 	3.37335435281659e-12 	101324.9999999902
0.226476476476476 	299.9999999999742 	5.297036813744649e-12 	101324.9999999905
0.2289789789789785 	299.999999999993 	3.729150355358606e-12 	101324.9999999905
0.231481481481481 	299.9999999999868 	3.29719212379088e-12 	101324.9999999901
0.2339839839839835 	299.999999999984 	3.595560925541107e-12 	101324.9999999899
0.236486486486486 	300.0000000000244 	3.163774771318539e-12 	101324.9999999901
0.2389889889889885 	300.0000000000056 	4.840405915622351e-12 	101324.9999999902
0.241491491491491 	299.9999999999151 	3.240601706509114e-12 	101324.9999999903
0.2439939939939935 	299.9999999999783 	5.335444401386421e-12 	101324.9999999902
0.246496496496496 	299.9999999999923 	2.717121856591102e-12 	101324.9999999904
0.2489989989989985 	300.0000000000373 	3.479373761187647e-12 	101324.9999999903
0.251501501501501 	300.0000000000327 	2.307980313231307e-12 	101324.9999999902
0.2540040040040035 	299.9999999999914 	1.605119238908313e-12 	101324.9999999903
0.256506506506506 	300.0000000000301 	2.114837971752639e-12 	101324.9999999907
0.2590090090090086 	299.9999999999127 	5.639450333306082e-13 	101324.9999999911
0.261511511511511 	299.999999999999 	2.454251506533406e-12 	101324.999999991
0.2640140140140135 	299.9999999999894 	9.698440264141207e-13 	101324.9999999909
0.2665165165165161 	299.999999999928 	1.787353979639274e-12 	101324.9999999909
0.2690190190190185 	300.000000000012 	8.849298416370676e-13 	101324.9999999909
0.271521521521521 	300.0000000000167 	1.271605679160701e-12 	101324.9999999906
0.2740240240240235 	300.0000000000188 	1.313032135375601e-12 	101324.9999999905
0.276526526526526 	300.0000000000081 	4.84744427337844e-13 	101324.9999999904
0.2790290290290286 	299.9999999999372 	1.447521130288416e-12 	101324.9999999904
0.281531531531531 	299.9999999999202 	3.918209726211843e-13 	101324.9999999904
0.2840340340340335 	299.9999999999805 	1.541779925390107e-12 	101324.9999999907
0.2865365365365361 	299.9999999999579 	4.461151032903269e-13 	101324.9999999905
0.2890390390390385 	299.999999999997 	9.689015603269644e-13 	101324.9999999904
0.291541541541541 	299.9999999999972 	1.224333403216332e-12 	101324.9999999905
0.2940440440440436 	299.99999999999 	3.634356515854262e-13 	101324.9999999909
0.296546546546546 	299.9999999999955 	1.913900154552095e-12 	101324.9999999911
0.2990490490490486 	299.9999999999405 	1.792101356660453e-12 	101324.9999999913
0.3015515515515511 	300.0000000000397 	2.985310652704315e-12 	101324.9999999911
0.3040540540540535 	299.9999999999958 	3.280549061773315e-12 	101324.9999999911
0.3065565565565562 	299.9999999999964 	3.462671983587906e-12 	101324.9999999907
0.3090590590590585 	299.9999999999878 	3.312267680314981e-12 	101324.9999999903
0.3115615615615611 	299.9999999999371 	2.466766220987634e-12 	101324.9999999903
0.3140640640640635 	300.0000000000097 	2.463865923408786e-12 	101324.99999999
0.316566566566566 	299.9999999999957 	1.382936299692737e-12 	101324.9999999899
0.3190690690690687 	299.9999999999533 	2.006828975530692e-12 	101324.99999999
0.3215715715715711 	300.0000000000143 	1.257881098240436e-12 	101324.9999999904
0.3240740740740735 	299.9999999999969 	1.931941131742205e-12 	101324.9999999905
0.326576576576576 	299.9999999998988 	8.099213855278292e-13 	101324.9999999903
0.3290790790790786 	300.0000000000085 	8.935233989200479e-13 	101324.9999999901
0.3315815815815811 	300.0000000000327 	8.815377737699116e-13 	101324.9999999899
0.3340840840840836 	299.9999999999879 	6.262123221038551e-13 	101324.9999999901
0.3365865865865861 	300.0000000000558 	6.624583924353453e-13 	101324.9999999903
0.3390890890890886 	300.0000000000497 	1.398498711494782e-12 	101324.9999999903
0.3415915915915911 	300.0000000000032 	4.274733852972252e-13 	101324.9999999903
0.3440940940940935 	299.9999999999539 	1.729890744574492e-12 	101324.9999999905
0.3465965965965962 	300.0000000000402 	3.825195612338707e-13 	101324.9999999906
0.3490990990990985 	300.0000000000302 	1.819937179314443e-12 	101324.9999999907
0.3516016016016011 	299.9999999999822 	1.09308214671858e-12 	101324.9999999907
0.3541041041041035 	300.0000000000051 	8.589350140110753e-13 	101324.9999999907
0.3566066066066061 	299.9999999999597 	1.413254710037278e-12 	101324.9999999909
0.3591091091091085 	299.999999999919 	9.1880699981152e-13 	101324.9999999908
0.3616116116116112 	299.9999999999412 	1.760956943302988e-12 	101324.9999999909
0.3641141141141137 	299.9999999999313 	1.843215142300419e-12 	101324.9999999908
0.3666166166166161 	299.9999999999188 	2.363027163461805e-12 	101324.9999999907
0.3691191191191185 	300.0000000000367 	2.964736361816717e-12 	101324.9999999907
0.371621621621621 	300.0000000000157 	2.712856935604317e-12 	101324.9999999904
0.3741241241241237 	300.0000000000509 	1.7927792380748e-12 	101324.9999999903
0.3766266266266261 	300.0000000000316 	2.158823390084871e-12 	101324.9999999901
0.3791291291291286 	299.9999999999861 	1.498168529451396e-12 	101324.9999999899
0.3816316316316311 	299.9999999999161 	2.318206793736629e-12 	101324.9999999899
0.3841341341341336 	300.0000000000092 	1.021094853670939e-12 	101324.9999999897
0.3866366366366362 	299.9999999999966 	1.783872249920694e-12 	101324.9999999895
0.3891391391391387 	299.9999999999544 	5.015483194320831e-13 	101324.9999999897
0.391641641641641 	299.9999999999907 	1.797545956107222e-12 	101324.9999999899
0.3941441441441436 	300.0000000000021 	2.81782839000094e-13 	101324.9999999902
0.3966466466466462 	299.9999999999932 	1.064014381419605e-12 	101324.9999999901
0.3991491491491486 	299.9999999999426 	3.571955756550764e-13 	101324.9999999903
0.4016516516516512 	299.9999999999094 	1.199366400404234e-12 	101324.9999999905
0.4041541541541536 	299.9999999999513 	9.114218161726843e-13 	101324.9999999903
0.4066566566566561 	299.9999999999453 	1.397822793862488e-12 	101324.9999999905
0.4091591591591587 	299.9999999999857 	8.821570386924611e-13 	101324.9999999904
0.4116616616616612 	299.9999999999985 	2.504670103716527e-13 	101324.9999999902
0.4141641641641635 	300.00000000004 	4.666146421578202e-13 	101324.9999999899
0.4166666666666662 	299.9999999999964 	9.785159194903295e-13 	101324.9999999896
0.4191691691691687 	299.9999999999408 	1.559452001836141e-12 	101324.9999999894
0.421671671671671 	300.0000000000121 	1.275071480517755e-12 	101324.9999999893
0.4241741741741737 	299.9999999999768 	3.524814909308752e-12 	101324.9999999896
0.4266766766766761 	299.9999999999533 	1.558927598308554e-12 	101324.9999999899
0.4291791791791785 	300.0000000000197 	4.18496973123288e-12 	101324.99999999
0.4316816816816812 	300.0000000000117 	2.560003834003868e-12 	101324.9999999901
0.4341841841841836 	299.9999999999851 	3.747325307380308e-12 	101324.9999999902
0.4366866866866862 	299.9999999999147 	1.37787218030705e-12 	101324.99999999
0.4391891891891885 	299.9999999999855 	2.613726622909103e-12 	101324.99999999
0.4416916916916913 	299.9999999999837 	1.36997796214879e-12 	101324.99999999
0.4441941941941936 	299.9999999999879 	1.263848222941472e-12 	101324.9999999899
0.4466966966966961 	299.999999999911 	1.545424461108774e-12 	101324.9999999897
0.4491991991991987 	299.9999999999717 	4.310069433729074e-13 	101324.9999999898
0.4517017017017012 	299.9999999999724 	8.571210614968222e-13 	101324.9999999899
0.4542042042042035 	299.9999999999947 	1.064197644666645e-12 	101324.99999999
0.4567067067067062 	299.9999999999962 	1.347715627057557e-12 	101324.9999999899
0.4592092092092087 	299.9999999999235 	1.731081281389609e-12 	101324.99999999
0.4617117117117112 	300.0000000000212 	1.300796964947931e-12 	101324.9999999898
0.4642142142142137 	299.9999999999603 	1.179914586207796e-12 	101324.9999999897
0.4667167167167162 	299.9999999999903 	9.318959681818091e-13 	101324.9999999897
0.4692192192192187 	299.9999999999541 	3.346582945443199e-13 	101324.9999999897
0.4717217217217212 	300.0000000000138 	2.444031280958464e-13 	101324.9999999898
0.4742242242242236 	299.9999999999553 	5.687448856178701e-13 	101324.9999999898
0.4767267267267262 	299.9999999999745 	6.448795982623451e-13 	101324.9999999896
0.4792292292292287 	300.0000000000167 	7.494411213350167e-13 	101324.9999999897
0.4817317317317312 	300.0000000000331 	7.128931418538676e-13 	101324.9999999897
0.4842342342342336 	299.9999999999818 	4.527286919236205e-13 	101324.9999999899
0.4867367367367362 	299.99999999995 	1.088224853434183e-12 	101324.9999999901
0.4892392392392387 	300.000000000028 	6.553361917536847e-13 	101324.9999999903
0.4917417417417412 	300.0000000000057 	1.884609286966904e-12 	101324.9999999905
0.4942442442442437 	299.9999999999053 	8.709994260637103e-13 	101324.9999999906
0.4967467467467462 	299.9999999999276 	1.89626915104049e-12 	101324.9999999909
0.4992492492492487 	299.9999999999191 	4.191606078722499e-13 	101324.9999999911
0.5017517517517511 	299.9999999999518 	9.563764772810265e-13 	101324.9999999913
0.5042542542542537 	299.9999999999634 	4.407822498976831e-13 	101324.9999999912
0.5067567567567562 	299.9999999999394 	3.144233811890048e-13 	101324.9999999909
0.5092592592592589 	299.9999999999656 	7.857263254101586e-13 	101324.9999999907
0.5117617617617611 	299.9999999999576 	1.678074152175069e-12 	101324.9999999905
0.5142642642642637 	299.9999999999859 	1.300676079968822e-12 	101324.9999999902
0.5167667667667663 	299.9999999999724 	3.105741212658485e-12 	101324.99999999
0.5192692692692688 	299.9999999999234 	2.517555912448132e-12 	101324.9999999901
0.5217717717717714 	299.9999999999446 	4.297251128249347e-12 	101324.9999999902
0.5242742742742736 	299.9999999999461 	1.950209673297108e-12 	101324.9999999902
0.5267767767767763 	299.9999999999582 	4.151766782278976e-12 	101324.9999999905
0.5292792792792789 	299.9999999999369 	1.112482050093569e-12 	101324.9999999907
0.5317817817817813 	299.9999999999093 	3.749846244680613e-12 	101324.9999999908
0.5342842842842837 	300.0000000000211 	1.79088952259466e-12 	101324.9999999908
0.5367867867867864 	300.0000000000067 	3.422174092299409e-12 	101324.9999999907
0.5392892892892888 	299.9999999999605 	2.179170249411972e-12 	101324.9999999908
0.5417917917917912 	300.0000000000032 	3.364469302658154e-12 	101324.9999999907
0.5442942942942938 	299.9999999999868 	1.936383381114435e-12 	101324.9999999905
0.5467967967967964 	299.9999999999575 	2.914492876576801e-12 	101324.9999999907
0.5492992992992988 	299.9999999999454 	1.890989922848715e-12 	101324.9999999905
0.5518018018018012 	299.9999999999377 	2.729328187346585e-12 	101324.9999999905
0.5543043043043039 	300.0000000000199 	1.444919343251483e-12 	101324.9999999905
0.5568068068068063 	299.99999999999 	1.923074429938674e-12 	101324.9999999901
0.5593093093093087 	299.9999999999083 	1.082844851333723e-12 	101324.9999999899
0.5618118118118114 	299.9999999999645 	2.376422632623553e-12 	101324.99999999
0.5643143143143137 	299.9999999999476 	1.232309714641524e-12 	101324.9999999901
0.5668168168168163 	299.9999999999858 	2.080260663262435e-12 	101324.9999999904
0.5693193193193188 	300.0000000000316 	1.896063525845244e-12 	101324.9999999905
0.5718218218218213 	300.0000000000271 	1.3069618723414e-12 	101324.9999999906
0.5743243243243239 	300.0000000000038 	2.128929234897378e-12 	101324.9999999906
0.5768268268268262 	300.0000000000052 	1.352556599204006e-12 	101324.9999999907
0.5793293293293288 	299.9999999999494 	3.244258559793054e-12 	101324.9999999909
0.5818318318318314 	299.9999999999176 	2.082413214104966e-12 	101324.9999999912
0.5843343343343338 	299.9999999999806 	4.075074105531904e-12 	101324.9999999915
0.5868368368368363 	299.9999999999762 	1.575039925066913e-12 	101324.9999999918
0.5893393393393387 	299.9999999999482 	3.455612184000055e-12 	101324.9999999917
0.5918418418418413 	299.9999999999424 	9.959122531772034e-13 	101324.9999999917
0.5943443443443439 	300.0000000000164 	2.693999918025665e-12 	101324.9999999917
0.5968468468468463 	300.0000000000173 	9.56728748019874e-13 	101324.9999999915
0.5993493493493487 	300.0000000000334 	2.015718894046815e-12 	101324.9999999914
0.6018518518518514 	299.9999999999799 	9.986091263955371e-13 	101324.9999999912
0.6043543543543537 	299.9999999999985 	1.090723596376944e-12 	101324.9999999912
0.6068568568568564 	299.9999999999878 	1.347805267090315e-12 	101324.9999999912
0.6093593593593587 	299.9999999999388 	6.785126968133365e-13 	101324.9999999913
0.6118618618618614 	299.9999999999272 	1.721890323514427e-12 	101324.9999999913
0.6143643643643638 	300.0000000000215 	1.555789779280028e-12 	101324.9999999915
0.6168668668668662 	299.9999999999949 	1.937087755174359e-12 	101324.9999999915
0.6193693693693688 	299.9999999999615 	9.803737211044011e-13 	101324.9999999914
0.6218718718718714 	299.999999999968 	1.534480506128032e-12 	101324.9999999915
0.6243743743743737 	299.9999999999382 	1.539992145514955e-12 	101324.9999999917
0.6268768768768762 	299.9999999999283 	6.958383660487709e-13 	101324.9999999915
0.629379379379379 	299.9999999999557 	1.956796568597535e-12 	101324.9999999916
0.6318818818818812 	299.9999999999808 	1.614009668451627e-12 	101324.9999999915
0.6343843843843838 	300.0000000000146 	1.350291316655244e-12 	101324.9999999914
0.6368868868868864 	299.9999999999823 	1.954016934302047e-12 	101324.9999999915
0.6393893893893888 	299.999999999925 	1.846225042445229e-12 	101324.9999999915
0.6418918918918912 	300.0000000000023 	3.438825324583136e-12 	101324.9999999916
0.6443943943943939 	299.9999999999735 	2.732283169644263e-12 	101324.9999999917
0.6468968968968963 	299.99999999998 	4.332746381067466e-12 	101324.9999999915
0.6493993993993988 	299.9999999999717 	1.848544916332233e-12 	101324.9999999915
0.6519019019019012 	299.9999999999806 	4.079414978057466e-12 	101324.9999999914
0.6544044044044038 	299.999999999908 	1.148366457686317e-12 	101324.9999999913
0.6569069069069065 	299.999999999949 	3.551674780344314e-12 	101324.9999999913
0.6594094094094087 	299.9999999999591 	1.656886900116277e-12 	101324.9999999912
0.6619119119119113 	299.9999999999519 	2.16919979688859e-12 	101324.999999991
0.664414414414414 	300.0000000000018 	1.599908588155798e-12 	101324.9999999909
0.6669169169169162 	300.0000000000177 	1.568525279153178e-12 	101324.9999999908
0.6694194194194188 	299.9999999999832 	7.929635011380265e-13 	101324.9999999909
0.6719219219219214 	299.9999999999192 	1.310065649510069e-12 	101324.9999999909
0.674424424424424 	299.9999999999716 	1.083654552276602e-12 	101324.9999999911
0.6769269269269262 	299.9999999999253 	6.728575676708678e-13 	101324.9999999914
0.679429429429429 	300.000000000008 	5.830696842814508e-13 	101324.9999999913
0.6819319319319311 	299.9999999999823 	1.148693185561793e-12 	101324.9999999911
0.6844344344344341 	299.9999999999952 	3.834509875122617e-13 	101324.9999999909
0.686936936936936 	299.9999999999952 	4.688584798353035e-13 	101324.9999999908
0.6894394394394392 	299.9999999999975 	1.066902747407291e-12 	101324.9999999906
0.6919419419419413 	299.9999999999844 	1.69526120510345e-12 	101324.9999999905
0.694444444444444 	299.9999999999289 	1.917017804605607e-12 	101324.9999999904
0.6969469469469463 	299.9999999999279 	2.135107935032861e-12 	101324.9999999906
0.6994494494494489 	299.9999999999206 	9.209841226703237e-13 	101324.9999999908
0.7019519519519515 	299.9999999999865 	2.05024670550459e-12 	101324.9999999909
0.7044544544544538 	299.9999999999565 	1.70261598912816e-12 	101324.999999991
0.7069569569569564 	299.9999999999935 	2.353320474041623e-12 	101324.9999999908
0.7094594594594589 	299.9999999999662 	1.769811366458212e-12 	101324.9999999907
0.7119619619619615 	299.999999999916 	1.284306528159335e-12 	101324.9999999906
0.7144644644644638 	299.9999999999459 	1.627584458228756e-12 	101324.9999999905
0.7169669669669665 	299.9999999999192 	4.817781905653471e-13 	101324.9999999903
0.7194694694694688 	299.9999999999854 	6.937307814525343e-13 	101324.9999999902
0.7219719719719715 	299.9999999999775 	2.993297833955672e-13 	101324.9999999902
0.7244744744744737 	300.0000000000009 	3.732875635818409e-13 	101324.9999999903
0.7269769769769764 	299.9999999999932 	7.644633447029277e-13 	101324.9999999904
0.7294794794794791 	299.9999999999875 	1.305227260777576e-12 	101324.9999999907
0.7319819819819813 	299.9999999999811 	8.630276237933e-13 	101324.9999999909
0.7344844844844839 	299.9999999999235 	2.091674858814507e-12 	101324.9999999909
0.7369869869869864 	299.9999999999515 	1.430253224798384e-12 	101324.9999999909
0.739489489489489 	299.9999999999363 	1.363629166443319e-12 	101324.9999999908
0.7419919919919914 	299.999999999922 	1.688447068474802e-12 	101324.9999999908
0.7444944944944939 	299.9999999999733 	1.618146794748827e-12 	101324.9999999906
0.7469969969969963 	299.9999999999709 	2.327235017741836e-12 	101324.9999999907
0.7494994994994989 	299.9999999999438 	2.163687153591359e-12 	101324.9999999907
0.7520020020020015 	299.9999999999764 	2.798694375709059e-12 	101324.9999999908
0.7545045045045039 	299.9999999999725 	1.958982413195729e-12 	101324.9999999906
0.7570070070070062 	299.9999999999408 	9.848314193987299e-13 	101324.9999999905
0.7595095095095092 	299.9999999999234 	1.267143197755683e-12 	101324.9999999906
0.7620120120120112 	300.0000000000005 	4.026309207666802e-13 	101324.9999999906
0.7645145145145138 	299.9999999999847 	4.524117404754728e-13 	101324.9999999907
0.7670170170170165 	299.9999999999301 	1.055683418341729e-12 	101324.9999999906
0.7695195195195191 	299.9999999999259 	1.494126907715761e-12 	101324.9999999906
0.7720220220220213 	299.9999999999312 	1.358897690847221e-12 	101324.9999999905
0.7745245245245239 	299.9999999999353 	1.405789184055152e-12 	101324.9999999906
0.7770270270270263 	299.999999999972 	1.565791589249683e-12 	101324.9999999908
0.779529529529529 	299.9999999999803 	2.17582927663217e-13 	101324.9999999909
0.7820320320320313 	299.9999999999688 	2.109552675502492e-13 	101324.999999991
0.784534534534534 	299.999999999994 	7.590535677003082e-13 	101324.999999991
0.7870370370370364 	299.9999999999902 	1.043657899647187e-12 	101324.999999991
0.7895395395395389 	299.9999999999753 	1.203909201182914e-12 	101324.999999991
0.7920420420420413 	299.9999999999717 	2.529124489621081e-12 	101324.9999999909
0.794544544544544 	299.9999999999748 	1.756206748968854e-12 	101324.9999999908
0.7970470470470463 	300.0000000000028 	3.597856284242356e-12 	101324.9999999911
0.799549549549549 	299.999999999981 	1.506116495717872e-12 	101324.9999999913
0.8020520520520515 	299.9999999999919 	2.984587076124658e-12 	101324.999999991
0.8045545545545539 	299.9999999999519 	9.333370220229079e-13 	101324.9999999911
0.8070570570570563 	299.9999999999838 	1.680847731006843e-12 	101324.9999999912
0.8095595595595589 	299.999999999958 	1.107263059706675e-12 	101324.9999999913
0.8120620620620614 	299.9999999999345 	1.093544266474844e-12 	101324.9999999912
0.8145645645645638 	299.9999999999964 	1.431848664197622e-12 	101324.9999999912
0.8170670670670666 	299.9999999999863 	1.415537512654383e-12 	101324.9999999912
0.8195695695695689 	299.9999999999719 	2.897963606262888e-12 	101324.9999999913
0.8220720720720714 	299.9999999999469 	1.410677824587054e-12 	101324.9999999914
0.8245745745745739 	300.0000000000011 	1.41662274932348e-12 	101324.9999999913
0.8270770770770765 	299.9999999999789 	1.172252989376017e-12 	101324.9999999912
0.8295795795795788 	299.9999999999469 	9.43017086213194e-13 	101324.9999999913
0.8320820820820815 	300.0000000000151 	7.082150774754353e-13 	101324.9999999912
0.834584584584584 	300.0000000000041 	1.793161062958723e-12 	101324.9999999913
0.8370870870870865 	299.9999999999705 	2.403337882087053e-12 	101324.9999999913
0.8395895895895891 	299.9999999999302 	2.946380269407877e-12 	101324.9999999914
0.8420920920920915 	299.9999999999382 	3.644427779768152e-12 	101324.9999999914
0.844594594594594 	299.9999999999337 	3.833588799851064e-12 	101324.9999999913
0.8470970970970964 	299.9999999999433 	3.581302737074038e-12 	101324.9999999912
0.8495995995995991 	299.9999999999811 	4.190863108831332e-12 	101324.999999991
0.8521021021021015 	299.9999999999742 	3.856597821979477e-12 	101324.9999999909
0.8546046046046039 	299.9999999999732 	4.103449003560774e-12 	101324.9999999909
0.8571071071071066 	299.9999999999935 	3.05283897038886e-12 	101324.9999999908
0.8596096096096089 	299.9999999999553 	4.16762425087476e-12 	101324.9999999908
0.8621121121121116 	299.9999999999233 	1.758141984373584e-12 	101324.9999999906
0.8646146146146139 	299.9999999999845 	2.741762784564364e-12 	101324.9999999905
0.8671171171171166 	299.999999999967 	1.390342254527195e-12 	101324.9999999905
0.8696196196196189 	299.9999999999447 	1.509040597986164e-12 	101324.9999999905
0.8721221221221216 	299.9999999999734 	1.086892974196701e-12 	101324.9999999906
0.874624624624624 	299.9999999999994 	1.378007190230647e-12 	101324.9999999905
0.8771271271271264 	300.0000000000011 	1.760957725427704e-12 	101324.9999999906
0.879629629629629 	300.0000000000069 	1.844030004818813e-12 	101324.9999999907
0.8821321321321317 	299.9999999999848 	2.749067649233725e-12 	101324.9999999909
0.8846346346346339 	299.9999999999148 	1.595051809265074e-12 	101324.999999991
0.8871371371371364 	299.9999999999498 	3.01352175703308e-12 	101324.9999999913
0.8896396396396391 	299.9999999999534 	1.746207274713869e-12 	101324.9999999912
0.8921421421421414 	299.9999999999573 	2.231728539782938e-12 	101324.9999999912
0.8946446446446441 	299.9999999999828 	1.49511424696796e-12 	101324.9999999912
0.8971471471471464 	300.0000000000027 	1.553826121593011e-12 	101324.9999999909
0.8996496496496489 	299.9999999999769 	1.490435596474705e-12 	101324.9999999906
0.9021521521521517 	299.999999999961 	1.318832660027763e-12 	101324.9999999902
0.9046546546546541 	299.9999999999896 	1.968616221414407e-12 	101324.9999999899
0.9071571571571564 	299.9999999999467 	2.014792941613941e-12 	101324.9999999898
0.9096596596596589 	299.999999999947 	1.411586703156638e-12 	101324.9999999898
0.9121621621621616 	300.0000000000067 	1.444567935933083e-12 	101324.9999999901
0.9146646646646639 	299.999999999982 	1.50939429918899e-12 	101324.9999999904
0.9171671671671666 	299.9999999999475 	2.115723785876618e-12 	101324.9999999904
0.9196696696696689 	300.0000000000024 	2.064112594108925e-12 	101324.9999999904
0.9221721721721714 	300.0000000000049 	3.259115327267743e-12 	101324.9999999905
0.9246746746746741 	299.9999999999462 	1.481833205906616e-12 	101324.9999999909
0.9271771771771765 	299.9999999999482 	2.139651760247599e-12 	101324.9999999909
0.9296796796796791 	299.9999999999915 	9.899838674048747e-13 	101324.9999999911
0.9321821821821816 	299.999999999966 	1.695950762383597e-12 	101324.9999999911
0.9346846846846838 	299.99999999994 	9.145254900716619e-13 	101324.999999991
0.9371871871871866 	299.9999999999958 	1.170846229002919e-12 	101324.9999999907
0.9396896896896891 	299.9999999999972 	1.523072851158388e-12 	101324.9999999907
0.9421921921921914 	299.999999999997 	1.551863418587395e-12 	101324.9999999906
0.9446946946946939 	299.9999999999587 	2.577419767050705e-12 	101324.9999999906
0.9471971971971965 	299.9999999999187 	1.811406703792927e-12 	101324.9999999905
0.9496996996996991 	299.9999999999566 	2.291105349791492e-12 	101324.9999999904
0.9522022022022016 	299.9999999999686 	1.30226242383549e-12 	101324.9999999903
0.9547047047047038 	299.9999999999691 	2.21719700939466e-12 	101324.9999999903
0.9572072072072064 	299.9999999999625 	1.687016279486342e-12 	101324.9999999901
0.9597097097097093 	299.9999999999748 	1.932956651986177e-12 	101324.9999999899
0.9622122122122114 	299.9999999999658 	1.575524296218709e-12 	101324.9999999898
0.964714714714714 	299.9999999999643 	1.060527867233006e-12 	101324.9999999898
0.9672172172172167 	299.9999999999634 	1.46997780065657e-12 	101324.9999999898
0.969719719719719 	299.9999999999893 	1.647620781929263e-12 	101324.9999999899
0.9722222222222214 	299.9999999999801 	2.278794687450648e-12 	101324.99999999
0.9747247247247239 	299.9999999999718 	2.545217332903737e-12 	101324.99999999
0.9772272272272267 	299.9999999999972 	2.449512019527e-12 	101324.9999999899
0.9797297297297292 	299.9999999999908 	3.093233482050307e-12 	101324.9999999898
0.9822322322322313 	299.9999999999957 	2.338917296946541e-12 	101324.9999999896
0.9847347347347344 	299.9999999999868 	3.453145022881727e-12 	101324.9999999896
0.9872372372372363 	299.9999999999529 	1.890524322706398e-12 	101324.9999999896
0.9897397397397389 	299.9999999999668 	2.860252098563953e-12 	101324.9999999896
0.9922422422422417 	299.9999999999433 	1.693252852606721e-12 	101324.9999999897
0.9947447447447441 	299.9999999999515 	2.435747634605618e-12 	101324.9999999897
0.9972472472472468 	299.9999999999609 	1.791578097129894e-12 	101324.9999999899
0.999749749749749 	299.9999999999587 	2.023017530468309e-12 	101324.99999999
1.002252252252252 	299.9999999999783 	2.337407898332965e-12 	101324.9999999902
1.004754754754754 	299.9999999999787 	3.215710999324601e-12 	101324.9999999902
1.007257257257256 	299.9999999999578 	4.357903860735652e-12 	101324.9999999903
1.009759759759759 	299.9999999999486 	3.296329164258097e-12 	101324.9999999904
1.012262262262261 	299.9999999999565 	4.162092133908601e-12 	101324.9999999905
1.014764764764764 	299.999999999923 	3.071770570739434e-12 	101324.9999999905
1.017267267267267 	299.9999999999112 	3.460985907403809e-12 	101324.9999999903
1.019769769769769 	299.9999999999641 	2.658962197508679e-12 	101324.9999999902
1.022272272272272 	299.999999999972 	2.995333699489275e-12 	101324.9999999898
1.024774774774774 	299.9999999999629 	2.537616757664218e-12 	101324.9999999895
1.027277277277277 	299.9999999999625 	2.2401084726618e-12 	101324.9999999891
1.029779779779779 	299.9999999999939 	2.334479247078619e-12 	101324.9999999889
1.032282282282282 	299.9999999999939 	2.218219961313241e-12 	101324.9999999888
1.034784784784784 	299.9999999999822 	1.943749131230072e-12 	101324.9999999886
1.037287287287286 	299.9999999999545 	1.603684808415806e-12 	101324.9999999886
1.039789789789789 	299.9999999999742 	1.179311889156293e-12 	101324.9999999884
1.042292292292291 	300.0000000000084 	1.360799259682417e-12 	101324.9999999883
1.044794794794794 	300.0000000000098 	1.927226448651869e-12 	101324.9999999884
1.047297297297296 	300.0000000000335 	2.570117483801384e-12 	101324.9999999883
1.049799799799799 	299.9999999999791 	1.767994911644981e-12 	101324.9999999883
1.052302302302302 	299.9999999999487 	1.881744030474459e-12 	101324.9999999883
1.054804804804804 	299.9999999999317 	1.015643677275865e-12 	101324.9999999883
1.057307307307306 	299.9999999999076 	1.529969394299026e-12 	101324.9999999882
1.059809809809809 	299.9999999999452 	1.055544082559979e-12 	101324.9999999883
1.062312312312312 	299.9999999999451 	1.785402950626391e-12 	101324.9999999884
1.064814814814814 	299.999999999944 	1.530391163850675e-12 	101324.9999999886
1.067317317317317 	299.9999999999137 	1.641026628076858e-12 	101324.9999999886
1.069819819819819 	299.9999999999126 	1.64720959924168e-12 	101324.9999999887
1.072322322322321 	299.9999999999725 	9.963981977591752e-13 	101324.9999999888
1.074824824824824 	299.9999999999819 	1.859129931765988e-12 	101324.9999999888
1.077327327327327 	300.0000000000066 	1.177566005767733e-12 	101324.9999999889
1.079829829829829 	300.0000000000268 	2.262141897632117e-12 	101324.9999999887
1.082332332332332 	299.9999999999999 	2.299047528996574e-12 	101324.9999999886
1.084834834834834 	299.9999999999779 	2.861497042209011e-12 	101324.9999999885
1.087337337337337 	299.9999999999349 	3.890828418351442e-12 	101324.9999999885
1.089839839839839 	299.9999999999297 	3.236440748661713e-12 	101324.9999999887
1.092342342342342 	299.9999999999638 	3.909106652530172e-12 	101324.9999999887
1.094844844844844 	299.9999999999743 	3.659426658901619e-12 	101324.9999999888
1.097347347347347 	299.9999999999451 	4.352169678931224e-12 	101324.9999999889
1.099849849849849 	299.9999999999332 	2.585894576847456e-12 	101324.999999989
1.102352352352352 	299.9999999999483 	3.5807360355603e-12 	101324.9999999889
1.104854854854854 	299.999999999965 	2.107815037307797e-12 	101324.999999989
1.107357357357357 	299.9999999999585 	3.057761375813777e-12 	101324.9999999892
1.109859859859859 	299.9999999999379 	2.355715421145094e-12 	101324.9999999892
1.112362362362362 	300.0000000000048 	3.336627235186138e-12 	101324.9999999891
1.114864864864865 	300.0000000000059 	3.461505561588115e-12 	101324.9999999891
1.117367367367367 	299.9999999999633 	3.500031580531428e-12 	101324.999999989
1.119869869869869 	299.9999999999259 	3.982943157889972e-12 	101324.9999999892
1.122372372372372 	299.9999999999363 	3.325743221856731e-12 	101324.9999999894
1.124874874874874 	299.9999999999349 	4.023544073305738e-12 	101324.9999999894
1.127377377377377 	299.9999999999587 	4.023460262071328e-12 	101324.9999999893
1.129879879879879 	300.0000000000223 	4.206710372975835e-12 	101324.999999989
1.132382382382382 	300.0000000000262 	3.664835841828245e-12 	101324.9999999889
1.134884884884884 	299.9999999999982 	3.674980905951849e-12 	101324.9999999888
1.137387387387387 	300.0000000000076 	3.841159151456895e-12 	101324.9999999888
1.139889889889889 	299.9999999999544 	3.907440335551059e-12 	101324.9999999889
1.142392392392392 	299.9999999999465 	4.959960651642675e-12 	101324.9999999889
1.144894894894894 	299.9999999999973 	4.255356787905503e-12 	101324.9999999888
1.147397397397397 	299.9999999999788 	4.802959442445183e-12 	101324.9999999884
1.149899899899899 	299.9999999999264 	3.847864816521498e-12 	101324.999999988
1.152402402402402 	299.9999999999176 	3.513083625405141e-12 	101324.9999999878
1.154904904904904 	299.9999999999496 	2.550145965615795e-12 	101324.9999999877
1.157407407407407 	299.9999999999518 	2.544506059042553e-12 	101324.9999999876
1.159909909909909 	299.9999999999299 	2.404041555896343e-12 	101324.9999999878
1.162412412412412 	299.9999999999253 	1.585787748432869e-12 	101324.9999999879
1.164914914914914 	299.9999999999441 	2.692768216944643e-12 	101324.9999999882
1.167417417417417 	299.9999999999419 	2.613693123753197e-12 	101324.9999999886
1.169919919919919 	299.9999999999883 	3.5857476560448e-12 	101324.9999999886
1.172422422422422 	300.0000000000201 	3.36699573367303e-12 	101324.9999999885
1.174924924924925 	299.9999999999733 	4.1177343182096e-12 	101324.9999999884
1.177427427427427 	299.9999999999437 	3.913813698186251e-12 	101324.9999999882
1.179929929929929 	299.999999999993 	3.264152407723165e-12 	101324.9999999881
1.182432432432432 	300.0000000000225 	4.086393002409232e-12 	101324.999999988
1.184934934934934 	299.9999999999991 	3.42314527940546e-12 	101324.9999999879
1.187437437437437 	299.9999999999763 	3.883207495898345e-12 	101324.9999999878
1.189939939939939 	299.9999999999629 	3.204536013096132e-12 	101324.9999999877
1.192442442442442 	299.9999999999266 	3.758233229080386e-12 	101324.9999999879
1.194944944944944 	299.9999999999278 	3.099409284930069e-12 	101324.9999999881
1.197447447447447 	299.9999999999809 	3.392264099723787e-12 	101324.9999999882
1.199949949949949 	299.9999999999952 	3.437120563718254e-12 	101324.9999999881
1.202452452452452 	299.9999999999479 	3.122630020213016e-12 	101324.9999999881
1.204954954954955 	299.9999999999407 	4.092238942130193e-12 	101324.9999999882
1.207457457457457 	299.9999999999624 	3.580211590015065e-12 	101324.9999999883
1.20995995995996 	299.9999999999606 	4.64726144552436e-12 	101324.9999999884
1.212462462462462 	299.9999999999768 	4.32961371113006e-12 	101324.9999999884
1.214964964964964 	299.9999999999831 	5.062423025159851e-12 	101324.9999999884
1.217467467467467 	299.99999999999 	4.06720119153566e-12 	101324.9999999883
1.219969969969969 	299.9999999999638 	4.393916496476514e-12 	101324.999999988
1.222472472472472 	300.0000000000009 	4.194337087604949e-12 	101324.999999988
1.224974974974975 	300.00000000004 	4.552727270422503e-12 	101324.9999999884
1.227477477477477 	299.9999999999891 	6.091470787145349e-12 	101324.9999999884
1.229979979979979 	299.9999999999731 	5.622490718993142e-12 	101324.9999999884
1.232482482482482 	299.9999999999499 	6.840044834379923e-12 	101324.9999999887
1.234984984984984 	299.9999999999504 	6.237177455763534e-12 	101324.9999999889
1.237487487487487 	299.999999999972 	7.192672445838661e-12 	101324.9999999889
1.239989989989989 	299.9999999999744 	6.396843926988074e-12 	101324.9999999889
1.242492492492492 	300.0000000000041 	5.421982656501174e-12 	101324.9999999886
1.244994994994994 	299.9999999999797 	5.815140484228517e-12 	101324.9999999884
1.247497497497497 	299.999999999994 	4.623233078554871e-12 	101324.9999999882
1.249999999999999 	300.0000000000326 	5.12909505526563e-12 	101324.9999999881
