-1.25 	300.0078941304495 	1 	101372.5528258148
-1.247497497497497 	300.008138962169 	1.110667968704654 	101336.0429549474
-1.244994994994995 	300.0118810873401 	1.085961375492553 	101340.2501822319
-1.242492492492492 	300.0112441738917 	0.9735134602189169 	101338.515459673
-1.23998998998999 	300.0083376695753 	1.067163457423919 	101334.9052296473
-1.237487487487487 	300.0080332378096 	1.033002619576609 	101334.3752739397
-1.234984984984985 	300.0052016794719 	0.9990743480784424 	101331.2817731098
-1.232482482482482 	300.0022481418101 	1.017660608373367 	101327.6271275535
-1.22997997997998 	299.9989545559363 	0.9892923496395751 	101323.7894624809
-1.227477477477477 	299.9954008132031 	0.9906684819800683 	101319.5533429714
-1.224974974974975 	299.9918350499203 	0.9767564294408901 	101315.3500174638
-1.222472472472472 	299.9886156339084 	0.966894063530698 	101311.5429204067
-1.21996996996997 	299.9863431774773 	0.9608782545481491 	101308.8559320939
-1.217467467467467 	299.9852818133055 	0.9575855388891408 	101307.6016297692
-1.214964964964965 	299.9847156274567 	0.9554583972569513 	101306.9321810381
-1.212462462462462 	299.9834712888843 	0.9516383895776428 	101305.4611874069
-1.20995995995996 	299.9809834220367 	0.9446040426716868 	101302.5209114281
-1.207457457457457 	299.9777101852144 	0.9355671952712366 	101298.6521690595
-1.204954954954955 	299.9748453508797 	0.9277385405549561 	101295.2658469055
-1.202452452452452 	299.9736347721727 	0.9244404750954804 	101293.8356681205
-1.19994994994995 	299.9746102808934 	0.9270727831676213 	101294.9891394994
-1.197447447447447 	299.977243551799 	0.9342634042597244 	101298.1005033833
-1.194944944944945 	299.980378175661 	0.9429973418278749 	101301.8048584673
-1.192442442442442 	299.9830823471129 	0.9507340556270327 	101305.0013567172
-1.18993993993994 	299.9850751484811 	0.956594083270806 	101307.3568814179
-1.187437437437437 	299.9865821948504 	0.9611196498709191 	101309.1382473611
-1.184934934934935 	299.9880260507721 	0.9654078672211053 	101310.8450773236
-1.182432432432432 	299.9896895464816 	0.9702297616494446 	101312.8114277699
-1.17992992992993 	299.9916058254253 	0.9758112010966974 	101315.0765434328
-1.177427427427427 	299.9938741814784 	0.9825219646233491 	101317.758048631
-1.174924924924925 	299.9968459392383 	0.991215333751386 	101321.2710984687
-1.172422422422422 	300.0007163308225 	1.002280515719 	101325.846399565
-1.16991991991992 	300.0050857213122 	1.014620875022312 	101331.0120361127
-1.167417417417417 	300.0091069581048 	1.02597822489417 	101335.7664047019
-1.164914914914915 	300.0120035810021 	1.034280810905396 	101339.191082756
-1.162412412412412 	300.0135517741698 	1.038960661476753 	101341.0215280745
-1.15990990990991 	300.014279610676 	1.041435849031749 	101341.8822326252
-1.157407407407407 	300.0151623349452 	1.044283278860893 	101342.9260236794
-1.154904904904904 	300.0169706330394 	1.04954647096357 	101345.0637543287
-1.152402402402403 	300.0197682493364 	1.057391323236819 	101348.371451618
-1.1498998998999 	300.0228585080398 	1.065939786700873 	101352.0255062628
-1.147397397397397 	300.0251663636816 	1.072314360054098 	101354.7542965919
-1.144894894894895 	300.0258746529583 	1.074336546837032 	101355.5911733843
-1.142392392392392 	300.0249141995349 	1.07178106271688 	101354.4554600524
-1.13988988988989 	300.0228858745137 	1.066170602621951 	101352.0578750948
-1.137387387387387 	300.0204991780392 	1.059396451519225 	101349.2362730447
-1.134884884884885 	300.018149346646 	1.052631936763512 	101346.4579176838
-1.132382382382382 	300.0159714530091 	1.046351734700946 	101343.8827644642
-1.12987987987988 	300.0140455239944 	1.040788490360526 	101341.6056835068
-1.127377377377377 	300.0124036463059 	1.035976147414656 	101339.6644891637
-1.124874874874875 	300.0108828316199 	1.031410568370247 	101337.866352035
-1.122372372372372 	300.0090505725733 	1.025906490655258 	101335.7002517084
-1.11986986986987 	300.0063939708747 	1.018142406818964 	101332.559532033
-1.117367367367367 	300.0027506111988 	1.00776788658458 	101328.2521981902
-1.114864864864865 	299.9986093054636 	0.9961179633089335 	101323.3564575049
-1.112362362362362 	299.9948907155001 	0.9856232800220439 	101318.9603163547
-1.10985985985986 	299.9923274164727 	0.9782121996514399 	101315.9300138905
-1.107357357357357 	299.9909502326771 	0.9739570712808951 	101314.3021241889
-1.104854854854855 	299.9900456361295 	0.9709570083417427 	101313.2326740442
-1.102352352352353 	299.9886045276705 	0.966542021815224 	101311.5292139101
-1.09984984984985 	299.9859951897702 	0.9590562590068019 	101308.4450660933
-1.097347347347347 	299.9824183900887 	0.9490387885234058 	101304.2170426625
-1.094844844844845 	299.9787913725816 	0.9389168087893297 	101299.9298871016
-1.092342342342342 	299.9761394695249 	0.9314304872548708 	101296.7953974776
-1.08983983983984 	299.9749892046924 	0.9280522734673183 	101295.4357904148
-1.087337337337337 	299.9752248398278 	0.9285726390071887 	101295.7147446953
-1.084834834834835 	299.9764105439676 	0.931868432216052 	101297.1158421971
-1.082332332332332 	299.9781609707863 	0.936854350379832 	101299.1842227047
-1.07982982982983 	299.9802286949827 	0.9427577133199827 	101301.6282916427
-1.077327327327327 	299.9823663027083 	0.9488348584960085 	101304.1549768439
-1.074824824824825 	299.9842635856068 	0.9542454842670479 	101306.3976155827
-1.072322322322323 	299.9856975758025 	0.9584235258743641 	101308.0927464754
-1.06981981981982 	299.9867398513659 	0.9616028797259901 	101309.3247465782
-1.067317317317317 	299.9878259924038 	0.9649939879092947 	101310.6085775808
-1.064814814814815 	299.9896096504175 	0.9703576688643307 	101312.716923603
-1.062312312312312 	299.9926004119209 	0.9790063238637556 	101316.2522071319
-1.05980980980981 	299.9967381669196 	0.990715447615604 	101321.1435484417
-1.057307307307307 	300.0012762341224 	1.003481261302893 	101326.5083523391
-1.054804804804805 	300.0052039916536 	1.014629562272569 	101331.1520130151
-1.052302302302302 	300.0079103044617 	1.022523921552458 	101334.3516561253
-1.0497997997998 	300.0095382851065 	1.027507431698912 	101336.2763844032
-1.047297297297297 	300.0107988667432 	1.031444285623083 	101337.7668293024
-1.044794794794795 	300.012452893207 	1.036364052948461 	101339.7222614386
-1.042292292292292 	300.014846700365 	1.043223098737764 	101342.5524659278
-1.03978978978979 	300.0177839764738 	1.051538119611248 	101346.0253940586
-1.037287287287287 	300.0207461472926 	1.059925721124835 	101349.5277601553
-1.034784784784785 	300.0232049657299 	1.066907705530213 	101352.4351968413
-1.032282282282283 	300.0247695385839 	1.07134643551552 	101354.2853072774
-1.02977977977978 	300.0251882755133 	1.07252751098945 	101354.7797692557
-1.027277277277277 	300.0243939377245 	1.070311581557224 	101353.8404059589
-1.024774774774775 	300.0226321837343 	1.065416736127046 	101351.7579851818
-1.022272272272272 	300.020465126476 	1.059371814377238 	101349.1958839737
-1.01976976976977 	300.0185130237796 	1.053835533683783 	101346.8877834476
-1.017267267267267 	300.0170904289694 	1.049642461220067 	101345.2057058902
-1.014764764764765 	300.0160035402915 	1.046272916816449 	101343.9205645844
-1.012262262262262 	300.0146634511959 	1.042160943491486 	101342.3362332104
-1.00975975975976 	300.0124626945035 	1.035707859039036 	101339.7343017843
-1.007257257257257 	300.0092049981917 	1.026426007278094 	101335.8827499086
-1.004754754754755 	300.0053134183144 	1.0154666321893 	101331.281955279
-1.002252252252252 	300.0016268574061 	1.005063358482955 	101326.9235014225
-0.9997497497497498 	299.9988783073815 	0.9971574061168851 	101323.6740767462
-0.9972472472472473 	299.9972131513115 	0.992131914032725 	101321.7055389997
-0.9947447447447449 	299.9960919083487 	0.9885587788147425 	101320.3800422198
-0.9922422422422421 	299.9946493260454 	0.9841420853755639 	101318.674771761
-0.9897397397397399 	299.9922539637367 	0.9771947678911667 	101315.8432115759
-0.9872372372372376 	299.9888851301175 	0.9676393702655995 	101311.8610123292
-0.9847347347347346 	299.9850856290155 	0.9568959377097161 	101307.3697242037
-0.9822322322322323 	299.9815619889077 	0.9468587085103406 	101303.2046383138
-0.9797297297297296 	299.9787821985452 	0.938850351027535 	101299.9188985407
-0.9772272272272275 	299.9768829814609 	0.9333470970510133 	101297.6739219163
-0.9747247247247248 	299.9758714741642 	0.9304462623546667 	101296.4783821725
-0.9722222222222224 	299.9758183635896 	0.9303281610393409 	101296.4162166992
-0.9697197197197196 	299.976794480317 	0.9330972991608362 	101297.5697409656
-0.9672172172172175 	299.9786241741652 	0.938204258719226 	101299.7318262686
-0.9647147147147147 	299.9807849148445 	0.9442203146368562 	101302.2857029179
-0.9622122122122124 	299.9826276387763 	0.9494125047978866 	101304.4638470998
-0.9597097097097099 	299.9837657945127 	0.9527598624140126 	101305.8092437421
-0.9572072072072073 	299.9843361847261 	0.9546359743611261 	101306.4835172821
-0.9547047047047047 	299.9849373555729 	0.9566472747884595 	101307.1942155946
-0.9522022022022023 	299.9862877566684 	0.960721256702975 	101308.7904219826
-0.9496996996996998 	299.9888150048287 	0.9680058033135794 	101311.7775606154
-0.9471971971971973 	299.9924156245383 	0.9782248147641875 	101316.033663143
-0.9446946946946947 	299.9965188973151 	0.9898423607623086 	101320.8843423826
-0.9421921921921923 	300.000399142979 	1.000890349081772 	101325.471524951
-0.93968968968969 	300.0035363477062 	1.009943342070369 	101329.1804113
-0.9371871871871872 	300.0058350634062 	1.016723247478997 	101331.8981542684
-0.9346846846846848 	300.0076198256705 	1.022095859387992 	101334.0081891041
-0.9321821821821823 	300.0094347879181 	1.027529470959202 	101336.1539306951
-0.9296796796796799 	300.0117512201452 	1.034294931322172 	101338.8926081435
-0.9271771771771771 	300.014713409423 	1.042772810095853 	101342.3948096589
-0.9246746746746748 	300.0180402699664 	1.052190268297393 	101346.3283476695
-0.9221721721721724 	300.0211384699235 	1.060930616814797 	101349.9916807367
-0.9196696696696698 	300.023378738911 	1.067285067427706 	101352.6407044898
-0.9171671671671672 	300.0244027030843 	1.07028146096821 	101353.8514126106
-0.9146646646646649 	300.0242971803148 	1.070144529138718 	101353.726219774
-0.9121621621621623 	300.0235183452202 	1.068086242493101 	101352.8057033234
-0.9096596596596597 	300.0225923648381 	1.065496429564426 	101351.711126811
-0.9071571571571573 	300.0217652362829 	1.063032893567847 	101350.7331348882
-0.9046546546546547 	300.0208613928354 	1.060252915715916 	101349.664452558
-0.9021521521521524 	300.0194571343319 	1.056063321920935 	101348.0041363476
-0.8996496496496498 	300.0172356933202 	1.049649811698596 	101345.377647062
-0.8971471471471473 	300.014260548492 	1.041196628740368 	101341.8600211876
-0.894644644644645 	300.0109770260883 	1.031901096350709 	101337.9778535158
-0.892142142142142 	300.0079669697244 	1.023334805202634 	101334.4190537751
-0.8896396396396397 	300.0056436378617 	1.016625797404057 	101331.6722122564
-0.8871371371371374 	300.0040638008242 	1.011935850567839 	101329.8044114075
-0.8846346346346349 	300.0029194325556 	1.008424093006996 	101328.4515077924
-0.8821321321321324 	300.0016772342238 	1.004625107242634 	101326.9829949157
-0.8796296296296297 	299.9997961232669 	0.9990534920258 	101324.7592383102
-0.8771271271271271 	299.9969507597328 	0.9908239754526833 	101321.3955913209
-0.8746246246246248 	299.9931841903323 	0.9800653741277788 	101316.9430221271
-0.8721221221221224 	299.9889150951643 	0.9679312583199925 	101311.8965178073
-0.8696196196196196 	299.9847768727696 	0.9561620534196914 	101307.0048153461
-0.8671171171171175 	299.9813633500772 	0.9463983587328477 	101302.969890362
-0.8646146146146148 	299.9790137115646 	0.9395955422681561 	101300.1924919288
-0.8621121121121121 	299.9777399013833 	0.9358214126960498 	101298.6868039319
-0.8596096096096097 	299.977315507415 	0.9344858973179713 	101298.1852194995
-0.857107107107107 	299.9774516057768 	0.9348080574855102 	101298.3462170767
-0.8546046046046049 	299.9779475851001 	0.9362233738782657 	101298.9322710366
-0.8521021021021022 	299.9787394556712 	0.9385282405128372 	101299.868069863
-0.8495995995995997 	299.9798506179123 	0.9417553954150363 	101301.1814168857
-0.8470970970970974 	299.9812980433944 	0.9459283274435272 	101302.8922598099
-0.8445945945945946 	299.9830244894437 	0.950881385815757 	101304.9329117622
-0.8420920920920922 	299.9848989373441 	0.9562586466016584 	101307.1485817496
-0.8395895895895897 	299.986779224261 	0.9616789586982999 	101309.3711723495
-0.8370870870870872 	299.9885939994515 	0.9669546708190269 	101311.5163654635
-0.8345845845845846 	299.9903932589739 	0.9722259904538335 	101313.6432636224
-0.8320820820820823 	299.9923355510184 	0.97792528026363 	101315.9392068387
-0.8295795795795798 	299.9946154417191 	0.9845805331194872 	101318.6342952379
-0.8270770770770772 	299.9973671111956 	0.9925528515335094 	101321.887143477
-0.8245745745745746 	300.000590574703 	1.001836550407154 	101325.697815274
-0.8220720720720721 	300.0041367417931 	1.012018324847407 	101329.8901591752
-0.8195695695695699 	300.0077574745662 	1.022412027843524 	101334.1707593137
-0.817067067067067 	300.0111939783582 	1.032299453289364 	101338.2337263761
-0.8145645645645651 	300.0142615686228 	1.041161778869011 	101341.8606482523
-0.8120620620620621 	300.0168936588612 	1.048802024547461 	101344.9727091754
-0.8095595595595597 	300.0191310095406 	1.055318450239991 	101347.6181391193
-0.8070570570570572 	300.0210678846644 	1.060958473522522 	101349.9082919999
-0.8045545545545546 	300.0227830081645 	1.065930951811683 	101351.9362887751
-0.8020520520520523 	300.0242874126606 	1.070262029628721 	101353.7151834325
-0.7995495495495494 	300.0255084324937 	1.073749094168286 	101355.1589720561
-0.7970470470470474 	300.0263114114644 	1.076019486488494 	101356.1085070155
-0.7945445445445446 	300.0265471127443 	1.076658516862904 	101356.3869060377
-0.7920420420420423 	300.0261016280921 	1.075352012561951 	101355.8599001813
-0.7895395395395397 	300.0249365827676 	1.071997203833756 	101354.4828041273
-0.7870370370370371 	300.0231076680873 	1.066748268127498 	101352.3205397939
-0.7845345345345348 	300.020750509573 	1.059987634241931 	101349.5334589302
-0.7820320320320323 	300.0180529141269 	1.052247185387564 	101346.3438856235
-0.7795295295295296 	300.0152202031253 	1.04410965198666 	101342.9946131645
-0.7770270270270272 	300.0124420588048 	1.03611608202877 	101339.7099196074
-0.7745245245245247 	300.0098692568703 	1.028699296750527 	101336.6680650339
-0.7720220220220222 	300.0076025735925 	1.022151180974936 	101333.9881827676
-0.7695195195195199 	300.0056925181655 	1.016620742917437 	101331.7299709071
-0.767017017017017 	300.0041467273384 	1.01213422598363 	101329.902440998
-0.7645145145145147 	300.0029413734909 	1.008627002161655 	101328.4774091374
-0.7620120120120122 	300.0020333652502 	1.005978106372401 	101327.4039213217
-0.7595095095095097 	300.0013710852114 	1.004040922100516 	101326.6209475428
-0.7570070070070072 	300.0009024942659 	1.002666566715219 	101326.0669620233
-0.7545045045045048 	300.0005803433354 	1.001719114978612 	101325.6861036529
-0.7520020020020022 	300.0003648358904 	1.001083542483752 	101325.431323087
-0.7494994994994997 	300.0002243756901 	1.000668138245942 	101325.265265923
-0.7469969969969972 	300.0001350815921 	1.000403311107195 	101325.1596990704
-0.7444944944944945 	300.0000796560291 	1.000238465582927 	101325.0941728257
-0.7419919919919924 	300.0000460350317 	1.00013818669305 	101325.0544246997
-0.7394894894894897 	300.0000260877003 	1.000078521974276 	101325.0308421459
-0.7369869869869872 	300.0000145037233 	1.000043774115553 	101325.0171470392
-0.7344844844844846 	300.0000079145282 	1.000023952432779 	101325.0093569794
-0.7319819819819822 	300.0000042410105 	1.000012870110027 	101325.0050139401
-0.7294794794794797 	300.0000022325254 	1.000006793575473 	101325.0026393949
-0.7269769769769773 	300.0000011549993 	1.000003524305897 	101325.0013654845
-0.7244744744744747 	300.0000005874724 	1.000001797523252 	101325.0006945331
-0.721971971971972 	300.000000293864 	1.000000901692548 	101325.0003474413
-0.7194694694694695 	300.0000001446212 	1.000000445016739 	101325.0001710024
-0.7169669669669674 	300.0000000700244 	1.000000216159135 	101325.0000828319
-0.7144644644644647 	300.0000000334003 	1.000000103368493 	101325.0000395003
-0.711961961961962 	300.000000015706 	1.00000004868003 	101325.0000185497
-0.7094594594594597 	300.0000000072718 	1.000000022587584 	101325.0000085804
-0.7069569569569573 	300.0000000033083 	1.000000010324255 	101325.00000391
-0.7044544544544545 	300.0000000014922 	1.000000004653106 	101325.0000017553
-0.7019519519519523 	300.0000000006664 	1.000000002069819 	101325.0000007757
-0.6994494494494495 	300.0000000002624 	1.000000000908018 	101325.0000003367
-0.6969469469469471 	300.0000000001038 	1.000000000393212 	101325.0000001426
-0.6944444444444446 	300.0000000000444 	1.000000000167687 	101325.0000000577
-0.6919419419419421 	300.0000000000389 	1.00000000007016 	101325.0000000213
-0.6894394394394396 	299.9999999999944 	1.000000000029586 	101325.0000000059
-0.6869369369369374 	299.9999999999932 	1.000000000012905 	101324.9999999993
-0.6844344344344344 	299.999999999998 	1.000000000005863 	101324.9999999964
-0.6819319319319321 	299.9999999999673 	1.000000000002378 	101324.9999999953
-0.6794294294294296 	299.9999999999686 	1.000000000000624 	101324.9999999952
-0.6769269269269272 	299.9999999999543 	0.9999999999994504 	101324.9999999953
-0.6744244244244245 	299.999999999979 	0.999999999999397 	101324.9999999953
-0.6719219219219222 	299.9999999999524 	0.9999999999991467 	101324.9999999953
-0.6694194194194195 	299.9999999999845 	0.9999999999989823 	101324.9999999952
-0.6669169169169172 	300.0000000000012 	0.9999999999989923 	101324.9999999951
-0.6644144144144146 	299.9999999999984 	0.9999999999991463 	101324.999999995
-0.661911911911912 	299.999999999996 	0.9999999999987497 	101324.9999999952
-0.6594094094094097 	299.9999999999804 	0.9999999999988221 	101324.9999999951
-0.656906906906907 	299.9999999999691 	1.000000000000036 	101324.9999999952
-0.6544044044044046 	299.9999999999421 	1.000000000000935 	101324.9999999952
-0.6519019019019021 	299.9999999999503 	1.000000000001281 	101324.999999995
-0.6493993993993996 	299.9999999999941 	1.000000000000034 	101324.9999999951
-0.6468968968968971 	300.0000000000055 	1.000000000007445 	101324.9999999951
-0.6443943943943946 	300.0000000000135 	0.9999999999964744 	101324.9999999948
-0.6418918918918921 	300.0000000000217 	0.9999999999955141 	101324.9999999946
-0.6393893893893897 	300.0000000000232 	0.9999999999987486 	101324.9999999949
-0.6368868868868871 	300.0000000000238 	0.9999999999987902 	101324.9999999953
-0.6343843843843846 	300.0000000000232 	0.999999999998392 	101324.9999999957
-0.6318818818818821 	299.9999999999869 	0.9999999999990299 	101324.999999996
-0.6293793793793795 	299.9999999999919 	0.9999999999990934 	101324.9999999962
-0.6268768768768773 	299.9999999999969 	0.9999999999983238 	101324.9999999958
-0.6243743743743745 	299.9999999999669 	1.000000000002633 	101324.9999999955
-0.6218718718718721 	299.9999999999761 	0.9999999999984488 	101324.9999999954
-0.6193693693693696 	299.9999999999615 	0.9999999999984029 	101324.9999999954
-0.6168668668668671 	299.9999999999879 	0.9999999999999732 	101324.9999999952
-0.6143643643643645 	300.0000000000026 	1.000000000000187 	101324.999999995
-0.6118618618618621 	300.0000000000147 	0.9999999999995567 	101324.9999999946
-0.6093593593593596 	300.0000000000268 	0.9999999999987892 	101324.9999999945
-0.6068568568568571 	299.9999999999862 	0.9999999999990985 	101324.9999999946
-0.6043543543543546 	299.9999999999759 	0.999999999999875 	101324.9999999948
-0.6018518518518521 	299.9999999999629 	0.999999999999945 	101324.9999999945
-0.5993493493493496 	299.9999999999773 	0.9999999999999567 	101324.9999999942
-0.5968468468468471 	299.9999999999856 	0.9999999999994795 	101324.999999994
-0.5943443443443446 	299.9999999999863 	1.000000000000006 	101324.9999999939
-0.591841841841842 	299.9999999999533 	1.000000000000742 	101324.9999999941
-0.5893393393393397 	299.9999999999567 	1.000000000000679 	101324.999999994
-0.5868368368368371 	299.9999999999832 	0.9999999999993545 	101324.9999999936
-0.5843343343343346 	300.0000000000152 	1.00000000000657 	101324.9999999937
-0.5818318318318321 	300.0000000000233 	0.9999999999958571 	101324.999999994
-0.5793293293293297 	299.9999999999812 	0.9999999999972767 	101324.9999999942
-0.5768268268268271 	299.9999999999868 	1.000000000001647 	101324.9999999943
-0.5743243243243245 	299.9999999999989 	1.000000000001588 	101324.9999999948
-0.5718218218218221 	299.9999999999969 	1.000000000000677 	101324.999999995
-0.5693193193193196 	300.0000000000115 	1.000000000000359 	101324.9999999947
-0.5668168168168171 	300.0000000000074 	0.9999999999998046 	101324.9999999942
-0.5643143143143147 	299.9999999999592 	0.9999999999999658 	101324.9999999946
-0.5618118118118121 	299.9999999999888 	1.00000000000533 	101324.9999999947
-0.5593093093093094 	300.0000000000069 	1.000000000000429 	101324.9999999945
-0.5568068068068072 	300.000000000003 	1.000000000000265 	101324.9999999944
-0.5543043043043046 	300.000000000002 	1.000000000001487 	101324.9999999946
-0.551801801801802 	299.9999999999584 	1.00000000000003 	101324.9999999945
-0.5492992992992995 	299.9999999999804 	0.9999999999994332 	101324.9999999942
-0.5467967967967969 	300.000000000002 	0.999999999999962 	101324.9999999943
-0.5442942942942947 	300.0000000000105 	1.00000000000017 	101324.9999999942
-0.5417917917917919 	299.9999999999632 	1.000000000000312 	101324.9999999938
-0.5392892892892895 	299.9999999999562 	1.000000000000374 	101324.9999999935
-0.536786786786787 	299.9999999999585 	0.9999999999999736 	101324.9999999933
-0.5342842842842846 	299.9999999999565 	1.000000000000225 	101324.9999999935
-0.531781781781782 	299.999999999931 	1.000000000000819 	101324.9999999936
-0.5292792792792794 	299.9999999999356 	1.000000000000611 	101324.9999999938
-0.526776776776777 	299.9999999999508 	1.000000000000225 	101324.9999999937
-0.5242742742742745 	299.99999999996 	1.000000000001282 	101324.9999999938
-0.521771771771772 	299.9999999999836 	1.000000000010178 	101324.9999999939
-0.5192692692692695 	299.9999999999822 	0.9999999999975014 	101324.9999999937
-0.516766766766767 	299.9999999999941 	1.000000000002122 	101324.9999999932
-0.5142642642642645 	299.9999999999585 	0.9999999999994574 	101324.9999999935
-0.511761761761762 	299.9999999999774 	1.000000000004791 	101324.9999999939
-0.5092592592592596 	300.0000000000011 	0.9999999999995246 	101324.999999994
-0.506756756756757 	299.9999999999761 	0.9999999999996214 	101324.999999994
-0.5042542542542544 	300.0000000000041 	1.000000000001596 	101324.9999999942
-0.5017517517517521 	300.0000000000175 	1.000000000002343 	101324.999999994
-0.4992492492492494 	300.000000000016 	1.000000000001955 	101324.9999999941
-0.496746746746747 	300.0000000000052 	1.000000000001892 	101324.9999999939
-0.4942442442442445 	299.9999999999578 	1.000000000001842 	101324.9999999937
-0.4917417417417421 	299.9999999999543 	1.000000000002033 	101324.9999999935
-0.4892392392392395 	299.9999999999595 	1.000000000002065 	101324.9999999941
-0.486736736736737 	299.9999999999735 	1.000000000001933 	101324.9999999946
-0.4842342342342345 	299.9999999999667 	1.00000000000146 	101324.9999999943
-0.481731731731732 	300.0000000000124 	1.000000000001546 	101324.9999999942
-0.4792292292292296 	300.0000000000232 	1.000000000001716 	101324.9999999942
-0.4767267267267268 	299.9999999999716 	1.000000000010371 	101324.999999994
-0.4742242242242246 	299.9999999999785 	0.999999999998134 	101324.9999999944
-0.471721721721722 	299.9999999999539 	0.9999999999991085 	101324.9999999948
-0.4692192192192195 	299.9999999999588 	1.000000000002104 	101324.9999999949
-0.4667167167167169 	299.9999999999502 	1.000000000001772 	101324.9999999943
-0.4642142142142145 	299.999999999998 	1.000000000001236 	101324.999999994
-0.461711711711712 	300.000000000008 	1.000000000001039 	101324.9999999936
-0.4592092092092094 	299.9999999999942 	1.000000000000938 	101324.999999993
-0.456706706706707 	300.00000000002 	1.000000000000571 	101324.9999999932
-0.4542042042042045 	299.9999999999799 	1.000000000000421 	101324.9999999935
-0.451701701701702 	299.9999999999777 	1.000000000001531 	101324.999999993
-0.4491991991991995 	299.999999999957 	1.000000000001989 	101324.9999999929
-0.4466966966966969 	299.9999999999542 	1.00000000000081 	101324.999999993
-0.4441941941941945 	299.9999999999699 	1.000000000000044 	101324.9999999931
-0.441691691691692 	299.9999999999513 	1.0000000000008 	101324.9999999937
-0.4391891891891895 	299.999999999974 	1.000000000001757 	101324.999999994
-0.436686686686687 	299.99999999997 	1.00000000001116 	101324.9999999933
-0.4341841841841846 	299.9999999999761 	0.9999999999978276 	101324.9999999933
-0.431681681681682 	299.9999999999624 	0.9999999999988665 	101324.9999999932
-0.4291791791791794 	299.9999999999579 	1.000000000002363 	101324.9999999933
-0.426676676676677 	299.9999999999444 	1.000000000002063 	101324.9999999937
-0.4241741741741744 	299.9999999999679 	1.000000000000815 	101324.999999994
-0.421671671671672 	300.0000000000035 	1.000000000000671 	101324.9999999938
-0.4191691691691694 	300.0000000000098 	1.000000000000381 	101324.9999999937
-0.4166666666666669 	300.0000000000214 	1.000000000000562 	101324.9999999936
-0.4141641641641645 	299.9999999999757 	1.000000000001521 	101324.9999999939
-0.411661661661662 	299.999999999987 	1.000000000002509 	101324.9999999942
-0.4091591591591594 	299.9999999999893 	1.000000000002816 	101324.9999999943
-0.406656656656657 	299.9999999999536 	1.00000000000272 	101324.9999999937
-0.4041541541541545 	299.9999999999924 	1.000000000002101 	101324.999999993
-0.401651651651652 	299.9999999999621 	1.000000000001185 	101324.9999999926
-0.3991491491491494 	299.999999999982 	1.000000000000081 	101324.9999999924
-0.396646646646647 	299.999999999977 	1.000000000008926 	101324.9999999929
-0.3941441441441444 	300.0000000000021 	0.9999999999955481 	101324.9999999934
-0.3916416416416419 	299.9999999999774 	0.9999999999969923 	101324.9999999935
-0.3891391391391395 	299.9999999999802 	1.000000000001185 	101324.9999999937
-0.3866366366366368 	299.9999999999903 	1.000000000002353 	101324.9999999928
-0.3841341341341344 	299.9999999999974 	1.000000000001985 	101324.9999999928
-0.381631631631632 	299.9999999999574 	1.000000000000579 	101324.9999999933
-0.3791291291291294 	299.9999999999832 	1.000000000000176 	101324.9999999933
-0.3766266266266269 	299.9999999999919 	1.000000000000594 	101324.9999999933
-0.3741241241241244 	300.000000000014 	1.000000000001307 	101324.9999999933
-0.371621621621622 	300.0000000000019 	1.00000000000121 	101324.9999999936
-0.3691191191191194 	300.0000000000134 	1.00000000001075 	101324.9999999936
-0.366616616616617 	300.0000000000115 	0.999999999996977 	101324.9999999935
-0.3641141141141143 	299.9999999999649 	0.9999999999994195 	101324.9999999931
-0.3616116116116119 	299.9999999999724 	1.000000000003402 	101324.9999999935
-0.3591091091091095 	299.9999999999994 	1.000000000003814 	101324.9999999938
-0.356606606606607 	299.999999999982 	1.000000000003088 	101324.9999999936
-0.3541041041041044 	299.9999999999983 	1.000000000001806 	101324.999999993
-0.3516016016016019 	300.000000000009 	1.000000000001758 	101324.9999999928
-0.3490990990990994 	300.00000000001 	1.000000000003156 	101324.9999999934
-0.346596596596597 	300.0000000000226 	1.000000000008555 	101324.9999999938
-0.3440940940940944 	300.0000000000249 	1.000000000001379 	101324.9999999942
-0.3415915915915919 	300.000000000018 	1.00000000000083 	101324.9999999937
-0.3390890890890895 	299.9999999999834 	1.000000000001505 	101324.9999999933
-0.3365865865865869 	299.9999999999999 	1.000000000001538 	101324.9999999932
-0.3340840840840844 	299.9999999999927 	1.000000000001807 	101324.9999999932
-0.3315815815815819 	300.000000000014 	1.000000000003158 	101324.9999999932
-0.3290790790790794 	300.0000000000181 	1.000000000004612 	101324.9999999931
-0.3265765765765769 	299.999999999966 	1.000000000005356 	101324.9999999932
-0.3240740740740744 	299.9999999999906 	1.000000000005429 	101324.9999999935
-0.3215715715715718 	300.0000000000012 	1.000000000004147 	101324.9999999933
-0.3190690690690695 	299.9999999999634 	1.000000000003843 	101324.9999999936
-0.3165665665665668 	299.9999999999914 	1.000000000004286 	101324.9999999932
-0.3140640640640644 	299.999999999999 	1.000000000003995 	101324.999999993
-0.311561561561562 	299.9999999999674 	1.000000000004608 	101324.9999999927
-0.3090590590590593 	299.9999999999954 	1.000000000003239 	101324.9999999928
-0.3065565565565568 	300.0000000000006 	1.000000000011432 	101324.9999999928
-0.3040540540540545 	299.9999999999918 	0.9999999999971108 	101324.9999999928
-0.3015515515515518 	300.000000000004 	1.000000000000208 	101324.9999999931
-0.2990490490490494 	299.9999999999685 	1.000000000004379 	101324.9999999933
-0.2965465465465469 	299.9999999999905 	1.000000000005307 	101324.9999999933
-0.2940440440440444 	300.00000000001 	1.000000000006244 	101324.9999999929
-0.2915415415415418 	300.0000000000127 	1.000000000006817 	101324.999999993
-0.2890390390390395 	300.000000000009 	1.00000000000561 	101324.999999993
-0.2865365365365368 	299.9999999999866 	1.000000000003894 	101324.9999999931
-0.2840340340340343 	299.999999999991 	1.000000000007706 	101324.9999999928
-0.2815315315315318 	299.9999999999769 	1.000000000000013 	101324.9999999928
-0.2790290290290295 	299.9999999999604 	1.000000000001602 	101324.9999999934
-0.2765265265265269 	299.9999999999916 	1.000000000004694 	101324.9999999933
-0.2740240240240244 	300.0000000000199 	1.000000000006044 	101324.9999999931
-0.2715215215215219 	300.0000000000219 	1.000000000007409 	101324.9999999934
-0.2690190190190194 	299.9999999999686 	1.000000000007971 	101324.9999999933
-0.2665165165165169 	299.999999999985 	1.000000000006978 	101324.9999999931
-0.2640140140140144 	299.9999999999761 	1.000000000005923 	101324.9999999931
-0.2615115115115119 	299.9999999999953 	1.00000000001056 	101324.9999999933
-0.2590090090090094 	299.999999999955 	1.000000000003384 	101324.999999993
-0.2565065065065068 	299.9999999999877 	1.000000000005456 	101324.9999999928
-0.2540040040040044 	299.9999999999994 	1.000000000006828 	101324.9999999928
-0.2515015015015019 	300.0000000000246 	1.000000000006202 	101324.999999993
-0.2489989989989994 	300.0000000000267 	1.000000000005903 	101324.9999999931
-0.2464964964964968 	299.9999999999976 	1.000000000006525 	101324.9999999936
-0.2439939939939944 	299.9999999999983 	1.000000000010982 	101324.9999999939
-0.2414914914914919 	299.9999999999763 	1.00000000000272 	101324.9999999938
-0.2389889889889893 	299.999999999984 	1.000000000004665 	101324.9999999937
-0.2364864864864869 	300.0000000000114 	1.000000000005595 	101324.9999999934
-0.2339839839839843 	299.9999999999675 	1.000000000010242 	101324.9999999932
-0.2314814814814819 	299.9999999999824 	1.000000000002161 	101324.9999999935
-0.2289789789789792 	299.9999999999486 	1.00000000000461 	101324.9999999939
-0.2264764764764769 	299.9999999999553 	1.000000000007198 	101324.9999999942
-0.2239739739739743 	299.9999999999709 	1.000000000007885 	101324.9999999945
-0.2214714714714718 	299.9999999999528 	1.000000000007569 	101324.999999994
-0.2189689689689693 	299.999999999963 	1.000000000006242 	101324.999999994
-0.2164664664664669 	299.9999999999861 	1.000000000010242 	101324.9999999939
-0.2139639639639643 	299.9999999999562 	1.00000000000181 	101324.9999999935
-0.2114614614614618 	299.99999999997 	1.000000000003071 	101324.999999994
-0.2089589589589593 	299.9999999999964 	1.000000000004378 	101324.9999999936
-0.2064564564564568 	299.9999999999978 	1.000000000005358 	101324.9999999933
-0.2039539539539543 	299.9999999999398 	1.000000000006652 	101324.9999999932
-0.2014514514514518 	299.9999999999556 	1.000000000005876 	101324.9999999931
-0.1989489489489494 	299.9999999999746 	1.000000000009558 	101324.9999999937
-0.1964464464464468 	299.9999999999968 	1.000000000000894 	101324.9999999933
-0.1939439439439443 	299.9999999999947 	1.000000000002774 	101324.9999999931
-0.1914414414414418 	299.9999999999553 	1.000000000004567 	101324.9999999933
-0.1889389389389393 	299.9999999999889 	1.000000000004608 	101324.9999999934
-0.1864364364364368 	300.0000000000235 	1.000000000005846 	101324.9999999934
-0.1839339339339343 	299.9999999999895 	1.000000000006628 	101324.999999994
-0.1814314314314318 	299.9999999999914 	1.000000000005948 	101324.999999994
-0.1789289289289293 	299.9999999999406 	1.000000000005529 	101324.999999994
-0.1764264264264268 	299.9999999999675 	1.000000000005001 	101324.9999999937
-0.1739239239239243 	299.9999999999382 	1.000000000004548 	101324.9999999936
-0.1714214214214218 	299.9999999999811 	1.000000000004624 	101324.9999999931
-0.1689189189189193 	299.9999999999626 	1.000000000004201 	101324.999999993
-0.1664164164164168 	299.9999999999926 	1.000000000004173 	101324.9999999931
-0.1639139139139143 	299.9999999999976 	1.000000000004876 	101324.9999999928
-0.1614114114114118 	300.0000000000142 	1.000000000004665 	101324.9999999931
-0.1589089089089093 	300.0000000000039 	1.000000000014825 	101324.999999993
-0.1564064064064068 	299.999999999987 	0.9999999999973956 	101324.999999993
-0.1539039039039043 	299.9999999999898 	1.000000000005689 	101324.9999999929
-0.1514014014014018 	300.0000000000094 	1.000000000000608 	101324.9999999934
-0.1488988988988993 	299.9999999999919 	1.000000000007275 	101324.9999999938
-0.1463963963963968 	299.9999999999959 	1.000000000001635 	101324.9999999937
-0.1438938938938943 	299.9999999999677 	1.000000000003807 	101324.9999999938
-0.1413913913913918 	299.9999999999572 	1.000000000005608 	101324.9999999931
-0.1388888888888893 	299.999999999976 	1.000000000005231 	101324.9999999934
-0.1363863863863868 	299.999999999947 	1.000000000004513 	101324.9999999932
-0.1338838838838843 	299.9999999999293 	1.000000000004014 	101324.9999999932
-0.1313813813813818 	299.9999999999835 	1.000000000004145 	101324.9999999933
-0.1288788788788793 	299.9999999999625 	1.000000000003007 	101324.9999999934
-0.1263763763763768 	299.99999999998 	1.000000000002609 	101324.9999999938
-0.1238738738738743 	299.999999999957 	1.000000000002799 	101324.9999999939
-0.1213713713713717 	299.9999999999794 	1.000000000003175 	101324.9999999935
-0.1188688688688693 	300.0000000000065 	1.000000000002542 	101324.9999999932
-0.1163663663663668 	299.9999999999439 	1.000000000001847 	101324.9999999934
-0.1138638638638643 	299.99999999998 	1.000000000006054 	101324.9999999937
-0.1113613613613618 	299.9999999999861 	0.999999999997455 	101324.9999999939
-0.1088588588588592 	299.9999999999848 	1.000000000005695 	101324.9999999935
-0.1063563563563568 	299.9999999999771 	0.9999999999998048 	101324.9999999933
-0.1038538538538543 	299.9999999999828 	1.000000000001479 	101324.9999999931
-0.1013513513513517 	300.0000000000038 	1.00000000000231 	101324.9999999929
-0.09884884884884926 	299.9999999999777 	1.0000000000015 	101324.9999999929
-0.09634634634634676 	299.999999999944 	1.000000000001493 	101324.999999993
-0.09384384384384425 	299.9999999999295 	1.00000000000167 	101324.9999999934
-0.09134134134134177 	299.9999999999981 	1.000000000001962 	101324.9999999934
-0.08883883883883925 	300.0000000000047 	1.000000000003063 	101324.9999999937
-0.08633633633633674 	299.9999999999633 	1.000000000003519 	101324.9999999932
-0.08383383383383426 	299.9999999999957 	1.000000000004122 	101324.9999999929
-0.08133133133133173 	299.9999999999844 	1.000000000004249 	101324.9999999932
-0.07882882882882926 	299.9999999999392 	1.000000000003472 	101324.9999999936
-0.07632632632632676 	299.9999999999661 	1.0000000000022 	101324.9999999934
-0.07382382382382424 	299.999999999934 	1.000000000000451 	101324.9999999932
-0.07132132132132173 	299.9999999999808 	0.9999999999993811 	101324.9999999933
-0.06881881881881925 	299.9999999999634 	0.9999999999993259 	101324.9999999936
-0.06631631631631671 	299.9999999999281 	0.9999999999984911 	101324.9999999935
-0.06381381381381425 	299.9999999999592 	0.999999999998432 	101324.9999999936
-0.06131131131131173 	299.9999999999655 	0.9999999999998282 	101324.9999999936
-0.05880880880880923 	299.9999999999675 	1.000000000000582 	101324.9999999936
-0.05630630630630672 	299.9999999999688 	1.000000000000574 	101324.9999999939
-0.05380380380380424 	300.0000000000147 	1.000000000000091 	101324.9999999938
-0.05130130130130173 	300.0000000000069 	0.9999999999999118 	101324.9999999941
-0.04879879879879922 	299.9999999999406 	0.999999999999752 	101324.9999999942
-0.04629629629629672 	299.9999999999473 	1.000000000000128 	101324.9999999935
-0.04379379379379422 	299.9999999999521 	1.000000000001467 	101324.9999999931
-0.04129129129129173 	299.9999999999609 	1.0000000000011 	101324.9999999934
-0.03878878878878922 	299.9999999999991 	0.9999999999994839 	101324.9999999937
-0.03628628628628671 	299.9999999999815 	0.9999999999983018 	101324.9999999937
-0.03378378378378422 	299.999999999945 	0.9999999999984898 	101324.9999999937
-0.03128128128128172 	299.999999999964 	0.9999999999984769 	101324.9999999936
-0.02877877877877922 	299.999999999997 	0.999999999998883 	101324.9999999937
-0.0262762762762767 	299.9999999999352 	0.9999999999990064 	101324.9999999937
-0.02377377377377422 	299.999999999979 	0.9999999999993399 	101324.9999999937
-0.0212712712712717 	299.9999999999289 	0.9999999999995486 	101324.9999999938
-0.01876876876876921 	299.9999999999769 	0.999999999999891 	101324.9999999938
-0.01626626626626671 	299.9999999999922 	1.000000000000175 	101324.9999999943
-0.0137637637637642 	299.999999999963 	1.000000000001067 	101324.9999999937
-0.0112612612612617 	299.9999999999843 	1.000000000000952 	101324.9999999936
-0.008758758758759198 	299.9999999999774 	1.000000000000184 	101324.9999999935
-0.006256256256256697 	299.9999999999502 	0.9999999999984546 	101324.9999999933
-0.003753753753754195 	299.9999999999524 	0.9999999999974166 	101324.9999999933
-0.001251251251251693 	299.999999999953 	0.9999999999972319 	101324.9999999929
0.00125125125125081 	299.999999999938 	0.9999999999974829 	101324.9999999927
0.003753753753753312 	299.999999999947 	0.9999999999983292 	101324.9999999936
0.006256256256255817 	299.9999999999428 	0.9999999999991362 	101324.9999999936
0.008758758758758317 	299.9999999999541 	0.9999999999990423 	101324.9999999934
0.01126126126126082 	299.9999999999748 	0.9999999999980442 	101324.9999999935
0.01376376376376332 	299.9999999999609 	0.9999999999973515 	101324.9999999941
0.01626626626626582 	299.9999999999851 	0.999999999996903 	101324.9999999939
0.01876876876876833 	299.9999999999845 	0.9999999999979173 	101324.9999999939
0.02127127127127083 	299.9999999999434 	0.999999999999203 	101324.999999994
0.02377377377377332 	299.9999999999866 	1.000000000000057 	101324.9999999937
0.02627627627627583 	299.9999999999441 	0.9999999999999718 	101324.9999999932
0.02877877877877833 	299.9999999999753 	0.9999999999998735 	101324.9999999935
0.03128128128128083 	299.999999999975 	0.999999999998981 	101324.999999993
0.03378378378378333 	299.9999999999444 	0.9999999999970953 	101324.9999999933
0.03628628628628584 	299.9999999999663 	0.9999999999964369 	101324.9999999936
0.03878878878878834 	299.9999999999982 	0.9999999999971891 	101324.9999999939
0.04129129129129084 	299.9999999999584 	0.9999999999987725 	101324.9999999941
0.04379379379379333 	299.9999999999629 	0.9999999999989404 	101324.9999999942
0.04629629629629585 	299.9999999999523 	0.9999999999982732 	101324.9999999941
0.04879879879879834 	299.9999999999409 	0.9999999999975268 	101324.9999999942
0.05130130130130085 	300.0000000000021 	0.9999999999972335 	101324.9999999935
0.05380380380380335 	300.000000000014 	0.9999999999973312 	101324.999999994
0.05630630630630584 	299.999999999981 	0.9999999999978665 	101324.9999999941
0.05880880880880836 	299.9999999999645 	0.9999999999984145 	101324.9999999939
0.06131131131131085 	299.9999999999698 	0.9999999999989488 	101324.9999999941
0.06381381381381336 	299.9999999999771 	0.9999999999988053 	101324.9999999942
0.06631631631631586 	299.9999999999434 	0.9999999999982254 	101324.9999999941
0.06881881881881835 	299.9999999999657 	0.9999999999981883 	101324.9999999937
0.07132132132132088 	299.9999999999887 	0.9999999999970548 	101324.999999994
0.07382382382382337 	299.9999999999426 	0.9999999999974594 	101324.9999999941
0.07632632632632587 	299.9999999999695 	0.9999999999983467 	101324.9999999933
0.07882882882882837 	299.9999999999657 	0.9999999999987458 	101324.999999993
0.08133133133133086 	299.9999999999745 	0.9999999999985241 	101324.9999999931
0.08383383383383337 	299.9999999999857 	0.9999999999971267 	101324.9999999937
0.08633633633633589 	299.999999999941 	0.9999999999961305 	101324.9999999942
0.08883883883883838 	299.9999999999902 	0.9999999999972007 	101324.9999999941
0.09134134134134086 	299.9999999999877 	0.9999999999978118 	101324.9999999943
0.09384384384384339 	299.999999999941 	0.9999999999976027 	101324.9999999946
0.09634634634634588 	299.9999999999683 	0.9999999999975129 	101324.9999999943
0.09884884884884838 	299.9999999999812 	0.9999999999976117 	101324.9999999934
0.1013513513513509 	300.0000000000149 	0.9999999999971809 	101324.9999999937
0.1038538538538534 	299.9999999999895 	0.999999999996722 	101324.999999994
0.1063563563563559 	299.9999999999899 	0.9999999999972221 	101324.9999999937
0.1088588588588584 	300.0000000000163 	0.9999999999977612 	101324.9999999937
0.1113613613613609 	299.9999999999762 	0.9999999999975263 	101324.9999999935
0.1138638638638634 	299.99999999995 	0.9999999999965566 	101324.999999994
0.1163663663663659 	299.9999999999552 	0.9999999999965403 	101324.9999999941
0.1188688688688684 	299.9999999999718 	0.999999999996691 	101324.9999999939
0.1213713713713709 	299.9999999999982 	0.9999999999960143 	101324.9999999936
0.1238738738738734 	299.9999999999557 	0.9999999999960034 	101324.9999999936
0.1263763763763759 	299.9999999999882 	0.9999999999967518 	101324.9999999939
0.1288788788788784 	299.9999999999885 	0.9999999999963954 	101324.9999999936
0.1313813813813809 	299.9999999999804 	0.9999999999962033 	101324.9999999945
0.1338838838838834 	299.9999999999831 	0.999999999995516 	101324.9999999947
0.1363863863863859 	300.0000000000025 	0.9999999999953622 	101324.9999999937
0.1388888888888884 	300.0000000000196 	0.9999999999946132 	101324.9999999934
0.1413913913913909 	300.0000000000002 	0.9999999999953187 	101324.9999999933
0.1438938938938934 	299.9999999999912 	0.9999999999956579 	101324.9999999934
0.1463963963963959 	299.9999999999689 	0.9999999999955503 	101324.9999999939
0.1488988988988985 	299.9999999999465 	0.9999999999959075 	101324.9999999933
0.1514014014014009 	299.9999999999717 	0.999999999996283 	101324.9999999933
0.1539039039039035 	299.9999999999699 	0.9999999999966119 	101324.9999999936
0.1564064064064059 	299.9999999999577 	1.000000000001173 	101324.999999993
0.1589089089089084 	299.9999999999732 	0.9999999999921648 	101324.9999999931
0.1614114114114109 	299.9999999999712 	0.9999999999942253 	101324.9999999937
0.1639139139139134 	299.9999999999462 	0.9999999999953273 	101324.9999999932
0.166416416416416 	299.9999999999787 	0.9999999999954609 	101324.9999999933
0.1689189189189185 	300.0000000000195 	0.999999999996193 	101324.9999999936
0.1714214214214209 	300.000000000009 	0.9999999999964682 	101324.9999999944
0.1739239239239235 	299.9999999999828 	0.9999999999967856 	101324.9999999937
0.1764264264264259 	299.9999999999854 	0.9999999999970595 	101324.9999999934
0.1789289289289284 	300.000000000007 	1.000000000000791 	101324.9999999932
0.181431431431431 	299.9999999999874 	0.9999999999915647 	101324.9999999935
0.1839339339339334 	299.9999999999843 	0.9999999999941092 	101324.999999993
0.186436436436436 	299.9999999999634 	0.9999999999958051 	101324.9999999934
0.1889389389389385 	299.9999999999811 	0.9999999999959641 	101324.9999999932
0.191441441441441 	299.9999999999794 	0.9999999999958352 	101324.9999999931
0.1939439439439434 	299.9999999999607 	0.9999999999952233 	101324.9999999928
0.196446446446446 	299.9999999999577 	0.9999999999987076 	101324.9999999929
0.1989489489489485 	299.9999999999737 	0.9999999999900987 	101324.9999999932
0.2014514514514509 	299.999999999992 	0.9999999999925657 	101324.9999999932
0.2039539539539535 	299.9999999999893 	0.9999999999934885 	101324.9999999931
0.2064564564564559 	299.9999999999645 	0.9999999999932589 	101324.9999999931
0.2089589589589585 	299.9999999999862 	0.9999999999940259 	101324.9999999935
0.211461461461461 	299.9999999999609 	0.9999999999947982 	101324.9999999934
0.2139639639639635 	299.9999999999838 	0.9999999999955747 	101324.9999999936
0.2164664664664659 	300.0000000000096 	0.9999999999951301 	101324.9999999937
0.2189689689689684 	300.000000000009 	0.999999999998688 	101324.9999999937
0.221471471471471 	300.0000000000028 	0.9999999999915778 	101324.9999999935
0.2239739739739735 	299.9999999999752 	0.9999999999948718 	101324.9999999938
0.226476476476476 	299.9999999999895 	0.9999999999964019 	101324.9999999934
0.2289789789789785 	299.9999999999984 	0.9999999999953586 	101324.9999999937
0.231481481481481 	299.9999999999897 	0.9999999999948113 	101324.9999999938
0.2339839839839835 	299.9999999999793 	0.9999999999956934 	101324.9999999932
0.236486486486486 	300.0000000000093 	0.9999999999958022 	101324.9999999926
0.2389889889889885 	299.9999999999962 	0.9999999999955376 	101324.999999992
0.241491491491491 	299.9999999999537 	0.9999999999988284 	101324.9999999922
0.2439939939939935 	299.9999999999824 	0.9999999999901911 	101324.9999999927
0.246496496496496 	299.999999999994 	0.9999999999924836 	101324.999999993
0.2489989989989985 	300.0000000000294 	0.9999999999938072 	101324.9999999929
0.251501501501501 	300.0000000000261 	0.9999999999938962 	101324.9999999926
0.2540040040040035 	300.0000000000007 	0.9999999999949465 	101324.999999993
0.256506506506506 	300.0000000000175 	0.9999999999958962 	101324.9999999936
0.2590090090090086 	299.9999999999538 	0.9999999999989554 	101324.999999994
0.261511511511511 	299.9999999999911 	0.9999999999901293 	101324.9999999938
0.2640140140140135 	299.9999999999866 	0.9999999999928015 	101324.9999999937
0.2665165165165161 	299.999999999957 	0.999999999993943 	101324.9999999934
0.2690190190190185 	299.9999999999985 	0.9999999999948699 	101324.9999999932
0.271521521521521 	300.0000000000198 	0.9999999999951329 	101324.9999999927
0.2740240240240235 	300.0000000000215 	0.9999999999950091 	101324.9999999928
0.276526526526526 	300.0000000000152 	0.9999999999959281 	101324.9999999932
0.2790290290290286 	299.9999999999665 	0.9999999999968774 	101324.9999999934
0.281531531531531 	299.9999999999579 	1.000000000000685 	101324.9999999928
0.2840340340340335 	299.9999999999754 	0.9999999999940585 	101324.9999999922
0.2865365365365361 	299.9999999999806 	0.9999999999977787 	101324.9999999928
0.2890390390390385 	300.0000000000098 	0.9999999999991086 	101324.9999999937
0.291541541541541 	300.0000000000152 	0.9999999999975405 	101324.9999999942
0.2940440440440436 	300.0000000000143 	0.9999999999955198 	101324.9999999944
0.296546546546546 	300.000000000011 	0.9999999999945891 	101324.9999999942
0.2990490490490486 	299.9999999999751 	0.9999999999948141 	101324.9999999935
0.3015515515515511 	300.0000000000023 	0.9999999999968031 	101324.9999999931
0.3040540540540535 	299.9999999999981 	1.00000000000488 	101324.9999999931
0.3065565565565562 	300.0000000000035 	0.9999999999894644 	101324.9999999929
0.3090590590590585 	299.9999999999979 	0.9999999999947773 	101324.9999999927
0.3115615615615611 	299.9999999999608 	0.9999999999982565 	101324.9999999928
0.3140640640640635 	300.0000000000018 	0.9999999999982221 	101324.9999999929
0.316566566566566 	299.9999999999974 	0.9999999999986695 	101324.9999999934
0.3190690690690687 	299.9999999999564 	0.9999999999992479 	101324.9999999934
0.3215715715715711 	299.9999999999932 	1.000000000000272 	101324.9999999932
0.3240740740740735 	299.9999999999925 	1.000000000000375 	101324.9999999931
0.326576576576576 	299.9999999999586 	0.9999999999993159 	101324.9999999933
0.3290790790790786 	300.0000000000121 	0.9999999999987527 	101324.9999999938
0.3315815815815811 	300.0000000000185 	0.9999999999979775 	101324.9999999941
0.3340840840840836 	300.000000000008 	0.9999999999972089 	101324.9999999939
0.3365865865865861 	300.0000000000246 	0.9999999999972751 	101324.9999999935
0.3390890890890886 	300.0000000000296 	0.9999999999973846 	101324.9999999938
0.3415915915915911 	300.000000000006 	0.9999999999983966 	101324.9999999938
0.3440940940940935 	299.9999999999563 	1.000000000003526 	101324.9999999933
0.3465965965965962 	300.0000000000022 	0.9999999999977265 	101324.9999999931
0.3490990990990985 	300.000000000008 	0.9999999999999465 	101324.9999999934
0.3516016016016011 	300.0000000000156 	1.000000000000832 	101324.9999999933
0.3541041041041035 	300.0000000000058 	0.9999999999999616 	101324.9999999933
0.3566066066066061 	299.9999999999528 	0.9999999999993229 	101324.9999999932
0.3591091091091085 	299.9999999999674 	0.9999999999986673 	101324.999999993
0.3616116116116112 	299.999999999977 	0.9999999999980576 	101324.9999999928
0.3641141141141137 	299.9999999999549 	0.9999999999984537 	101324.9999999931
0.3666166166166161 	299.9999999999314 	1.000000000004079 	101324.9999999933
0.3691191191191185 	299.9999999999959 	0.9999999999895567 	101324.9999999933
0.371621621621621 	300.0000000000038 	0.9999999999951215 	101324.999999993
0.3741241241241237 	300.0000000000173 	0.9999999999985516 	101324.999999993
0.3766266266266261 	300.0000000000065 	0.9999999999988989 	101324.9999999931
0.3791291291291286 	299.9999999999909 	0.9999999999989798 	101324.9999999933
0.3816316316316311 	299.999999999969 	0.9999999999988282 	101324.9999999934
0.3841341341341336 	299.9999999999928 	0.9999999999984528 	101324.9999999933
0.3866366366366362 	299.9999999999881 	0.9999999999978491 	101324.999999993
0.3891391391391387 	299.9999999999679 	0.9999999999991285 	101324.9999999929
0.391641641641641 	299.9999999999957 	1.000000000000321 	101324.9999999931
0.3941441441441436 	299.9999999999959 	0.999999999999877 	101324.9999999929
0.3966466466466462 	299.9999999999936 	0.9999999999996485 	101324.999999993
0.3991491491491486 	299.9999999999782 	1.000000000000095 	101324.9999999929
0.4016516516516512 	299.9999999999577 	1.000000000001096 	101324.9999999927
0.4041541541541536 	299.9999999999728 	1.000000000002383 	101324.9999999926
0.4066566566566561 	299.9999999999744 	1.000000000004905 	101324.9999999925
0.4091591591591587 	300.0000000000068 	0.9999999999968298 	101324.9999999924
0.4116616616616612 	300.0000000000146 	0.9999999999992116 	101324.9999999933
0.4141641641641635 	300.0000000000268 	1.000000000000882 	101324.999999994
0.4166666666666662 	300.0000000000088 	1.000000000001314 	101324.9999999937
0.4191691691691687 	299.999999999957 	1.000000000001197 	101324.9999999936
0.421671671671671 	299.9999999999921 	1.00000000000111 	101324.9999999939
0.4241741741741737 	299.9999999999772 	1.000000000000548 	101324.9999999941
0.4266766766766761 	299.9999999999602 	1.000000000000843 	101324.9999999937
0.4291791791791785 	299.9999999999906 	1.000000000005535 	101324.9999999936
0.4316816816816812 	299.9999999999896 	0.9999999999915695 	101324.9999999932
0.4341841841841836 	300.0000000000006 	0.9999999999979201 	101324.999999993
0.4366866866866862 	299.9999999999761 	1.000000000001537 	101324.9999999933
0.4391891891891885 	299.9999999999991 	1.000000000001476 	101324.9999999933
0.4416916916916913 	300.0000000000055 	1.000000000001583 	101324.9999999938
0.4441941941941936 	299.9999999999922 	1.000000000001529 	101324.999999994
0.4466966966966961 	299.9999999999442 	1.000000000000695 	101324.9999999941
0.4491991991991987 	299.9999999999854 	1.000000000000548 	101324.9999999942
0.4517017017017012 	299.99999999997 	1.000000000001567 	101324.9999999937
0.4542042042042035 	299.9999999999911 	1.00000000000266 	101324.9999999931
0.4567067067067062 	299.999999999993 	1.000000000002879 	101324.999999993
0.4592092092092087 	299.9999999999424 	1.000000000003413 	101324.999999993
0.4617117117117112 	299.9999999999805 	1.000000000003787 	101324.9999999932
0.4642142142142137 	299.9999999999665 	1.000000000003828 	101324.9999999932
0.4667167167167162 	299.999999999987 	1.000000000002476 	101324.9999999934
0.4692192192192187 	299.9999999999656 	1.000000000001346 	101324.9999999936
0.4717217217217212 	300.0000000000025 	1.000000000001249 	101324.9999999938
0.4742242242242236 	299.9999999999774 	1.00000000000166 	101324.9999999938
0.4767267267267262 	299.9999999999701 	1.000000000001747 	101324.9999999936
0.4792292292292287 	299.9999999999968 	1.000000000001551 	101324.9999999937
0.4817317317317312 	300.0000000000099 	1.000000000002079 	101324.9999999938
0.4842342342342336 	300.0000000000056 	1.000000000002252 	101324.999999994
0.4867367367367362 	299.9999999999916 	1.000000000001663 	101324.9999999941
0.4892392392392387 	300.0000000000019 	1.000000000000851 	101324.9999999938
0.4917417417417412 	300.0000000000203 	1.000000000001315 	101324.9999999932
0.4942442442442437 	299.9999999999774 	1.000000000002862 	101324.9999999932
0.4967467467467462 	299.9999999999523 	1.000000000005676 	101324.9999999939
0.4992492492492487 	299.999999999934 	0.9999999999990161 	101324.9999999946
0.5017517517517511 	299.999999999952 	1.000000000000319 	101324.999999995
0.5042542542542537 	299.9999999999895 	1.000000000000778 	101324.9999999948
0.5067567567567562 	299.9999999999816 	1.000000000000736 	101324.999999994
0.5092592592592589 	299.9999999999712 	1.000000000001277 	101324.9999999936
0.5117617617617611 	299.9999999999865 	1.000000000001303 	101324.9999999939
0.5142642642642637 	300.0000000000076 	1.000000000000676 	101324.9999999939
0.5167667667667663 	299.9999999999986 	1.000000000002177 	101324.9999999941
0.5192692692692688 	299.9999999999519 	1.000000000007956 	101324.999999994
0.5217717717717714 	299.9999999999693 	0.9999999999958266 	101324.9999999941
0.5242742742742736 	299.9999999999681 	1.000000000000379 	101324.9999999943
0.5267767767767763 	299.9999999999616 	1.000000000001557 	101324.9999999942
0.5292792792792789 	299.9999999999642 	1.0000000000005 	101324.9999999938
0.5317817817817813 	299.9999999999474 	1.000000000000205 	101324.9999999939
0.5342842842842837 	299.999999999988 	1.000000000000555 	101324.9999999936
0.5367867867867864 	299.999999999986 	1.000000000000575 	101324.9999999935
0.5392892892892888 	299.9999999999569 	1.000000000000451 	101324.9999999939
0.5417917917917912 	299.999999999972 	0.9999999999998632 	101324.9999999941
0.5442942942942938 	299.9999999999657 	0.9999999999987927 	101324.9999999939
0.5467967967967964 	299.9999999999789 	0.9999999999986608 	101324.9999999936
0.5492992992992988 	299.9999999999738 	0.9999999999992164 	101324.9999999931
0.5518018018018012 	299.9999999999663 	1.00000000000044 	101324.9999999932
0.5543043043043039 	299.9999999999939 	1.000000000001467 	101324.9999999939
0.5568068068068063 	299.9999999999878 	1.000000000002826 	101324.999999994
0.5593093093093087 	299.9999999999566 	1.00000000000472 	101324.9999999943
0.5618118118118114 	299.9999999999534 	0.9999999999976061 	101324.9999999947
0.5643143143143137 	299.9999999999433 	0.9999999999995526 	101324.9999999942
0.5668168168168163 	299.9999999999721 	1.000000000001531 	101324.9999999937
0.5693193193193188 	300.000000000003 	1.000000000002083 	101324.9999999939
0.5718218218218213 	300.0000000000201 	1.000000000002708 	101324.9999999941
0.5743243243243239 	300.0000000000192 	1.000000000003142 	101324.9999999938
0.5768268268268262 	300.0000000000094 	1.000000000002693 	101324.9999999938
0.5793293293293288 	299.9999999999773 	1.000000000005306 	101324.9999999937
0.5818318318318314 	299.9999999999637 	1.000000000009255 	101324.9999999935
0.5843343343343338 	299.9999999999999 	0.9999999999960694 	101324.9999999936
0.5868368368368363 	299.9999999999896 	1.000000000000388 	101324.9999999938
0.5893393393393387 	299.9999999999553 	1.000000000002793 	101324.9999999939
0.5918418418418413 	299.9999999999705 	1.000000000002536 	101324.9999999944
0.5943443443443439 	300.0000000000009 	1.000000000002134 	101324.9999999946
0.5968468468468463 	300.0000000000094 	1.000000000001716 	101324.999999994
0.5993493493493487 	300.0000000000294 	1.000000000002153 	101324.9999999939
0.6018518518518514 	300.0000000000126 	1.000000000002605 	101324.9999999945
0.6043543543543537 	300.0000000000081 	1.000000000002707 	101324.9999999944
0.6068568568568564 	299.9999999999957 	1.000000000002323 	101324.9999999941
0.6093593593593587 	299.9999999999504 	1.000000000002394 	101324.9999999946
0.6118618618618614 	299.9999999999572 	1.00000000000217 	101324.9999999948
0.6143643643643638 	300.0000000000046 	1.000000000001597 	101324.9999999946
0.6168668668668662 	299.9999999999993 	1.000000000001974 	101324.9999999946
0.6193693693693688 	299.9999999999862 	1.000000000003409 	101324.9999999947
0.6218718718718714 	299.9999999999976 	1.00000000000513 	101324.9999999947
0.6243743743743737 	299.9999999999851 	0.9999999999991441 	101324.9999999943
0.6268768768768762 	299.9999999999716 	1.000000000001704 	101324.9999999935
0.629379379379379 	299.9999999999843 	1.000000000002672 	101324.9999999935
0.6318818818818812 	299.999999999997 	1.000000000002237 	101324.9999999936
0.6343843843843838 	300.0000000000175 	1.000000000002595 	101324.9999999941
0.6368868868868864 	300.0000000000026 	1.000000000002787 	101324.9999999944
0.6393893893893888 	299.9999999999638 	1.000000000002765 	101324.9999999945
0.6418918918918912 	299.9999999999851 	1.000000000004262 	101324.9999999945
0.6443943943943939 	299.9999999999767 	1.000000000006333 	101324.9999999948
0.6468968968968963 	299.9999999999811 	0.9999999999940148 	101324.999999995
0.6493993993993988 	299.9999999999807 	1.00000000000013 	101324.9999999945
0.6519019019019012 	299.9999999999956 	1.000000000003447 	101324.9999999944
0.6544044044044038 	299.9999999999628 	1.000000000002488 	101324.9999999946
0.6569069069069065 	299.9999999999565 	1.000000000001792 	101324.9999999943
0.6594094094094087 	299.9999999999757 	1.000000000000398 	101324.9999999939
0.6619119119119113 	299.9999999999883 	0.9999999999994544 	101324.9999999941
0.664414414414414 	299.9999999999967 	0.9999999999992002 	101324.9999999944
0.6669169169169162 	299.9999999999953 	1.000000000000087 	101324.9999999949
0.6694194194194188 	299.9999999999854 	1.000000000001429 	101324.9999999948
0.6719219219219214 	299.9999999999656 	1.000000000002187 	101324.999999995
0.674424424424424 	299.9999999999823 	1.000000000002781 	101324.9999999952
0.6769269269269262 	299.9999999999648 	1.000000000003026 	101324.9999999943
0.679429429429429 	300.000000000007 	1.000000000002702 	101324.9999999939
0.6819319319319311 	300.0000000000193 	1.000000000002876 	101324.9999999941
0.6844344344344341 	300.0000000000239 	1.00000000000415 	101324.9999999946
0.686936936936936 	300.0000000000236 	0.9999999999982181 	101324.999999995
0.6894394394394392 	300.0000000000201 	1.000000000000782 	101324.9999999951
0.6919419419419413 	300.0000000000073 	1.000000000002654 	101324.9999999951
0.694444444444444 	299.999999999967 	1.000000000003107 	101324.9999999951
0.6969469469469463 	299.9999999999437 	1.000000000003142 	101324.9999999948
0.6994494494494489 	299.9999999999572 	1.00000000000274 	101324.9999999943
0.7019519519519515 	299.9999999999725 	1.000000000002642 	101324.9999999938
0.7044544544544538 	299.9999999999602 	1.000000000004807 	101324.9999999938
0.7069569569569564 	299.9999999999991 	1.000000000007097 	101324.9999999942
0.7094594594594589 	299.9999999999852 	0.9999999999962188 	101324.9999999943
0.7119619619619615 	299.9999999999609 	1.0000000000013 	101324.9999999941
0.7144644644644638 	299.9999999999802 	1.000000000002791 	101324.9999999939
0.7169669669669665 	299.9999999999706 	1.000000000001463 	101324.999999994
0.7194694694694688 	300.0000000000123 	1.000000000001199 	101324.9999999939
0.7219719719719715 	300.0000000000099 	1.000000000001618 	101324.9999999941
0.7244744744744737 	299.999999999998 	1.000000000002465 	101324.9999999944
0.7269769769769764 	300.0000000000068 	1.000000000005569 	101324.9999999944
0.7294794794794791 	300.0000000000029 	1.000000000007196 	101324.999999994
0.7319819819819813 	299.9999999999837 	0.9999999999954959 	101324.9999999939
0.7344844844844839 	299.9999999999411 	1.000000000000142 	101324.9999999941
0.7369869869869864 	299.9999999999565 	1.000000000002176 	101324.9999999948
0.739489489489489 	299.9999999999761 	1.000000000001789 	101324.999999995
0.7419919919919914 	299.9999999999701 	1.000000000001463 	101324.9999999949
0.7444944944944939 	299.9999999999679 	1.000000000002334 	101324.9999999947
0.7469969969969963 	299.9999999999863 	1.000000000002685 	101324.9999999948
0.7494994994994989 	299.9999999999548 	1.000000000000005 	101324.9999999946
0.7520020020020015 	299.9999999999632 	1.000000000004511 	101324.9999999945
0.7545045045045039 	299.999999999967 	0.9999999999940465 	101324.9999999945
0.7570070070070062 	299.9999999999675 	0.9999999999982863 	101324.9999999944
0.7595095095095092 	299.9999999999714 	1.000000000000979 	101324.9999999945
0.7620120120120112 	299.9999999999887 	1.000000000002037 	101324.9999999944
0.7645145145145138 	299.9999999999895 	1.000000000002942 	101324.9999999944
0.7670170170170165 	299.9999999999665 	1.000000000005567 	101324.9999999943
0.7695195195195191 	299.9999999999453 	1.000000000006422 	101324.9999999943
0.7720220220220213 	299.9999999999655 	0.9999999999944462 	101324.9999999941
0.7745245245245239 	299.9999999999529 	0.9999999999985765 	101324.9999999937
0.7770270270270263 	299.9999999999506 	1.000000000000468 	101324.9999999935
0.779529529529529 	299.9999999999714 	0.9999999999997898 	101324.9999999936
0.7820320320320313 	299.9999999999692 	0.9999999999997686 	101324.9999999938
0.784534534534534 	299.9999999999978 	1.000000000000119 	101324.999999994
0.7870370370370364 	299.9999999999891 	0.9999999999999025 	101324.9999999939
0.7895395395395389 	299.999999999981 	0.9999999999995299 	101324.9999999941
0.7920420420420413 	299.9999999999961 	0.9999999999997464 	101324.999999994
0.794544544544544 	299.9999999999915 	1.000000000003421 	101324.9999999939
0.7970470470470463 	300.0000000000057 	1.000000000005573 	101324.999999994
0.799549549549549 	300.000000000007 	0.9999999999957847 	101324.999999994
0.8020520520520515 	299.9999999999871 	1.000000000000628 	101324.9999999936
0.8045545545545539 	299.999999999954 	1.000000000001983 	101324.9999999938
0.8070570570570563 	299.9999999999699 	1.000000000000175 	101324.999999994
0.8095595595595589 	299.9999999999646 	0.9999999999981938 	101324.9999999939
0.8120620620620614 	299.9999999999775 	0.9999999999975131 	101324.9999999936
0.8145645645645638 	300.0000000000077 	0.9999999999978169 	101324.9999999935
0.8170670670670666 	300.000000000025 	1.000000000002098 	101324.9999999935
0.8195695695695689 	300.0000000000035 	1.000000000005339 	101324.9999999936
0.8220720720720714 	299.9999999999573 	0.9999999999957712 	101324.9999999938
0.8245745745745739 	299.9999999999699 	1.000000000000304 	101324.9999999935
0.8270770770770765 	299.9999999999781 	1.000000000002997 	101324.9999999932
0.8295795795795788 	299.9999999999817 	1.000000000002633 	101324.9999999932
0.8320820820820815 	300.0000000000066 	1.000000000002399 	101324.9999999933
0.834584584584584 	300.0000000000038 	1.000000000004045 	101324.9999999937
0.8370870870870865 	299.9999999999703 	1.000000000004334 	101324.9999999936
0.8395895895895891 	299.9999999999486 	0.999999999999569 	101324.9999999933
0.8420920920920915 	299.9999999999815 	1.000000000002028 	101324.9999999932
0.844594594594594 	299.9999999999744 	1.000000000002026 	101324.9999999926
0.8470970970970964 	299.9999999999698 	1.000000000000541 	101324.9999999929
0.8495995995995991 	300.0000000000045 	1.000000000000619 	101324.9999999931
0.8521021021021015 	299.9999999999948 	1.000000000001507 	101324.9999999934
0.8546046046046039 	299.9999999999746 	1.000000000001526 	101324.999999994
0.8571071071071066 	299.9999999999937 	1.00000000000469 	101324.9999999942
0.8596096096096089 	299.9999999999908 	1.000000000004595 	101324.9999999934
0.8621121121121116 	299.9999999999804 	0.9999999999935016 	101324.999999993
0.8646146146146139 	300.0000000000076 	0.9999999999980924 	101324.9999999929
0.8671171171171166 	299.999999999988 	1.000000000000301 	101324.999999993
0.8696196196196189 	299.9999999999571 	1.000000000000044 	101324.9999999933
0.8721221221221216 	299.9999999999809 	1.000000000000629 	101324.9999999929
0.874624624624624 	300.0000000000018 	1.000000000001037 	101324.9999999924
0.8771271271271264 	299.9999999999979 	1.000000000000307 	101324.9999999923
0.879629629629629 	299.9999999999923 	1.000000000003486 	101324.9999999923
0.8821321321321317 	299.9999999999841 	1.00000000000465 	101324.9999999925
0.8846346346346339 	299.9999999999642 	0.9999999999952388 	101324.9999999928
0.8871371371371364 	299.9999999999683 	0.9999999999992881 	101324.9999999931
0.8896396396396391 	299.9999999999692 	1.000000000000946 	101324.9999999932
0.8921421421421414 	299.9999999999728 	1.000000000000882 	101324.9999999931
0.8946446446446441 	299.9999999999832 	1.000000000001046 	101324.999999993
0.8971471471471464 	299.9999999999917 	1.000000000002792 	101324.9999999928
0.8996496496496489 	299.9999999999953 	1.000000000003056 	101324.9999999923
0.9021521521521517 	299.9999999999911 	0.9999999999976972 	101324.9999999921
0.9046546546546541 	299.9999999999953 	1.000000000000281 	101324.9999999924
0.9071571571571564 	299.9999999999763 	1.00000000000238 	101324.9999999928
0.9096596596596589 	299.9999999999629 	1.00000000000176 	101324.9999999929
0.9121621621621616 	299.9999999999891 	1.00000000000017 	101324.9999999927
0.9146646646646639 	299.9999999999761 	0.9999999999997977 	101324.9999999925
0.9171671671671666 	299.999999999961 	1.000000000000267 	101324.9999999927
0.9196696696696689 	299.9999999999837 	1.000000000004356 	101324.9999999932
0.9221721721721714 	299.9999999999813 	1.000000000004466 	101324.9999999933
0.9246746746746741 	299.9999999999548 	0.9999999999951462 	101324.9999999931
0.9271771771771765 	299.9999999999723 	1.000000000000179 	101324.999999993
0.9296796796796791 	299.9999999999836 	1.000000000002551 	101324.9999999929
0.9321821821821816 	299.9999999999744 	1.000000000003227 	101324.9999999928
0.9346846846846838 	299.9999999999699 	1.000000000003722 	101324.9999999928
0.9371871871871866 	300.0000000000013 	1.000000000003185 	101324.999999993
0.9396896896896891 	300 	1.000000000002621 	101324.9999999929
0.9421921921921914 	299.9999999999939 	1.000000000005894 	101324.9999999925
0.9446946946946939 	299.9999999999907 	1.000000000005407 	101324.999999992
0.9471971971971965 	299.9999999999721 	0.9999999999957131 	101324.9999999917
0.9496996996996991 	299.9999999999672 	0.9999999999996234 	101324.9999999919
0.9522022022022016 	299.9999999999854 	1.000000000000782 	101324.9999999918
0.9547047047047038 	300 	1.00000000000068 	101324.9999999921
0.9572072072072064 	299.9999999999901 	1.000000000001173 	101324.9999999923
0.9597097097097093 	299.9999999999727 	1.000000000003851 	101324.9999999921
0.9622122122122114 	299.9999999999683 	1.000000000003974 	101324.9999999921
0.964714714714714 	299.9999999999575 	0.9999999999996808 	101324.9999999921
0.9672172172172167 	299.999999999956 	1.000000000002344 	101324.9999999921
0.969719719719719 	299.9999999999777 	1.000000000002776 	101324.9999999921
0.9722222222222214 	299.9999999999811 	1.000000000001681 	101324.9999999922
0.9747247247247239 	299.9999999999821 	1.000000000001833 	101324.9999999922
0.9772272272272267 	299.9999999999988 	1.000000000002799 	101324.999999992
0.9797297297297292 	299.9999999999872 	1.000000000002998 	101324.9999999918
0.9822322322322313 	299.9999999999816 	1.000000000006481 	101324.999999992
0.9847347347347344 	299.9999999999778 	1.000000000005489 	101324.9999999921
0.9872372372372363 	299.9999999999507 	0.9999999999964027 	101324.9999999923
0.9897397397397389 	299.9999999999538 	1.000000000001098 	101324.9999999922
0.9922422422422417 	299.9999999999587 	1.000000000002737 	101324.9999999925
0.9947447447447441 	299.9999999999801 	1.00000000000209 	101324.9999999925
0.9972472472472468 	299.9999999999831 	1.000000000001539 	101324.9999999925
0.999749749749749 	299.9999999999775 	1.000000000001318 	101324.9999999924
1.002252252252252 	299.9999999999814 	1.000000000001608 	101324.9999999921
1.004754754754754 	299.999999999998 	1.000000000005959 	101324.9999999917
1.007257257257256 	299.9999999999894 	1.000000000005586 	101324.9999999918
1.009759759759759 	299.9999999999816 	0.9999999999978293 	101324.999999992
1.012262262262261 	299.9999999999827 	1.000000000002449 	101324.9999999921
1.014764764764764 	299.9999999999666 	1.000000000003749 	101324.999999992
1.017267267267267 	299.9999999999565 	1.000000000002951 	101324.9999999922
1.019769769769769 	299.9999999999815 	1.000000000002703 	101324.9999999924
1.022272272272272 	299.9999999999964 	1.000000000005236 	101324.9999999922
1.024774774774774 	299.9999999999998 	1.000000000005133 	101324.9999999921
1.027277277277277 	299.9999999999955 	1.000000000000929 	101324.999999992
1.029779779779779 	300.0000000000057 	1.000000000003221 	101324.9999999918
1.032282282282282 	300.0000000000095 	1.000000000004146 	101324.9999999921
1.034784784784784 	300.0000000000067 	1.000000000003644 	101324.9999999925
1.037287287287286 	299.9999999999911 	1.000000000003161 	101324.9999999924
1.039789789789789 	299.9999999999874 	1.000000000002854 	101324.999999992
1.042292292292291 	300.00000000001 	1.000000000002442 	101324.9999999921
1.044794794794794 	300.0000000000259 	1.000000000006878 	101324.999999992
1.047297297297296 	300.0000000000246 	1.000000000006186 	101324.9999999915
1.049799799799799 	300.0000000000082 	0.9999999999979794 	101324.9999999914
1.052302302302302 	299.9999999999929 	1.0000000000022 	101324.9999999916
1.054804804804804 	299.9999999999703 	1.000000000003676 	101324.9999999918
1.057307307307306 	299.9999999999517 	1.000000000003256 	101324.9999999917
1.059809809809809 	299.9999999999687 	1.000000000003552 	101324.9999999917
1.062312312312312 	299.9999999999733 	1.000000000003891 	101324.9999999919
1.064814814814814 	299.999999999975 	1.000000000003891 	101324.9999999919
1.067317317317317 	299.9999999999629 	1.000000000008407 	101324.9999999918
1.069819819819819 	299.9999999999533 	1.00000000000696 	101324.9999999916
1.072322322322321 	299.9999999999874 	0.999999999998427 	101324.9999999914
1.074824824824824 	300.0000000000139 	1.000000000002755 	101324.9999999916
1.077327327327327 	300.0000000000205 	1.000000000004861 	101324.9999999919
1.079829829829829 	300.0000000000219 	1.000000000004473 	101324.9999999916
1.082332332332332 	300.0000000000039 	1.000000000004005 	101324.9999999915
1.084834834834834 	299.9999999999808 	1.000000000008206 	101324.9999999916
1.087337337337337 	299.9999999999555 	1.000000000006972 	101324.9999999911
1.089839839839839 	299.9999999999454 	0.9999999999997764 	101324.9999999907
1.092342342342342 	299.9999999999652 	1.000000000003432 	101324.9999999908
1.094844844844844 	299.9999999999706 	1.000000000008889 	101324.999999991
1.097347347347347 	299.9999999999552 	1.000000000006801 	101324.9999999915
1.099849849849849 	299.9999999999471 	0.9999999999984719 	101324.9999999919
1.102352352352352 	299.9999999999667 	1.000000000002228 	101324.9999999915
1.104854854854854 	299.999999999986 	1.000000000004029 	101324.9999999911
1.107357357357357 	299.9999999999758 	1.000000000004159 	101324.9999999913
1.109859859859859 	299.9999999999666 	1.000000000003713 	101324.9999999917
1.112362362362362 	299.999999999999 	1.000000000007987 	101324.9999999919
1.114864864864865 	300.0000000000039 	1.000000000006046 	101324.9999999917
1.117367367367367 	299.9999999999764 	0.9999999999988052 	101324.9999999913
1.119869869869869 	299.9999999999522 	1.000000000002887 	101324.999999991
1.122372372372372 	299.9999999999687 	1.000000000003681 	101324.9999999909
1.124874874874874 	299.9999999999748 	1.000000000002936 	101324.999999991
1.127377377377377 	299.9999999999712 	1.000000000003873 	101324.9999999912
1.129879879879879 	299.9999999999928 	1.00000000000533 	101324.9999999914
1.132382382382382 	300.0000000000207 	1.000000000005253 	101324.9999999912
1.134884884884884 	300.0000000000113 	1.000000000009427 	101324.9999999913
1.137387387387387 	300.0000000000039 	1.000000000006896 	101324.9999999916
1.139889889889889 	299.9999999999733 	0.9999999999993049 	101324.9999999918
1.142392392392392 	299.9999999999628 	1.000000000003445 	101324.9999999914
1.144894894894894 	299.9999999999944 	1.000000000005389 	101324.9999999911
1.147397397397397 	299.9999999999948 	1.000000000005751 	101324.9999999912
1.149899899899899 	299.9999999999698 	1.000000000006135 	101324.9999999914
1.152402402402402 	299.9999999999558 	1.000000000005999 	101324.9999999913
1.154904904904904 	299.9999999999707 	1.000000000004981 	101324.9999999911
1.157407407407407 	299.9999999999715 	1.000000000009122 	101324.9999999911
1.159909909909909 	299.9999999999546 	1.000000000006661 	101324.9999999911
1.162412412412412 	299.9999999999509 	1.000000000000121 	101324.999999991
1.164914914914914 	299.9999999999687 	1.000000000004972 	101324.9999999911
1.167417417417417 	299.9999999999669 	1.000000000006349 	101324.9999999913
1.169919919919919 	299.9999999999882 	1.000000000005751 	101324.9999999916
1.172422422422422 	300.0000000000151 	1.000000000005235 	101324.9999999918
1.174924924924925 	300.0000000000026 	1.000000000009892 	101324.9999999916
1.177427427427427 	299.9999999999809 	1.000000000007133 	101324.9999999913
1.179929929929929 	299.9999999999959 	1.00000000000029 	101324.9999999911
1.182432432432432 	300.0000000000213 	1.000000000004913 	101324.9999999914
1.184934934934934 	300.0000000000064 	1.000000000006284 	101324.9999999916
1.187437437437437 	299.9999999999839 	1.000000000005788 	101324.9999999915
1.189939939939939 	299.9999999999769 	1.00000000000638 	101324.9999999913
1.192442442442442 	299.9999999999594 	1.000000000007141 	101324.9999999912
1.194944944944944 	299.9999999999529 	1.000000000006473 	101324.9999999912
1.197447447447447 	299.9999999999856 	1.000000000010396 	101324.9999999911
1.199949949949949 	300.0000000000061 	1.000000000007076 	101324.9999999911
1.202452452452452 	299.999999999977 	1.000000000000485 	101324.9999999912
1.204954954954955 	299.9999999999631 	1.000000000004938 	101324.9999999914
1.207457457457457 	299.9999999999751 	1.00000000000643 	101324.9999999916
1.20995995995996 	299.9999999999798 	1.000000000006313 	101324.9999999916
1.212462462462462 	299.9999999999881 	1.000000000006325 	101324.9999999914
1.214964964964964 	299.9999999999894 	1.000000000005766 	101324.999999991
1.217467467467467 	299.9999999999925 	1.000000000004956 	101324.999999991
1.219969969969969 	299.9999999999753 	1.000000000009576 	101324.9999999913
1.222472472472472 	299.9999999999915 	1.000000000006547 	101324.9999999914
1.224974974974975 	300.0000000000208 	1.000000000001162 	101324.9999999914
1.227477477477477 	299.9999999999959 	1.000000000005992 	101324.9999999914
1.229979979979979 	299.9999999999816 	1.000000000007133 	101324.9999999913
1.232482482482482 	299.999999999969 	1.00000000000682 	101324.9999999912
1.234984984984984 	299.999999999966 	1.00000000000594 	101324.9999999909
1.237487487487487 	299.9999999999791 	1.000000000010064 	101324.9999999907
1.239989989989989 	299.9999999999853 	1.000000000006693 	101324.9999999908
1.242492492492492 	300.0000000000024 	1.00000000000129 	101324.9999999912
1.244994994994994 	299.9999999999866 	1.000000000006547 	101324.9999999914
1.247497497497497 	299.9999999999899 	1.000000000008204 	101324.9999999914
1.249999999999999 	299.9999999999338 	1.000000000007806 	101324.9999999913
