-1.25 	300 	0.0002497083265691762 	101325
-1.247497497497497 	299.9931103214803 	0.01322984808146694 	101318.0918113452
-1.244994994994995 	299.9887911889029 	0.03426508349773101 	101311.7426718093
-1.242492492492492 	299.9832507636088 	0.04912785832405162 	101305.1984365829
-1.23998998998999 	299.9780695379006 	0.06329032412507131 	101299.0766180465
-1.237487487487487 	299.9732953381605 	0.07718432677915654 	101293.4335753844
-1.234984984984985 	299.9690371439701 	0.0894792186947166 	101288.4007672025
-1.232482482482482 	299.9653347814559 	0.1002255045684106 	101284.0250073053
-1.22997997997998 	299.9622602934911 	0.1091323306652122 	101280.3913666868
-1.227477477477477 	299.9599494353286 	0.1158491711050663 	101277.6602994428
-1.224974974974975 	299.9583650965876 	0.1203705172500378 	101275.787817382
-1.222472472472472 	299.9575005049786 	0.1228166701811451 	101274.7659732018
-1.21996996996997 	299.9574209126007 	0.1230480965637049 	101274.6719195409
-1.217467467467467 	299.9581386380295 	0.1209704709362416 	101275.5200555061
-1.214964964964965 	299.9596540908262 	0.1166007192402397 	101277.3109258621
-1.212462462462462 	299.9619580930021 	0.1098974413684439 	101280.0337308014
-1.20995995995996 	299.9649973555486 	0.1011163799243446 	101283.6255563339
-1.207457457457457 	299.9686677510495 	0.09060536229531116 	101287.9634244753
-1.204954954954955 	299.9728464240812 	0.07854631747860624 	101292.9021585203
-1.202452452452452 	299.9775010872865 	0.06506968582716491 	101298.4036750402
-1.19994994994995 	299.9825874129127 	0.05032678568276065 	101304.4156687607
-1.197447447447447 	299.987987221919 	0.03466538154181307 	101310.7984556899
-1.194944944944945 	299.9935848784369 	0.01847456890119021 	101317.4154430932
-1.192442442442442 	299.9992727307201 	0.00816499830650958 	101324.1393978441
-1.18993993993994 	300.0049776923892 	0.01447118065453676 	101330.8838666531
-1.187437437437437 	300.0106074809647 	0.03068941782326627 	101337.539816413
-1.184934934934935 	300.0160685472898 	0.04647864252355334 	101343.9965802153
-1.182432432432432 	300.0212727644158 	0.06152204381153516 	101350.1499601023
-1.17992992992993 	300.0260968870765 	0.0754685710783117 	101355.8541982798
-1.177427427427427 	300.0304236705102 	0.08797318572040268 	101360.9705313681
-1.174924924924925 	300.0341721089457 	0.09879066732398217 	101365.4031750633
-1.172422422422422 	300.0372738714489 	0.1077887956364149 	101369.071202401
-1.16991991991992 	300.0396877773849 	0.114805132290783 	101371.9258942196
-1.167417417417417 	300.0414033173425 	0.1197486126516551 	101373.95477845
-1.164914914914915 	300.0423844265079 	0.1225119474489991 	101375.115088409
-1.162412412412412 	300.042575234106 	0.1230072021038079 	101375.3407724001
-1.15990990990991 	300.041952016664 	0.1212166820734192 	101374.6038048809
-1.157407407407407 	300.0405206933713 	0.1170999575070074 	101372.9112502987
-1.154904904904904 	300.0383129246691 	0.1107447830166861 	101370.3005094516
-1.152402402402403 	300.0353955651256 	0.10230018576576 	101366.8506033694
-1.1498998998999 	300.0318394657787 	0.09200996136501069 	101362.6454941464
-1.147397397397397 	300.0277146520078 	0.08014091905122429 	101357.7680093113
-1.144894894894895 	300.0230979140273 	0.06679869455844378 	101352.3090198292
-1.142392392392392 	300.0180649242852 	0.05221251767015157 	101346.3581020028
-1.13988988988989 	300.012704995248 	0.03667467640738162 	101340.0208249729
-1.137387387387387 	300.0071291947577 	0.02051170721096067 	101333.4286413548
-1.134884884884885 	300.0014356434879 	0.007779815637847933 	101326.6975325998
-1.132382382382382 	299.9957116890509 	0.01243538132115694 	101319.9307943635
-1.12987987987988 	299.9900342655741 	0.02886780451586045 	101313.2194051313
-1.127377377377377 	299.9844949925988 	0.04487584611352752 	101306.6715695823
-1.124874874874875 	299.9792236819305 	0.06008628323538933 	101300.4407870955
-1.122372372372372 	299.9743606840071 	0.07410390383764814 	101294.6928475038
-1.11986986986987 	299.969996430551 	0.08670926994101866 	101289.5346067706
-1.117367367367367 	299.9662062809164 	0.09770745850413294 	101285.0550820364
-1.114864864864865 	299.9630349848688 	0.106936863927699 	101281.3070240513
-1.112362362362362 	299.9605132198063 	0.1142234989852069 	101278.3267056289
-1.10985985985986 	299.9587010848508 	0.1193824799416503 	101276.1849988116
-1.107357357357357 	299.9576703205184 	0.1223532906782001 	101274.9667567894
-1.104854854854855 	299.957440384838 	0.1230029676108462 	101274.6950093894
-1.102352352352353 	299.9580288880009 	0.1213089242475862 	101275.3904319418
-1.09984984984985 	299.9594100048674 	0.1173324205232349 	101277.0225485699
-1.097347347347347 	299.9615342734489 	0.1111339346253259 	101279.5329321834
-1.094844844844845 	299.9643569781097 	0.1029672467574581 	101282.8688130669
-1.092342342342342 	299.9678330285179 	0.09298236656996024 	101286.9769572935
-1.08983983983984 	299.9718789614894 	0.08129135712260213 	101291.7587639243
-1.087337337337337 	299.976452574908 	0.06808668000957624 	101297.164450681
-1.084834834834835 	299.9814631072104 	0.05357382020237995 	101303.0867820461
-1.082332332332332 	299.9867955221548 	0.03813355596604109 	101309.3898570658
-1.07982982982983 	299.9923318015113 	0.0221327134144629 	101315.9342301474
-1.077327327327327 	299.9979571473526 	0.007227683482765423 	101322.5841942469
-1.074824824824825 	300.0036291384413 	0.01056368367328798 	101329.289622963
-1.072322322322323 	300.0092778505391 	0.02685634644275883 	101335.9678640832
-1.06981981981982 	300.0147756050895 	0.04275847002974404 	101342.467935198
-1.067317317317317 	300.0200042345937 	0.05788278508909789 	101348.6501230851
-1.064814814814815 	300.0248622476756 	0.07192905513133045 	101354.3943529174
-1.062312312312312 	300.029269368339 	0.08465379405530658 	101359.6056348555
-1.05980980980981 	300.0331584140066 	0.09587582055444052 	101364.2045005725
-1.057307307307307 	300.0364546636495 	0.1054179243605574 	101368.1024888341
-1.054804804804805 	300.0390896922316 	0.1130482646008038 	101371.2186575787
-1.052302302302302 	300.041009820555 	0.1185658931373385 	101373.4894638778
-1.0497997997998 	300.0421572991218 	0.1218370961290341 	101374.8465347398
-1.047297297297297 	300.0425035575695 	0.1228319295826991 	101375.2560672379
-1.044794794794795 	300.0420546364751 	0.121552791084499 	101374.7252040927
-1.042292292292292 	300.0408231674247 	0.118001751912272 	101373.2689875121
-1.03978978978979 	300.0388330234003 	0.1122459149012789 	101370.9155918036
-1.037287287287287 	300.0361236003129 	0.1043667452027798 	101367.7115827373
-1.034784784784785 	300.0327310846732 	0.09456227880756317 	101363.6998888088
-1.032282282282283 	300.0287303602219 	0.08304536624743018 	101358.9690960925
-1.02977977977978 	300.0242164509398 	0.06998075945152712 	101353.6316584584
-1.027277277277277 	300.0192706360217 	0.05565056285785408 	101347.7837344912
-1.024774774774775 	300.0139750944402 	0.04031512451661415 	101341.5225369333
-1.022272272272272 	300.0084323776554 	0.02427872313531319 	101334.9693911807
-1.01976976976977 	300.0027328419094 	0.007863852714909175 	101328.2311248922
-1.017267267267267 	299.9969883460946 	0.009661139074493922 	101321.4400421764
-1.014764764764765 	299.9912838376135 	0.02525959018740714 	101314.6965459924
-1.012262262262262 	299.9857225029347 	0.04133619988087501 	101308.1225814145
-1.00975975975976 	299.9804287241294 	0.05663074565200527 	101301.8651834003
-1.007257257257257 	299.9755100132925 	0.07083888681582381 	101296.0513364913
-1.004754754754755 	299.9710363907169 	0.08377053897709774 	101290.7637916435
-1.002252252252252 	299.9670920597355 	0.09520610748166247 	101286.1019915028
-0.9997497497497498 	299.9637403862459 	0.1049118944248299 	101282.140745652
-0.9972472472472473 	299.9610551758651 	0.1126357931576704 	101278.9672525234
-0.9947447447447449 	299.9591090682126 	0.1182038414270859 	101276.6672244476
-0.9922422422422421 	299.9579453462169 	0.1215744277821186 	101275.291831674
-0.9897397397397399 	299.9575594115776 	0.1226715751296615 	101274.8357106068
-0.9872372372372376 	299.9579688917175 	0.1215160577243499 	101275.3195968619
-0.9847347347347346 	299.9591569622274 	0.1180913026475705 	101276.7235654447
-0.9822322322322323 	299.9611044419605 	0.1124345888077961 	101279.0250242695
-0.9797297297297296 	299.963767947744 	0.1047469933131559 	101282.172734114
-0.9772272272272275 	299.9670879436133 	0.09516259510666851 	101286.0964081055
-0.9747247247247248 	299.9709881174851 	0.08386652071934723 	101290.705932019
-0.9722222222222224 	299.975424557784 	0.07103684399816482 	101295.9494329424
-0.9697197197197196 	299.9803133560147 	0.05686957003584017 	101301.7278348906
-0.9672172172172175 	299.9855634493922 	0.04167801087302678 	101307.9335337106
-0.9647147147147147 	299.9910571502159 	0.0258057567404806 	101314.4274861988
-0.9622122122122124 	299.9966693536304 	0.009579979552708753 	101321.0618640475
-0.9597097097097099 	300.0023246105411 	0.009284053588967573 	101327.7474309525
-0.9572072072072073 	300.0079427216697 	0.02295416743082708 	101334.3894254031
-0.9547047047047047 	300.0134235846427 	0.03882372361011998 	101340.8694540638
-0.9522022022022023 	300.0186768259515 	0.05403600775634608 	101347.0806430286
-0.9496996996996998 	300.0236095676831 	0.06830895002009313 	101352.9131843291
-0.9471971971971973 	300.028140201346 	0.0814078981566002 	101358.2704625343
-0.9446946946946947 	300.0321784965067 	0.09305637758380916 	101363.0457666397
-0.9421921921921923 	300.0356275549986 	0.1030448074563583 	101367.1244363959
-0.93968968968969 	300.0384172932309 	0.1111230638205681 	101370.423518029
-0.9371871871871872 	300.0405032099256 	0.1170932155706775 	101372.8903807856
-0.9346846846846848 	300.0418338202202 	0.1209028653086621 	101374.4640256868
-0.9321821821821823 	300.0423873370071 	0.1224769133946339 	101375.1186694786
-0.9296796796796799 	300.0421503218015 	0.1217989668463445 	101374.8383986231
-0.9271771771771771 	300.0411191384533 	0.1188508563740068 	101373.6190086371
-0.9246746746746748 	300.0393175342551 	0.1136413225802524 	101371.488586167
-0.9221721721721724 	300.036789973229 	0.1063075779503305 	101368.4996412362
-0.9196696696696698 	300.0335660830816 	0.09700949619329859 	101364.6873193117
-0.9171671671671672 	300.0297211430845 	0.0859274581605788 	101360.1407256815
-0.9146646646646649 	300.0253276665893 	0.07321043140853607 	101354.9456245422
-0.9121621621621623 	300.0204606633286 	0.05909379573255877 	101349.1908482761
-0.9096596596596597 	300.0152114248833 	0.04389022782482296 	101342.9843475276
-0.9071571571571573 	300.0096972771092 	0.02792198167895365 	101336.4648956267
-0.9046546546546547 	300.0040109473233 	0.01156820055223984 	101329.7421878553
-0.9021521521521524 	299.9982935559987 	0.009020701506703359 	101322.9830547388
-0.8996496496496498 	299.9926064761265 	0.02144279932730891 	101316.2600981492
-0.8971471471471473 	299.9870262214126 	0.03756316420993604 	101309.663708249
-0.894644644644645 	299.9816680418896 	0.05305571254135037 	101303.3301075072
-0.892142142142142 	299.9766406023786 	0.06756730619706482 	101297.3877072088
-0.8896396396396397 	299.9720379135973 	0.08084740940997408 	101291.9475548506
-0.8871371371371374 	299.9679655822611 	0.09265956629123336 	101287.134438376
-0.8846346346346349 	299.9644865426125 	0.1027312291797049 	101283.0226459245
-0.8821321321321324 	299.9616690853487 	0.1108623779197835 	101279.6928254223
-0.8796296296296297 	299.9595738827193 	0.1168855261850479 	101277.216614527
-0.8771271271271271 	299.9582398293372 	0.1207271331614 	101275.6399033886
-0.8746246246246248 	299.9576825394902 	0.1223213861011705 	101274.98127
-0.8721221221221224 	299.9579250861998 	0.1216396564477804 	101275.267888879
-0.8696196196196196 	299.9589438024479 	0.11869199505177 	101276.4717028308
-0.8671171171171175 	299.9607171034987 	0.113543988781322 	101278.5673205994
-0.8646146146146148 	299.9632072098382 	0.1063527520760609 	101281.5100991109
-0.8621121121121121 	299.9663593676752 	0.09724750880391976 	101285.2353910072
-0.8596096096096097 	299.9701198223925 	0.08635922284193037 	101289.6797476141
-0.857107107107107 	299.9744491042693 	0.07385648320613913 	101294.7965398913
-0.8546046046046049 	299.9792509654247 	0.0599576581024765 	101300.4721423453
-0.8521021021021022 	299.984425243139 	0.04497999731102983 	101306.5881755536
-0.8495995995995997 	299.9898520184929 	0.02931462271713118 	101313.0029542613
-0.8470970970970974 	299.995405308958 	0.01325597652186846 	101319.5676176723
-0.8445945945945946 	300.0010051607803 	0.008196949695058804 	101326.187596253
-0.8420920920920922 	300.0065899704933 	0.01906873582395577 	101332.7901564674
-0.8395895895895897 	300.0120775564533 	0.03497108193359517 	101339.2780558017
-0.8370870870870872 	300.0173751913241 	0.05028684525034751 	101345.5416736399
-0.8345845845845846 	300.0223838919605 	0.06476313720491676 	101351.46395373
-0.8320820820820823 	300.0270108472603 	0.07812995288459254 	101356.9350593108
-0.8295795795795798 	300.0311622001475 	0.09011186608667994 	101361.8440219687
-0.8270770770770772 	300.0347503246041 	0.1005077315842439 	101366.0870974881
-0.8245745745745746 	300.0377064770063 	0.1090368542120312 	101369.5829602884
-0.8220720720720721 	300.0399716840097 	0.115541335567608 	101372.2618286628
-0.8195695695695699 	300.0414876396574 	0.1198949161316643 	101374.0546431916
-0.817067067067067 	300.0422261488403 	0.1220271887998267 	101374.9280882504
-0.8145645645645651 	300.0421768463272 	0.1219144851880602 	101374.8697869118
-0.8120620620620621 	300.0413456201404 	0.1195206631590144 	101373.886860487
-0.8095595595595597 	300.0397522510333 	0.1149038281281549 	101372.0026951521
-0.8070570570570572 	300.0374188615051 	0.1081327718506593 	101369.2433501674
-0.8045545545545546 	300.0343709309653 	0.09934890468125003 	101365.6391053521
-0.8020520520520523 	300.0306767158376 	0.08869184116963306 	101361.2707021813
-0.7995495495495494 	300.0264069118035 	0.07631265668937798 	101356.2218118758
-0.7970470470470474 	300.0216425480423 	0.06250575975597794 	101350.5883426592
-0.7945445445445446 	300.016478224128 	0.04754584156980585 	101344.4821652095
-0.7920420420420423 	300.0110188478116 	0.03177805996275723 	101338.0274204106
-0.7895395395395397 	300.0053694515243 	0.01551824723119796 	101331.3482992191
-0.7870370370370371 	299.999660272946 	0.007544201113198888 	101324.5988084963
-0.7845345345345348 	299.9939477548155 	0.01756505922902054 	101317.84570343
-0.7820320320320323 	299.9883169686381 	0.03381742992719621 	101311.1894986748
-0.7795295295295296 	299.9828910636384 	0.04949441370531191 	101304.7757976809
-0.7770270270270272 	299.9777798568767 	0.06424517920922922 	101298.7343086961
-0.7745245245245247 	299.9730838704155 	0.07783407737100721 	101293.1838491361
-0.7720220220220222 	299.9688983830334 	0.08997892142263132 	101288.2369570771
-0.7695195195195199 	299.9652833777795 	0.1004325603454127 	101283.9644254364
-0.767017017017017 	299.962320406756 	0.1089688584795013 	101280.4626398767
-0.7645145145145147 	299.9600788274554 	0.115418463155077 	101277.8134158372
-0.7620120120120122 	299.9585869329877 	0.1197362613845469 	101276.0501734454
-0.7595095095095097 	299.9578585261273 	0.1218167029950217 	101275.1893017834
-0.7570070070070072 	299.9579134930451 	0.1216718190689419 	101275.2542319855
-0.7545045045045048 	299.9587393043851 	0.1192617998448195 	101276.2301062436
-0.7520020020020022 	299.96033699772 	0.1146091663573628 	101278.1181625405
-0.7494994994994997 	299.9626788051594 	0.1078967327681381 	101280.8856692985
-0.7469969969969972 	299.965695581677 	0.09917403937771287 	101284.4509492092
-0.7444944944944945 	299.9693284237484 	0.08866964378980766 	101288.7444435403
-0.7419919919919924 	299.9735215343196 	0.07657309907939855 	101293.7002863263
-0.7394894894894897 	299.9781811988504 	0.06304714952347126 	101299.2077437297
-0.7369869869869872 	299.9832302013508 	0.04844617211297203 	101305.1756383311
-0.7344844844844846 	299.988568920933 	0.03302267367768569 	101311.4862753497
-0.7319819819819822 	299.99406538756 	0.01711084048901922 	101317.9836716225
-0.7294794794794797 	299.9996378782395 	0.006230428046420029 	101324.5712595502
-0.7269769769769773 	300.0052063875805 	0.01509234045956995 	101331.1544475748
-0.7244744744744747 	300.0107043539198 	0.03099825411664745 	101337.6545431644
-0.721971971971972 	300.0160456853112 	0.04643396120149605 	101343.9697619876
-0.7194694694694695 	300.0211261745588 	0.06113176445074322 	101349.9768426335
-0.7169669669669674 	300.0258503877758 	0.07477392084911014 	101355.5629082937
-0.7144644644644647 	300.030118849131 	0.08710297983642437 	101360.6102899727
-0.711961961961962 	300.033837507986 	0.09785535989476465 	101365.0076916133
-0.7094594594594597 	300.0369368939611 	0.1068100212089493 	101368.6729129852
-0.7069569569569573 	300.0393641500382 	0.1138048276575361 	101371.5433856673
-0.7044544544544545 	300.0410621033599 	0.1186927966835199 	101373.5514335765
-0.7019519519519523 	300.0420020222923 	0.1214071347171119 	101374.6630651174
-0.6994494494494495 	300.04216560921 	0.1218757681771671 	101374.8565412127
-0.6969469469469471 	300.0415483566599 	0.1200973418173164 	101374.1266306774
-0.6944444444444446 	300.0401625040905 	0.1160937304321249 	101372.487861562
-0.6919419419419421 	300.0380233767536 	0.1098746200117615 	101369.9582582433
-0.6894394394394396 	300.035136623864 	0.1015540523063524 	101366.5445951658
-0.6869369369369374 	300.0315592751616 	0.09121772119112453 	101362.3143614264
-0.6844344344344344 	300.0273664963742 	0.07908333071496007 	101357.3565148092
-0.6819319319319321 	300.0226652828802 	0.06550067765837284 	101351.7976650416
-0.6794294294294296 	300.0175768849144 	0.05076973806076063 	101345.7812135829
-0.6769269269269272 	300.012209893299 	0.03524569372156845 	101339.4356312008
-0.6744244244244245 	300.0066332136904 	0.01916102397684743 	101332.8424208237
-0.6719219219219222 	300.0009586590492 	0.005235530464442751 	101326.1337918742
-0.6694194194194195 	299.995233695483 	0.01384370374440213 	101319.3658999872
-0.6669169169169172 	299.9895482590671 	0.03024961694220656 	101312.64503573
-0.6644144144144146 	299.9840501432225 	0.04612733911546486 	101306.1458932251
-0.661911911911912 	299.9788743198898 	0.06109965977981462 	101300.0279955799
-0.6594094094094097 	299.9741163510583 	0.07484954512214408 	101294.4042170257
-0.656906906906907 	299.9698449971376 	0.08719411584244298 	101289.3557875721
-0.6544044044044046 	299.9661178963688 	0.09798657771959263 	101284.9507686588
-0.6519019019019021 	299.9629897249041 	0.1070231775930308 	101281.2536901656
-0.6493993993993996 	299.9605408238014 	0.1140951697096482 	101278.3594771726
-0.6468968968968971 	299.9588479987812 	0.1189542641132573 	101276.3587491989
-0.6443943943943946 	299.957968063213 	0.1214645569126894 	101275.3187855998
-0.6418918918918921 	299.957918516483 	0.1216186063536004 	101275.2602178246
-0.6393893893893897 	299.9586672030188 	0.1194899869777532 	101276.1449385723
-0.6368868868868871 	299.9601303797616 	0.1152670347122575 	101277.8740471038
-0.6343843843843846 	299.962248503668 	0.1091224728417841 	101280.377198007
-0.6318818818818821 	299.9649777497725 	0.1012058320400775 	101283.6026441439
-0.6293793793793795 	299.968316876533 	0.0915454222768446 	101287.5489828197
-0.6268768768768773 	299.9722737491472 	0.0800934790585901 	101292.2255382756
-0.6243743743743745 	299.9768339347462 	0.06691980226923229 	101297.6155849448
-0.6218718718718721 	299.9819030852126 	0.05223116954031408 	101303.6072728022
-0.6193693693693696 	299.9873535427041 	0.03649707098768448 	101310.0496930223
-0.6168668668668671 	299.9929863474283 	0.02026965086181204 	101316.708144606
-0.6143643643643645 	299.998612460707 	0.004037120736055991 	101323.3590705007
-0.6118618618618621 	300.0040712938109 	0.01177575526288934 	101329.8125581522
-0.6093593593593596 	300.0092858108188 	0.02685819868246534 	101335.9774978055
-0.6068568568568571 	300.0142710287657 	0.04132161948665895 	101341.8715796196
-0.6043543543543546 	300.0190847120738 	0.05528160371076746 	101347.5630925517
-0.6018518518518521 	300.0237668755156 	0.06883639151059036 	101353.0993170202
-0.5993493493493496 	300.0282926177723 	0.08190620826062112 	101358.4507977343
-0.5968468468468471 	300.0325519545155 	0.09417518141434697 	101363.4874822181
-0.5943443443443446 	300.0363589832019 	0.1051152617600122 	101367.9894719093
-0.591841841841842 	300.0394836700688 	0.1140752371339345 	101371.6847068652
-0.5893393393393397 	300.0416962070175 	0.1204056773906048 	101374.3013434476
-0.5868368368368371 	300.0428127821078 	0.1235884333958821 	101375.6219095666
-0.5843343343343346 	300.0427331757567 	0.123342733839621 	101375.5277626727
-0.5818318318318321 	300.0414624983705 	0.1196878785599965 	101374.025201479
-0.5793293293293297 	300.0391155913981 	0.1129523272645834 	101371.2499301482
-0.5768268268268271 	300.035900372277 	0.1037276960854159 	101367.4478109012
-0.5743243243243245 	300.0320858065898 	0.09277839677367068 	101362.9370207359
-0.5718218218218221 	300.0279615850348 	0.08092760983478588 	101358.0601914595
-0.5693193193193196 	300.0237975095743 	0.06894381701817925 	101353.1363848827
-0.5668168168168171 	300.0198119371018 	0.05745393858480167 	101348.4237932938
-0.5643143143143147 	300.0161578537288 	0.04690265249582153 	101344.1032839542
-0.5618118118118121 	300.0129255985657 	0.03755577829396683 	101340.2816352521
-0.5593093093093094 	300.010153216082 	0.02952800780555218 	101337.0037905989
-0.5568068068068072 	300.0078389636169 	0.02281844976446966 	101334.267654898
-0.5543043043043046 	300.0059536400398 	0.01734602906955292 	101332.0386756504
-0.551801801801802 	300.0044514464834 	0.01298082136120381 	101330.2626851294
-0.5492992992992995 	300.0032787295098 	0.009569385623632005 	101328.8762361964
-0.5467967967967969 	300.0023804425923 	0.006953572241797836 	101327.8142407308
-0.5442942942942947 	300.0017044895977 	0.004983232077711758 	101327.0151025855
-0.5417917917917919 	300.0012042893728 	0.003523783061324977 	101326.4237484048
-0.5392892892892895 	300.0008399704859 	0.002459796707760979 	101325.9930388715
-0.536786786786787 	300.0005785949004 	0.001695751556925816 	101325.6840325854
-0.5342842842842846 	300.0003937577806 	0.001154954925833774 	101325.4655126096
-0.531781781781782 	300.0002648389702 	0.000777431462403972 	101325.3131009925
-0.5292792792792794 	300.000176106832 	0.0005173648960726454 	101325.2081992102
-0.526776776776777 	300.0001158098864 	0.0003404892193018711 	101325.1369143429
-0.5242742742742745 	300.000075338256 	0.0002216697291752721 	101325.0890674395
-0.521771771771772 	300.0000484956616 	0.0001427983991386301 	101325.0573332096
-0.5192692692692695 	300.0000308970077 	9.104672576280015e-05 	101325.0365275773
-0.516766766766767 	300.0000194877875 	5.746895348259539e-05 	101325.023039151
-0.5142642642642645 	300.0000121712537 	3.591931060715867e-05 	101325.0143893411
-0.511761761761762 	300.000007528858 	2.223521798431424e-05 	101325.0089009572
-0.5092592592592596 	300.0000046135379 	1.363517983509757e-05 	101325.0054543318
-0.506756756756757 	300.0000028010668 	8.284579087217535e-06 	101325.0033116057
-0.5042542542542544 	300.0000016853914 	4.988252713630619e-06 	101325.0019925399
-0.5017517517517521 	300.0000010051553 	2.976952818798031e-06 	101325.0011882885
-0.4992492492492494 	300.0000005942645 	1.761209137459089e-06 	101325.0007025141
-0.496746746746747 	300.0000003483018 	1.033088829480442e-06 	101325.0004117884
-0.4942442442442445 	300.0000002024008 	6.009156603026516e-07 	101325.000239356
-0.4917417417417421 	300.0000001166545 	3.466654358316389e-07 	101325.0001379834
-0.4892392392392395 	300.0000000666975 	1.983701438889026e-07 	101325.0000788999
-0.486736736736737 	300.0000000378214 	1.126149512759054e-07 	101325.0000447555
-0.4842342342342345 	300.0000000212273 	6.342823216450126e-08 	101325.0000251871
-0.481731731731732 	300.0000000119421 	3.545531093006434e-08 	101325.0000140639
-0.4792292292292296 	300.0000000066223 	1.966552792433579e-08 	101325.0000077917
-0.4767267267267268 	300.0000000035773 	1.083256253142686e-08 	101325.000004283
-0.4742242242242246 	300.0000000019734 	5.918010900063676e-09 	101325.0000023354
-0.471721721721722 	300.0000000010218 	3.215945230469272e-09 	101325.0000012621
-0.4692192192192195 	300.000000000549 	1.730718389026203e-09 	101325.0000006754
-0.4667167167167169 	300.0000000002099 	9.296750400429183e-10 	101325.0000003567
-0.4642142142142145 	300.000000000159 	4.925846074857439e-10 	101325.0000001851
-0.461711711711712 	300.0000000001033 	2.631568895848135e-10 	101325.0000000933
-0.4592092092092094 	300.0000000000537 	1.377161367635591e-10 	101325.0000000445
-0.456706706706707 	300.0000000000773 	7.517131063918392e-11 	101325.0000000188
-0.4542042042042045 	299.9999999999454 	3.929331230211163e-11 	101325.0000000053
-0.451701701701702 	299.9999999999545 	2.332164706046333e-11 	101324.9999999984
-0.4491991991991995 	299.9999999999544 	1.217226173307406e-11 	101324.9999999948
-0.4466966966966969 	299.9999999999472 	9.498917563429558e-12 	101324.999999993
-0.4441941941941945 	299.9999999999944 	4.150870512894833e-12 	101324.9999999923
-0.441691691691692 	299.9999999999524 	6.201133405930787e-12 	101324.9999999917
-0.4391891891891895 	299.9999999999896 	1.220519741728853e-12 	101324.9999999914
-0.436686686686687 	299.9999999999689 	5.817771251653167e-12 	101324.9999999912
-0.4341841841841846 	299.9999999999977 	2.18113820840804e-12 	101324.9999999909
-0.431681681681682 	299.9999999999403 	4.672775182417797e-12 	101324.9999999908
-0.4291791791791794 	299.9999999999241 	1.582495533634453e-12 	101324.9999999908
-0.426676676676677 	299.9999999998968 	3.929757525886025e-12 	101324.9999999907
-0.4241741741741744 	299.9999999999617 	1.228826956415846e-12 	101324.9999999907
-0.421671671671672 	300.0000000000055 	3.118014585608606e-12 	101324.9999999906
-0.4191691691691694 	300.0000000000591 	1.50179560564907e-12 	101324.9999999904
-0.4166666666666669 	300.0000000000687 	3.96713114074052e-12 	101324.9999999903
-0.4141641641641645 	299.9999999999309 	2.638973500553474e-12 	101324.9999999906
-0.411661661661662 	300.0000000000053 	3.886982102544973e-12 	101324.9999999905
-0.4091591591591594 	300.0000000000004 	2.734787821861228e-12 	101324.9999999905
-0.406656656656657 	299.9999999999332 	3.868001435220115e-12 	101324.9999999906
-0.4041541541541545 	300.0000000000142 	1.529754484687339e-12 	101324.9999999904
-0.401651651651652 	299.9999999999145 	3.797402505694623e-12 	101324.9999999905
-0.3991491491491494 	299.9999999999968 	1.796897994804764e-12 	101324.9999999906
-0.396646646646647 	299.9999999999512 	3.954334786240953e-12 	101324.9999999907
-0.3941441441441444 	299.9999999999811 	2.800800257229107e-12 	101324.9999999909
-0.3916416416416419 	299.9999999999265 	3.375432149709706e-12 	101324.9999999911
-0.3891391391391395 	299.9999999999499 	2.025451293615871e-12 	101324.9999999913
-0.3866366366366368 	299.9999999999534 	2.596414531450722e-12 	101324.9999999913
-0.3841341341341344 	299.9999999999964 	9.734281401115206e-13 	101324.9999999914
-0.381631631631632 	299.9999999999436 	1.885370171096323e-12 	101324.9999999911
-0.3791291291291294 	300.0000000000013 	1.089501129933414e-12 	101324.9999999911
-0.3766266266266269 	300.0000000000242 	7.434694085782513e-13 	101324.9999999912
-0.3741241241241244 	300.0000000000266 	1.640052778755364e-12 	101324.9999999911
-0.371621621621622 	300.0000000000197 	1.013967167332844e-12 	101324.9999999909
-0.3691191191191194 	300.0000000000165 	2.712708330087628e-12 	101324.9999999911
-0.366616616616617 	300.0000000000135 	1.317843846585021e-12 	101324.9999999911
-0.3641141141141143 	299.9999999999633 	3.138354998016737e-12 	101324.9999999911
-0.3616116116116119 	299.9999999999444 	1.215310379795322e-12 	101324.9999999908
-0.3591091091091095 	299.9999999999837 	2.632099682179785e-12 	101324.9999999907
-0.356606606606607 	299.9999999999674 	1.740445041488906e-12 	101324.9999999908
-0.3541041041041044 	299.9999999999891 	1.149451558941353e-12 	101324.9999999907
-0.3516016016016019 	300.0000000000087 	2.048931589507492e-12 	101324.9999999908
-0.3490990990990994 	299.9999999999919 	4.045169912896161e-13 	101324.9999999909
-0.346596596596597 	300.0000000000459 	3.036826792613918e-12 	101324.9999999911
-0.3440940940940944 	300.0000000000542 	6.587595356457078e-13 	101324.9999999913
-0.3415915915915919 	300.0000000000218 	3.069515536483818e-12 	101324.9999999913
-0.3390890890890895 	299.9999999999753 	8.033926760938333e-13 	101324.9999999913
-0.3365865865865869 	300.0000000000195 	2.696282525733413e-12 	101324.9999999915
-0.3340840840840844 	300.0000000000005 	1.003917137689137e-12 	101324.9999999914
-0.3315815815815819 	300.0000000000215 	1.363011800067439e-12 	101324.9999999911
-0.3290790790790794 	300.0000000000237 	3.581685074369516e-13 	101324.9999999909
-0.3265765765765769 	299.9999999999224 	1.902766767792382e-12 	101324.9999999907
-0.3240740740740744 	299.9999999999953 	8.562528012969344e-13 	101324.9999999905
-0.3215715715715718 	300.000000000008 	2.086917304206109e-12 	101324.9999999907
-0.3190690690690695 	299.9999999999275 	1.070128003343582e-12 	101324.9999999907
-0.3165665665665668 	299.9999999999899 	2.578718467851725e-12 	101324.9999999909
-0.3140640640640644 	300.000000000006 	1.059197696624371e-12 	101324.9999999908
-0.311561561561562 	299.9999999999221 	4.209090677972523e-12 	101324.9999999906
-0.3090590590590593 	299.9999999999921 	1.773270449179181e-12 	101324.9999999908
-0.3065565565565568 	300.0000000000026 	6.18865764195116e-12 	101324.9999999911
-0.3040540540540545 	300.000000000003 	1.333498440693195e-12 	101324.9999999912
-0.3015515515515518 	300.0000000000381 	6.145012220354127e-12 	101324.9999999911
-0.2990490490490494 	299.9999999999465 	2.439633442832986e-12 	101324.9999999911
-0.2965465465465469 	299.9999999999835 	4.520946911285996e-12 	101324.9999999909
-0.2940440440440444 	299.9999999999953 	2.658346395750681e-12 	101324.9999999909
-0.2915415415415418 	300.0000000000052 	3.392924535338734e-12 	101324.9999999909
-0.2890390390390395 	300.0000000000075 	3.488113639603077e-12 	101324.9999999908
-0.2865365365365368 	299.999999999982 	2.203692975130823e-12 	101324.9999999907
-0.2840340340340343 	300.0000000000009 	3.671226937597356e-12 	101324.9999999908
-0.2815315315315318 	299.9999999999191 	1.2116815632805e-12 	101324.999999991
-0.2790290290290295 	299.9999999999579 	2.853549537045582e-12 	101324.999999991
-0.2765265265265269 	300.0000000000069 	1.564394969834704e-12 	101324.9999999911
-0.2740240240240244 	300.0000000000286 	2.274352524091883e-12 	101324.9999999912
-0.2715215215215219 	300.0000000000126 	1.978864148657947e-12 	101324.9999999912
-0.2690190190190194 	299.999999999942 	1.60704118348393e-12 	101324.9999999909
-0.2665165165165169 	299.9999999999994 	1.733775510016609e-12 	101324.9999999907
-0.2640140140140144 	299.9999999999663 	9.738562561375423e-13 	101324.9999999908
-0.2615115115115119 	300.0000000000018 	3.168392774361554e-12 	101324.999999991
-0.2590090090090094 	299.9999999999288 	1.77621710320137e-12 	101324.9999999909
-0.2565065065065068 	299.9999999999923 	3.247220192571524e-12 	101324.9999999909
-0.2540040040040044 	299.9999999999958 	4.346032524444976e-12 	101324.9999999909
-0.2515015015015019 	300.0000000000408 	3.859730427854768e-12 	101324.9999999908
-0.2489989989989994 	300.0000000000466 	5.823717840048947e-12 	101324.999999991
-0.2464964964964968 	299.9999999999888 	2.936624304322672e-12 	101324.9999999911
-0.2439939939939944 	299.9999999999958 	6.840707016484985e-12 	101324.9999999909
-0.2414914914914919 	299.9999999999641 	2.429653750184466e-12 	101324.999999991
-0.2389889889889893 	300.0000000000042 	6.818517545377519e-12 	101324.9999999912
-0.2364864864864869 	300.0000000000259 	2.974155371353606e-12 	101324.9999999911
-0.2339839839839843 	299.9999999999256 	7.567063159392832e-12 	101324.9999999911
-0.2314814814814819 	299.9999999999807 	3.451394181746888e-12 	101324.9999999913
-0.2289789789789792 	299.9999999999134 	6.763355174640773e-12 	101324.9999999914
-0.2264764764764769 	299.9999999999428 	3.698642044386189e-12 	101324.9999999916
-0.2239739739739743 	299.9999999999565 	5.175356540111271e-12 	101324.9999999915
-0.2214714714714718 	299.9999999999317 	3.985225539493351e-12 	101324.9999999914
-0.2189689689689693 	299.9999999999667 	3.808620731129906e-12 	101324.9999999911
-0.2164664664664669 	299.9999999999808 	4.894525986848091e-12 	101324.9999999908
-0.2139639639639643 	299.9999999999271 	3.29722446248049e-12 	101324.9999999912
-0.2114614614614618 	299.9999999999702 	4.070410341651789e-12 	101324.9999999915
-0.2089589589589593 	299.9999999999913 	4.085828277437876e-12 	101324.9999999915
-0.2064564564564568 	299.9999999999908 	4.020062333111947e-12 	101324.9999999916
-0.2039539539539543 	299.9999999999059 	5.593428983974502e-12 	101324.9999999917
-0.2014514514514518 	299.9999999999422 	2.921105851661168e-12 	101324.9999999916
-0.1989489489489494 	299.9999999999698 	6.003060968156244e-12 	101324.9999999915
-0.1964464464464468 	299.9999999999933 	2.498294417302883e-12 	101324.9999999911
-0.1939439439439443 	299.999999999988 	6.0832420518208e-12 	101324.9999999907
-0.1914414414414418 	299.9999999999142 	3.045147890188243e-12 	101324.9999999905
-0.1889389389389393 	300.0000000000064 	4.799475371254116e-12 	101324.9999999906
-0.1864364364364368 	300.0000000000435 	3.5588328141128e-12 	101324.9999999908
-0.1839339339339343 	299.9999999999695 	4.347502405123711e-12 	101324.9999999905
-0.1814314314314318 	299.9999999999948 	2.965350397198143e-12 	101324.9999999905
-0.1789289289289293 	299.9999999998904 	4.031024651486256e-12 	101324.9999999907
-0.1764264264264268 	299.999999999981 	1.454546879066747e-12 	101324.9999999908
-0.1739239239239243 	299.9999999998947 	4.531646417708897e-12 	101324.9999999909
-0.1714214214214218 	299.9999999999891 	8.116859028410797e-13 	101324.999999991
-0.1689189189189193 	299.9999999999504 	5.610728646065749e-12 	101324.9999999909
-0.1664164164164168 	300.0000000000081 	1.37367967412805e-12 	101324.9999999907
-0.1639139139139143 	299.9999999999824 	6.910521774109442e-12 	101324.9999999908
-0.1614114114114118 	300.000000000026 	2.991554717734092e-12 	101324.9999999909
-0.1589089089089093 	299.9999999999967 	8.484832950238898e-12 	101324.9999999909
-0.1564064064064068 	299.9999999999777 	4.22372469893542e-12 	101324.9999999905
-0.1539039039039043 	299.9999999999886 	9.349075962754201e-12 	101324.9999999904
-0.1514014014014018 	300.0000000000245 	2.942692219130379e-12 	101324.9999999901
-0.1488988988988993 	299.9999999999811 	9.241894576352669e-12 	101324.9999999901
-0.1463963963963968 	299.9999999999985 	9.31927931450863e-13 	101324.9999999903
-0.1438938938938943 	299.9999999999499 	8.242840654236151e-12 	101324.9999999901
-0.1413913913913918 	299.9999999999239 	6.106638743013378e-13 	101324.9999999902
-0.1388888888888893 	299.9999999999807 	5.843323419666427e-12 	101324.9999999903
-0.1363863863863868 	299.9999999998815 	1.244918886103396e-12 	101324.9999999902
-0.1338838838838843 	299.9999999999115 	4.650437624738861e-12 	101324.9999999899
-0.1313813813813818 	299.9999999999961 	1.814033482386416e-12 	101324.9999999896
-0.1288788788788793 	299.9999999999595 	4.222383005858347e-12 	101324.9999999899
-0.1263763763763768 	299.9999999999641 	8.994272947105536e-13 	101324.9999999899
-0.1238738738738743 	299.9999999999243 	3.631158764148042e-12 	101324.9999999898
-0.1213713713713717 	299.9999999999799 	8.507462271014217e-13 	101324.99999999
-0.1188688688688693 	300.0000000000048 	3.40887408915728e-12 	101324.9999999903
-0.1163663663663668 	299.9999999999052 	1.468754124701862e-12 	101324.9999999904
-0.1138638638638643 	299.9999999999905 	4.923119710361023e-12 	101324.9999999908
-0.1113613613613618 	299.9999999999822 	9.743503769491513e-13 	101324.9999999912
-0.1088588588588592 	299.9999999999736 	6.248882690147919e-12 	101324.9999999911
-0.1063563563563568 	299.9999999999501 	2.847514434826765e-13 	101324.9999999911
-0.1038538538538543 	299.9999999999707 	6.045435285837978e-12 	101324.9999999913
-0.1013513513513517 	300.0000000000165 	2.126310780371587e-12 	101324.9999999915
-0.09884884884884926 	299.9999999999382 	6.123373970371037e-12 	101324.9999999913
-0.09634634634634676 	299.9999999998855 	2.824815514978069e-12 	101324.9999999914
-0.09384384384384425 	299.9999999999246 	4.644261172910077e-12 	101324.9999999913
-0.09134134134134177 	300.0000000000245 	3.764162451070943e-12 	101324.9999999913
-0.08883883883883925 	300.0000000000083 	5.866301605139992e-12 	101324.9999999911
-0.08633633633633674 	299.9999999999544 	4.077365245486275e-12 	101324.9999999909
-0.08383383383383426 	300.0000000000079 	3.689880986468898e-12 	101324.999999991
-0.08133133133133173 	299.9999999999669 	3.601707240006945e-12 	101324.9999999909
-0.07882882882882926 	299.9999999998798 	3.200488043157591e-12 	101324.9999999907
-0.07632632632632676 	299.9999999999552 	3.020411136429017e-12 	101324.9999999906
-0.07382382382382424 	299.9999999998909 	2.822117975320773e-12 	101324.9999999903
-0.07132132132132173 	300.0000000000109 	2.499764692564608e-12 	101324.9999999906
-0.06881881881881925 	299.9999999999602 	2.262674664302194e-12 	101324.9999999906
-0.06631631631631671 	299.9999999998903 	1.815034228354089e-12 	101324.9999999907
-0.06381381381381425 	299.9999999999512 	1.812287697286405e-12 	101324.9999999907
-0.06131131131131173 	299.9999999999534 	2.086098372086814e-12 	101324.999999991
-0.05880880880880923 	299.999999999913 	1.984467843129115e-12 	101324.9999999912
-0.05630630630630672 	299.9999999999633 	1.469565210928306e-12 	101324.9999999912
-0.05380380380380424 	300.0000000000152 	2.048905701839135e-12 	101324.9999999913
-0.05130130130130173 	300.0000000000133 	1.69989026623289e-12 	101324.9999999912
-0.04879879879879922 	299.9999999999421 	1.573784044272034e-12 	101324.9999999909
-0.04629629629629672 	299.999999999928 	1.084258850641375e-12 	101324.9999999909
-0.04379379379379422 	299.999999999915 	1.244318957679463e-12 	101324.9999999905
-0.04129129129129173 	299.9999999999746 	6.067616275325716e-13 	101324.9999999905
-0.03878878878878922 	299.9999999999788 	3.76942411564467e-13 	101324.9999999906
-0.03628628628628671 	299.9999999999778 	5.509149228039087e-13 	101324.9999999905
-0.03378378378378422 	299.9999999999235 	6.696621295739654e-13 	101324.9999999904
-0.03128128128128172 	299.9999999999651 	1.515102461288441e-12 	101324.9999999906
-0.02877877877877922 	299.9999999999648 	8.298246173296513e-13 	101324.9999999904
-0.0262762762762767 	299.9999999998942 	6.444301371615822e-13 	101324.9999999906
-0.02377377377377422 	300.0000000000239 	4.80657196829564e-13 	101324.9999999906
-0.0212712712712717 	299.9999999998988 	4.020931318918462e-13 	101324.9999999907
-0.01876876876876921 	299.9999999999661 	7.181965098845019e-13 	101324.9999999907
-0.01626626626626671 	300.0000000000123 	5.363369977232903e-14 	101324.9999999907
-0.0137637637637642 	299.9999999999631 	7.019339970726599e-14 	101324.9999999907
-0.0112612612612617 	300.0000000000163 	3.249629699227441e-13 	101324.999999991
-0.008758758758759198 	299.9999999999977 	1.172744309952981e-13 	101324.999999991
-0.006256256256256697 	299.9999999998789 	4.589015151516848e-13 	101324.9999999912
-0.003753753753754195 	299.99999999995 	2.129254897708843e-13 	101324.9999999914
-0.001251251251251693 	299.9999999999204 	1.101307336997815e-12 	101324.9999999914
0.00125125125125081 	299.9999999999509 	4.454840468943398e-13 	101324.9999999913
0.003753753753753312 	299.999999999961 	1.41932936251244e-12 	101324.9999999912
0.006256256256255817 	299.9999999998777 	9.323349604075925e-13 	101324.9999999911
0.008758758758758317 	299.9999999999879 	1.386994928517835e-12 	101324.9999999908
0.01126126126126082 	300.0000000000092 	1.123813140901759e-12 	101324.999999991
0.01376376376376332 	299.9999999999675 	1.062796938770454e-12 	101324.9999999908
0.01626626626626582 	300.0000000000073 	8.25145049560013e-13 	101324.9999999912
0.01876876876876833 	299.9999999999544 	8.004560451690191e-13 	101324.9999999912
0.02127127127127083 	299.9999999999673 	3.952405420053456e-13 	101324.9999999913
0.02377377377377332 	299.9999999999934 	2.157934354256304e-13 	101324.9999999911
0.02627627627627583 	299.9999999998987 	7.224993616925341e-14 	101324.999999991
0.02877877877877833 	300.0000000000092 	8.873955308744238e-13 	101324.9999999909
0.03128128128128083 	299.999999999943 	2.110341431307136e-13 	101324.999999991
0.03378378378378333 	299.9999999998969 	8.636360863064864e-13 	101324.9999999911
0.03628628628628584 	299.9999999999691 	5.467741104480709e-13 	101324.9999999911
0.03878878878878834 	299.9999999999766 	5.381374738932188e-13 	101324.9999999911
0.04129129129129084 	299.9999999999759 	3.401852174603993e-13 	101324.9999999911
0.04379379379379333 	299.9999999999364 	3.126345791181882e-13 	101324.9999999909
0.04629629629629585 	299.9999999998826 	1.384500266505272e-13 	101324.9999999909
0.04879879879879834 	299.999999999948 	1.009682670929128e-13 	101324.9999999908
0.05130130130130085 	300.0000000000131 	1.237611740926009e-13 	101324.9999999907
0.05380380380380335 	300.000000000017 	7.956432419882076e-14 	101324.9999999905
0.05630630630630584 	299.9999999999854 	2.319683417093755e-13 	101324.9999999906
0.05880880880880836 	299.9999999999166 	2.292626984707376e-13 	101324.9999999904
0.06131131131131085 	299.9999999999719 	7.426225791180925e-14 	101324.9999999902
0.06381381381381336 	299.9999999999628 	2.849397924355977e-13 	101324.9999999899
0.06631631631631586 	299.9999999998859 	4.105670942768916e-13 	101324.9999999901
0.06881881881881835 	299.9999999999461 	4.83968831236873e-13 	101324.9999999903
0.07132132132132088 	299.9999999999818 	7.513722672081844e-13 	101324.9999999902
0.07382382382382337 	299.999999999897 	1.63865793538002e-12 	101324.9999999903
0.07632632632632587 	299.9999999999689 	1.68224922699541e-12 	101324.99999999
0.07882882882882837 	299.999999999935 	1.649705823714998e-12 	101324.99999999
0.08133133133133086 	299.9999999999857 	1.675637934785595e-12 	101324.99999999
0.08383383383383337 	299.9999999999851 	1.062224268998043e-12 	101324.9999999902
0.08633633633633589 	299.9999999999014 	7.758411714041172e-13 	101324.9999999904
0.08883883883883838 	300.000000000007 	1.237238939582672e-12 	101324.9999999903
0.09134134134134086 	299.9999999999821 	7.935297559183857e-13 	101324.9999999905
0.09384384384384339 	299.9999999998904 	1.869340382810936e-12 	101324.9999999905
0.09634634634634588 	299.9999999999662 	1.840350843708212e-12 	101324.9999999904
0.09884884884884838 	299.9999999999701 	1.922009185391734e-12 	101324.9999999904
0.1013513513513509 	300.0000000000251 	2.011461035412178e-12 	101324.9999999907
0.1038538538538534 	299.9999999999484 	2.477912487196581e-12 	101324.999999991
0.1063563563563559 	300.0000000000167 	2.970566904937709e-12 	101324.999999991
0.1088588588588584 	300.0000000000256 	2.508875158065978e-12 	101324.999999991
0.1113613613613609 	299.9999999999166 	2.339238777524376e-12 	101324.9999999908
0.1138638638638634 	299.9999999999395 	2.593483012307752e-12 	101324.9999999907
0.1163663663663659 	299.9999999999398 	2.86327958387249e-12 	101324.9999999902
0.1188688688688684 	299.9999999999695 	3.138885189637121e-12 	101324.9999999904
0.1213713713713709 	299.9999999999947 	2.66555990726438e-12 	101324.9999999905
0.1238738738738734 	299.9999999999209 	3.118476587190665e-12 	101324.9999999903
0.1263763763763759 	299.9999999999833 	3.726677021227043e-12 	101324.9999999903
0.1288788788788784 	299.9999999999856 	3.44575862414014e-12 	101324.9999999901
0.1313813813813809 	299.9999999999842 	3.372334197865986e-12 	101324.9999999902
0.1338838838838834 	299.999999999975 	3.084364879500435e-12 	101324.9999999902
0.1363863863863859 	300.0000000000313 	3.288974492987411e-12 	101324.99999999
0.1388888888888884 	300.0000000000474 	3.630177006264121e-12 	101324.9999999902
0.1413913913913909 	299.9999999999997 	2.774301197538145e-12 	101324.9999999905
0.1438938938938934 	299.9999999999903 	3.102713355179543e-12 	101324.9999999905
0.1463963963963959 	299.9999999999613 	2.357435127689971e-12 	101324.9999999907
0.1488988988988985 	299.9999999999068 	3.528211505090581e-12 	101324.9999999902
0.1514014014014009 	299.9999999999656 	1.866753892234723e-12 	101324.9999999901
0.1539039039039035 	299.9999999999603 	3.180510976944076e-12 	101324.9999999901
0.1564064064064059 	299.9999999999316 	3.876048633135633e-13 	101324.9999999903
0.1589089089089084 	299.9999999999779 	3.307309299312698e-12 	101324.9999999904
0.1614114114114109 	299.9999999999735 	7.539851794990818e-13 	101324.9999999906
0.1639139139139134 	299.9999999999047 	2.297994327603279e-12 	101324.9999999907
0.166416416416416 	300.0000000000024 	1.558273268114473e-12 	101324.9999999905
0.1689189189189185 	300.0000000000299 	1.700339109909425e-12 	101324.9999999906
0.1714214214214209 	299.9999999999956 	2.534392670317556e-12 	101324.9999999905
0.1739239239239235 	299.9999999999876 	1.56168490408872e-12 	101324.9999999907
0.1764264264264259 	299.9999999999648 	4.066861822251034e-12 	101324.9999999905
0.1789289289289284 	300.0000000000059 	2.137898211477221e-12 	101324.9999999904
0.181431431431431 	299.999999999961 	5.323819583790075e-12 	101324.9999999904
0.1839339339339334 	299.9999999999625 	3.075763757655243e-12 	101324.9999999904
0.186436436436436 	299.9999999999199 	4.294449336930435e-12 	101324.9999999904
0.1889389389389385 	299.9999999999802 	3.310635288381854e-12 	101324.9999999904
0.191441441441441 	299.9999999999761 	2.900718678589698e-12 	101324.99999999
0.1939439439439434 	299.9999999999191 	4.139419699680881e-12 	101324.99999999
0.196446446446446 	299.9999999999417 	2.430506482353697e-12 	101324.99999999
0.1989489489489485 	299.9999999999671 	4.558576060306033e-12 	101324.99999999
0.2014514514514509 	299.9999999999802 	2.603598674219149e-12 	101324.9999999899
0.2039539539539535 	299.9999999999928 	4.005726708647028e-12 	101324.9999999899
0.2064564564564559 	299.9999999999553 	3.570984280426152e-12 	101324.9999999899
0.2089589589589585 	299.9999999999782 	4.088909091019543e-12 	101324.9999999901
0.211461461461461 	299.9999999999292 	3.857884286682278e-12 	101324.99999999
0.2139639639639635 	299.99999999998 	3.076029339478845e-12 	101324.9999999897
0.2164664664664659 	299.9999999999956 	3.530001355418852e-12 	101324.9999999896
0.2189689689689684 	299.9999999999961 	8.414106923858566e-13 	101324.9999999896
0.221471471471471 	299.9999999999941 	2.761278455784894e-12 	101324.9999999895
0.2239739739739735 	299.99999999995 	7.415472101674732e-13 	101324.9999999899
0.226476476476476 	299.9999999999797 	2.184862648049781e-12 	101324.99999999
0.2289789789789785 	299.9999999999944 	7.55766026621457e-13 	101324.99999999
0.231481481481481 	299.9999999999856 	6.592921555491383e-13 	101324.9999999901
0.2339839839839835 	299.999999999986 	1.183042790429422e-12 	101324.99999999
0.236486486486486 	300.0000000000209 	2.147351098729011e-13 	101324.9999999899
0.2389889889889885 	299.999999999998 	1.845695313016704e-12 	101324.9999999897
0.241491491491491 	299.9999999999196 	5.921616177084725e-13 	101324.9999999898
0.2439939939939935 	299.9999999999777 	3.723431995479364e-12 	101324.9999999898
0.246496496496496 	299.9999999999897 	1.64612342393037e-12 	101324.99999999
0.2489989989989985 	300.0000000000346 	2.868051969497071e-12 	101324.9999999901
0.251501501501501 	300.0000000000287 	1.773151106660741e-12 	101324.9999999903
0.2540040040040035 	299.9999999999858 	1.461039148661461e-12 	101324.9999999906
0.256506506506506 	300.0000000000264 	1.690021829692665e-12 	101324.9999999907
0.2590090090090086 	299.9999999999037 	5.839325392964166e-13 	101324.9999999908
0.261511511511511 	299.9999999999978 	2.765836396200509e-12 	101324.999999991
0.2640140140140135 	299.999999999988 	8.837814693793777e-13 	101324.9999999908
0.2665165165165161 	299.9999999999275 	1.132111532829995e-12 	101324.9999999907
0.2690190190190185 	300.0000000000049 	8.278365285536834e-14 	101324.9999999906
0.271521521521521 	300.0000000000084 	4.456776425496189e-13 	101324.9999999906
0.2740240240240235 	300.0000000000147 	7.298170430797661e-13 	101324.9999999905
0.276526526526526 	300.0000000000056 	5.645905855955677e-13 	101324.9999999904
0.2790290290290286 	299.9999999999382 	1.600451523662676e-12 	101324.9999999904
0.281531531531531 	299.9999999999243 	8.313129195655047e-13 	101324.9999999905
0.2840340340340335 	299.9999999999775 	2.239380733118233e-12 	101324.9999999906
0.2865365365365361 	299.9999999999571 	8.92793606923788e-13 	101324.9999999907
0.2890390390390385 	299.9999999999981 	1.392673199767309e-12 	101324.9999999909
0.291541541541541 	299.999999999997 	1.325578782705572e-12 	101324.9999999908
0.2940440440440436 	299.9999999999903 	5.239885196770193e-13 	101324.9999999905
0.296546546546546 	299.9999999999885 	2.13934019417759e-12 	101324.9999999906
0.2990490490490486 	299.9999999999325 	1.336826262808306e-12 	101324.9999999906
0.3015515515515511 	300.0000000000389 	3.708766043340493e-12 	101324.9999999904
0.3040540540540535 	299.9999999999957 	2.876974934656995e-12 	101324.9999999903
0.3065565565565562 	299.9999999999959 	4.177567118908861e-12 	101324.99999999
0.3090590590590585 	299.9999999999872 	2.50887380660588e-12 	101324.9999999901
0.3115615615615611 	299.9999999999371 	3.47279053412071e-12 	101324.9999999901
0.3140640640640635 	300.000000000005 	1.422516643433202e-12 	101324.9999999902
0.316566566566566 	299.9999999999897 	2.34632777443717e-12 	101324.9999999901
0.3190690690690687 	299.9999999999519 	1.158302831919239e-12 	101324.9999999902
0.3215715715715711 	300.0000000000131 	2.550306381443615e-12 	101324.9999999901
0.3240740740740735 	299.9999999999958 	7.746198189994037e-13 	101324.9999999903
0.326576576576576 	299.999999999898 	2.054738703032236e-12 	101324.9999999903
0.3290790790790786 	300.0000000000077 	5.373121713941091e-13 	101324.9999999903
0.3315815815815811 	300.0000000000296 	9.457550321091393e-13 	101324.9999999905
0.3340840840840836 	299.9999999999852 	6.760142045886043e-13 	101324.9999999907
0.3365865865865861 	300.0000000000562 	1.077789084778967e-12 	101324.999999991
0.3390890890890886 	300.00000000005 	6.193882082305925e-13 	101324.999999991
0.3415915915915911 	300.0000000000027 	1.255642427686866e-12 	101324.9999999909
0.3440940940940935 	299.9999999999523 	5.285176290129155e-13 	101324.9999999906
0.3465965965965962 	300.0000000000357 	2.102343091717944e-12 	101324.9999999905
0.3490990990990985 	300.0000000000265 	5.589645449253531e-13 	101324.9999999905
0.3516016016016011 	299.9999999999866 	4.254439931988334e-13 	101324.9999999905
0.3541041041041035 	300.0000000000077 	5.470912967824888e-13 	101324.9999999904
0.3566066066066061 	299.9999999999548 	1.014457678326143e-12 	101324.9999999907
0.3591091091091085 	299.9999999999162 	9.155172845157413e-13 	101324.9999999907
0.3616116116116112 	299.9999999999333 	1.954125824588993e-12 	101324.9999999906
0.3641141141141137 	299.9999999999275 	2.105683722484361e-12 	101324.9999999903
0.3666166166166161 	299.9999999999221 	2.697550742913319e-12 	101324.9999999899
0.3691191191191185 	300.0000000000439 	2.974721990365702e-12 	101324.9999999896
0.371621621621621 	300.0000000000174 	2.624370784251372e-12 	101324.9999999895
0.3741241241241237 	300.0000000000541 	1.829377773180644e-12 	101324.9999999896
0.3766266266266261 	300.0000000000282 	2.267216049894976e-12 	101324.9999999898
0.3791291291291286 	299.9999999999791 	9.5900026030209e-13 	101324.9999999898
0.3816316316316311 	299.9999999999148 	2.178184584594246e-12 	101324.99999999
0.3841341341341336 	300.0000000000097 	1.178620903891994e-12 	101324.9999999901
0.3866366366366362 	299.9999999999961 	1.114750469280176e-12 	101324.9999999902
0.3891391391391387 	299.9999999999512 	1.02250173301029e-12 	101324.9999999901
0.391641641641641 	299.9999999999943 	9.201502998632905e-13 	101324.9999999902
0.3941441441441436 	300.0000000000076 	7.059928467068774e-13 	101324.9999999903
0.3966466466466462 	299.9999999999988 	9.764683515256939e-13 	101324.9999999902
0.3991491491491486 	299.9999999999485 	5.455877077082531e-13 	101324.9999999899
0.4016516516516512 	299.9999999999193 	1.198708306770196e-12 	101324.9999999899
0.4041541541541536 	299.9999999999503 	4.828568349759981e-13 	101324.9999999899
0.4066566566566561 	299.999999999948 	1.289542005345265e-12 	101324.9999999896
0.4091591591591587 	299.9999999999939 	1.749686032382415e-12 	101324.9999999895
0.4116616616616612 	300.0000000000064 	4.718815917266865e-13 	101324.9999999894
0.4141641641641635 	300.000000000043 	9.635763499958693e-13 	101324.9999999896
0.4166666666666662 	299.9999999999926 	6.494920440124122e-13 	101324.9999999898
0.4191691691691687 	299.9999999999364 	9.722760672520106e-13 	101324.9999999901
0.421671671671671 	300.0000000000085 	1.695730499598613e-12 	101324.9999999901
0.4241741741741737 	299.9999999999736 	3.039605515049236e-12 	101324.9999999901
0.4266766766766761 	299.9999999999506 	2.238229189564645e-12 	101324.99999999
0.4291791791791785 	300.000000000019 	3.354528536052383e-12 	101324.9999999902
0.4316816816816812 	300.0000000000106 	2.861012011212404e-12 	101324.9999999902
0.4341841841841836 	299.9999999999826 	3.186108829761145e-12 	101324.9999999901
0.4366866866866862 	299.9999999999193 	1.733551040928928e-12 	101324.9999999902
0.4391891891891885 	299.9999999999886 	1.77444822882794e-12 	101324.99999999
0.4416916916916913 	299.9999999999816 	1.674422178749809e-12 	101324.9999999902
0.4441941941941936 	299.9999999999878 	1.042446890676334e-12 	101324.99999999
0.4466966966966961 	299.9999999999194 	1.889240562297663e-12 	101324.99999999
0.4491991991991987 	299.999999999977 	1.241782006974719e-12 	101324.99999999
0.4517017017017012 	299.9999999999768 	1.541485676898265e-12 	101324.99999999
0.4542042042042035 	299.9999999999806 	8.845031165213853e-13 	101324.9999999899
0.4567067067067062 	299.9999999999898 	2.289209221315294e-13 	101324.9999999901
0.4592092092092087 	299.9999999999253 	2.74551290898384e-13 	101324.9999999899
0.4617117117117112 	300.0000000000164 	5.878563472717813e-13 	101324.9999999898
0.4642142142142137 	299.9999999999612 	4.455089863319351e-13 	101324.9999999897
0.4667167167167162 	299.9999999999879 	4.992578453574066e-13 	101324.9999999899
0.4692192192192187 	299.9999999999547 	3.863929438440646e-13 	101324.9999999903
0.4717217217217212 	300.0000000000115 	9.221365212043183e-13 	101324.9999999904
0.4742242242242236 	299.9999999999548 	6.567050798616854e-13 	101324.9999999904
0.4767267267267262 	299.9999999999755 	6.609075603252518e-13 	101324.9999999903
0.4792292292292287 	300.0000000000132 	2.318096488812176e-13 	101324.9999999904
0.4817317317317312 	300.0000000000304 	2.121604592154603e-13 	101324.9999999905
0.4842342342342336 	299.9999999999844 	2.761308926695744e-13 	101324.9999999905
0.4867367367367362 	299.9999999999519 	7.329507113114031e-13 	101324.9999999903
0.4892392392392387 	300.0000000000251 	9.663752093660867e-13 	101324.9999999901
0.4917417417417412 	300.0000000000024 	1.055058160121997e-12 	101324.9999999898
0.4942442442442437 	299.9999999999067 	1.07464531437889e-12 	101324.9999999896
0.4967467467467462 	299.9999999999287 	9.18994993146645e-13 	101324.9999999898
0.4992492492492487 	299.9999999999183 	1.329955484075012e-12 	101324.9999999898
0.5017517517517511 	299.999999999954 	5.086478448519902e-13 	101324.9999999898
0.5042542542542537 	299.9999999999625 	1.165341115400884e-12 	101324.9999999901
0.5067567567567562 	299.9999999999411 	1.041771819996498e-12 	101324.9999999903
0.5092592592592589 	299.9999999999675 	4.864285649367451e-13 	101324.9999999905
0.5117617617617611 	299.999999999958 	1.740767326442192e-12 	101324.9999999903
0.5142642642642637 	299.9999999999831 	2.171918701556675e-12 	101324.9999999904
0.5167667667667663 	299.9999999999704 	1.691632976157413e-12 	101324.9999999903
0.5192692692692688 	299.9999999999244 	3.628255791531894e-12 	101324.9999999904
0.5217717717717714 	299.999999999938 	2.968772679494407e-12 	101324.9999999904
0.5242742742742736 	299.999999999942 	3.204058495803292e-12 	101324.9999999903
0.5267767767767763 	299.9999999999569 	2.196858494280403e-12 	101324.9999999901
0.5292792792792789 	299.9999999999393 	2.609178160792348e-12 	101324.99999999
0.5317817817817813 	299.9999999999047 	1.532744651868942e-12 	101324.9999999899
0.5342842842842837 	300.0000000000152 	1.186352634825422e-12 	101324.9999999899
0.5367867867867864 	300.0000000000047 	1.366867806710558e-12 	101324.99999999
0.5392892892892888 	299.9999999999579 	7.147224920238545e-13 	101324.9999999899
0.5417917917917912 	300.0000000000043 	1.762793102608217e-12 	101324.9999999901
0.5442942942942938 	299.9999999999787 	1.123505505629986e-12 	101324.9999999905
0.5467967967967964 	299.9999999999519 	2.269081439823856e-12 	101324.9999999906
0.5492992992992988 	299.9999999999407 	1.551384850405567e-12 	101324.9999999905
0.5518018018018012 	299.9999999999349 	2.850556063219172e-12 	101324.9999999906
0.5543043043043039 	300.0000000000207 	2.135623216422953e-12 	101324.9999999905
0.5568068068068063 	299.9999999999913 	2.33806959511761e-12 	101324.9999999907
0.5593093093093087 	299.999999999906 	1.268192810137959e-12 	101324.9999999909
0.5618118118118114 	299.9999999999625 	2.829366059367585e-12 	101324.9999999908
0.5643143143143137 	299.9999999999468 	1.960506258121758e-12 	101324.9999999907
0.5668168168168163 	299.9999999999877 	2.268355920037279e-12 	101324.9999999909
0.5693193193193188 	300.0000000000288 	1.915688205735429e-12 	101324.9999999908
0.5718218218218213 	300.0000000000243 	1.173268159946535e-12 	101324.9999999907
0.5743243243243239 	300.0000000000075 	2.460710687168249e-12 	101324.9999999905
0.5768268268268262 	300.0000000000051 	2.101940034891895e-12 	101324.9999999902
0.5793293293293288 	299.999999999952 	2.648049801905263e-12 	101324.99999999
0.5818318318318314 	299.9999999999229 	3.128165100405882e-12 	101324.9999999901
0.5843343343343338 	299.9999999999798 	3.473162311579874e-12 	101324.9999999902
0.5868368368368363 	299.9999999999736 	2.522387944948081e-12 	101324.9999999903
0.5893393393393387 	299.9999999999442 	2.746927554652046e-12 	101324.9999999904
0.5918418418418413 	299.9999999999387 	1.834665494798187e-12 	101324.9999999903
0.5943443443443439 	300.0000000000102 	2.237556677965965e-12 	101324.9999999904
0.5968468468468463 	300.0000000000151 	1.21253866918299e-12 	101324.9999999903
0.5993493493493487 	300.00000000004 	1.464497428994293e-12 	101324.9999999903
0.6018518518518514 	299.9999999999804 	9.667988847126587e-13 	101324.9999999905
0.6043543543543537 	299.9999999999924 	1.472337836281854e-12 	101324.9999999907
0.6068568568568564 	299.9999999999794 	8.210049924244712e-13 	101324.9999999907
0.6093593593593587 	299.9999999999286 	1.484859355570772e-12 	101324.9999999908
0.6118618618618614 	299.9999999999238 	1.538803184008801e-12 	101324.9999999909
0.6143643643643638 	300.0000000000156 	2.933947531502213e-12 	101324.9999999907
0.6168668668668662 	299.9999999999837 	1.550305081992161e-12 	101324.9999999907
0.6193693693693688 	299.9999999999541 	2.579169917017434e-12 	101324.9999999908
0.6218718718718714 	299.9999999999634 	6.796710792028899e-13 	101324.9999999909
0.6243743743743737 	299.9999999999332 	1.588980017431193e-12 	101324.9999999909
0.6268768768768762 	299.9999999999254 	5.270246493857647e-13 	101324.9999999908
0.629379379379379 	299.9999999999513 	7.399053665297905e-13 	101324.9999999908
0.6318818818818812 	299.9999999999755 	8.886759754601944e-13 	101324.9999999907
0.6343843843843838 	300.0000000000147 	1.52323842029231e-12 	101324.9999999907
0.6368868868868864 	299.99999999998 	2.678804733783959e-12 	101324.9999999907
0.6393893893893888 	299.9999999999222 	2.080473316943043e-12 	101324.9999999907
0.6418918918918912 	300.0000000000089 	4.815594076441657e-12 	101324.999999991
0.6443943943943939 	299.9999999999956 	2.018474004001823e-12 	101324.9999999914
0.6468968968968963 	299.9999999999866 	5.334973235459743e-12 	101324.9999999914
0.6493993993993988 	299.9999999999754 	1.911458402693285e-12 	101324.9999999915
0.6519019019019012 	299.9999999999726 	5.070003866191296e-12 	101324.9999999914
0.6544044044044038 	299.9999999999038 	2.616865992137611e-12 	101324.9999999912
0.6569069069069065 	299.9999999999559 	5.193152868390213e-12 	101324.9999999912
0.6594094094094087 	299.9999999999613 	2.151254824747521e-12 	101324.9999999911
0.6619119119119113 	299.999999999951 	3.603872256198855e-12 	101324.9999999912
0.664414414414414 	299.9999999999976 	1.74311883664293e-12 	101324.9999999914
0.6669169169169162 	300.0000000000219 	2.895055131646866e-12 	101324.9999999914
0.6694194194194188 	299.9999999999876 	1.098278302680224e-12 	101324.9999999914
0.6719219219219214 	299.9999999999221 	2.332740858340308e-12 	101324.9999999913
0.674424424424424 	299.9999999999711 	1.798404490852926e-12 	101324.9999999914
0.6769269269269262 	299.9999999999181 	3.120511672769626e-12 	101324.9999999913
0.679429429429429 	300.0000000000063 	2.563002888072293e-12 	101324.9999999912
0.6819319319319311 	299.9999999999818 	3.502985720928746e-12 	101324.9999999913
0.6844344344344341 	299.9999999999939 	2.38691279969746e-12 	101324.9999999913
0.686936936936936 	299.9999999999889 	2.984082580340734e-12 	101324.9999999916
0.6894394394394392 	299.9999999999844 	1.9316256756987e-12 	101324.9999999917
0.6919419419419413 	299.9999999999878 	2.12253795182782e-12 	101324.9999999916
0.694444444444444 	299.999999999943 	2.102781713641399e-12 	101324.9999999915
0.6969469469469463 	299.9999999999314 	2.236053668682599e-12 	101324.9999999916
0.6994494494494489 	299.9999999999202 	2.909858546990179e-12 	101324.9999999915
0.7019519519519515 	299.999999999989 	2.14186896504157e-12 	101324.9999999915
0.7044544544544538 	299.9999999999572 	3.287737183945997e-12 	101324.9999999914
0.7069569569569564 	299.9999999999967 	1.779359866875331e-12 	101324.9999999914
0.7094594594594589 	299.9999999999669 	3.579111112379566e-12 	101324.9999999914
0.7119619619619615 	299.9999999999139 	1.866308476878642e-12 	101324.9999999916
0.7144644644644638 	299.9999999999511 	3.66574683524635e-12 	101324.9999999917
0.7169669669669665 	299.9999999999199 	2.746522297642266e-12 	101324.9999999917
0.7194694694694688 	299.9999999999908 	3.825992224755346e-12 	101324.9999999919
0.7219719719719715 	299.9999999999852 	2.838702676546963e-12 	101324.9999999919
0.7244744744744737 	299.9999999999994 	3.125815307291619e-12 	101324.999999992
0.7269769769769764 	299.9999999999915 	2.994232167625299e-12 	101324.999999992
0.7294794794794791 	299.9999999999853 	2.045374305056405e-12 	101324.9999999921
0.7319819819819813 	299.9999999999794 	3.363010638630984e-12 	101324.9999999921
0.7344844844844839 	299.9999999999258 	2.119373636310966e-12 	101324.9999999921
0.7369869869869864 	299.9999999999526 	2.7690945834547e-12 	101324.9999999922
0.739489489489489 	299.9999999999428 	2.385051611964664e-12 	101324.9999999922
0.7419919919919914 	299.9999999999332 	2.406411680414229e-12 	101324.9999999922
0.7444944944944939 	299.9999999999776 	3.008524353710157e-12 	101324.9999999921
0.7469969969969963 	299.9999999999704 	1.671433987540157e-12 	101324.999999992
0.7494994994994989 	299.9999999999461 	3.589688860768116e-12 	101324.999999992
0.7520020020020015 	299.9999999999735 	1.882522091053805e-12 	101324.9999999919
0.7545045045045039 	299.9999999999695 	3.573382466110181e-12 	101324.9999999917
0.7570070070070062 	299.9999999999412 	1.247486263517185e-12 	101324.9999999919
0.7595095095095092 	299.9999999999334 	2.480557996305613e-12 	101324.9999999921
0.7620120120120112 	300.000000000008 	1.351899820274662e-12 	101324.999999992
0.7645145145145138 	299.999999999988 	1.402063053246107e-12 	101324.999999992
0.7670170170170165 	299.9999999999321 	1.905283490370875e-12 	101324.9999999919
0.7695195195195191 	299.9999999999263 	1.484558323563425e-12 	101324.9999999919
0.7720220220220213 	299.9999999999328 	2.622714295096902e-12 	101324.999999992
0.7745245245245239 	299.9999999999353 	1.425552273673417e-12 	101324.9999999921
0.7770270270270263 	299.9999999999695 	3.034824571818835e-12 	101324.9999999922
0.779529529529529 	299.9999999999811 	1.923536799741996e-12 	101324.9999999921
0.7820320320320313 	299.9999999999741 	2.595640240252633e-12 	101324.9999999922
0.784534534534534 	300.0000000000006 	2.150627565579182e-12 	101324.9999999922
0.7870370370370364 	299.9999999999947 	1.734724527258449e-12 	101324.9999999923
0.7895395395395389 	299.9999999999801 	2.55033030215116e-12 	101324.9999999924
0.7920420420420413 	299.9999999999707 	1.75619034098379e-12 	101324.9999999922
0.794544544544544 	299.9999999999704 	3.804116108779883e-12 	101324.9999999921
0.7970470470470463 	300.0000000000006 	2.215637697626828e-12 	101324.9999999919
0.799549549549549 	299.999999999984 	3.702112416643413e-12 	101324.9999999917
0.8020520520520515 	299.9999999999888 	1.439772579812795e-12 	101324.9999999916
0.8045545545545539 	299.9999999999463 	3.062627704157714e-12 	101324.9999999917
0.8070570570570563 	299.9999999999756 	2.379763075259648e-12 	101324.9999999918
0.8095595595595589 	299.9999999999524 	3.654758668359345e-12 	101324.9999999919
0.8120620620620614 	299.9999999999371 	3.723419218897367e-12 	101324.9999999919
0.8145645645645638 	300 	3.327260416789814e-12 	101324.999999992
0.8170670670670666 	299.999999999994 	3.37401086596394e-12 	101324.9999999921
0.8195695695695689 	299.9999999999759 	1.852598328512674e-12 	101324.9999999923
0.8220720720720714 	299.9999999999438 	3.308411386517868e-12 	101324.9999999924
0.8245745745745739 	299.9999999999921 	1.453948148857449e-12 	101324.9999999925
0.8270770770770765 	299.9999999999693 	2.856563011828922e-12 	101324.9999999923
0.8295795795795788 	299.9999999999499 	2.103359862150598e-12 	101324.9999999922
0.8320820820820815 	300.0000000000151 	2.761073702310064e-12 	101324.9999999923
0.834584584584584 	300.0000000000093 	2.108116040365106e-12 	101324.9999999923
0.8370870870870865 	299.9999999999715 	2.228224918233771e-12 	101324.9999999921
0.8395895895895891 	299.9999999999269 	3.184754034645786e-12 	101324.999999992
0.8420920920920915 	299.9999999999424 	2.798062527334225e-12 	101324.9999999922
0.844594594594594 	299.999999999937 	2.992123498199618e-12 	101324.9999999924
0.8470970970970964 	299.9999999999458 	2.74948521245235e-12 	101324.9999999925
0.8495995995995991 	299.999999999984 	2.591678608361219e-12 	101324.9999999926
0.8521021021021015 	299.9999999999787 	2.739801055059419e-12 	101324.9999999924
0.8546046046046039 	299.999999999979 	2.166634494080271e-12 	101324.9999999921
0.8571071071071066 	299.9999999999953 	3.340851225787157e-12 	101324.999999992
0.8596096096096089 	299.9999999999571 	1.910160935719771e-12 	101324.9999999921
0.8621121121121116 	299.9999999999291 	3.871678685718571e-12 	101324.999999992
0.8646146146146139 	299.9999999999948 	1.826922390967772e-12 	101324.999999992
0.8671171171171166 	299.9999999999719 	2.884527386527767e-12 	101324.9999999922
0.8696196196196189 	299.999999999942 	2.849888768097226e-12 	101324.9999999923
0.8721221221221216 	299.9999999999796 	4.444460252094446e-12 	101324.9999999924
0.874624624624624 	299.9999999999964 	5.063926653488699e-12 	101324.9999999925
0.8771271271271264 	299.9999999999947 	5.07321030951812e-12 	101324.9999999925
0.879629629629629 	300.0000000000074 	5.494021439693849e-12 	101324.9999999925
0.8821321321321317 	299.9999999999831 	3.883489693271653e-12 	101324.9999999926
0.8846346346346339 	299.9999999999249 	5.21089535694061e-12 	101324.9999999928
0.8871371371371364 	299.999999999958 	3.010531843578835e-12 	101324.9999999927
0.8896396396396391 	299.9999999999683 	4.198942028275582e-12 	101324.9999999927
0.8921421421421414 	299.9999999999694 	3.113009567212598e-12 	101324.9999999928
0.8946446446446441 	299.9999999999817 	4.404424725264003e-12 	101324.9999999927
0.8971471471471464 	300.0000000000048 	4.623500201074439e-12 	101324.9999999926
0.8996496496496489 	299.9999999999832 	4.445957491758991e-12 	101324.9999999927
0.9021521521521517 	299.9999999999703 	4.610972791676416e-12 	101324.9999999928
0.9046546546546541 	299.9999999999986 	3.335634004122245e-12 	101324.9999999929
0.9071571571571564 	299.9999999999569 	3.414282329543181e-12 	101324.9999999928
0.9096596596596589 	299.9999999999515 	3.170227147766703e-12 	101324.9999999927
0.9121621621621616 	299.9999999999993 	3.225552439654884e-12 	101324.9999999929
0.9146646646646639 	299.9999999999746 	3.026733411181164e-12 	101324.9999999929
0.9171671671671666 	299.9999999999546 	2.863119255444945e-12 	101324.9999999928
0.9196696696696689 	300.000000000003 	3.806285085587554e-12 	101324.9999999927
0.9221721721721714 	299.9999999999908 	2.531172737094702e-12 	101324.9999999927
0.9246746746746741 	299.9999999999413 	4.455671328527756e-12 	101324.9999999927
0.9271771771771765 	299.9999999999552 	2.715224678688395e-12 	101324.9999999925
0.9296796796796791 	299.9999999999893 	4.417748504662805e-12 	101324.9999999924
0.9321821821821816 	299.9999999999665 	3.556170526228251e-12 	101324.9999999923
0.9346846846846838 	299.9999999999519 	4.752104246682755e-12 	101324.9999999923
0.9371871871871866 	300.0000000000073 	4.356590354961794e-12 	101324.9999999922
0.9396896896896891 	300.0000000000034 	4.140813828733765e-12 	101324.9999999924
0.9421921921921914 	300.0000000000006 	4.389504827239997e-12 	101324.9999999927
0.9446946946946939 	299.9999999999713 	3.324660813116082e-12 	101324.9999999929
0.9471971971971965 	299.9999999999319 	4.706096087043779e-12 	101324.9999999927
0.9496996996996991 	299.9999999999648 	2.701167545131253e-12 	101324.9999999925
0.9522022022022016 	299.9999999999789 	4.212030191981107e-12 	101324.9999999926
0.9547047047047038 	299.9999999999806 	3.831083515055534e-12 	101324.9999999927
0.9572072072072064 	299.9999999999593 	5.035118635413616e-12 	101324.9999999927
0.9597097097097093 	299.9999999999601 	5.384517199094338e-12 	101324.9999999926
0.9622122122122114 	299.9999999999594 	5.729217330098426e-12 	101324.9999999924
0.964714714714714 	299.9999999999507 	6.933195525342901e-12 	101324.9999999923
0.9672172172172167 	299.999999999953 	6.576841292029749e-12 	101324.9999999923
0.969719719719719 	299.9999999999824 	6.98014405661245e-12 	101324.9999999923
0.9722222222222214 	299.9999999999749 	5.926848087451643e-12 	101324.9999999923
0.9747247247247239 	299.9999999999703 	5.664211035663038e-12 	101324.9999999924
0.9772272272272267 	300.0000000000014 	5.344499814391092e-12 	101324.9999999925
0.9797297297297292 	299.9999999999811 	4.773004245205334e-12 	101324.9999999924
0.9822322322322313 	299.9999999999807 	5.885814542705226e-12 	101324.9999999924
0.9847347347347344 	299.9999999999812 	4.785222691592023e-12 	101324.9999999923
0.9872372372372363 	299.9999999999413 	7.187200027709929e-12 	101324.9999999924
0.9897397397397389 	299.9999999999674 	5.571948127918599e-12 	101324.9999999926
0.9922422422422417 	299.9999999999544 	7.183344424631033e-12 	101324.9999999929
0.9947447447447441 	299.9999999999571 	6.281964636005321e-12 	101324.9999999929
0.9972472472472468 	299.9999999999598 	7.009243184632041e-12 	101324.999999993
0.999749749749749 	299.9999999999658 	6.300989901191705e-12 	101324.9999999931
1.002252252252252 	299.9999999999847 	6.251363928774719e-12 	101324.9999999934
1.004754754754754 	299.9999999999942 	6.147938965039845e-12 	101324.9999999936
1.007257257257256 	299.999999999977 	5.193638910091102e-12 	101324.9999999937
1.009759759759759 	299.9999999999613 	6.79039339304209e-12 	101324.9999999937
1.012262262262261 	299.9999999999511 	5.284086028361782e-12 	101324.9999999937
1.014764764764764 	299.9999999999338 	6.980627312587081e-12 	101324.9999999935
1.017267267267267 	299.9999999999276 	6.308908462840357e-12 	101324.9999999934
1.019769769769769 	299.9999999999679 	7.105672679128259e-12 	101324.9999999935
1.022272272272272 	299.9999999999798 	6.640924661163967e-12 	101324.9999999933
1.024774774774774 	299.9999999999838 	7.089892176531397e-12 	101324.9999999934
1.027277277277277 	299.9999999999791 	7.95929793951137e-12 	101324.9999999933
1.029779779779779 	300.000000000004 	7.125930311591433e-12 	101324.999999993
1.032282282282282 	300.0000000000049 	7.674275976847099e-12 	101324.9999999928
1.034784784784784 	299.999999999996 	7.204136359657574e-12 	101324.9999999929
1.037287287287286 	299.9999999999685 	7.42733383090822e-12 	101324.999999993
1.039789789789789 	299.9999999999729 	7.215536493240435e-12 	101324.9999999931
1.042292292292291 	300.000000000004 	6.791149263711075e-12 	101324.9999999932
1.044794794794794 	300.0000000000186 	6.702285399919773e-12 	101324.9999999932
1.047297297297296 	300.0000000000348 	5.719506621751318e-12 	101324.9999999932
1.049799799799799 	299.999999999993 	7.418806437740966e-12 	101324.9999999932
1.052302302302302 	299.9999999999523 	6.368474015866878e-12 	101324.9999999932
1.054804804804804 	299.9999999999321 	8.327241661322052e-12 	101324.999999993
1.057307307307306 	299.9999999999271 	7.541164980994623e-12 	101324.999999993
1.059809809809809 	299.9999999999638 	8.741059104664245e-12 	101324.999999993
1.062312312312312 	299.9999999999587 	8.481778130182121e-12 	101324.9999999929
1.064814814814814 	299.9999999999542 	8.913447762832022e-12 	101324.9999999928
1.067317317317317 	299.9999999999308 	8.324410063202116e-12 	101324.9999999927
1.069819819819819 	299.9999999999275 	8.055879060723001e-12 	101324.9999999925
1.072322322322321 	299.9999999999877 	9.870024456373814e-12 	101324.9999999924
1.074824824824824 	300.0000000000075 	8.759926322838067e-12 	101324.9999999923
1.077327327327327 	300.0000000000247 	1.017789399428819e-11 	101324.9999999924
1.079829829829829 	300.0000000000356 	9.167728271353213e-12 	101324.9999999923
1.082332332332332 	299.999999999995 	9.645650172305248e-12 	101324.9999999924
1.084834834834834 	299.9999999999685 	9.272764252017599e-12 	101324.9999999925
1.087337337337337 	299.9999999999424 	9.219714343816125e-12 	101324.9999999926
1.089839839839839 	299.999999999931 	1.048014849533177e-11 	101324.9999999926
1.092342342342342 	299.9999999999638 	8.990196477192527e-12 	101324.9999999926
1.094844844844844 	299.9999999999631 	1.004110369769568e-11 	101324.9999999926
1.097347347347347 	299.9999999999366 	9.217770800682707e-12 	101324.9999999924
1.099849849849849 	299.9999999999271 	1.187963073009333e-11 	101324.9999999924
1.102352352352352 	299.9999999999553 	9.813974866236924e-12 	101324.9999999924
1.104854854854854 	299.9999999999735 	1.084125075870835e-11 	101324.9999999926
1.107357357357357 	299.999999999957 	8.60190170614803e-12 	101324.9999999929
1.109859859859859 	299.9999999999501 	9.585311630916629e-12 	101324.9999999934
1.112362362362362 	300.0000000000144 	8.323897970214617e-12 	101324.9999999936
1.114864864864865 	300.0000000000142 	8.422952123501755e-12 	101324.9999999937
1.117367367367367 	299.9999999999628 	9.077600687424096e-12 	101324.9999999937
1.119869869869869 	299.9999999999253 	8.139511778162307e-12 	101324.9999999937
1.122372372372372 	299.9999999999559 	9.390668252761659e-12 	101324.9999999935
1.124874874874874 	299.9999999999529 	8.640645559931852e-12 	101324.9999999934
1.127377377377377 	299.9999999999628 	9.693999014808206e-12 	101324.9999999934
1.129879879879879 	300.0000000000149 	9.314002725656784e-12 	101324.9999999933
1.132382382382382 	300.0000000000335 	9.913827517784422e-12 	101324.9999999932
1.134884884884884 	300.0000000000069 	9.546469742491964e-12 	101324.9999999933
1.137387387387387 	300.0000000000075 	9.249432349871752e-12 	101324.9999999934
1.139889889889889 	299.9999999999609 	1.016613410041543e-11 	101324.9999999935
1.142392392392392 	299.9999999999572 	9.187210821528069e-12 	101324.9999999933
1.144894894894894 	300.0000000000124 	1.007691580962581e-11 	101324.9999999932
1.147397397397397 	299.9999999999968 	8.584515361353282e-12 	101324.999999993
1.149899899899899 	299.9999999999415 	9.05856859556579e-12 	101324.9999999928
1.152402402402402 	299.9999999999271 	8.3834858897552e-12 	101324.9999999929
1.154904904904904 	299.9999999999613 	9.166392983751521e-12 	101324.999999993
1.157407407407407 	299.9999999999628 	8.71891026086859e-12 	101324.9999999929
1.159909909909909 	299.9999999999374 	8.742864214172195e-12 	101324.999999993
1.162412412412412 	299.999999999932 	9.487641296124167e-12 	101324.9999999931
1.164914914914914 	299.9999999999579 	8.308158797028745e-12 	101324.9999999931
1.167417417417417 	299.9999999999665 	9.978690503271203e-12 	101324.9999999931
1.169919919919919 	300.0000000000109 	9.4049550413309e-12 	101324.9999999932
1.172422422422422 	300.0000000000346 	1.005498691293103e-11 	101324.9999999933
1.174924924924925 	299.9999999999866 	8.760643567372243e-12 	101324.9999999935
1.177427427427427 	299.9999999999571 	9.083778309593331e-12 	101324.9999999937
1.179929929929929 	300.0000000000052 	9.464865985426263e-12 	101324.9999999937
1.182432432432432 	300.0000000000352 	8.136702876106851e-12 	101324.9999999936
1.184934934934934 	300.0000000000038 	9.089821701048655e-12 	101324.9999999935
1.187437437437437 	299.9999999999652 	8.272822163544089e-12 	101324.9999999936
1.189939939939939 	299.9999999999511 	9.227403807104022e-12 	101324.9999999936
1.192442442442442 	299.9999999999262 	8.620380891843169e-12 	101324.9999999935
1.194944944944944 	299.9999999999343 	9.613719418663073e-12 	101324.9999999934
1.197447447447447 	299.9999999999905 	8.890663146052863e-12 	101324.9999999936
1.199949949949949 	300.0000000000055 	8.77828501828148e-12 	101324.9999999937
1.202452452452452 	299.9999999999515 	9.606033832033575e-12 	101324.9999999937
1.204954954954955 	299.9999999999469 	8.780224822749769e-12 	101324.9999999937
1.207457457457457 	299.9999999999757 	9.744765053573245e-12 	101324.9999999937
1.20995995995996 	299.99999999997 	8.891874234814766e-12 	101324.9999999937
1.212462462462462 	299.9999999999828 	9.63896246822144e-12 	101324.9999999937
1.214964964964964 	299.9999999999865 	8.624327997488706e-12 	101324.9999999937
1.217467467467467 	299.9999999999852 	9.271188811345049e-12 	101324.9999999936
1.219969969969969 	299.9999999999717 	8.507385091101712e-12 	101324.9999999936
1.222472472472472 	300.0000000000141 	8.868992663642602e-12 	101324.9999999936
1.224974974974975 	300.0000000000373 	9.060739608186318e-12 	101324.9999999935
1.227477477477477 	299.9999999999917 	7.893136413149021e-12 	101324.9999999936
1.229979979979979 	299.9999999999765 	9.208423691132906e-12 	101324.9999999937
1.232482482482482 	299.9999999999499 	8.471858852434421e-12 	101324.9999999936
1.234984984984984 	299.9999999999472 	9.670442528860087e-12 	101324.9999999935
1.237487487487487 	299.9999999999698 	8.377581583255679e-12 	101324.9999999935
1.239989989989989 	299.9999999999754 	8.724278358073e-12 	101324.9999999937
1.242492492492492 	300.0000000000048 	9.443828717464347e-12 	101324.9999999937
1.244994994994994 	299.9999999999784 	8.926155798892073e-12 	101324.9999999937
1.247497497497497 	299.9999999999804 	9.87539923314795e-12 	101324.9999999937
1.249999999999999 	300 	9.147164075186414e-12 	101324.9999999936
