-1.25 	299.9773824499024 	0.9269805297701181 	101295.6107373854
-1.247497497497497 	299.9798683039161 	0.9380908096517786 	101301.185645792
-1.244994994994995 	299.9850863631098 	0.9570267508403179 	101307.39355193
-1.242492492492492 	299.9906453418445 	0.9730111908935002 	101313.9394593906
-1.23998998998999 	299.996354633367 	0.9894889057772684 	101320.6896944443
-1.237487487487487 	300.0021303682082 	1.006185551873036 	101327.5177545107
-1.234984984984985 	300.0078664535608 	1.02276483503912 	101334.299213818
-1.232482482482482 	300.0134573618866 	1.038925574230969 	101340.9095156675
-1.22997997997998 	300.0188014127783 	1.054372044926758 	101347.2282766014
-1.227477477477477 	300.0238009138029 	1.068821787520239 	101353.1397999482
-1.224974974974975 	300.0283637795001 	1.082009650454783 	101358.5352128383
-1.222472472472472 	300.0324070587079 	1.093695404237808 	101363.3163622587
-1.21996996996997 	300.0358572763229 	1.103666519428263 	101367.3963521449
-1.217467467467467 	300.0386509588815 	1.111739852265552 	101370.7000579708
-1.214964964964965 	300.0407364619326 	1.117766660571315 	101373.1663557694
-1.212462462462462 	300.0420759903739 	1.121637656618842 	101374.7505329317
-1.20995995995996 	300.042646133604 	1.123283786474159 	101375.4246053936
-1.207457457457457 	300.0424361925405 	1.122674128517832 	101375.1758845065
-1.204954954954955 	300.0414478547004 	1.119817349864244 	101374.007346238
-1.202452452452452 	300.0396995497325 	1.114765008693151 	101371.9403533744
-1.19994994994995 	300.0372241496046 	1.107609757049727 	101369.0131510067
-1.197447447447447 	300.0340662968339 	1.098481930980466 	101365.2788943351
-1.194944944944945 	300.0302834718633 	1.087547672710851 	101360.805698968
-1.192442442442442 	300.0259444107104 	1.07500576792115 	101355.6749368811
-1.18993993993994 	300.0211279660655 	1.061084355402921 	101349.97990849
-1.187437437437437 	300.0159223021597 	1.046038138755568 	101343.8249254022
-1.184934934934935 	300.010423170557 	1.030143347826051 	101337.3231620862
-1.182432432432432 	300.0047312461406 	1.01369139526117 	101330.5937923377
-1.17992992992993 	299.9989510146238 	0.9969843547335968 	101323.760318222
-1.177427427427427 	299.9931891483062 	0.9803305097212802 	101316.9489051124
-1.174924924924925 	299.9875522223608 	0.9640376884093986 	101310.2855119596
-1.172422422422422 	299.9821442435895 	0.9484064328829021 	101303.8929757092
-1.16991991991992 	299.9770646427233 	0.933724691779964 	101297.8889392177
-1.167417417417417 	299.9724070700439 	0.9202630272904058 	101292.3839738745
-1.164914914914915 	299.9682575273897 	0.9082698426413212 	101287.4795690045
-1.162412412412412 	299.9646926413138 	0.8979666797404038 	101283.266293915
-1.15990990990991 	299.9617780116261 	0.8895430877194939 	101279.821665113
-1.157407407407407 	299.9595666070661 	0.8831522408739088 	101277.2082189096
-1.154904904904904 	299.9580981304281 	0.8789087724197038 	101275.4726792376
-1.152402402402403 	299.9573983906606 	0.8768879685064208 	101274.6457724013
-1.1498998998999 	299.9574794111845 	0.8771252972149428 	101274.7419318493
-1.147397397397397 	299.9583404629179 	0.8796152124421388 	101275.759298264
-1.144894894894895 	299.9599645193887 	0.8843095465243509 	101277.6781241359
-1.142392392392392 	299.9623199168961 	0.8911189720783637 	101280.4616460814
-1.13988988988989 	299.9653631044438 	0.8999164142068852 	101284.0581258428
-1.137387387387387 	299.9690378663489 	0.910539163722474 	101288.4011373545
-1.134884884884885 	299.9732765319047 	0.9227917737216749 	101293.4107922041
-1.132382382382382 	299.9780016437621 	0.9364502706964066 	101298.9956239806
-1.12987987987988 	299.9831272024877 	0.9512658064447911 	101305.053989586
-1.127377377377377 	299.9885598095227 	0.9669685244458119 	101311.4755959191
-1.124874874874875 	299.9942004075307 	0.9832720544384042 	101318.1433929413
-1.122372372372372 	299.9999459486069 	0.9998786728064493 	101324.9355473001
-1.11986986986987 	300.0056916975252 	1.016485874273504 	101331.7283094549
-1.117367367367367 	300.0113335668395 	1.032792203381463 	101338.3984433017
-1.114864864864865 	300.0167689327516 	1.048501578101472 	101344.8248226398
-1.112362362362362 	300.0218988454353 	1.063327988568771 	101350.8904410712
-1.10985985985986 	300.0266296226869 	1.077000706422296 	101356.4844115828
-1.107357357357357 	300.0308748954194 	1.089270025783951 	101361.5044688592
-1.104854854854855 	300.034557371465 	1.099912100394833 	101365.8590564559
-1.102352352352353 	300.0376094806991 	1.108732339145711 	101369.4683960868
-1.09984984984985 	300.0399754728325 	1.115569372617922 	101372.2663921271
-1.097347347347347 	300.0416120048146 	1.120297875450955 	101374.201816887
-1.094844844844845 	300.0424886303172 	1.122829930234412 	101375.2385577219
-1.092342342342342 	300.0425889620959 	1.123116185285689 	101375.3567132962
-1.08983983983984 	300.0419079677891 	1.121145996378033 	101374.5514300865
-1.087337337337337 	300.0404563536824 	1.116950843203287 	101372.8352918691
-1.084834834834835 	300.0382615554391 	1.110606677832848 	101370.2400156229
-1.082332332332332 	300.0353633275863 	1.10222854738144 	101366.8127624688
-1.07982982982983 	300.0318133101406 	1.091966881581101 	101362.6148226677
-1.077327327327327 	300.0276757775684 	1.080007315661045 	101357.7223455445
-1.074824824824825 	300.02302605891 	1.066567181289433 	101352.2242977372
-1.072322322322323 	300.017948790063 	1.051892238616034 	101346.2210463228
-1.06981981981982 	300.0125382845692 	1.036253882552239 	101339.8239850411
-1.067317317317317 	300.0068947432263 	1.019941611836356 	101333.1516452179
-1.064814814814815 	300.0011221324611 	1.003257239852931 	101326.3271759926
-1.062312312312312 	299.9953286122316 	0.986511740005537 	101319.4781245045
-1.05980980980981 	299.9896217815838 	0.9700165817386954 	101312.7319855904
-1.057307307307307 	299.9841069498009 	0.9540771026203168 	101306.2131016213
-1.054804804804805 	299.9788873608579 	0.9389907383876959 	101300.0433857303
-1.052302302302302 	299.9740602650285 	0.925038340122003 	101294.3379570067
-1.0497997997998 	299.9697139331517 	0.9124761123933538 	101289.2008810986
-1.047297297297297 	299.9659286846355 	0.9015359503576464 	101284.7270955709
-1.044794794794795 	299.9627745398744 	0.8924189233754197 	101280.9993843287
-1.042292292292292 	299.9603068522745 	0.885286490842957 	101278.0829297094
-1.03978978978979 	299.9585690530056 	0.8802652214506652 	101276.029144066
-1.037287287287287 	299.9575937755993 	0.8774466995024562 	101274.8765256368
-1.034784784784785 	299.9573959284242 	0.8768763554794947 	101274.6430643106
-1.032282282282283 	299.9579767743832 	0.8785578151589217 	101275.329502102
-1.02977977977978 	299.9593269583961 	0.8824608115182041 	101276.9247403852
-1.027277277277277 	299.9614201353942 	0.8885098183314237 	101279.398193952
-1.024774774774775 	299.9642127371196 	0.8965831782645419 	101282.6984973872
-1.022272272272272 	299.9676539947792 	0.906533107935199 	101286.7655469614
-1.01976976976977 	299.9716851937848 	0.9181847087839745 	101291.5298967548
-1.017267267267267 	299.9762296006804 	0.9313190543483816 	101296.9010945266
-1.014764764764765 	299.9812003593727 	0.9456895344791449 	101302.7763894265
-1.012262262262262 	299.9865124670557 	0.9610457823836707 	101309.0554418028
-1.00975975975976 	299.9920731857599 	0.9771155407250318 	101315.6286850917
-1.007257257257257 	299.997774323563 	0.9935931431537233 	101322.3682309494
-1.004754754754755 	300.0035106056865 	1.010177455389249 	101329.1496885049
-1.002252252252252 	300.0091883520653 	1.026588158406426 	101335.8622010866
-0.9997497497497498 	300.0147052046242 	1.042528046964717 	101342.3848832045
-0.9972472472472473 	300.0199487354912 	1.057683340563861 	101348.5846941322
-0.9947447447447449 	300.0248248343969 	1.071782494818294 	101354.3502523223
-0.9922422422422421 	300.0292602319784 	1.0846005986979 	101359.5950180495
-0.9897397397397399 	300.0331723394132 	1.095898654133081 	101364.2211530001
-0.9872372372372376 	300.0364709454776 	1.105431969241982 	101368.1219057722
-0.9847347347347346 	300.0390978142696 	1.113032646886578 	101371.228437809
-0.9822322322322323 	300.0410275744013 	1.11860813843638 	101373.5106143303
-0.9797297297297296 	300.0422225277399 	1.122047918979567 	101374.9238403892
-0.9772272272272275 	300.042630638391 	1.123222772612306 	101375.4062149054
-0.9747247247247248 	300.0422387536001 	1.122101168330752 	101374.942446426
-0.9722222222222224 	300.0410857003743 	1.118773313257998 	101373.5793205008
-0.9697197197197196 	300.0392039362353 	1.113317698418884 	101371.3544190751
-0.9672172172172175 	300.0365868892188 	1.105740689333047 	101368.2596165144
-0.9647147147147147 	300.0332536561726 	1.096121363043229 	101364.3180034929
-0.9622122122122124 	300.029304031618 	1.084724734523343 	101359.647689375
-0.9597097097097099 	300.0248581055773 	1.071862773022781 	101354.3905319193
-0.9572072072072073 	300.0199691327156 	1.05770287195138 	101348.6097993089
-0.9547047047047047 	300.0146563331061 	1.04234599637336 	101342.3282201713
-0.9522022022022023 	300.0090169724916 	1.026080113993983 	101335.6607007788
-0.9496996996996998 	300.0032407809197 	1.009406017496765 	101328.831835563
-0.9471971971971973 	299.9974868181747 	0.99274815959674 	101322.0295288258
-0.9446946946946947 	299.9917939447028 	0.9762520857765095 	101315.2996859978
-0.9421921921921923 	299.9861643693117 	0.9599844014921662 	101308.6451254784
-0.93968968968969 	299.9807136442228 	0.9442809701969117 	101302.2021456487
-0.9371871871871872 	299.9756726290893 	0.9297451984429161 	101296.243690769
-0.9346846846846848 	299.9712207796196 	0.9168464163119062 	101290.9819526798
-0.9321821821821823 	299.967358393006 	0.9056169896351516 	101286.4169196458
-0.9296796796796799 	299.963989074013 	0.8958585174894438 	101282.4348246992
-0.9271771771771771 	299.9611247016244 	0.8876361973112602 	101279.0496412941
-0.9246746746746748 	299.9589623042714 	0.881460373254195 	101276.4939715621
-0.9221721721721724 	299.9577284239433 	0.8779015836843009 	101275.0357722475
-0.9196696696696698 	299.9574583716923 	0.8770469685801479 	101274.7168960129
-0.9171671671671672 	299.9579587764887 	0.8784100675928455 	101275.3081710526
-0.9146646646646649 	299.9590024347661 	0.8814232473307687 	101276.541266287
-0.9121621621621623 	299.9605612627367 	0.8860174455726638 	101278.3832513932
-0.9096596596596597 	299.9628348616804 	0.8926902543983504 	101281.0701353044
-0.9071571571571573 	299.9660395520568 	0.9019715661918422 	101284.8575314239
-0.9046546546546547 	299.9701579051645 	0.9137886126735058 	101289.7247890807
-0.9021521521521524 	299.9748832422905 	0.9273272002676015 	101295.30976644
-0.8996496496496498 	299.9798136252059 	0.9415271647259675 	101301.1373289286
-0.8971471471471473 	299.9847251899101 	0.9557870934422331 	101306.942832105
-0.894644644644645 	299.9896961223205 	0.9702884667192951 	101312.8188415551
-0.892142142142142 	299.9949874732461 	0.9856876207339729 	101319.0737516039
-0.8896396396396397 	300.0007800621895 	1.00243071031579 	101325.921523346
-0.8871371371371374 	300.0069685991109 	1.020210948492142 	101333.237851872
-0.8846346346346349 	300.0131566680307 	1.037950981086592 	101340.553925162
-0.8821321321321324 	300.0188461296958 	1.054302320222225 	101347.2809660289
-0.8796296296296297 	300.0236886353752 	1.068313887973545 	101353.0068676043
-0.8771271271271271 	300.0276410019853 	1.07985221313354 	101357.6803419898
-0.8746246246246248 	300.0309427630288 	1.089547065390928 	101361.5847167013
-0.8721221221221224 	300.0339436361215 	1.098330080872084 	101365.1332725274
-0.8696196196196196 	300.0368859695417 	1.106849609319172 	101368.6126825332
-0.8671171171171175 	300.0397595795892 	1.115071712170545 	101372.0110262929
-0.8646146146146148 	300.0422885396036 	1.122235459913197 	101375.001767918
-0.8621121121121121 	300.0440361223289 	1.12713629287144 	101377.0685836777
-0.8596096096096097 	300.0445698697597 	1.128573816234492 	101377.6991296059
-0.857107107107107 	300.0436083617819 	1.125768524754682 	101376.5614744977
-0.8546046046046049 	300.0411115538793 	1.118612769447109 	101373.6098247696
-0.8521021021021022 	300.0372930497826 	1.107693997404828 	101369.0948179913
-0.8495995995995997 	300.0325460666143 	1.094113491705852 	101363.4813954829
-0.8470970970970974 	300.0273429646078 	1.079205070759396 	101357.3288076276
-0.8445945945945946 	300.0221380463606 	1.064258636701811 	101351.1743039608
-0.8420920920920922 	300.01729556129 	1.050317385228921 	101345.4485684612
-0.8395895895895897 	300.0130560843314 	1.038078139599169 	101340.435996378
-0.8370870870870872 	300.0095357679062 	1.027884997710973 	101336.2738471899
-0.8345845845845846 	300.0067473264189 	1.019786001321278 	101332.9770853315
-0.8320820820820823 	300.0046311595569 	1.013619923839738 	101330.4751937162
-0.8295795795795798 	300.0030871174353 	1.009106126943757 	101328.6497332622
-0.8270770770770772 	300.0020008600317 	1.005919995425111 	101327.36550409
-0.8245745745745746 	300.0012622475452 	1.003746235190684 	101326.4922828352
-0.8220720720720721 	300.0007758351762 	1.00230984212021 	101325.9172254721
-0.8195695695695699 	300.0004650435343 	1.001388932915842 	101325.5497947203
-0.817067067067067 	300.0002720757373 	1.000815195589811 	101325.3216601736
-0.8145645645645651 	300.0001554904551 	1.000467377007587 	101325.1838281188
-0.8120620620620621 	300.0000868673419 	1.000261949121387 	101325.1026988092
-0.8095595595595597 	300.0000474730105 	1.000143617603514 	101325.0561249796
-0.8070570570570572 	300.0000253952463 	1.000077075553594 	101325.0300235947
-0.8045545545545546 	300.0000133055512 	1.000040513812265 	101325.0157305968
-0.8020520520520523 	300.0000068317991 	1.000020869408559 	101325.008076957
-0.7995495495495494 	300.0000034394477 	1.00001054063002 	101325.0040663035
-0.7970470470470474 	300.0000016986438 	1.000005222601358 	101325.0020082477
-0.7945445445445446 	300.0000008233563 	1.000002539660418 	101325.000973428
-0.7920420420420423 	300.0000003918781 	1.000001212620039 	101325.0004632885
-0.7895395395395397 	300.0000001832232 	1.000000568747299 	101325.0002165921
-0.7870370370370371 	300.0000000841692 	1.000000262135667 	101325.0000995061
-0.7845345345345348 	300.0000000380102 	1.00000011877211 	101325.00004494
-0.7820320320320323 	300.0000000168851 	1.000000052923773 	101325.0000199592
-0.7795295295295296 	300.0000000073537 	1.000000023206107 	101325.0000087197
-0.7770270270270272 	300.0000000031348 	1.00000001000624 	101325.0000037473
-0.7745245245245247 	300.0000000012991 	1.000000004247269 	101325.0000015842
-0.7720220220220222 	300.0000000005282 	1.000000001778174 	101325.0000006585
-0.7695195195195199 	300.0000000001874 	1.000000000734065 	101325.0000002681
-0.767017017017017 	300.0000000000575 	1.000000000299279 	101325.0000001063
-0.7645145145145147 	300.0000000000256 	1.000000000121308 	101325.00000004
-0.7620120120120122 	300.0000000000101 	1.000000000047724 	101325.0000000136
-0.7595095095095097 	299.9999999999839 	1.000000000028064 	101325.0000000029
-0.7570070070070072 	299.9999999999536 	1.000000000003683 	101324.9999999985
-0.7545045045045048 	299.9999999999652 	1.000000000004086 	101324.999999997
-0.7520020020020022 	299.9999999999545 	0.9999999999991657 	101324.9999999967
-0.7494994994994997 	299.9999999999684 	1.000000000001024 	101324.9999999961
-0.7469969969969972 	299.9999999999839 	0.9999999999986479 	101324.9999999955
-0.7444944944944945 	299.9999999999718 	0.9999999999981278 	101324.9999999953
-0.7419919919919924 	299.9999999999829 	1.000000000000327 	101324.9999999954
-0.7394894894894897 	299.9999999999602 	1.000000000001188 	101324.9999999956
-0.7369869869869872 	299.9999999999691 	1.000000000001078 	101324.9999999957
-0.7344844844844846 	299.9999999999771 	0.9999999999998608 	101324.9999999958
-0.7319819819819822 	299.9999999999976 	1.000000000005603 	101324.9999999955
-0.7294794794794797 	300.0000000000094 	0.9999999999963706 	101324.9999999957
-0.7269769769769773 	300.0000000000103 	0.9999999999953452 	101324.9999999962
-0.7244744744744747 	300.0000000000036 	0.9999999999987615 	101324.9999999962
-0.721971971971972 	299.9999999999792 	0.9999999999997202 	101324.9999999957
-0.7194694694694695 	299.9999999999774 	1.00000000000011 	101324.9999999954
-0.7169669669669674 	299.9999999999642 	0.9999999999996126 	101324.9999999959
-0.7144644644644647 	299.9999999999901 	0.9999999999985694 	101324.9999999961
-0.711961961961962 	300.0000000000076 	0.9999999999975645 	101324.9999999962
-0.7094594594594597 	300.0000000000055 	1.000000000000297 	101324.999999996
-0.7069569569569573 	299.9999999999937 	0.9999999999960909 	101324.9999999958
-0.7044544544544545 	299.9999999999994 	0.9999999999970793 	101324.9999999955
-0.7019519519519523 	300.0000000000043 	0.9999999999996655 	101324.999999996
-0.6994494494494495 	299.9999999999747 	0.9999999999996934 	101324.9999999965
-0.6969469469469471 	299.9999999999811 	0.9999999999995148 	101324.9999999963
-0.6944444444444446 	299.9999999999953 	1.000000000000047 	101324.9999999959
-0.6919419419419421 	300.0000000000119 	1.000000000000002 	101324.9999999953
-0.6894394394394396 	299.9999999999836 	0.9999999999990912 	101324.999999995
-0.6869369369369374 	299.9999999999883 	0.9999999999984186 	101324.9999999952
-0.6844344344344344 	299.9999999999956 	0.999999999998904 	101324.9999999961
-0.6819319319319321 	299.9999999999701 	1.000000000000004 	101324.9999999963
-0.6794294294294296 	299.9999999999733 	1.000000000000223 	101324.9999999962
-0.6769269269269272 	299.9999999999603 	0.999999999999562 	101324.9999999961
-0.6744244244244245 	299.9999999999827 	0.9999999999993553 	101324.9999999959
-0.6719219219219222 	299.99999999996 	0.9999999999989535 	101324.9999999956
-0.6694194194194195 	299.9999999999884 	0.9999999999983566 	101324.9999999959
-0.6669169169169172 	300.0000000000047 	0.999999999998252 	101324.9999999957
-0.6644144144144146 	299.999999999998 	0.999999999997957 	101324.9999999954
-0.661911911911912 	299.9999999999937 	0.9999999999974075 	101324.9999999953
-0.6594094094094097 	299.999999999979 	0.9999999999970169 	101324.9999999952
-0.656906906906907 	299.9999999999723 	0.9999999999967137 	101324.9999999953
-0.6544044044044046 	299.9999999999512 	0.9999999999965354 	101324.999999996
-0.6519019019019021 	299.9999999999599 	0.9999999999962644 	101324.9999999958
-0.6493993993993996 	299.9999999999974 	0.9999999999955034 	101324.9999999958
-0.6468968968968971 	300.0000000000087 	1.000000000002448 	101324.9999999962
-0.6443943943943946 	300.0000000000138 	0.999999999993139 	101324.9999999962
-0.6418918918918921 	300.0000000000184 	0.9999999999936057 	101324.9999999958
-0.6393893893893897 	300.0000000000193 	0.9999999999983447 	101324.9999999955
-0.6368868868868871 	300.0000000000163 	0.9999999999995891 	101324.9999999955
-0.6343843843843846 	300.0000000000139 	0.999999999999421 	101324.9999999958
-0.6318818818818821 	299.9999999999831 	0.9999999999992681 	101324.9999999958
-0.6293793793793795 	299.999999999992 	0.999999999999192 	101324.9999999956
-0.6268768768768773 	299.9999999999985 	0.9999999999994289 	101324.9999999955
-0.6243743743743745 	299.9999999999707 	1.000000000002267 	101324.9999999955
-0.6218718718718721 	299.9999999999785 	0.9999999999964251 	101324.9999999951
-0.6193693693693696 	299.9999999999666 	0.9999999999960836 	101324.9999999948
-0.6168668668668671 	299.9999999999895 	0.9999999999974332 	101324.9999999948
-0.6143643643643645 	300.0000000000016 	0.9999999999974472 	101324.999999995
-0.6118618618618621 	300.0000000000132 	0.999999999998218 	101324.999999995
-0.6093593593593596 	300.0000000000221 	0.9999999999990528 	101324.999999995
-0.6068568568568571 	299.9999999999868 	0.9999999999995638 	101324.9999999948
-0.6043543543543546 	299.999999999978 	0.9999999999991929 	101324.9999999947
-0.6018518518518521 	299.9999999999673 	0.9999999999980073 	101324.999999995
-0.5993493493493496 	299.9999999999825 	0.9999999999970477 	101324.999999995
-0.5968468468468471 	299.9999999999903 	0.9999999999973084 	101324.9999999953
-0.5943443443443446 	299.9999999999907 	0.9999999999984116 	101324.9999999956
-0.591841841841842 	299.9999999999611 	0.9999999999990281 	101324.9999999956
-0.5893393393393397 	299.9999999999641 	0.9999999999993063 	101324.9999999955
-0.5868368368368371 	299.9999999999871 	0.9999999999990008 	101324.9999999954
-0.5843343343343346 	300.0000000000155 	1.000000000006243 	101324.9999999954
-0.5818318318318321 	300.0000000000223 	0.9999999999958696 	101324.9999999956
-0.5793293293293297 	299.9999999999836 	0.9999999999962683 	101324.9999999954
-0.5768268268268271 	299.9999999999873 	0.9999999999993491 	101324.9999999954
-0.5743243243243245 	299.999999999999 	1.000000000000153 	101324.9999999953
-0.5718218218218221 	299.9999999999958 	0.9999999999997109 	101324.9999999954
-0.5693193193193196 	300.0000000000136 	0.999999999999131 	101324.9999999956
-0.5668168168168171 	300.0000000000083 	0.9999999999991824 	101324.9999999956
-0.5643143143143147 	299.9999999999637 	0.9999999999991085 	101324.9999999958
-0.5618118118118121 	299.9999999999912 	1.000000000003057 	101324.9999999957
-0.5593093093093094 	300.0000000000067 	0.9999999999977593 	101324.9999999961
-0.5568068068068072 	300.0000000000035 	0.9999999999982202 	101324.999999996
-0.5543043043043046 	300.0000000000031 	1.000000000001569 	101324.9999999959
-0.551801801801802 	299.9999999999653 	1.000000000002423 	101324.9999999958
-0.5492992992992995 	299.9999999999837 	1.000000000002131 	101324.999999996
-0.5467967967967969 	300.0000000000032 	1.000000000001064 	101324.9999999959
-0.5442942942942947 	300.0000000000118 	0.9999999999998909 	101324.9999999954
-0.5417917917917919 	299.9999999999663 	0.9999999999998618 	101324.9999999952
-0.5392892892892895 	299.9999999999625 	1.000000000000991 	101324.9999999953
-0.536786786786787 	299.9999999999659 	1.000000000001682 	101324.9999999952
-0.5342842842842846 	299.9999999999622 	1.000000000001065 	101324.9999999951
-0.531781781781782 	299.9999999999411 	1.000000000001332 	101324.9999999951
-0.5292792792792794 	299.9999999999467 	1.000000000002331 	101324.9999999953
-0.526776776776777 	299.999999999959 	1.000000000001613 	101324.9999999953
-0.5242742742742745 	299.9999999999673 	1.000000000000335 	101324.999999995
-0.521771771771772 	299.9999999999887 	1.000000000006748 	101324.9999999951
-0.5192692692692695 	299.9999999999901 	0.999999999995665 	101324.9999999952
-0.516766766766767 	299.9999999999953 	1.000000000001364 	101324.9999999954
-0.5142642642642645 	299.9999999999622 	0.9999999999988627 	101324.9999999954
-0.511761761761762 	299.9999999999823 	1.000000000003188 	101324.999999995
-0.5092592592592596 	300.000000000004 	0.9999999999993058 	101324.9999999946
-0.506756756756757 	299.9999999999822 	0.9999999999991813 	101324.9999999946
-0.5042542542542544 	300.0000000000076 	0.9999999999994619 	101324.9999999948
-0.5017517517517521 	300.0000000000182 	0.9999999999989131 	101324.9999999948
-0.4992492492492494 	300.0000000000126 	0.9999999999989349 	101324.9999999944
-0.496746746746747 	300.0000000000028 	1.000000000000162 	101324.9999999944
-0.4942442442442445 	299.9999999999617 	1.000000000000872 	101324.9999999941
-0.4917417417417421 	299.99999999996 	1.000000000000986 	101324.9999999949
-0.4892392392392395 	299.9999999999588 	1.000000000000493 	101324.9999999953
-0.486736736736737 	299.999999999976 	1.000000000000307 	101324.9999999956
-0.4842342342342345 	299.9999999999725 	0.9999999999995735 	101324.9999999954
-0.481731731731732 	300.0000000000103 	0.9999999999992714 	101324.9999999955
-0.4792292292292296 	300.000000000021 	0.9999999999992586 	101324.9999999958
-0.4767267267267268 	299.999999999974 	1.000000000007411 	101324.9999999951
-0.4742242242242246 	299.99999999998 	0.999999999996922 	101324.9999999948
-0.471721721721722 	299.9999999999578 	0.9999999999988889 	101324.9999999947
-0.4692192192192195 	299.9999999999638 	1.000000000001616 	101324.9999999949
-0.4667167167167169 	299.9999999999587 	1.000000000001029 	101324.9999999945
-0.4642142142142145 	299.9999999999992 	1.000000000000283 	101324.9999999943
-0.461711711711712 	300.0000000000081 	1.000000000000041 	101324.9999999945
-0.4592092092092094 	299.9999999999968 	1.000000000000228 	101324.9999999947
-0.456706706706707 	300.0000000000185 	1.000000000000621 	101324.9999999946
-0.4542042042042045 	299.9999999999827 	1.000000000001075 	101324.9999999948
-0.451701701701702 	299.9999999999827 	1.000000000001361 	101324.9999999948
-0.4491991991991995 	299.9999999999649 	1.000000000001366 	101324.9999999944
-0.4466966966966969 	299.9999999999615 	1.000000000001689 	101324.9999999939
-0.4441941941941945 	299.999999999976 	1.000000000002372 	101324.999999994
-0.441691691691692 	299.9999999999559 	1.000000000002117 	101324.9999999941
-0.4391891891891895 	299.9999999999794 	1.000000000000516 	101324.9999999945
-0.436686686686687 	299.999999999975 	1.000000000007618 	101324.9999999949
-0.4341841841841846 	299.9999999999797 	0.9999999999963604 	101324.9999999949
-0.431681681681682 	299.9999999999708 	0.9999999999990864 	101324.9999999945
-0.4291791791791794 	299.9999999999658 	1.000000000001668 	101324.9999999945
-0.426676676676677 	299.9999999999478 	1.000000000000638 	101324.9999999947
-0.4241741741741744 	299.999999999974 	1.000000000000484 	101324.9999999946
-0.421671671671672 	300.0000000000045 	1.000000000000512 	101324.9999999951
-0.4191691691691694 	300.0000000000081 	1.000000000000333 	101324.9999999951
-0.4166666666666669 	300.000000000016 	1.000000000000069 	101324.9999999953
-0.4141641641641645 	299.9999999999758 	1.000000000000598 	101324.9999999949
-0.411661661661662 	299.9999999999881 	1.000000000001818 	101324.9999999949
-0.4091591591591594 	299.9999999999885 	1.000000000001682 	101324.9999999946
-0.406656656656657 	299.9999999999567 	1.000000000000463 	101324.9999999944
-0.4041541541541545 	299.9999999999953 	1.000000000000443 	101324.9999999946
-0.401651651651652 	299.9999999999662 	1.000000000000795 	101324.9999999949
-0.3991491491491494 	299.9999999999844 	1.0000000000005 	101324.9999999943
-0.396646646646647 	299.9999999999808 	1.000000000008222 	101324.9999999939
-0.3941441441441444 	300.0000000000026 	0.9999999999956727 	101324.9999999944
-0.3916416416416419 	299.9999999999817 	0.9999999999977699 	101324.9999999948
-0.3891391391391395 	299.9999999999829 	1.000000000001519 	101324.9999999947
-0.3866366366366368 	299.9999999999957 	1.000000000001519 	101324.9999999948
-0.3841341341341344 	299.9999999999986 	1.000000000000764 	101324.9999999947
-0.381631631631632 	299.9999999999608 	1.000000000000528 	101324.9999999942
-0.3791291291291294 	299.9999999999865 	1.000000000000131 	101324.9999999944
-0.3766266266266269 	299.9999999999899 	1.000000000000072 	101324.9999999945
-0.3741241241241244 	300.000000000014 	1.00000000000049 	101324.9999999946
-0.371621621621622 	300.0000000000026 	1.00000000000043 	101324.9999999943
-0.3691191191191194 	300.0000000000124 	1.000000000009518 	101324.9999999939
-0.366616616616617 	300.0000000000089 	0.9999999999972016 	101324.999999994
-0.3641141141141143 	299.9999999999672 	0.9999999999987232 	101324.999999994
-0.3616116116116119 	299.9999999999787 	1.000000000001694 	101324.9999999943
-0.3591091091091095 	300.0000000000026 	1.000000000002291 	101324.9999999946
-0.356606606606607 	299.9999999999833 	1.000000000002997 	101324.9999999945
-0.3541041041041044 	300 	1.00000000000269 	101324.9999999944
-0.3516016016016019 	300.0000000000062 	1.000000000001354 	101324.9999999941
-0.3490990990990994 	300.00000000001 	1.000000000000965 	101324.999999994
-0.346596596596597 	300.0000000000193 	1.000000000005265 	101324.9999999941
-0.3440940940940944 	300.0000000000209 	1.000000000000056 	101324.9999999949
-0.3415915915915919 	300.0000000000146 	1.000000000002761 	101324.9999999954
-0.3390890890890895 	299.9999999999832 	1.000000000006115 	101324.9999999951
-0.3365865865865869 	299.9999999999987 	1.000000000005714 	101324.9999999946
-0.3340840840840844 	299.9999999999937 	1.000000000004176 	101324.9999999943
-0.3315815815815819 	300.0000000000135 	1.000000000003811 	101324.9999999943
-0.3290790790790794 	300.0000000000166 	1.000000000003606 	101324.9999999945
-0.3265765765765769 	299.9999999999674 	1.000000000004218 	101324.9999999944
-0.3240740740740744 	299.9999999999922 	1.00000000000533 	101324.9999999945
-0.3215715715715718 	300.0000000000004 	1.000000000004934 	101324.9999999943
-0.3190690690690695 	299.9999999999691 	1.000000000004426 	101324.9999999944
-0.3165665665665668 	299.9999999999915 	1.000000000004124 	101324.9999999946
-0.3140640640640644 	300.0000000000022 	1.00000000000413 	101324.9999999944
-0.311561561561562 	299.9999999999712 	1.000000000004931 	101324.9999999941
-0.3090590590590593 	299.9999999999937 	1.000000000004427 	101324.9999999945
-0.3065565565565568 	300.0000000000022 	1.000000000012826 	101324.9999999946
-0.3040540540540545 	299.9999999999922 	0.9999999999990202 	101324.9999999944
-0.3015515515515518 	300.0000000000036 	1.000000000000093 	101324.9999999942
-0.2990490490490494 	299.9999999999727 	1.000000000002738 	101324.9999999942
-0.2965465465465469 	299.9999999999924 	1.000000000003819 	101324.9999999944
-0.2940440440440444 	300.000000000008 	1.000000000005678 	101324.9999999946
-0.2915415415415418 	300.0000000000136 	1.000000000007262 	101324.9999999952
-0.2890390390390395 	300.0000000000078 	1.000000000006324 	101324.9999999952
-0.2865365365365368 	299.9999999999882 	1.000000000005092 	101324.9999999951
-0.2840340340340343 	299.9999999999915 	1.000000000009139 	101324.9999999946
-0.2815315315315318 	299.9999999999811 	1.000000000002013 	101324.9999999942
-0.2790290290290295 	299.9999999999669 	1.000000000002881 	101324.9999999945
-0.2765265265265269 	299.9999999999956 	1.000000000004471 	101324.9999999945
-0.2740240240240244 	300.0000000000219 	1.000000000004814 	101324.9999999949
-0.2715215215215219 	300.0000000000251 	1.000000000004566 	101324.9999999956
-0.2690190190190194 	299.9999999999732 	1.000000000004671 	101324.9999999953
-0.2665165165165169 	299.9999999999878 	1.000000000004882 	101324.9999999946
-0.2640140140140144 	299.9999999999819 	1.000000000004607 	101324.9999999938
-0.2615115115115119 	299.9999999999971 	1.000000000008129 	101324.9999999938
-0.2590090090090094 	299.9999999999573 	1.000000000001313 	101324.9999999941
-0.2565065065065068 	299.9999999999882 	1.00000000000321 	101324.9999999944
-0.2540040040040044 	299.9999999999987 	1.000000000004833 	101324.9999999942
-0.2515015015015019 	300.000000000018 	1.000000000005551 	101324.9999999942
-0.2489989989989994 	300.0000000000247 	1.000000000006695 	101324.9999999943
-0.2464964964964968 	299.9999999999931 	1.000000000007235 	101324.9999999942
-0.2439939939939944 	299.9999999999962 	1.000000000011176 	101324.9999999944
-0.2414914914914919 	299.9999999999775 	1.000000000003825 	101324.9999999941
-0.2389889889889893 	299.999999999986 	1.000000000005201 	101324.9999999944
-0.2364864864864869 	300.0000000000128 	1.000000000005183 	101324.9999999943
-0.2339839839839843 	299.9999999999744 	1.00000000000952 	101324.9999999941
-0.2314814814814819 	299.9999999999824 	1.000000000003035 	101324.9999999939
-0.2289789789789792 	299.9999999999529 	1.000000000005079 	101324.9999999941
-0.2264764764764769 	299.999999999961 	1.000000000006752 	101324.9999999938
-0.2239739739739743 	299.9999999999756 	1.000000000006658 	101324.9999999939
-0.2214714714714718 	299.9999999999535 	1.000000000005919 	101324.9999999938
-0.2189689689689693 	299.999999999969 	1.000000000004928 	101324.9999999941
-0.2164664664664669 	299.9999999999872 	1.000000000008571 	101324.9999999938
-0.2139639639639643 	299.9999999999595 	1.000000000000621 	101324.9999999935
-0.2114614614614618 	299.9999999999749 	1.000000000003151 	101324.9999999935
-0.2089589589589593 	299.9999999999967 	1.000000000005355 	101324.999999994
-0.2064564564564568 	299.9999999999959 	1.000000000005479 	101324.9999999933
-0.2039539539539543 	299.9999999999494 	1.000000000005288 	101324.9999999934
-0.2014514514514518 	299.9999999999571 	1.000000000005088 	101324.9999999936
-0.1989489489489494 	299.9999999999751 	1.000000000009455 	101324.9999999935
-0.1964464464464468 	299.9999999999964 	1.000000000002341 	101324.9999999937
-0.1939439439439443 	299.9999999999962 	1.000000000004266 	101324.9999999935
-0.1914414414414418 	299.9999999999622 	1.000000000005275 	101324.999999994
-0.1889389389389393 	299.9999999999906 	1.000000000004348 	101324.9999999939
-0.1864364364364368 	300.0000000000171 	1.000000000004887 	101324.9999999939
-0.1839339339339343 	299.9999999999905 	1.000000000005266 	101324.9999999935
-0.1814314314314318 	299.9999999999928 	1.000000000004157 	101324.9999999937
-0.1789289289289293 	299.9999999999488 	1.000000000004149 	101324.999999994
-0.1764264264264268 	299.9999999999708 	1.000000000003898 	101324.9999999942
-0.1739239239239243 	299.9999999999462 	1.000000000003539 	101324.9999999943
-0.1714214214214218 	299.9999999999836 	1.000000000003622 	101324.9999999939
-0.1689189189189193 	299.9999999999648 	1.00000000000358 	101324.9999999935
-0.1664164164164168 	299.9999999999932 	1.000000000003378 	101324.9999999935
-0.1639139139139143 	299.9999999999997 	1.000000000003824 	101324.9999999939
-0.1614114114114118 	300.0000000000135 	1.000000000003942 	101324.9999999943
-0.1589089089089093 	300.0000000000014 	1.000000000012751 	101324.9999999945
-0.1564064064064068 	299.9999999999907 	0.9999999999985487 	101324.9999999942
-0.1539039039039043 	299.9999999999932 	1.000000000007668 	101324.999999994
-0.1514014014014018 	300.0000000000073 	1.000000000002034 	101324.9999999941
-0.1488988988988993 	299.9999999999941 	1.000000000006873 	101324.9999999942
-0.1463963963963968 	299.9999999999993 	1.000000000000891 	101324.9999999947
-0.1438938938938943 	299.9999999999685 	1.000000000003302 	101324.9999999947
-0.1413913913913918 	299.9999999999655 	1.000000000004309 	101324.9999999939
-0.1388888888888893 	299.9999999999785 	1.000000000003882 	101324.999999993
-0.1363863863863868 	299.9999999999521 	1.000000000003744 	101324.9999999929
-0.1338838838838843 	299.9999999999396 	1.000000000003534 	101324.9999999932
-0.1313813813813818 	299.9999999999857 	1.000000000003091 	101324.9999999932
-0.1288788788788793 	299.9999999999662 	1.000000000002635 	101324.9999999935
-0.1263763763763768 	299.9999999999819 	1.000000000003245 	101324.9999999935
-0.1238738738738743 	299.9999999999615 	1.000000000003171 	101324.9999999935
-0.1213713713713717 	299.9999999999797 	1.000000000003344 	101324.9999999937
-0.1188688688688693 	300.0000000000053 	1.000000000003002 	101324.9999999939
-0.1163663663663668 	299.9999999999517 	1.000000000002781 	101324.999999994
-0.1138638638638643 	299.9999999999835 	1.00000000000766 	101324.9999999938
-0.1113613613613618 	299.9999999999868 	1.000000000000415 	101324.9999999937
-0.1088588588588592 	299.9999999999863 	1.000000000005659 	101324.9999999937
-0.1063563563563568 	299.999999999976 	0.9999999999988356 	101324.999999994
-0.1038538538538543 	299.9999999999845 	1.000000000001433 	101324.999999994
-0.1013513513513517 	300.0000000000064 	1.000000000003564 	101324.9999999943
-0.09884884884884926 	299.9999999999795 	1.000000000003774 	101324.9999999938
-0.09634634634634676 	299.9999999999494 	1.000000000003764 	101324.9999999932
-0.09384384384384425 	299.9999999999367 	1.000000000003404 	101324.9999999936
-0.09134134134134177 	299.9999999999984 	1.000000000003292 	101324.9999999934
-0.08883883883883925 	300.0000000000039 	1.000000000003296 	101324.999999994
-0.08633633633633674 	299.9999999999683 	1.000000000003591 	101324.9999999941
-0.08383383383383426 	299.9999999999967 	1.00000000000333 	101324.9999999943
-0.08133133133133173 	299.9999999999845 	1.000000000002643 	101324.9999999942
-0.07882882882882926 	299.999999999945 	1.000000000001702 	101324.9999999946
-0.07632632632632676 	299.9999999999726 	1.000000000000797 	101324.9999999943
-0.07382382382382424 	299.9999999999441 	1.000000000000662 	101324.9999999941
-0.07132132132132173 	299.9999999999859 	1.000000000001424 	101324.9999999935
-0.06881881881881925 	299.9999999999696 	1.000000000001381 	101324.9999999932
-0.06631631631631671 	299.9999999999378 	1.000000000000607 	101324.9999999936
-0.06381381381381425 	299.9999999999651 	0.9999999999998351 	101324.9999999938
-0.06131131131131173 	299.9999999999704 	1.000000000000085 	101324.9999999941
-0.05880880880880923 	299.9999999999712 	1.000000000000502 	101324.9999999947
-0.05630630630630672 	299.9999999999716 	1.000000000001663 	101324.9999999942
-0.05380380380380424 	300.000000000015 	1.000000000001691 	101324.999999994
-0.05130130130130173 	300.0000000000015 	1.00000000000085 	101324.999999994
-0.04879879879879922 	299.9999999999455 	1.000000000000678 	101324.9999999948
-0.04629629629629672 	299.9999999999551 	1.000000000001157 	101324.999999995
-0.04379379379379422 	299.9999999999584 	1.000000000001255 	101324.9999999949
-0.04129129129129173 	299.9999999999673 	1.000000000001214 	101324.9999999952
-0.03878878878878922 	300.0000000000014 	1.000000000001833 	101324.9999999948
-0.03628628628628671 	299.9999999999844 	1.000000000001197 	101324.999999994
-0.03378378378378422 	299.9999999999533 	1.000000000000959 	101324.9999999937
-0.03128128128128172 	299.9999999999731 	0.9999999999998951 	101324.9999999943
-0.02877877877877922 	299.999999999999 	1.000000000000251 	101324.9999999944
-0.0262762762762767 	299.99999999994 	1.000000000001183 	101324.9999999951
-0.02377377377377422 	299.9999999999839 	1.000000000001113 	101324.9999999947
-0.0212712712712717 	299.9999999999366 	1.000000000001322 	101324.9999999943
-0.01876876876876921 	299.9999999999823 	1.000000000001486 	101324.999999994
-0.01626626626626671 	299.9999999999931 	1.000000000000965 	101324.9999999943
-0.0137637637637642 	299.9999999999677 	0.9999999999998032 	101324.9999999941
-0.0112612612612617 	299.9999999999877 	0.9999999999993024 	101324.999999994
-0.008758758758759198 	299.9999999999822 	1.000000000000128 	101324.9999999943
-0.006256256256256697 	299.9999999999587 	1.000000000000532 	101324.9999999944
-0.003753753753754195 	299.9999999999604 	1.000000000000083 	101324.9999999942
-0.001251251251251693 	299.9999999999577 	0.9999999999997288 	101324.9999999947
0.00125125125125081 	299.9999999999451 	0.9999999999995738 	101324.9999999951
0.003753753753753312 	299.9999999999558 	0.9999999999997859 	101324.9999999948
0.006256256256255817 	299.9999999999504 	1.000000000000172 	101324.9999999944
0.008758758758758317 	299.9999999999609 	0.9999999999998717 	101324.9999999948
0.01126126126126082 	299.9999999999797 	0.9999999999995293 	101324.9999999954
0.01376376376376332 	299.9999999999672 	0.9999999999989244 	101324.9999999955
0.01626626626626582 	299.9999999999866 	0.9999999999986016 	101324.9999999944
0.01876876876876833 	299.9999999999869 	0.9999999999991508 	101324.9999999946
0.02127127127127083 	299.9999999999526 	0.9999999999993076 	101324.999999995
0.02377377377377332 	299.999999999987 	0.9999999999995194 	101324.9999999948
0.02627627627627583 	299.99999999995 	0.9999999999989967 	101324.9999999949
0.02877877877877833 	299.9999999999799 	0.9999999999994567 	101324.9999999952
0.03128128128128083 	299.9999999999804 	0.9999999999994158 	101324.9999999956
0.03378378378378333 	299.9999999999518 	0.9999999999987181 	101324.9999999953
0.03628628628628584 	299.999999999972 	0.9999999999978949 	101324.9999999946
0.03878878878878834 	299.9999999999987 	0.9999999999977381 	101324.9999999941
0.04129129129129084 	299.9999999999636 	0.9999999999980133 	101324.9999999945
0.04379379379379333 	299.9999999999682 	0.999999999997752 	101324.9999999949
0.04629629629629585 	299.9999999999583 	0.9999999999975494 	101324.9999999951
0.04879879879879834 	299.9999999999476 	0.9999999999975455 	101324.9999999943
0.05130130130130085 	300.0000000000041 	0.9999999999977247 	101324.9999999942
0.05380380380380335 	300.0000000000116 	0.999999999998028 	101324.9999999942
0.05630630630630584 	299.9999999999804 	0.9999999999985296 	101324.9999999943
0.05880880880880836 	299.999999999969 	0.9999999999985106 	101324.9999999944
0.06131131131131085 	299.9999999999762 	0.9999999999979376 	101324.9999999947
0.06381381381381336 	299.9999999999819 	0.999999999998282 	101324.9999999948
0.06631631631631586 	299.9999999999509 	0.999999999998793 	101324.9999999948
0.06881881881881835 	299.9999999999701 	0.9999999999988626 	101324.9999999943
0.07132132132132088 	299.9999999999907 	0.9999999999974144 	101324.9999999937
0.07382382382382337 	299.9999999999498 	0.9999999999968785 	101324.9999999938
0.07632632632632587 	299.9999999999745 	0.9999999999959713 	101324.9999999941
0.07882882882882837 	299.9999999999717 	0.9999999999953522 	101324.9999999943
0.08133133133133086 	299.9999999999788 	0.9999999999954491 	101324.9999999949
0.08383383383383337 	299.9999999999897 	0.9999999999955013 	101324.9999999953
0.08633633633633589 	299.9999999999483 	0.9999999999954889 	101324.999999995
0.08883883883883838 	299.99999999999 	0.9999999999957644 	101324.9999999942
0.09134134134134086 	299.9999999999875 	0.9999999999964948 	101324.9999999937
0.09384384384384339 	299.9999999999462 	0.9999999999966701 	101324.9999999943
0.09634634634634588 	299.999999999975 	0.9999999999964226 	101324.9999999948
0.09884884884884838 	299.9999999999841 	0.9999999999959425 	101324.999999994
0.1013513513513509 	300.000000000013 	0.9999999999965047 	101324.9999999945
0.1038538538538534 	299.9999999999927 	0.9999999999964939 	101324.999999995
0.1063563563563559 	299.9999999999907 	0.9999999999965057 	101324.9999999949
0.1088588588588584 	300.0000000000168 	0.9999999999970069 	101324.9999999951
0.1113613613613609 	299.9999999999781 	0.9999999999965855 	101324.9999999945
0.1138638638638634 	299.9999999999552 	0.9999999999945461 	101324.9999999938
0.1163663663663659 	299.9999999999603 	0.9999999999940797 	101324.9999999939
0.1188688688688684 	299.9999999999781 	0.9999999999949521 	101324.9999999942
0.1213713713713709 	300.000000000001 	0.9999999999948129 	101324.9999999944
0.1238738738738734 	299.9999999999603 	0.9999999999940794 	101324.999999994
0.1263763763763759 	299.9999999999883 	0.9999999999946985 	101324.999999994
0.1288788788788784 	299.9999999999874 	0.9999999999948668 	101324.9999999935
0.1313813813813809 	299.9999999999822 	0.9999999999941789 	101324.9999999942
0.1338838838838834 	299.999999999986 	0.9999999999929113 	101324.9999999941
0.1363863863863859 	300.0000000000005 	0.9999999999936831 	101324.9999999945
0.1388888888888884 	300.0000000000164 	0.9999999999952045 	101324.999999994
0.1413913913913909 	299.999999999999 	0.9999999999966639 	101324.9999999941
0.1438938938938934 	299.9999999999926 	0.9999999999966693 	101324.9999999937
0.1463963963963959 	299.9999999999696 	0.9999999999971561 	101324.9999999936
0.1488988988988985 	299.9999999999551 	0.9999999999973199 	101324.999999994
0.1514014014014009 	299.9999999999749 	0.9999999999959848 	101324.9999999947
0.1539039039039035 	299.9999999999744 	0.9999999999952143 	101324.9999999944
0.1564064064064059 	299.9999999999622 	0.9999999999990397 	101324.9999999939
0.1589089089089084 	299.9999999999781 	0.9999999999918214 	101324.999999994
0.1614114114114109 	299.9999999999769 	0.99999999999526 	101324.9999999945
0.1639139139139134 	299.9999999999527 	0.9999999999952996 	101324.9999999945
0.166416416416416 	299.9999999999828 	0.9999999999942843 	101324.9999999941
0.1689189189189185 	300.0000000000159 	0.9999999999939722 	101324.9999999938
0.1714214214214209 	300.0000000000055 	0.9999999999939468 	101324.9999999934
0.1739239239239235 	299.9999999999824 	0.9999999999946078 	101324.9999999932
0.1764264264264259 	299.9999999999873 	0.9999999999941739 	101324.9999999931
0.1789289289289284 	300.0000000000056 	0.9999999999967798 	101324.9999999934
0.181431431431431 	299.9999999999861 	0.9999999999891146 	101324.9999999933
0.1839339339339334 	299.9999999999849 	0.9999999999928572 	101324.9999999938
0.186436436436436 	299.9999999999671 	0.999999999995149 	101324.9999999941
0.1889389389389385 	299.9999999999841 	0.9999999999959102 	101324.9999999937
0.191441441441441 	299.9999999999824 	0.9999999999952651 	101324.9999999941
0.1939439439439434 	299.9999999999645 	0.9999999999949165 	101324.9999999946
0.196446446446446 	299.999999999962 	0.9999999999982887 	101324.9999999945
0.1989489489489485 	299.9999999999775 	0.9999999999895799 	101324.9999999938
0.2014514514514509 	299.9999999999931 	0.999999999991681 	101324.9999999937
0.2039539539539535 	299.9999999999907 	0.9999999999936452 	101324.9999999939
0.2064564564564559 	299.9999999999698 	0.9999999999943865 	101324.9999999943
0.2089589589589585 	299.9999999999883 	0.9999999999942425 	101324.9999999945
0.211461461461461 	299.9999999999663 	0.9999999999937446 	101324.9999999942
0.2139639639639635 	299.9999999999871 	0.9999999999941016 	101324.9999999941
0.2164664664664659 	300.0000000000061 	0.9999999999955788 	101324.999999994
0.2189689689689684 	300.0000000000065 	0.9999999999997649 	101324.9999999945
0.221471471471471 	300.0000000000014 	0.9999999999931087 	101324.9999999944
0.2239739739739735 	299.9999999999764 	0.9999999999960568 	101324.9999999941
0.226476476476476 	299.9999999999889 	0.9999999999972425 	101324.9999999942
0.2289789789789785 	299.9999999999986 	0.9999999999960152 	101324.9999999942
0.231481481481481 	299.9999999999886 	0.9999999999944873 	101324.999999994
0.2339839839839835 	299.9999999999821 	0.9999999999932753 	101324.9999999937
0.236486486486486 	300.000000000007 	0.9999999999934952 	101324.9999999936
0.2389889889889885 	299.9999999999976 	0.9999999999951348 	101324.9999999941
0.241491491491491 	299.9999999999583 	0.9999999999995212 	101324.9999999941
0.2439939939939935 	299.9999999999858 	0.9999999999927734 	101324.9999999938
0.246496496496496 	299.9999999999941 	0.999999999995193 	101324.9999999939
0.2489989989989985 	300.0000000000264 	0.9999999999967926 	101324.9999999942
0.251501501501501 	300.0000000000251 	0.9999999999976377 	101324.9999999947
0.2540040040040035 	300.0000000000015 	0.99999999999766 	101324.9999999946
0.256506506506506 	300.000000000016 	0.9999999999978825 	101324.9999999946
0.2590090090090086 	299.9999999999579 	1.000000000001282 	101324.9999999942
0.261511511511511 	299.9999999999928 	0.9999999999944781 	101324.999999994
0.2640140140140135 	299.9999999999891 	0.9999999999967071 	101324.9999999942
0.2665165165165161 	299.9999999999627 	0.9999999999966579 	101324.9999999946
0.2690190190190185 	299.9999999999993 	0.9999999999959841 	101324.9999999951
0.271521521521521 	300.0000000000193 	0.9999999999956564 	101324.9999999944
0.2740240240240235 	300.000000000021 	0.9999999999958139 	101324.999999994
0.276526526526526 	300.0000000000134 	0.9999999999966858 	101324.9999999941
0.2790290290290286 	299.9999999999695 	0.9999999999973492 	101324.9999999947
0.281531531531531 	299.9999999999663 	1.000000000000562 	101324.999999995
0.2840340340340335 	299.9999999999778 	0.9999999999934228 	101324.9999999944
0.2865365365365361 	299.9999999999839 	0.999999999995821 	101324.9999999941
0.2890390390390385 	300.0000000000107 	0.9999999999966254 	101324.9999999938
0.291541541541541 	300.0000000000144 	0.9999999999956195 	101324.9999999939
0.2940440440440436 	300.000000000014 	0.9999999999952074 	101324.9999999943
0.296546546546546 	300.0000000000102 	0.9999999999952469 	101324.9999999938
0.2990490490490486 	299.9999999999789 	0.9999999999956785 	101324.999999994
0.3015515515515511 	299.9999999999997 	0.999999999997462 	101324.9999999936
0.3040540540540535 	299.9999999999961 	1.000000000004231 	101324.9999999932
0.3065565565565562 	300.0000000000018 	0.999999999990269 	101324.9999999935
0.3090590590590585 	299.9999999999976 	0.9999999999955057 	101324.9999999938
0.3115615615615611 	299.9999999999629 	0.9999999999980589 	101324.999999994
0.3140640640640635 	300.0000000000016 	0.9999999999974747 	101324.9999999942
0.316566566566566 	299.999999999999 	0.9999999999975651 	101324.9999999943
0.3190690690690687 	299.99999999996 	0.9999999999977331 	101324.9999999941
0.3215715715715711 	299.9999999999933 	0.999999999997242 	101324.999999994
0.3240740740740735 	299.9999999999919 	0.9999999999968344 	101324.9999999944
0.326576576576576 	299.9999999999652 	0.9999999999962886 	101324.9999999953
0.3290790790790786 	300.0000000000142 	0.9999999999962426 	101324.9999999949
0.3315815815815811 	300.0000000000168 	0.9999999999963761 	101324.9999999946
0.3340840840840836 	300.000000000008 	0.9999999999967459 	101324.9999999947
0.3365865865865861 	300.000000000021 	0.9999999999975997 	101324.9999999945
0.3390890890890886 	300.0000000000242 	0.9999999999978679 	101324.9999999945
0.3415915915915911 	300.0000000000013 	0.9999999999980745 	101324.9999999948
0.3440940940940935 	299.9999999999604 	1.000000000000777 	101324.9999999947
0.3465965965965962 	300.0000000000048 	0.9999999999957172 	101324.9999999943
0.3490990990990985 	300.0000000000077 	1.000000000000484 	101324.999999994
0.3516016016016011 	300.0000000000132 	1.000000000003453 	101324.9999999938
0.3541041041041035 	300.0000000000056 	1.000000000002237 	101324.9999999938
0.3566066066066061 	299.99999999996 	0.9999999999995921 	101324.9999999943
0.3591091091091085 	299.9999999999741 	0.9999999999978121 	101324.9999999948
0.3616116116116112 	299.9999999999808 	0.9999999999974842 	101324.9999999947
0.3641141141141137 	299.9999999999579 	0.9999999999984537 	101324.9999999947
0.3666166166166161 	299.9999999999378 	1.000000000004361 	101324.9999999944
0.3691191191191185 	299.9999999999966 	0.999999999991966 	101324.9999999942
0.371621621621621 	300.0000000000027 	0.9999999999977962 	101324.9999999944
0.3741241241241237 	300.0000000000169 	1.000000000000876 	101324.9999999945
0.3766266266266261 	300.0000000000055 	1.00000000000081 	101324.9999999948
0.3791291291291286 	299.9999999999901 	0.9999999999999637 	101324.999999995
0.3816316316316311 	299.9999999999749 	0.9999999999998087 	101324.9999999948
0.3841341341341336 	299.9999999999955 	1.000000000000885 	101324.9999999943
0.3866366366366362 	299.9999999999899 	1.000000000001408 	101324.9999999942
0.3891391391391387 	299.9999999999702 	1.000000000001301 	101324.9999999944
0.391641641641641 	299.9999999999972 	1.000000000001329 	101324.9999999944
0.3941441441441436 	299.9999999999957 	1.000000000001662 	101324.9999999945
0.3966466466466462 	299.9999999999927 	1.000000000001656 	101324.9999999945
0.3991491491491486 	299.99999999998 	1.000000000000996 	101324.9999999954
0.4016516516516512 	299.9999999999651 	1.000000000000218 	101324.9999999958
0.4041541541541536 	299.9999999999783 	0.9999999999999216 	101324.9999999955
0.4066566566566561 	299.9999999999794 	1.000000000002516 	101324.9999999947
0.4091591591591587 	300.0000000000072 	0.9999999999966915 	101324.9999999947
0.4116616616616612 	300.0000000000124 	1.000000000000325 	101324.9999999946
0.4141641641641635 	300.0000000000238 	1.000000000002812 	101324.9999999944
0.4166666666666662 	300.0000000000065 	1.000000000002847 	101324.9999999942
0.4191691691691687 	299.9999999999626 	1.000000000002224 	101324.9999999944
0.421671671671671 	299.9999999999943 	1.000000000002187 	101324.999999994
0.4241741741741737 	299.9999999999789 	1.000000000001138 	101324.9999999943
0.4266766766766761 	299.9999999999653 	1.000000000001123 	101324.9999999946
0.4291791791791785 	299.9999999999928 	1.000000000006731 	101324.9999999947
0.4316816816816812 	299.9999999999919 	0.999999999995283 	101324.9999999955
0.4341841841841836 	300.000000000002 	1.000000000000819 	101324.9999999956
0.4366866866866862 	299.9999999999797 	1.000000000002211 	101324.9999999953
0.4391891891891885 	300.000000000001 	1.000000000001366 	101324.9999999948
0.4416916916916913 	300.0000000000038 	1.000000000001392 	101324.9999999945
0.4441941941941936 	299.9999999999921 	1.000000000000722 	101324.9999999943
0.4466966966966961 	299.9999999999498 	1.00000000000017 	101324.999999995
0.4491991991991987 	299.9999999999894 	1.000000000000347 	101324.9999999951
0.4517017017017012 	299.9999999999757 	1.000000000001544 	101324.9999999949
0.4542042042042035 	299.9999999999948 	1.000000000002804 	101324.9999999948
0.4567067067067062 	299.9999999999952 	1.000000000002672 	101324.9999999946
0.4592092092092087 	299.9999999999487 	1.000000000002281 	101324.9999999949
0.4617117117117112 	299.9999999999843 	1.000000000001852 	101324.9999999951
0.4642142142142137 	299.999999999971 	1.000000000001364 	101324.9999999945
0.4667167167167162 	299.9999999999891 	1.000000000001575 	101324.9999999939
0.4692192192192187 	299.99999999997 	1.000000000002208 	101324.9999999936
0.4717217217217212 	300.0000000000027 	1.000000000002722 	101324.9999999941
0.4742242242242236 	299.9999999999794 	1.000000000003137 	101324.9999999943
0.4767267267267262 	299.9999999999724 	1.000000000002461 	101324.9999999943
0.4792292292292287 	299.9999999999966 	1.000000000000988 	101324.9999999942
0.4817317317317312 	300.0000000000084 	1.000000000001103 	101324.9999999943
0.4842342342342336 	300.0000000000039 	1.00000000000146 	101324.9999999944
0.4867367367367362 	299.9999999999949 	1.000000000001546 	101324.9999999947
0.4892392392392387 	300.000000000002 	1.000000000002132 	101324.999999995
0.4917417417417412 	300.0000000000185 	1.000000000003301 	101324.9999999955
0.4942442442442437 	299.9999999999808 	1.000000000003509 	101324.9999999959
0.4967467467467462 	299.999999999958 	1.0000000000046 	101324.9999999955
0.4992492492492487 	299.9999999999424 	0.999999999998972 	101324.9999999951
0.5017517517517511 	299.9999999999581 	1.000000000001885 	101324.9999999945
0.5042542542542537 	299.9999999999924 	1.000000000003454 	101324.9999999948
0.5067567567567562 	299.9999999999837 	1.000000000003282 	101324.999999995
0.5092592592592589 	299.9999999999754 	1.000000000002488 	101324.9999999953
0.5117617617617611 	299.9999999999885 	1.000000000001577 	101324.9999999955
0.5142642642642637 	300.0000000000082 	1.000000000001413 	101324.9999999952
0.5167667667667663 	300.0000000000004 	1.000000000003278 	101324.999999995
0.5192692692692688 	299.9999999999574 	1.000000000008219 	101324.9999999951
0.5217717717717714 	299.9999999999736 	0.9999999999974101 	101324.9999999949
0.5242742742742736 	299.9999999999735 	1.000000000002894 	101324.9999999944
0.5267767767767763 	299.999999999967 	1.000000000004595 	101324.999999994
0.5292792792792789 	299.9999999999707 	1.000000000004164 	101324.9999999942
0.5317817817817813 	299.9999999999538 	1.000000000003941 	101324.9999999942
0.5342842842842837 	299.9999999999898 	1.000000000002859 	101324.9999999943
0.5367867867867864 	299.9999999999877 	1.000000000002025 	101324.9999999945
0.5392892892892888 	299.999999999962 	1.000000000002325 	101324.9999999949
0.5417917917917912 	299.9999999999764 	1.000000000002842 	101324.999999995
0.5442942942942938 	299.9999999999713 	1.000000000002348 	101324.9999999948
0.5467967967967964 	299.9999999999824 	1.000000000001665 	101324.999999995
0.5492992992992988 	299.9999999999787 	1.000000000001517 	101324.9999999949
0.5518018018018012 	299.9999999999731 	1.000000000001772 	101324.9999999953
0.5543043043043039 	299.9999999999959 	1.000000000001343 	101324.9999999952
0.5568068068068063 	299.9999999999883 	1.000000000002 	101324.999999995
0.5593093093093087 	299.9999999999594 	1.000000000003814 	101324.9999999944
0.5618118118118114 	299.9999999999587 	0.9999999999976161 	101324.9999999943
0.5643143143143137 	299.9999999999513 	0.9999999999992029 	101324.9999999946
0.5668168168168163 	299.9999999999782 	1.000000000000276 	101324.9999999945
0.5693193193193188 	300.0000000000021 	1.000000000000962 	101324.9999999948
0.5718218218218213 	300.0000000000165 	1.000000000001809 	101324.9999999951
0.5743243243243239 	300.0000000000157 	1.000000000001959 	101324.9999999952
0.5768268268268262 	300.0000000000057 	1.000000000001373 	101324.9999999953
0.5793293293293288 	299.9999999999786 	1.000000000003276 	101324.9999999952
0.5818318318318314 	299.9999999999699 	1.000000000007113 	101324.9999999949
0.5843343343343338 	300.000000000002 	0.999999999996134 	101324.9999999947
0.5868368368368363 	299.9999999999915 	1.000000000000406 	101324.9999999948
0.5893393393393387 	299.9999999999577 	1.000000000001327 	101324.9999999947
0.5918418418418413 	299.9999999999754 	0.9999999999997073 	101324.9999999947
0.5943443443443439 	300.0000000000001 	0.9999999999993228 	101324.9999999947
0.5968468468468463 	300.0000000000086 	1.00000000000063 	101324.9999999946
0.5993493493493487 	300.0000000000265 	1.00000000000245 	101324.9999999945
0.6018518518518514 	300.0000000000113 	1.000000000003378 	101324.9999999951
0.6043543543543537 	300.000000000008 	1.000000000003449 	101324.9999999955
0.6068568568568564 	299.9999999999966 	1.000000000003241 	101324.9999999954
0.6093593593593587 	299.9999999999528 	1.000000000003125 	101324.9999999952
0.6118618618618614 	299.9999999999646 	1.000000000002836 	101324.999999995
0.6143643643643638 	300.0000000000046 	1.000000000002144 	101324.9999999948
0.6168668668668662 	299.999999999999 	1.000000000002846 	101324.9999999946
0.6193693693693688 	299.9999999999869 	1.000000000004826 	101324.9999999944
0.6218718718718714 	299.9999999999977 	1.000000000007057 	101324.999999995
0.6243743743743737 	299.9999999999873 	1.000000000001595 	101324.9999999956
0.6268768768768762 	299.9999999999769 	1.000000000002838 	101324.9999999958
0.629379379379379 	299.9999999999905 	1.000000000003147 	101324.9999999951
0.6318818818818812 	299.9999999999986 	1.000000000002188 	101324.9999999949
0.6343843843843838 	300.0000000000144 	1.000000000001488 	101324.999999995
0.6368868868868864 	300.0000000000038 	1.000000000001509 	101324.9999999946
0.6393893893893888 	299.9999999999688 	1.000000000001441 	101324.9999999944
0.6418918918918912 	299.9999999999851 	1.000000000003952 	101324.9999999947
0.6443943943943939 	299.9999999999779 	1.000000000007937 	101324.999999995
0.6468968968968963 	299.9999999999851 	0.9999999999978451 	101324.9999999949
0.6493993993993988 	299.9999999999824 	1.000000000002343 	101324.9999999946
0.6519019019019012 	299.9999999999976 	1.000000000003882 	101324.9999999943
0.6544044044044038 	299.9999999999674 	1.000000000002975 	101324.9999999945
0.6569069069069065 	299.9999999999613 	1.000000000002847 	101324.9999999949
0.6594094094094087 	299.9999999999802 	1.000000000002411 	101324.9999999948
0.6619119119119113 	299.9999999999908 	1.000000000002136 	101324.9999999948
0.664414414414414 	299.9999999999976 	1.00000000000218 	101324.9999999948
0.6669169169169162 	299.999999999996 	1.000000000002518 	101324.9999999948
0.6694194194194188 	299.9999999999861 	1.000000000002061 	101324.999999995
0.6719219219219214 	299.9999999999682 	1.000000000001944 	101324.999999995
0.674424424424424 	299.9999999999843 	1.000000000002554 	101324.999999995
0.6769269269269262 	299.9999999999698 	1.000000000002957 	101324.9999999951
0.679429429429429 	300.0000000000061 	1.000000000002037 	101324.9999999951
0.6819319319319311 	300.0000000000182 	1.000000000002037 	101324.9999999952
0.6844344344344341 	300.0000000000213 	1.000000000003616 	101324.999999995
0.686936936936936 	300.0000000000198 	0.9999999999996626 	101324.9999999951
0.6894394394394392 	300.0000000000159 	1.000000000002577 	101324.9999999948
0.6919419419419413 	300.0000000000053 	1.000000000003559 	101324.9999999946
0.694444444444444 	299.9999999999698 	1.000000000003266 	101324.9999999951
0.6969469469469463 	299.9999999999516 	1.000000000003251 	101324.9999999953
0.6994494494494489 	299.9999999999642 	1.00000000000337 	101324.9999999951
0.7019519519519515 	299.9999999999756 	1.000000000002606 	101324.9999999951
0.7044544544544538 	299.9999999999657 	1.000000000003236 	101324.9999999947
0.7069569569569564 	300.0000000000008 	1.000000000004381 	101324.9999999944
0.7094594594594589 	299.9999999999863 	0.9999999999937854 	101324.9999999944
0.7119619619619615 	299.9999999999654 	0.9999999999991049 	101324.9999999947
0.7144644644644638 	299.9999999999854 	1.000000000001746 	101324.9999999948
0.7169669669669665 	299.9999999999778 	1.000000000001568 	101324.9999999948
0.7194694694694688 	300.0000000000138 	1.000000000001353 	101324.9999999947
0.7219719719719715 	300.0000000000092 	1.000000000001585 	101324.9999999948
0.7244744744744737 	299.9999999999976 	1.000000000001646 	101324.9999999952
0.7269769769769764 	300.000000000007 	1.000000000003764 	101324.9999999952
0.7294794794794791 	300.0000000000018 	1.00000000000544 	101324.9999999953
0.7319819819819813 	299.9999999999856 	0.9999999999958256 	101324.9999999953
0.7344844844844839 	299.999999999947 	1.000000000000374 	101324.9999999952
0.7369869869869864 	299.9999999999621 	1.000000000001481 	101324.9999999949
0.739489489489489 	299.9999999999832 	1.000000000000458 	101324.999999995
0.7419919919919914 	299.9999999999756 	1.0000000000008 	101324.9999999946
0.7444944944944939 	299.9999999999715 	1.000000000002359 	101324.9999999943
0.7469969969969963 	299.9999999999865 	1.000000000002325 	101324.9999999944
0.7494994994994989 	299.9999999999585 	0.9999999999987802 	101324.9999999949
0.7520020020020015 	299.9999999999673 	1.000000000003 	101324.9999999949
0.7545045045045039 	299.9999999999713 	0.9999999999948541 	101324.9999999951
0.7570070070070062 	299.9999999999736 	0.9999999999994797 	101324.9999999952
0.7595095095095092 	299.9999999999779 	1.00000000000093 	101324.9999999953
0.7620120120120112 	299.99999999999 	0.9999999999994315 	101324.999999995
0.7645145145145138 	299.9999999999882 	0.9999999999987046 	101324.9999999949
0.7670170170170165 	299.9999999999682 	1.000000000001303 	101324.9999999953
0.7695195195195191 	299.999999999953 	1.000000000003497 	101324.9999999953
0.7720220220220213 	299.9999999999708 	0.9999999999944753 	101324.9999999949
0.7745245245245239 	299.9999999999571 	0.99999999999919 	101324.9999999945
0.7770270270270263 	299.9999999999573 	1.000000000000547 	101324.9999999944
0.779529529529529 	299.9999999999759 	0.9999999999995953 	101324.9999999944
0.7820320320320313 	299.9999999999703 	0.99999999999939 	101324.999999994
0.784534534534534 	299.9999999999956 	0.9999999999993456 	101324.9999999942
0.7870370370370364 	299.9999999999884 	1.000000000000133 	101324.9999999946
0.7895395395395389 	299.9999999999825 	1.000000000000639 	101324.9999999948
0.7920420420420413 	299.9999999999962 	0.9999999999999841 	101324.9999999946
0.794544544544544 	299.9999999999903 	1.000000000001391 	101324.9999999945
0.7970470470470463 	300.000000000005 	1.000000000001875 	101324.9999999941
0.799549549549549 	300.0000000000069 	0.9999999999923248 	101324.9999999939
0.8020520520520515 	299.9999999999886 	0.9999999999969562 	101324.9999999939
0.8045545545545539 	299.9999999999595 	0.9999999999991585 	101324.9999999943
0.8070570570570563 	299.9999999999741 	0.9999999999988943 	101324.9999999946
0.8095595595595589 	299.9999999999708 	0.9999999999985656 	101324.9999999948
0.8120620620620614 	299.9999999999823 	0.999999999998642 	101324.9999999945
0.8145645645645638 	300.0000000000059 	0.9999999999984275 	101324.9999999942
0.8170670670670666 	300.0000000000209 	1.000000000000913 	101324.9999999943
0.8195695695695689 	300.0000000000027 	1.00000000000218 	101324.9999999947
0.8220720720720714 	299.9999999999628 	0.9999999999933239 	101324.9999999948
0.8245745745745739 	299.9999999999757 	0.9999999999976146 	101324.9999999949
0.8270770770770765 	299.9999999999823 	0.9999999999994122 	101324.9999999947
0.8295795795795788 	299.9999999999849 	0.9999999999987172 	101324.9999999945
0.8320820820820815 	300.0000000000066 	0.9999999999983369 	101324.9999999944
0.834584584584584 	300.000000000003 	0.9999999999996628 	101324.9999999944
0.8370870870870865 	299.9999999999732 	1.000000000000068 	101324.9999999942
0.8395895895895891 	299.9999999999571 	0.9999999999956461 	101324.9999999944
0.8420920920920915 	299.9999999999882 	0.999999999998167 	101324.9999999946
0.844594594594594 	299.999999999982 	0.9999999999994675 	101324.9999999945
0.8470970970970964 	299.9999999999757 	0.9999999999994267 	101324.9999999941
0.8495995995995991 	300.0000000000055 	0.9999999999994479 	101324.999999994
0.8521021021021015 	299.9999999999943 	0.9999999999995322 	101324.9999999945
0.8546046046046039 	299.9999999999765 	0.9999999999990754 	101324.9999999949
0.8571071071071066 	299.9999999999944 	1.000000000001886 	101324.999999995
0.8596096096096089 	299.9999999999914 	1.00000000000284 	101324.9999999952
0.8621121121121116 	299.9999999999815 	0.9999999999942947 	101324.9999999955
0.8646146146146139 	300.0000000000086 	0.9999999999991391 	101324.9999999957
0.8671171171171166 	299.9999999999895 	1.000000000001699 	101324.9999999952
0.8696196196196189 	299.9999999999619 	1.000000000001185 	101324.9999999946
0.8721221221221216 	299.9999999999879 	0.9999999999997642 	101324.9999999946
0.874624624624624 	300.0000000000048 	0.9999999999989517 	101324.9999999944
0.8771271271271264 	300 	0.9999999999984066 	101324.9999999939
0.879629629629629 	299.9999999999953 	1.000000000000591 	101324.9999999939
0.8821321321321317 	299.999999999987 	1.000000000001182 	101324.9999999942
0.8846346346346339 	299.9999999999685 	0.9999999999936324 	101324.9999999941
0.8871371371371364 	299.9999999999728 	0.9999999999986053 	101324.9999999939
0.8896396396396391 	299.9999999999772 	1.000000000000242 	101324.9999999939
0.8921421421421414 	299.9999999999789 	1.000000000000085 	101324.9999999942
0.8946446446446441 	299.9999999999854 	1.000000000000399 	101324.9999999942
0.8971471471471464 	299.9999999999937 	1.000000000002427 	101324.9999999942
0.8996496496496489 	299.9999999999974 	1.000000000002745 	101324.999999994
0.9021521521521517 	299.999999999996 	0.9999999999980931 	101324.9999999935
0.9046546546546541 	300.000000000001 	0.9999999999996352 	101324.9999999937
0.9071571571571564 	299.999999999984 	0.9999999999997993 	101324.9999999939
0.9096596596596589 	299.9999999999703 	0.999999999999311 	101324.9999999935
0.9121621621621616 	299.9999999999895 	0.9999999999998319 	101324.9999999932
0.9146646646646639 	299.9999999999787 	1.00000000000069 	101324.9999999931
0.9171671671671666 	299.9999999999673 	0.9999999999999742 	101324.9999999936
0.9196696696696689 	299.9999999999866 	1.000000000002262 	101324.9999999943
0.9221721721721714 	299.9999999999807 	1.000000000001366 	101324.999999994
0.9246746746746741 	299.9999999999606 	0.9999999999934552 	101324.9999999936
0.9271771771771765 	299.9999999999777 	0.9999999999990634 	101324.9999999936
0.9296796796796791 	299.9999999999862 	1.000000000000813 	101324.9999999939
0.9321821821821816 	299.9999999999775 	1.000000000000427 	101324.9999999942
0.9346846846846838 	299.9999999999766 	1.000000000000863 	101324.9999999943
0.9371871871871866 	300.0000000000041 	1.000000000001259 	101324.9999999942
0.9396896896896891 	300.000000000002 	1.000000000000611 	101324.9999999937
0.9421921921921914 	299.9999999999949 	1.000000000003404 	101324.9999999935
0.9446946946946939 	299.9999999999925 	1.000000000003199 	101324.9999999937
0.9471971971971965 	299.9999999999781 	0.9999999999954075 	101324.9999999941
0.9496996996996991 	299.9999999999765 	0.9999999999998308 	101324.9999999944
0.9522022022022016 	299.999999999991 	1.000000000000516 	101324.9999999941
0.9547047047047038 	300.0000000000013 	1.000000000000165 	101324.9999999938
0.9572072072072064 	299.9999999999894 	1.000000000000524 	101324.999999994
0.9597097097097093 	299.9999999999746 	1.000000000002994 	101324.9999999942
0.9622122122122114 	299.9999999999739 	1.000000000003184 	101324.9999999944
0.964714714714714 	299.9999999999646 	0.9999999999993867 	101324.9999999944
0.9672172172172167 	299.9999999999591 	1.000000000001333 	101324.9999999941
0.969719719719719 	299.9999999999792 	1.000000000001783 	101324.9999999937
0.9722222222222214 	299.9999999999858 	1.000000000001432 	101324.9999999935
0.9747247247247239 	299.9999999999836 	1.000000000001284 	101324.9999999935
0.9772272272272267 	299.9999999999985 	1.000000000001394 	101324.9999999935
0.9797297297297292 	299.9999999999879 	1.000000000000959 	101324.9999999935
0.9822322322322313 	299.9999999999819 	1.000000000004101 	101324.9999999936
0.9847347347347344 	299.9999999999778 	1.000000000003722 	101324.9999999933
0.9872372372372363 	299.9999999999545 	0.9999999999962752 	101324.9999999935
0.9897397397397389 	299.9999999999596 	1.000000000000384 	101324.9999999941
0.9922422422422417 	299.9999999999628 	1.00000000000162 	101324.9999999941
0.9947447447447441 	299.9999999999848 	1.000000000001417 	101324.9999999935
0.9972472472472468 	299.9999999999879 	1.000000000001518 	101324.9999999932
0.999749749749749 	299.999999999984 	1.00000000000135 	101324.9999999936
1.002252252252252 	299.9999999999864 	1.000000000001379 	101324.9999999938
1.004754754754754 	300.0000000000017 	1.000000000004876 	101324.9999999938
1.007257257257256 	299.999999999994 	1.000000000003819 	101324.9999999936
1.009759759759759 	299.9999999999848 	0.9999999999960387 	101324.9999999931
1.012262262262261 	299.9999999999868 	1.000000000000098 	101324.9999999929
1.014764764764764 	299.9999999999733 	1.000000000001587 	101324.9999999931
1.017267267267267 	299.9999999999646 	1.000000000001292 	101324.9999999932
1.019769769769769 	299.9999999999861 	1.000000000000619 	101324.9999999932
1.022272272272272 	299.999999999998 	1.000000000001706 	101324.9999999932
1.024774774774774 	299.9999999999974 	1.00000000000054 	101324.9999999929
1.027277277277277 	299.9999999999941 	0.9999999999968686 	101324.9999999925
1.029779779779779 	300.0000000000069 	0.9999999999998881 	101324.9999999925
1.032282282282282 	300.0000000000084 	1.000000000001716 	101324.999999993
1.034784784784784 	300.0000000000078 	1.000000000002559 	101324.9999999932
1.037287287287286 	299.9999999999974 	1.000000000002764 	101324.9999999932
1.039789789789789 	299.9999999999934 	1.000000000002285 	101324.9999999932
1.042292292292291 	300.0000000000109 	1.000000000002192 	101324.9999999931
1.044794794794794 	300.0000000000241 	1.000000000006335 	101324.9999999931
1.047297297297296 	300.0000000000205 	1.000000000005332 	101324.999999993
1.049799799799799 	300.0000000000067 	0.9999999999984278 	101324.9999999929
1.052302302302302 	299.9999999999942 	1.000000000001734 	101324.9999999928
1.054804804804804 	299.999999999976 	1.000000000002482 	101324.9999999928
1.057307307307306 	299.9999999999601 	1.000000000002889 	101324.9999999926
1.059809809809809 	299.9999999999742 	1.000000000003221 	101324.9999999926
1.062312312312312 	299.9999999999808 	1.000000000002711 	101324.999999993
1.064814814814814 	299.9999999999815 	1.000000000002185 	101324.9999999932
1.067317317317317 	299.9999999999704 	1.000000000006228 	101324.999999993
1.069819819819819 	299.9999999999634 	1.00000000000484 	101324.9999999931
1.072322322322321 	299.9999999999936 	0.9999999999977768 	101324.999999993
1.074824824824824 	300.0000000000156 	1.000000000001665 	101324.9999999923
1.077327327327327 	300.0000000000187 	1.000000000002143 	101324.9999999922
1.079829829829829 	300.0000000000202 	1.000000000001435 	101324.9999999926
1.082332332332332 	300.0000000000041 	1.000000000001879 	101324.9999999929
1.084834834834834 	299.9999999999828 	1.000000000006563 	101324.9999999931
1.087337337337337 	299.9999999999606 	1.000000000005007 	101324.9999999936
1.089839839839839 	299.9999999999527 	0.9999999999984335 	101324.9999999936
1.092342342342342 	299.9999999999698 	1.000000000002803 	101324.9999999929
1.094844844844844 	299.9999999999727 	1.000000000008127 	101324.9999999922
1.097347347347347 	299.9999999999592 	1.000000000005922 	101324.999999992
1.099849849849849 	299.9999999999499 	0.999999999998793 	101324.9999999923
1.102352352352352 	299.999999999971 	1.000000000003023 	101324.9999999925
1.104854854854854 	299.9999999999927 	1.000000000004727 	101324.9999999927
1.107357357357357 	299.9999999999826 	1.000000000004439 	101324.999999993
1.109859859859859 	299.9999999999721 	1.000000000003538 	101324.999999993
1.112362362362362 	299.999999999999 	1.000000000006769 	101324.999999993
1.114864864864865 	300.0000000000022 	1.000000000004613 	101324.9999999926
1.117367367367367 	299.9999999999766 	0.9999999999979488 	101324.9999999922
1.119869869869869 	299.9999999999575 	1.000000000002147 	101324.9999999922
1.122372372372372 	299.9999999999748 	1.000000000003441 	101324.9999999926
1.124874874874874 	299.999999999979 	1.000000000003043 	101324.9999999927
1.127377377377377 	299.9999999999761 	1.000000000003106 	101324.9999999926
1.129879879879879 	299.999999999994 	1.000000000003628 	101324.9999999926
1.132382382382382 	300.0000000000173 	1.000000000004144 	101324.9999999927
1.134884884884884 	300.0000000000108 	1.000000000009016 	101324.9999999929
1.137387387387387 	300.0000000000046 	1.000000000007258 	101324.9999999929
1.139889889889889 	299.9999999999768 	1.000000000000898 	101324.999999993
1.142392392392392 	299.9999999999677 	1.000000000005037 	101324.999999993
1.144894894894894 	299.9999999999965 	1.000000000005925 	101324.9999999928
1.147397397397397 	299.9999999999975 	1.000000000004664 	101324.9999999925
1.149899899899899 	299.999999999974 	1.000000000004352 	101324.9999999921
1.152402402402402 	299.9999999999621 	1.000000000005522 	101324.9999999923
1.154904904904904 	299.9999999999769 	1.000000000006109 	101324.9999999925
1.157407407407407 	299.9999999999782 	1.000000000009937 	101324.9999999926
1.159909909909909 	299.9999999999615 	1.000000000007017 	101324.9999999926
1.162412412412412 	299.9999999999562 	1.00000000000026 	101324.9999999928
1.164914914914914 	299.9999999999739 	1.0000000000038 	101324.9999999927
1.167417417417417 	299.9999999999744 	1.000000000004652 	101324.9999999925
1.169919919919919 	299.9999999999925 	1.000000000004251 	101324.9999999924
1.172422422422422 	300.0000000000144 	1.000000000004057 	101324.9999999924
1.174924924924925 	300.0000000000027 	1.00000000000851 	101324.9999999927
1.177427427427427 	299.9999999999831 	1.000000000006565 	101324.999999993
1.179929929929929 	299.9999999999959 	1.000000000001375 	101324.9999999929
1.182432432432432 	300.0000000000183 	1.000000000005997 	101324.9999999926
1.184934934934934 	300.0000000000057 	1.000000000007216 	101324.9999999927
1.187437437437437 	299.9999999999894 	1.000000000006772 	101324.999999993
1.189939939939939 	299.9999999999843 	1.000000000006466 	101324.9999999928
1.192442442442442 	299.9999999999658 	1.00000000000611 	101324.9999999926
1.194944944944944 	299.9999999999601 	1.000000000005793 	101324.9999999925
1.197447447447447 	299.9999999999907 	1.000000000010158 	101324.9999999928
1.199949949949949 	300.0000000000082 	1.000000000007205 	101324.9999999928
1.202452452452452 	299.9999999999808 	1.000000000001347 	101324.9999999928
1.204954954954955 	299.9999999999686 	1.000000000005241 	101324.9999999928
1.207457457457457 	299.9999999999802 	1.000000000006036 	101324.9999999928
1.20995995995996 	299.9999999999843 	1.000000000005864 	101324.9999999926
1.212462462462462 	299.9999999999907 	1.000000000005866 	101324.9999999926
1.214964964964964 	299.9999999999899 	1.00000000000567 	101324.9999999925
1.217467467467467 	299.9999999999913 	1.000000000005632 	101324.9999999924
1.219969969969969 	299.9999999999769 	1.000000000010298 	101324.9999999926
1.222472472472472 	299.9999999999918 	1.000000000007538 	101324.9999999928
1.224974974974975 	300.0000000000183 	1.000000000002679 	101324.999999993
1.227477477477477 	299.9999999999976 	1.000000000007015 	101324.999999993
1.229979979979979 	299.999999999986 	1.000000000007702 	101324.9999999929
1.232482482482482 	299.9999999999742 	1.000000000007031 	101324.9999999926
1.234984984984984 	299.9999999999711 	1.000000000006871 	101324.9999999925
1.237487487487487 	299.9999999999839 	1.000000000011688 	101324.9999999926
1.239989989989989 	299.999999999989 	1.000000000008367 	101324.9999999925
1.242492492492492 	300.0000000000025 	1.000000000002533 	101324.9999999923
1.244994994994994 	299.9999999999891 	1.000000000006386 	101324.9999999921
1.247497497497497 	299.9999999999914 	1.000000000007479 	101324.9999999921
1.249999999999999 	299.9999999999358 	1.000000000007462 	101324.9999999922
