-1.25 	252.4471741852466 	0.002508730583256798 	101325.0188495555
-1.247497497497497 	300.0419459442558 	0.002392655192915606 	101325.0220618178
-1.244994994994995 	300.0020080200191 	0.002257534743310545 	101325.0191553461
-1.242492492492492 	300.0000382430189 	0.002116258150770058 	101325.0210410187
-1.23998998998999 	300.000016484456 	0.00197385888401734 	101325.0193633665
-1.237487487487487 	300.0000172587553 	0.001829988093325451 	101325.0203681631
-1.234984984984985 	300.0000165385504 	0.001688446240635186 	101325.0195862956
-1.232482482482482 	300.0000169715969 	0.001547173357621451 	101325.0200294845
-1.22997997997998 	300.0000167423493 	0.001411089905606094 	101325.0198253779
-1.227477477477477 	300.0000168171723 	0.001276337545538882 	101325.0198514008
-1.224974974974975 	300.0000168438409 	0.001149149195100645 	101325.0199428739
-1.222472472472472 	300.0000166371983 	0.001023807778434764 	101325.0196452394
-1.21996996996997 	300.0000168513007 	0.0009079897932726885 	101325.0199513269
-1.217467467467467 	300.000016415856 	0.0007941470571007001 	101325.0193834821
-1.214964964964965 	300.0000167828246 	0.0006915459851752841 	101325.0198660266
-1.212462462462462 	300.0000160183392 	0.0005909409962208976 	101325.0189107641
-1.20995995995996 	300.0000165706058 	0.0005010663978322803 	101325.0196113557
-1.207457457457457 	300.0000157190799 	0.000409379055689031 	101325.0185611152
-1.204954954954955 	300.000016254461 	0.0003275538580786872 	101325.019242933
-1.202452452452452 	300.0000153994328 	0.0002446609244664048 	101325.0181846146
-1.19994994994995 	300.0000158568349 	0.0001720381580713561 	101325.018767128
-1.197447447447447 	300.0000150843697 	9.597785531796337e-05 	101325.0178088772
-1.194944944944945 	300.0000157688086 	3.127730129878091e-05 	101325.0186597178
-1.192442442442442 	300.0000148997276 	7.778458055562279e-05 	101325.0175931759
-1.18993993993994 	300.0000157391372 	9.279401741888939e-05 	101325.0186317037
-1.187437437437437 	300.0000147573827 	0.0001526003235471325 	101325.0174309757
-1.184934934934935 	300.0000157964894 	0.0001994275794178588 	101325.0186974445
-1.182432432432432 	300.0000147362555 	0.000250171544936331 	101325.0174019599
-1.17992992992993 	300.000015805838 	0.0002868596124690347 	101325.0187025492
-1.177427427427427 	300.0000146661954 	0.0003276457042162786 	101325.0173192066
-1.174924924924925 	300.0000156397905 	0.000353728505765814 	101325.0185051751
-1.172422422422422 	300.0000144652496 	0.0003836392118652314 	101325.0170826731
-1.16991991991992 	300.0000154193824 	0.0003976116855364623 	101325.0182442894
-1.167417417417417 	300.0000141752698 	0.000412965343783053 	101325.0167454713
-1.164914914914915 	300.0000144306221 	0.0004065705618124739 	101325.0170750591
-1.162412412412412 	300.0000140146756 	0.0004031714416917002 	101325.0165545626
-1.15990990990991 	300.0000142464944 	0.0003865105312248678 	101325.0168569207
-1.157407407407407 	300.0000139894292 	0.0003801577304256632 	101325.0165253709
-1.154904904904904 	300.0000142257718 	0.0003608389145054868 	101325.0168320624
-1.152402402402403 	300.0000140635983 	0.0003536146903938688 	101325.0166142659
-1.1498998998999 	300.0000142709519 	0.0003331201266441255 	101325.016885367
-1.147397397397397 	300.000014100765 	0.0003257423720960009 	101325.0166589339
-1.144894894894895 	300.0000142170044 	0.0003050240274998563 	101325.0168188506
-1.142392392392392 	300.0000139641893 	0.0002977787638142409 	101325.0164951593
-1.13988988988989 	300.0000139503381 	0.0002774998894315573 	101325.0165014674
-1.137387387387387 	300.0000135917554 	0.0002705668138069456 	101325.016056553
-1.134884884884885 	300.0000134844925 	0.0002510210891436435 	101325.0159496632
-1.132382382382382 	300.0000131160342 	0.0002447632817210799 	101325.0154962385
-1.12987987987988 	300.0000130211562 	0.0002258116353942917 	101325.0154076018
-1.127377377377377 	300.0000127865322 	0.0002207551927572247 	101325.0151081506
-1.124874874874875 	300.0000127993226 	0.0002021697699486907 	101325.0151406798
-1.122372372372372 	300.0000127355978 	0.0001987074589437227 	101325.0150490404
-1.11986986986987 	300.0000128412427 	0.0001805020229975253 	101325.0151891879
-1.117367367367367 	300.0000128700844 	0.000178660090947745 	101325.0152066384
-1.114864864864865 	300.000012963873 	0.0001611513891082819 	101325.0153330009
-1.112362362362362 	300.0000129378199 	0.0001605887761513448 	101325.0152885571
-1.10985985985986 	300.0000129082967 	0.0001441899214484025 	101325.0152677184
-1.107357357357357 	300.0000127378851 	0.0001444621936415306 	101325.0150528263
-1.104854854854855 	300.0000125621639 	0.0001293522146153604 	101325.014856666
-1.102352352352353 	300.0000122820941 	0.0001302434458334754 	101325.0145132979
-1.09984984984985 	300.0000120581261 	0.0001161428757294962 	101325.0142590983
-1.097347347347347 	300.0000118081629 	0.0001177944243592196 	101325.0139528134
-1.094844844844845 	300.0000116850046 	0.0001040610830748354 	101325.013817539
-1.092342342342342 	300.0000115880774 	0.0001067525487818411 	101325.0136951984
-1.08983983983984 	300.0000116309329 	9.281493497091694e-05 	101325.0137557539
-1.087337337337337 	300.0000116740847 	9.655728887538842e-05 	101325.0137992502
-1.084834834834835 	300.0000117929629 	8.234175443067536e-05 	101325.013946347
-1.082332332332332 	300.0000118208573 	8.668632247395627e-05 	101325.0139721711
-1.07982982982983 	300.0000118407689 	7.262391243188473e-05 	101325.0140002981
-1.077327327327327 	300.0000117001542 	7.693570836182522e-05 	101325.013828096
-1.074824824824825 	300.0000115386763 	6.3470748759721e-05 	101325.0136416426
-1.072322322322323 	300.0000112466571 	6.749935908197017e-05 	101325.0132923489
-1.06981981981982 	300.0000110175404 	5.454547261706477e-05 	101325.0130253518
-1.067317317317317 	300.0000107589394 	5.868651092109901e-05 	101325.0127164723
-1.064814814814815 	300.0000106475424 	4.570073114260438e-05 	101325.0125878968
-1.062312312312312 	300.000010564325 	5.054695095974258e-05 	101325.0124874059
-1.05980980980981 	300.0000106136112 	3.717765445641437e-05 	101325.0125484559
-1.057307307307307 	300.0000106499587 	4.288206915968215e-05 	101325.0125904074
-1.054804804804805 	300.0000107270146 	2.936776985437225e-05 	101325.0126831552
-1.052302302302302 	300.0000107156744 	3.556731204627834e-05 	101325.0126680021
-1.0497997997998 	300.0000106768199 	2.815545718892739e-05 	101325.0126227127
-1.047297297297297 	300.0000105348499 	3.288109445317101e-05 	101325.0124539865
-1.044794794794795 	300.0000103797427 	2.804614152170722e-05 	101325.0122709574
-1.042292292292292 	300.0000101773654 	3.114511650810356e-05 	101325.0120310367
-1.03978978978979 	300.0000100094942 	2.764636829178093e-05 	101325.0118327114
-1.037287287287287 	300.0000098486445 	2.959192527357327e-05 	101325.0116419846
-1.034784784784785 	300.0000097385222 	2.742143532011133e-05 	101325.0115117474
-1.032282282282283 	300.0000096485573 	2.852175849845622e-05 	101325.0114058169
-1.02977977977978 	300.0000095935091 	2.743682024428086e-05 	101325.0113412019
-1.027277277277277 	300.0000095524742 	2.787879736607015e-05 	101325.0112930186
-1.024774774774775 	300.0000095269598 	2.754130317416149e-05 	101325.0112627771
-1.022272272272272 	300.0000095067981 	2.75123453651269e-05 	101325.0112389549
-1.01976976976977 	300.0000094839529 	2.756939088043087e-05 	101325.0112123209
-1.017267267267267 	300.0000094507407 	2.725125547341976e-05 	101325.0111737848
-1.014764764764765 	300.0000093930753 	2.731911321893564e-05 	101325.0111057366
-1.012262262262262 	300.0000093048368 	2.686086097324927e-05 	101325.0110007302
-1.00975975975976 	300.0000091797951 	2.660645136819941e-05 	101325.0108517166
-1.007257257257257 	300.000009025141 	2.613389912269311e-05 	101325.0106679437
-1.004754754754755 	300.0000088562844 	2.565613038639138e-05 	101325.0104682784
-1.002252252252252 	300.0000086956932 	2.52015596427606e-05 	101325.0102794187
-0.9997497497497498 	300.0000085659986 	2.483257519045147e-05 	101325.0101270296
-0.9972472472472473 	300.0000084818731 	2.458974186619038e-05 	101325.0100275846
-0.9947447447447449 	300.0000084447167 	2.447556710596856e-05 	101325.009982863
-0.9922422422422421 	300.0000084418404 	2.445606135677329e-05 	101325.009978504
-0.9897397397397399 	300.0000084498515 	2.447099145682316e-05 	101325.0099881401
-0.9872372372372376 	300.0000084437165 	2.444898271533626e-05 	101325.0099822292
-0.9847347347347346 	300.0000084046995 	2.43370944110063e-05 	101325.0099376948
-0.9822322322322323 	300.0000083258054 	2.411201388121557e-05 	101325.0098447646
-0.9797297297297296 	300.0000082119387 	2.378393270076242e-05 	101325.0097089476
-0.9772272272272275 	300.0000080772338 	2.339656448684058e-05 	101325.0095478177
-0.9747247247247248 	300.0000079399393 	2.300197587268697e-05 	101325.0093841981
-0.9722222222222224 	300.0000078165616 	2.264818649495748e-05 	101325.0092386402
-0.9697197197197196 	300.0000077183876 	2.236794693688608e-05 	101325.0091238317
-0.9672172172172175 	300.0000076480609 	2.216550397162566e-05 	101325.0090422326
-0.9647147147147147 	300.0000076007011 	2.202657258215744e-05 	101325.0089871507
-0.9622122122122124 	300.0000075662469 	2.192361410406552e-05 	101325.0089464324
-0.9597097097097099 	300.0000075335711 	2.182396811903444e-05 	101325.0089071193
-0.9572072072072073 	300.000007493925 	2.170592405839694e-05 	101325.0088593131
-0.9547047047047047 	300.0000074431039 	2.155648761744145e-05 	101325.0087980878
-0.9522022022022023 	300.0000073803463 	2.137324166608434e-05 	101325.0087233061
-0.9496996996996998 	300.0000073085229 	2.116572523344094e-05 	101325.0086379936
-0.9471971971971973 	300.0000072312303 	2.094132608851757e-05 	101325.0085461297
-0.9446946946946947 	300.000007150818 	2.070749079896683e-05 	101325.0084508793
-0.9421921921921923 	300.0000070691619 	2.04708443897072e-05 	101325.0083540053
-0.93968968968969 	300.0000069867571 	2.023138706709449e-05 	101325.008256341
-0.9371871871871872 	300.0000069041891 	1.99936459951141e-05 	101325.0081588894
-0.9346846846846848 	300.0000068233555 	1.976302714386e-05 	101325.0080639141
-0.9321821821821823 	300.0000067475755 	1.954562904919862e-05 	101325.0079749822
-0.9296796796796799 	300.0000066800031 	1.93524003609783e-05 	101325.0078956198
-0.9271771771771771 	300.0000066218753 	1.918516766419894e-05 	101325.007827482
-0.9246746746746748 	300.0000065722041 	1.903948371699189e-05 	101325.0077690047
-0.9221721721721724 	300.0000065267294 	1.890552653486181e-05 	101325.0077151739
-0.9196696696696698 	300.0000064793038 	1.876561424359213e-05 	101325.0076590533
-0.9171671671671672 	300.0000064250603 	1.860693988826923e-05 	101325.0075947755
-0.9146646646646649 	300.0000063625907 	1.842618449063308e-05 	101325.0075204147
-0.9121621621621623 	300.0000062942582 	1.822960297659703e-05 	101325.0074393012
-0.9096596596596597 	300.0000062266445 	1.803784165610966e-05 	101325.0073595057
-0.9071571571571573 	300.000006169331 	1.787579067324455e-05 	101325.0072917756
-0.9046546546546547 	300.0000061306629 	1.776539468569781e-05 	101325.0072462167
-0.9021521521521524 	300.0000061152097 	1.77221925493092e-05 	101325.007228476
-0.8996496496496498 	300.0000061220088 	1.77399149905245e-05 	101325.007236857
-0.8971471471471473 	300.0000061429415 	1.779532732925447e-05 	101325.0072617203
-0.894644644644645 	300.0000061646731 	1.785337168863798e-05 	101325.0072875326
-0.892142142142142 	300.0000061724036 	1.787036159166923e-05 	101325.0072967071
-0.8896396396396397 	300.000006153214 	1.781159686271697e-05 	101325.007273932
-0.8871371371371374 	300.0000060992008 	1.76557256663267e-05 	101325.0072101526
-0.8846346346346349 	300.0000060110901 	1.740255544411255e-05 	101325.0071057726
-0.8821321321321324 	300.0000058985667 	1.70830462059615e-05 	101325.0069724364
-0.8796296296296297 	300.00000577998 	1.674835183619275e-05 	101325.0068321846
-0.8771271271271271 	300.0000056791025 	1.646464971890213e-05 	101325.0067131167
-0.8746246246246248 	300.0000056188683 	1.629687369790111e-05 	101325.0066420746
-0.8721221221221224 	300.0000056135117 	1.628217166505598e-05 	101325.0066360139
-0.8696196196196196 	300.0000056632052 	1.642107810137035e-05 	101325.0066950012
-0.8671171171171175 	300.0000057521594 	1.666916476059885e-05 	101325.0068002342
-0.8646146146146148 	300.0000058521399 	1.694719270500486e-05 	101325.0069187545
-0.8621121121121121 	300.0000059318282 	1.716826863485434e-05 	101325.0070130131
-0.8596096096096097 	300.0000059644122 	1.725614395147258e-05 	101325.0070512887
-0.857107107107107 	300.0000059349208 	1.716948354892296e-05 	101325.0070161801
-0.8546046046046049 	300.00000584495 	1.691411015672708e-05 	101325.0069093356
-0.8521021021021022 	300.0000057110682 	1.653548944926092e-05 	101325.0067507143
-0.8495995995995997 	300.0000055600614 	1.610926978140259e-05 	101325.0065723128
-0.8470970970970974 	300.0000054213606 	1.571840957242386e-05 	101325.0064088396
-0.8445945945945946 	300.0000053201656 	1.54310898898833e-05 	101325.006289349
-0.8420920920920922 	300.0000052720648 	1.529298663409066e-05 	101325.0062321003
-0.8395895895895897 	300.0000052811638 	1.531693818860521e-05 	101325.0062425973
-0.8370870870870872 	300.0000053418144 	1.548638288288939e-05 	101325.0063141946
-0.8345845845845846 	300.0000054402582 	1.576523040568818e-05 	101325.0064306971
-0.8320820820820823 	300.0000055577502 	1.609946627464737e-05 	101325.0065701258
-0.8295795795795798 	300.0000056745797 	1.643254774677985e-05 	101325.0067087842
-0.8270770770770772 	300.0000057725754 	1.671204839518176e-05 	101325.0068247453
-0.8245745745745746 	300.0000058365335 	1.689343694820068e-05 	101325.0069003903
-0.8220720720720721 	300.0000058569531 	1.69510886575452e-05 	101325.0069242596
-0.8195695695695699 	300.0000058303144 	1.687449247986747e-05 	101325.0068924154
-0.817067067067067 	300.0000057600183 	1.667393094991433e-05 	101325.0068092986
-0.8145645645645651 	300.0000056572317 	1.638261751746276e-05 	101325.0066878651
-0.8120620620620621 	300.0000055394815 	1.604798341239698e-05 	101325.0065484475
-0.8095595595595597 	300.0000054275026 	1.573105596968014e-05 	101325.006416025
-0.8070570570570572 	300.0000053428903 	1.549381030143806e-05 	101325.0063162755
-0.8045545545545546 	300.0000053045621 	1.538704906173159e-05 	101325.0062710178
-0.8020520520520523 	300.0000053241563 	1.544386542902495e-05 	101325.006293628
-0.7995495495495494 	300.0000054023989 	1.566585566719124e-05 	101325.0063854363
-0.7970470470470474 	300.000005528631 	1.6023564131331e-05 	101325.0065344211
-0.7945445445445446 	300.0000056831115 	1.646295899768376e-05 	101325.0067172139
-0.7920420420420423 	300.0000058406194 	1.69118857283329e-05 	101325.0069042007
-0.7895395395395397 	300.0000059765579 	1.730111227025054e-05 	101325.0070660766
-0.7870370370370371 	300.0000060720772 	1.757610038511388e-05 	101325.0071799115
-0.7845345345345348 	300.0000061175871 	1.770765753844921e-05 	101325.0072337391
-0.7820320320320323 	300.0000061144307 	1.77003217126175e-05 	101325.007228938
-0.7795295295295296 	300.0000060738662 	1.758666349683664e-05 	101325.0071796443
-0.7770270270270272 	300.0000060151665 	1.742110230684878e-05 	101325.0071089935
-0.7745245245245247 	300.0000059597242 	1.726670264598437e-05 	101325.0070430048
-0.7720220220220222 	300.0000059263931 	1.717550998980132e-05 	101325.0070040194
-0.7695195195195199 	300.0000059267764 	1.718061028561267e-05 	101325.0070056547
-0.767017017017017 	300.0000059637806 	1.728850826446915e-05 	101325.0070505103
-0.7645145145145147 	300.0000060315123 	1.748177186091874e-05 	101325.0071311601
-0.7620120120120122 	300.0000061181627 	1.772935326054314e-05 	101325.0072339384
-0.7595095095095097 	300.0000062107476 	1.799567126607262e-05 	101325.0073439961
-0.7570070070070072 	300.0000062996415 	1.82528598731834e-05 	101325.007449809
-0.7545045045045048 	300.0000063801558 	1.848813381729389e-05 	101325.0075458035
-0.7520020020020022 	300.0000064526977 	1.870167950251404e-05 	101325.0076325759
-0.7494994994994997 	300.0000065220576 	1.890467730026272e-05 	101325.0077147839
-0.7469969969969972 	300.0000065927317 	1.910789438509561e-05 	101325.0077974448
-0.7444944944944945 	300.0000066655807 	1.931425837988416e-05 	101325.0078821738
-0.7419919919919924 	300.000006737127 	1.951543857694542e-05 	101325.0079651738
-0.7394894894894897 	300.0000067995137 	1.96914363272551e-05 	101325.0080380727
-0.7369869869869872 	300.0000068449114 	1.982014913044976e-05 	101325.0080913264
-0.7344844844844846 	300.0000068678455 	1.988791649385263e-05 	101325.0081187947
-0.7319819819819822 	300.0000068698154 	1.989762314631565e-05 	101325.0081217017
-0.7294794794794797 	300.0000068595072 	1.98753328051129e-05 	101325.0081104194
-0.7269769769769773 	300.0000068526471 	1.986410594799075e-05 	101325.0081031054
-0.7244744744744747 	300.0000068675782 	1.991441469344175e-05 	101325.0081213659
-0.721971971971972 	300.0000069205794 	2.007186614924636e-05 	101325.0081841503
-0.7194694694694695 	300.0000070208281 	2.035902387449996e-05 	101325.0083015933
-0.7169669669669674 	300.0000071653787 	2.076869493416392e-05 	101325.0084707832
-0.7144644644644647 	300.0000073402372 	2.126175488749331e-05 	101325.0086751378
-0.711961961961962 	300.0000075219609 	2.177397163430454e-05 	101325.0088879778
-0.7094594594594597 	300.0000076844692 	2.223484033928723e-05 	101325.0090793005
-0.7069569569569573 	300.0000078063277 	2.258383581662781e-05 	101325.0092236534
-0.7044544544544545 	300.000007876125 	2.278843082252795e-05 	101325.0093071931
-0.7019519519519523 	300.0000078959836 	2.285481962313888e-05 	101325.0093320351
-0.6994494494494495 	300.0000078813996 	2.282455578082595e-05 	101325.0093161394
-0.6969469469469471 	300.0000078572847 	2.276617369639324e-05 	101325.0092883018
-0.6944444444444446 	300.000007849874 	2.275399335559229e-05 	101325.0092799366
-0.6919419419419421 	300.0000078808164 	2.284841642304743e-05 	101325.0093166474
-0.6894394394394396 	300.0000079607943 	2.308168075030791e-05 	101325.0094117871
-0.6869369369369374 	300.0000080886376 	2.34479046689421e-05 	101325.0095632958
-0.6844344344344344 	300.0000082502346 	2.390893760825357e-05 	101325.0097546884
-0.6819319319319321 	300.0000084237295 	2.440404871308312e-05 	101325.0099601935
-0.6794294294294296 	300.0000085865727 	2.486869707043321e-05 	101325.0101525933
-0.6769269269269272 	300.0000087209652 	2.52545042044077e-05 	101325.010311123
-0.6744244244244245 	300.0000088197548 	2.553950217061354e-05 	101325.010427035
-0.6719219219219222 	300.0000088863319 	2.573580301952174e-05 	101325.0105052055
-0.6694194194194195 	300.0000089342005 	2.587948595229074e-05 	101325.0105612507
-0.6669169169169172 	300.0000089799065 	2.601721428932464e-05 	101325.0106152661
-0.6644144144144146 	300.0000090381362 	2.619072623696726e-05 	101325.0106847163
-0.661911911911912 	300.0000091174542 	2.642142730179059e-05 	101325.0107790473
-0.6594094094094097 	300.0000092173846 	2.670898648524262e-05 	101325.0108974923
-0.656906906906907 	300.0000093297911 	2.703054429167322e-05 	101325.011030403
-0.6544044044044046 	300.0000094426429 	2.735246419246107e-05 	101325.0111634671
-0.6519019019019021 	300.0000095445538 	2.764429503966472e-05 	101325.0112833899
-0.6493993993993996 	300.0000096294224 	2.78893117186965e-05 	101325.0113832585
-0.6468968968968971 	300.0000096993203 	2.809520023145859e-05 	101325.0114657872
-0.6443943943943946 	300.0000097646273 	2.828949218850474e-05 	101325.0115429717
-0.6418918918918921 	300.0000098402141 	2.851216624416819e-05 	101325.0116319137
-0.6393893893893897 	300.0000099392371 	2.87998413055344e-05 	101325.0117482858
-0.6368868868868871 	300.0000100679474 	2.916990562626306e-05 	101325.0118998163
-0.6343843843843846 	300.0000102224012 	2.961227325657023e-05 	101325.0120821686
-0.6318818818818821 	300.0000103882402 	3.008705960951713e-05 	101325.0122788457
-0.6293793793793795 	300.0000105453533 	3.053650875925211e-05 	101325.0124654054
-0.6268768768768773 	300.0000106724271 	3.090133581797032e-05 	101325.0126166583
-0.6243743743743745 	300.0000107547448 	3.113977740702211e-05 	101325.0127147218
-0.6218718718718721 	300.0000107895365 	3.124376977554211e-05 	101325.0127556279
-0.6193693693693696 	300.0000107869005 	3.124393999133122e-05 	101325.0127523213
-0.6168668668668671 	300.000010770683 	3.120669234067328e-05 	101325.0127326332
-0.6143643643643645 	300.0000107706026 	3.121707029529228e-05 	101325.0127324449
-0.6118618618618621 	300.0000108155097 	3.135589453562202e-05 	101325.0127860632
-0.6093593593593596 	300.0000109252578 	3.167699817964189e-05 	101325.0129162684
-0.6068568568568571 	300.0000111029685 	3.218713948169626e-05 	101325.0131266157
-0.6043543543543546 	300.0000113334283 	3.284270455010089e-05 	101325.0133987155
-0.6018518518518521 	300.0000115857414 	3.355735757535002e-05 	101325.0136961221
-0.5993493493493496 	300.0000118214042 	3.422462180725195e-05 	101325.0139739048
-0.5968468468468471 	300.0000120049706 	3.474653697730368e-05 	101325.0141905043
-0.5943443443443446 	300.0000121132842 	3.505833752596299e-05 	101325.0143186632
-0.591841841841842 	300.0000121417697 	3.514824566193167e-05 	101325.0143531093
-0.5893393393393397 	300.0000121070387 	3.506174673542994e-05 	101325.0143128484
-0.5868368368368371 	300.000012042302 	3.489046001667267e-05 	101325.0142366747
-0.5843343343343346 	300.0000119880639 	3.47478754807353e-05 	101325.0141726723
-0.5818318318318321 	300.0000119818329 	3.473938407935288e-05 	101325.014165302
-0.5793293293293297 	300.0000120482658 	3.493459367211443e-05 	101325.01424405
-0.5768268268268271 	300.0000121939368 	3.535154034914884e-05 	101325.0144162401
-0.5743243243243245 	300.0000124051293 	3.595214962363636e-05 	101325.0146656894
-0.5718218218218221 	300.0000126523696 	3.665348962420731e-05 	101325.0149576071
-0.5693193193193196 	300.0000128991913 	3.735347370015114e-05 	101325.0152484897
-0.5668168168168171 	300.0000131108787 	3.795624928525355e-05 	101325.0154979656
-0.5643143143143147 	300.0000132648497 	3.839805424274397e-05 	101325.0156791173
-0.5618118118118121 	300.0000133550558 	3.866114820476222e-05 	101325.0157846914
-0.5593093093093094 	300.0000133915391 	3.877424112912669e-05 	101325.0158274209
-0.5568068068068072 	300.0000133970995 	3.880107338547522e-05 	101325.015834338
-0.5543043043043046 	300.0000133987027 	3.881607802027591e-05 	101325.0158371123
-0.551801801801802 	300.000013418526 	3.888124667780261e-05 	101325.0158619962
-0.5492992992992995 	300.0000134690806 	3.902999183598432e-05 	101325.0159227791
-0.5467967967967969 	300.0000135494887 	3.926056091110806e-05 	101325.016018669
-0.5442942942942947 	300.0000136495666 	3.954648148591235e-05 	101325.0161375412
-0.5417917917917919 	300.0000137553353 	3.985051199402513e-05 	101325.0162630719
-0.5392892892892895 	300.0000138563555 	4.014234684438956e-05 	101325.0163826376
-0.536786786786787 	300.0000139495 	4.041435819077887e-05 	101325.0164926597
-0.5342842842842846 	300.0000140397564 	4.067939732953463e-05 	101325.0165994131
-0.531781781781782 	300.0000141377107 	4.096664889994634e-05 	101325.016715182
-0.5292792792792794 	300.0000142533036 	4.130245121347357e-05 	101325.0168514428
-0.526776776776777 	300.0000143894762 	4.169239215188198e-05 	101325.017011757
-0.5242742742742745 	300.0000145389316 	4.211644585227056e-05 	101325.0171873196
-0.521771771771772 	300.0000146839282 	4.252447550142314e-05 	101325.0173574322
-0.5192692692692695 	300.0000148013086 	4.285453542219053e-05 	101325.017495281
-0.516766766766767 	300.0000148715602 	4.305257943848723e-05 	101325.0175772212
-0.5142642642642645 	300.0000148848662 	4.309180023229395e-05 	101325.0175924421
-0.511761761761762 	300.0000148487952 	4.299515893288095e-05 	101325.017549443
-0.5092592592592596 	300.0000147869693 	4.282821019498337e-05 	101325.0174763604
-0.506756756756757 	300.0000147337543 	4.26886260503252e-05 	101325.0174141793
-0.5042542542542544 	300.0000147251383 	4.267604327952297e-05 	101325.0174048203
-0.5017517517517521 	300.0000147859204 	4.285674079558756e-05 	101325.0174777993
-0.4992492492492494 	300.0000149216181 	4.324725290102754e-05 	101325.0176395447
-0.496746746746747 	300.0000151148571 	4.379684205779006e-05 	101325.0178692908
-0.4942442442442445 	300.0000153292406 	4.440379496111796e-05 	101325.0181238112
-0.4917417417417421 	300.0000155199598 	4.49441490539684e-05 	101325.0183500032
-0.4892392392392395 	300.0000156473783 	4.530487110219411e-05 	101325.0185009946
-0.486736736736737 	300.0000156895177 	4.542850355134897e-05 	101325.0185509951
-0.4842342342342345 	300.0000156500648 	4.532456040864755e-05 	101325.0185044474
-0.481731731731732 	300.0000155585349 	4.507424579509243e-05 	101325.0183956628
-0.4792292292292296 	300.0000154592079 	4.480412004252656e-05 	101325.018277977
-0.4767267267267268 	300.0000153985761 	4.463994140674602e-05 	101325.0182062327
-0.4742242242242246 	300.0000154100908 	4.4676744968235e-05 	101325.0182193837
-0.471721721721722 	300.0000155027731 	4.493929599519313e-05 	101325.0183288147
-0.4692192192192195 	300.0000156614392 	4.538541056897842e-05 	101325.0185161144
-0.4667167167167169 	300.0000158518283 	4.592310109261044e-05 	101325.01874115
-0.4642142142142145 	300.000016034963 	4.643906730679913e-05 	101325.018957111
-0.461711711711712 	300.0000161780487 	4.68476716132173e-05 	101325.0191260242
-0.4592092092092094 	300.0000162651914 	4.709961321448222e-05 	101325.0192288539
-0.456706706706707 	300.0000162979914 	4.719883342707362e-05 	101325.0192673396
-0.4542042042042045 	300.0000162900302 	4.718426697452308e-05 	101325.0192581985
-0.451701701701702 	300.0000162607304 	4.710397324620344e-05 	101325.0192234199
-0.4491991991991995 	300.0000162254648 	4.700641241433717e-05 	101325.0191816805
-0.4466966966966969 	300.0000161941326 	4.691654816311432e-05 	101325.0191445575
-0.4441941941941945 	300.0000161720287 	4.685316388212e-05 	101325.0191181595
-0.441691691691692 	300.0000161631937 	4.683072329598612e-05 	101325.0191077889
-0.4391891891891895 	300.0000161751365 	4.686729498770134e-05 	101325.0191217913
-0.436686686686687 	300.0000162169274 	4.699268724108848e-05 	101325.0191713758
-0.4341841841841846 	300.0000162965175 	4.722237517630793e-05 	101325.019265558
-0.431681681681682 	300.0000164130399 	4.755603369279703e-05 	101325.0194036378
-0.4291791791791794 	300.0000165533402 	4.795434018835394e-05 	101325.0195697064
-0.426676676676677 	300.0000166915618 	4.834284768976095e-05 	101325.0197332123
-0.4241741741741744 	300.0000167961044 	4.863634469027939e-05 	101325.0198565634
-0.421671671671672 	300.0000168392103 	4.875464930122336e-05 	101325.0199071816
-0.4191691691691694 	300.0000168077055 	4.866515055340093e-05 	101325.0198696045
-0.4166666666666669 	300.0000167092007 	4.838953585224529e-05 	101325.0197528783
-0.4141641641641645 	300.0000165709297 	4.800345940466263e-05 	101325.0195897065
-0.411661661661662 	300.0000164334245 	4.761961374054292e-05 	101325.019426858
-0.4091591591591594 	300.0000163348744 	4.734308110200677e-05 	101325.0193104606
-0.406656656656657 	300.0000163020973 	4.725126322540385e-05 	101325.0192719599
-0.4041541541541545 	300.0000163423042 	4.736281370916768e-05 	101325.019319328
-0.401651651651652 	300.0000164406226 	4.763815138521619e-05 	101325.0194360921
-0.3991491491491494 	300.000016569133 	4.799909957992744e-05 	101325.0195880377
-0.396646646646647 	300.0000166927157 	4.834595579631591e-05 	101325.0197345353
-0.3941441441441444 	300.0000167818872 	4.859813444185192e-05 	101325.0198401718
-0.3916416416416419 	300.0000168178859 	4.870232857107542e-05 	101325.0198832126
-0.3891391391391395 	300.0000167974654 	4.864678377773065e-05 	101325.0198592305
-0.3866366366366368 	300.0000167302461 	4.846000720402674e-05 	101325.0197798235
-0.3841341341341344 	300.0000166355557 	4.819256707873911e-05 	101325.0196677317
-0.381631631631632 	300.0000165362586 	4.791344250375536e-05 	101325.0195503916
-0.3791291291291294 	300.0000164549776 	4.768235827681157e-05 	101325.019453823
-0.3766266266266269 	300.0000164079289 	4.754827936588539e-05 	101325.0193978015
-0.3741241241241244 	300.000016403683 	4.753531251463851e-05 	101325.0193923388
-0.371621621621622 	300.0000164406397 	4.763631593485751e-05 	101325.0194356712
-0.3691191191191194 	300.0000165075537 	4.782298057049492e-05 	101325.0195143493
-0.366616616616617 	300.0000165850852 	4.803785005650136e-05 	101325.0196057085
-0.3641141141141143 	300.0000166500336 	4.821849057841626e-05 	101325.0196825075
-0.3616116116116119 	300.0000166809135 	4.830272231779665e-05 	101325.0197188798
-0.3591091091091095 	300.0000166621143 	4.824509793999145e-05 	101325.0196965562
-0.356606606606607 	300.0000165887833 	4.803700660342277e-05 	101325.0196101583
-0.3541041041041044 	300.0000164698566 	4.76992995171239e-05 	101325.0194697903
-0.3516016016016019 	300.0000163254222 	4.7291776589602e-05 	101325.0192993754
-0.3490990990990994 	300.0000161824093 	4.688879111295867e-05 	101325.0191307142
-0.346596596596597 	300.000016067489 	4.656288197943306e-05 	101325.018995081
-0.3440940940940944 	300.0000159993952 	4.637027442806975e-05 	101325.0189149147
-0.3415915915915919 	300.0000159846065 	4.632488988919562e-05 	101325.0188977774
-0.3390890890890895 	300.0000160152994 	4.640768902167293e-05 	101325.0189342494
-0.3365865865865869 	300.0000160715602 	4.656075549494903e-05 	101325.0190005545
-0.3340840840840844 	300.0000161265503 	4.670996018308898e-05 	101325.0190654885
-0.3315815815815819 	300.0000161554045 	4.678736416507346e-05 	101325.0190993562
-0.3290790790790794 	300.0000161407424 	4.674147762788241e-05 	101325.0190818715
-0.3265765765765769 	300.0000160772654 	4.656097050906962e-05 	101325.0190069824
-0.3240740740740744 	300.0000159732519 	4.626417336808624e-05 	101325.0188836864
-0.3215715715715718 	300.0000158458025 	4.59029090829322e-05 	101325.018732899
-0.3190690690690695 	300.0000157175003 	4.554124658432811e-05 	101325.0185814845
-0.3165665665665668 	300.0000156108282 	4.523693446352163e-05 	101325.0184552369
-0.3140640640640644 	300.0000155409864 	4.503786708190951e-05 	101325.0183727107
-0.311561561561562 	300.0000155142678 	4.495880375239237e-05 	101325.0183414576
-0.3090590590590593 	300.0000155278287 	4.499360360775449e-05 	101325.0183572583
-0.3065565565565568 	300.0000155690363 	4.510756218255588e-05 	101325.0184058805
-0.3040540540540545 	300.0000156205055 	4.524844001768859e-05 	101325.018466632
-0.3015515515515518 	300.0000156632359 	4.536622616906077e-05 	101325.0185169457
-0.2990490490490494 	300.0000156799932 	4.540963041449225e-05 	101325.0185369379
-0.2965465465465469 	300.000015660086 	4.535037200776307e-05 	101325.0185131594
-0.2940440440440444 	300.0000155989081 	4.517479757531713e-05 	101325.0184407309
-0.2915415415415418 	300.0000154997173 	4.488988595219417e-05 	101325.018323429
-0.2890390390390395 	300.0000153717617 	4.452498895145379e-05 	101325.0181722399
-0.2865365365365368 	300.0000152283878 	4.411454387755258e-05 	101325.0180028968
-0.2840340340340343 	300.0000150842979 	4.370325932286927e-05 	101325.0178326899
-0.2815315315315318 	300.0000149524305 	4.332627133571629e-05 	101325.0176772047
-0.2790290290290295 	300.0000148427919 	4.301009515620287e-05 	101325.0175476979
-0.2765265265265269 	300.0000147598624 	4.277008918201563e-05 	101325.0174495736
-0.2740240240240244 	300.0000147029571 	4.260271852600452e-05 	101325.0173822499
-0.2715215215215219 	300.0000146672026 	4.249662646277058e-05 	101325.0173399673
-0.2690190190190194 	300.0000146441939 	4.242545779228164e-05 	101325.0173129452
-0.2665165165165169 	300.0000146242919 	4.236244657670458e-05 	101325.017289055
-0.2640140140140144 	300.0000145962741 	4.227881356245834e-05 	101325.0172559122
-0.2615115115115119 	300.0000145515007 	4.214597586538677e-05 	101325.0172027326
-0.2590090090090094 	300.0000144828156 	4.194737812543558e-05 	101325.017121671
-0.2565065065065068 	300.0000143873841 	4.166924209966292e-05 	101325.0170085517
-0.2540040040040044 	300.0000142643619 	4.131397068518242e-05 	101325.016863102
-0.2515015015015019 	300.0000141172246 	4.089101069966482e-05 	101325.0166890993
-0.2489989989989994 	300.0000139522262 	4.041592643813329e-05 	101325.0164941533
-0.2464964964964968 	300.0000137781931 	3.991653592390524e-05 	101325.0162887286
-0.2439939939939944 	300.0000136056938 	3.941925841731063e-05 	101325.0160848981
-0.2414914914914919 	300.0000134450539 	3.895796934983895e-05 	101325.0158952136
-0.2389889889889893 	300.0000133066729 	3.856109234278372e-05 	101325.0157315382
-0.2364864864864869 	300.0000131987793 	3.824983049196974e-05 	101325.0156037831
-0.2339839839839843 	300.0000131264933 	3.804228450152415e-05 	101325.0155185396
-0.2314814814814819 	300.000013092376 	3.79406311050393e-05 	101325.0154778751
-0.2289789789789792 	300.000013093255 	3.794181607408444e-05 	101325.0154790004
-0.2264764764764769 	300.0000131236086 	3.802714929177023e-05 	101325.0155146779
-0.2239739739739743 	300.0000131737347 	3.816709742019492e-05 	101325.0155737826
-0.2214714714714718 	300.0000132317273 	3.833113568310985e-05 	101325.0156424635
-0.2189689689689693 	300.0000132856117 	3.848203347855682e-05 	101325.0157061183
-0.2164664664664669 	300.0000133239918 	3.859060407170309e-05 	101325.0157515279
-0.2139639639639643 	300.0000133381851 	3.863120671755811e-05 	101325.0157686349
-0.2114614614614618 	300.0000133237131 	3.858758911206249e-05 	101325.0157515044
-0.2089589589589593 	300.0000132787893 	3.845807502281375e-05 	101325.0156983927
-0.2064564564564568 	300.0000132052268 	3.824652488519006e-05 	101325.0156115464
-0.2039539539539543 	300.0000131077405 	3.79679828003051e-05 	101325.0154965828
-0.2014514514514518 	300.0000129931806 	3.76382424090161e-05 	101325.0153609723
-0.1989489489489494 	300.0000128676983 	3.727632529451515e-05 	101325.0152124913
-0.1964464464464468 	300.0000127374498 	3.690123604710024e-05 	101325.0150583329
-0.1939439439439443 	300.0000126074331 	3.65258339063597e-05 	101325.0149045782
-0.1914414414414418 	300.0000124816069 	3.616364829420827e-05 	101325.0147560192
-0.1889389389389393 	300.0000123634149 	3.581961248455568e-05 	101325.0146159731
-0.1864364364364368 	300.0000122534495 	3.549971628722384e-05 	101325.0144858542
-0.1839339339339343 	300.0000121513481 	3.520495803546134e-05 	101325.0143653884
-0.1814314314314318 	300.0000120565252 	3.492901578070383e-05 	101325.0142532203
-0.1789289289289293 	300.0000119663962 	3.466848268668016e-05 	101325.0141470195
-0.1764264264264268 	300.0000118792168 	3.441311626803614e-05 	101325.0140437348
-0.1739239239239243 	300.0000117915468 	3.415898603558044e-05 	101325.0139403639
-0.1714214214214218 	300.0000117022242 	3.390055696889433e-05 	101325.0138345116
-0.1689189189189193 	300.000011609194 	3.363131698357323e-05 	101325.0137247123
-0.1664164164164168 	300.0000115126268 	3.335171303157512e-05 	101325.0136103872
-0.1639139139139143 	300.0000114119172 	3.305857521952825e-05 	101325.0134913573
-0.1614114114114118 	300.0000113076829 	3.27571840087461e-05 	101325.0133680155
-0.1589089089089093 	300.0000112009234 	3.245027439107342e-05 	101325.0132418929
-0.1564064064064068 	300.0000110937545 	3.213978766812273e-05 	101325.0131152117
-0.1539039039039043 	300.0000109879941 	3.183388935008548e-05 	101325.0129901097
-0.1514014014014018 	300.0000108851997 	3.153417679406963e-05 	101325.012868415
-0.1488988988988993 	300.0000107861071 	3.124786123015585e-05 	101325.0127513605
-0.1463963963963968 	300.0000106913323 	3.097393563982869e-05 	101325.0126392406
-0.1438938938938943 	300.0000105996168 	3.070716196445738e-05 	101325.012531007
-0.1413913913913918 	300.0000105088941 	3.044379538441332e-05 	101325.0124238416
-0.1388888888888893 	300.0000104161502 	3.017303129685044e-05 	101325.0123140502
-0.1363863863863868 	300.0000103185853 	2.9892186704672e-05 	101325.0121990295
-0.1338838838838843 	300.0000102163139 	2.959682376101367e-05 	101325.0120781264
-0.1313813813813818 	300.0000101104857 	2.928966049501038e-05 	101325.0119526947
-0.1288788788788793 	300.0000100034622 	2.898229550376869e-05 	101325.0118263455
-0.1263763763763768 	300.0000099003888 	2.868469468605344e-05 	101325.0117044254
-0.1238738738738743 	300.0000098057905 	2.841350453355049e-05 	101325.011592751
-0.1213713713713717 	300.0000097240783 	2.817596719284469e-05 	101325.0114960221
-0.1188688688688693 	300.0000096562508 	2.797716274750366e-05 	101325.0114156661
-0.1163663663663668 	300.0000095993842 	2.781241836031122e-05 	101325.0113488422
-0.1138638638638643 	300.0000095493363 	2.766376414374533e-05 	101325.0112893949
-0.1113613613613618 	300.0000094981106 	2.751282945396452e-05 	101325.0112288354
-0.1088588588588592 	300.0000094377003 	2.733377865821824e-05 	101325.0111574784
-0.1063563563563568 	300.000009360992 	2.711048916189408e-05 	101325.0110668947
-0.1038538538538543 	300.0000092639489 	2.683104264772575e-05 	101325.0109521432
-0.1013513513513517 	300.0000091464028 	2.649172022534322e-05 	101325.0108129841
-0.09884884884884926 	300.0000090123003 	2.610783565372773e-05 	101325.0106547472
-0.09634634634634676 	300.0000088708049 	2.570017853743978e-05 	101325.010487575
-0.09384384384384425 	300.0000087327712 	2.530426877632124e-05 	101325.0103242662
-0.09134134134134177 	300.0000086092651 	2.4949668267941e-05 	101325.0101778395
-0.08883883883883925 	300.0000085077986 	2.465556962907142e-05 	101325.0100579193
-0.08633633633633674 	300.0000084307694 	2.443143510408859e-05 	101325.0099671251
-0.08383383383383426 	300.0000083749323 	2.426463599614793e-05 	101325.0099009069
-0.08133133133133173 	300.0000083313928 	2.413604614349636e-05 	101325.0098496421
-0.07882882882882926 	300.0000082899653 	2.401349169290355e-05 	101325.0098009707
-0.07632632632632676 	300.0000082408277 	2.386716825361339e-05 	101325.0097426887
-0.07382382382382424 	300.0000081751942 	2.367624738248911e-05 	101325.0096652917
-0.07132132132132173 	300.0000080895878 	2.342732341394855e-05 	101325.0095636852
-0.06881881881881925 	300.0000079839769 	2.312582049992557e-05 	101325.0094389734
-0.06631631631631671 	300.0000078647757 	2.278267333269322e-05 	101325.0092981816
-0.06381381381381425 	300.0000077405137 	2.242456621955537e-05 	101325.009151051
-0.06131131131131173 	300.0000076190593 	2.20763048382718e-05 	101325.0090074777
-0.05880880880880923 	300.0000075074003 	2.175418971031014e-05 	101325.0088756104
-0.05630630630630672 	300.0000074090803 	2.146912754215111e-05 	101325.0087592439
-0.05380380380380424 	300.0000073229825 	2.12156874493419e-05 	101325.008657236
-0.05130130130130173 	300.0000072453396 	2.098936387456189e-05 	101325.0085654973
-0.04879879879879922 	300.0000071715903 	2.077542760630915e-05 	101325.0084786207
-0.04629629629629672 	300.0000070978532 	2.056119728601486e-05 	101325.0083915245
-0.04379379379379422 	300.0000070208142 	2.033702481996848e-05 	101325.008300375
-0.04129129129129173 	300.0000069373547 	2.009184299858248e-05 	101325.0082016674
-0.03878878878878922 	300.0000068455106 	1.982768925926998e-05 	101325.0080929964
-0.03628628628628671 	300.0000067461407 	1.954146674115903e-05 	101325.007975554
-0.03378378378378422 	300.0000066428381 	1.924403996728137e-05 	101325.0078536017
-0.03128128128128172 	300.000006540609 	1.894972405838181e-05 	101325.0077325433
-0.02877877877877922 	300.0000064439578 	1.866996316204956e-05 	101325.0076181623
-0.0262762762762767 	300.0000063559185 	1.841687895135787e-05 	101325.0075143247
-0.02377377377377422 	300.0000062768406 	1.818415494642289e-05 	101325.007420472
-0.0212712712712717 	300.0000062018694 	1.796606499203052e-05 	101325.0073322364
-0.01876876876876921 	300.0000061267046 	1.774527064416014e-05 	101325.0072432065
-0.01626626626626671 	300.0000060459077 	1.751077788224946e-05 	101325.007147582
-0.0137637637637642 	300.0000059581531 	1.726034017558846e-05 	101325.0070440772
-0.0112612612612617 	300.0000058666757 	1.69939037069884e-05 	101325.0069358001
-0.008758758758759198 	300.0000057742573 	1.672748277753806e-05 	101325.0068266757
-0.006256256256256697 	300.0000056839531 	1.646661606620803e-05 	101325.0067201735
-0.003753753753754195 	300.0000055979397 	1.621673859889371e-05 	101325.0066181897
-0.001251251251251693 	300.0000055136993 	1.597069095958202e-05 	101325.0065184843
0.00125125125125081 	300.0000054271315 	1.571698800379298e-05 	101325.0064159528
0.003753753753753312 	300.0000053343298 	1.54489374861131e-05 	101325.0063062598
0.006256256256255817 	300.0000052336795 	1.515766142980283e-05 	101325.0061875214
0.008758758758758317 	300.0000051273106 	1.485273249959299e-05 	101325.0060615658
0.01126126126126082 	300.0000050193349 	1.454046911003386e-05 	101325.0059339478
0.01376376376376332 	300.0000049148263 	1.423929751875064e-05 	101325.0058106902
0.01626626626626582 	300.000004818507 	1.396359318159636e-05 	101325.0056967102
0.01876876876876833 	300.0000047333561 	1.37172219478753e-05 	101325.0055962106
0.02127127127127083 	300.0000046603364 	1.350384803972689e-05 	101325.0055098703
0.02377377377377332 	300.0000045962473 	1.33130450346967e-05 	101325.0054338383
0.02627627627627583 	300.0000045358231 	1.313898486920934e-05 	101325.0053626922
0.02877877877877833 	300.000004475093 	1.295925185032461e-05 	101325.0052904932
0.03128128128128083 	300.000004406578 	1.275826967700721e-05 	101325.0052097021
0.03378378378378333 	300.0000043248483 	1.252114005543347e-05 	101325.0051132155
0.03628628628628584 	300.0000042262868 	1.223324367338844e-05 	101325.0049964303
0.03878878878878834 	300.0000041089953 	1.189683108660257e-05 	101325.0048576111
0.04129129129129084 	300.000003976086 	1.15136325540576e-05 	101325.0047005385
0.04379379379379333 	300.0000038351872 	1.110844197576553e-05 	101325.0045340753
0.04629629629629585 	300.0000036952763 	1.07064842452484e-05 	101325.0043689302
0.04879879879879834 	300.000003566927 	1.034003693301262e-05 	101325.0042171537
0.05130130130130085 	300.0000034600161 	1.003316985818901e-05 	101325.0040906377
0.05380380380380335 	300.000003379319 	9.795797743259843e-06 	101325.0039951977
0.05630630630630584 	300.0000033227027 	9.631038281783476e-06 	101325.0039283977
0.05880880880880836 	300.00000328396 	9.514917815206278e-06 	101325.0038826617
0.06131131131131085 	300.0000032525736 	9.419590032304122e-06 	101325.0038453176
0.06381381381381336 	300.0000032150454 	9.306046930428716e-06 	101325.003800909
0.06631631631631586 	300.0000031603065 	9.144425087879817e-06 	101325.003736434
0.06881881881881835 	300.0000030817263 	8.915209029018295e-06 	101325.0036433846
0.07132132132132088 	300.0000029773665 	8.615746304715858e-06 	101325.003519896
0.07382382382382337 	300.000002853057 	8.261654918067038e-06 	101325.0033732743
0.07632632632632587 	300.0000027206955 	7.878420744387283e-06 	101325.0032164947
0.07882882882882837 	300.0000025907653 	7.506728838941855e-06 	101325.0030628855
0.08133133133133086 	300.0000024749813 	7.175518460453441e-06 	101325.002925758
0.08383383383383337 	300.0000023818104 	6.905989439943382e-06 	101325.0028155101
0.08633633633633589 	300.0000023117163 	6.699909387025825e-06 	101325.0027329888
0.08883883883883838 	300.0000022601528 	6.548258152375919e-06 	101325.0026717714
0.09134134134134086 	300.0000022176773 	6.42334177775127e-06 	101325.0026217838
0.09384384384384339 	300.0000021733086 	6.290925755396339e-06 	101325.0025697246
0.09634634634634588 	300.0000021170846 	6.125689276022975e-06 	101325.0025030522
0.09884884884884838 	300.0000020415602 	5.903472528302524e-06 	101325.0024137309
0.1013513513513509 	300.0000019453886 	5.625751642695821e-06 	101325.0022997694
0.1038538538538534 	300.0000018306047 	5.29775672962393e-06 	101325.0021642505
0.1063563563563559 	300.0000017065446 	4.940817766725578e-06 	101325.0020173325
0.1088588588588584 	300.0000015817847 	4.579059493942847e-06 	101325.0018697037
0.1113613613613609 	300.0000014625478 	4.237689783488759e-06 	101325.0017290887
0.1138638638638634 	300.0000013557813 	3.932951283942971e-06 	101325.0016027951
0.1163663663663659 	300.0000012642328 	3.663839929860538e-06 	101325.0014945979
0.1188688688688684 	300.0000011855409 	3.434493472649892e-06 	101325.0014015651
0.1213713713713709 	300.000001115984 	3.231804297417308e-06 	101325.0013193318
0.1238738738738734 	300.0000010517382 	3.04631658920729e-06 	101325.0012437823
0.1263763763763759 	300.0000009890267 	2.861606649461785e-06 	101325.0011695661
0.1288788788788784 	300.0000009222401 	2.667380657101737e-06 	101325.0010906995
0.1313813813813809 	300.0000008489448 	2.454557458354949e-06 	101325.0010040539
0.1338838838838834 	300.0000007666573 	2.215064093339428e-06 	101325.0009066547
0.1363863863863859 	300.0000006743234 	1.950756011330662e-06 	101325.0007971275
0.1388888888888884 	300.0000005750103 	1.660504734229882e-06 	101325.0006793545
0.1413913913913909 	300.000000471329 	1.360007170017589e-06 	101325.0005566948
0.1438938938938934 	300.000000367393 	1.063092350287784e-06 	101325.000433768
0.1463963963963959 	300.0000002700334 	7.852978228581297e-07 	101325.0003188684
0.1488988988988985 	300.0000001836757 	5.324142442803959e-07 	101325.0002170878
0.1514014014014009 	300.0000001081887 	3.125977021685842e-07 	101325.0001279892
0.1539039039039035 	300.000000040829 	1.271253338407627e-07 	101325.0000487618
0.1564064064064059 	299.9999999797803 	5.412055329906629e-08 	101324.9999770288
0.1589089089089084 	299.9999999246185 	2.15578200293192e-07 	101324.9999118684
0.1614114114114109 	299.9999998691796 	3.795406524217797e-07 	101324.9998463097
0.1639139139139134 	299.9999998048984 	5.681894161175673e-07 	101324.9997702658
0.166416416416416 	299.9999997260184 	7.996735843594597e-07 	101324.999676339
0.1689189189189185 	299.9999996292246 	1.081251312546231e-06 	101324.9995613049
0.1714214214214209 	299.9999995161425 	1.407678109218475e-06 	101324.9994272849
0.1739239239239235 	299.9999993930982 	1.761663785965519e-06 	101324.9992815785
0.1764264264264259 	299.9999992690817 	2.117133336255952e-06 	101324.999134912
0.1789289289289284 	299.9999991539512 	2.447595344157054e-06 	101324.9989987314
0.181431431431431 	299.9999990557297 	2.728761348638908e-06 	101324.9988830294
0.1839339339339334 	299.9999989804743 	2.94516667329874e-06 	101324.9987944076
0.186436436436436 	299.9999989290248 	3.094424530415311e-06 	101324.9987341388
0.1889389389389385 	299.9999988975707 	3.188110492774013e-06 	101324.9986971352
0.191441441441441 	299.9999988764617 	3.253208267395924e-06 	101324.9986724656
0.1939439439439434 	299.9999988535573 	3.323529831092723e-06 	101324.998645678
0.196446446446446 	299.999998817112 	3.432851754808779e-06 	101324.9986024577
0.1989489489489485 	299.9999987579519 	3.606489832077527e-06 	101324.9985322231
0.2014514514514509 	299.9999986727625 	3.852730178151974e-06 	101324.9984311619
0.2039539539539535 	299.999998565522 	4.160446785627291e-06 	101324.9983040317
0.2064564564564559 	299.999998446732 	4.499930021406396e-06 	101324.9981634066
0.2089589589589585 	299.9999983308092 	4.831608452367748e-06 	101324.9980259799
0.211461461461461 	299.9999982307696 	5.117651657862396e-06 	101324.997907746
0.2139639639639635 	299.9999981565418 	5.332129066716905e-06 	101324.997819784
0.2164664664664659 	299.9999981104033 	5.467486572934823e-06 	101324.9977652137
0.2189689689689684 	299.9999980876246 	5.536847340185486e-06 	101324.9977384464
0.221471471471471 	299.9999980778113 	5.569639970620286e-06 	101324.9977270556
0.2239739739739735 	299.9999980676511 	5.602812400849408e-06 	101324.9977153704
0.226476476476476 	299.9999980449564 	5.671643247078105e-06 	101324.9976886647
0.2289789789789785 	299.9999980008023 	5.800432078275139e-06 	101324.9976365754
0.231481481481481 	299.9999979318175 	5.999026747673585e-06 	101324.997555216
0.2339839839839835 	299.999997841232 	6.25857635891164e-06 	101324.9974481114
0.236486486486486 	299.9999977377429 	6.554192344409051e-06 	101324.9973255814
0.2389889889889885 	299.9999976331127 	6.85271171516391e-06 	101324.9972019577
0.241491491491491 	299.9999975398753 	7.118136864697862e-06 	101324.9970918877
0.2439939939939935 	299.9999974683911 	7.323936287381706e-06 	101324.997007089
0.246496496496496 	299.9999974233053 	7.455386631003938e-06 	101324.996953658
0.2489989989989985 	299.9999974040286 	7.513838291874791e-06 	101324.9969306175
0.251501501501501 	299.9999974036414 	7.51916552132202e-06 	101324.9969301071
0.2540040040040035 	299.9999974111527 	7.50106992928312e-06 	101324.9969390791
0.256506506506506 	299.9999974141006 	7.497214051058587e-06 	101324.9969424286
0.2590090090090086 	299.9999974003094 	7.539819977225452e-06 	101324.9969265276
0.261511511511511 	299.9999973630829 	7.649217379495659e-06 	101324.9968822108
0.2640140140140135 	299.9999972995903 	7.831563221498796e-06 	101324.9968072607
0.2665165165165161 	299.9999972150309 	8.071455299504669e-06 	101324.996707495
0.2690190190190185 	299.9999971206842 	8.340586086316496e-06 	101324.9965956679
0.271521521521521 	299.9999970299187 	8.599030579381187e-06 	101324.9964883406
0.2740240240240235 	299.9999969567004 	8.807008661738648e-06 	101324.9964017628
0.276526526526526 	299.999996910989 	8.937891878853586e-06 	101324.9963478329
0.2790290290290286 	299.9999968963984 	8.980525295695966e-06 	101324.9963308604
0.281531531531531 	299.9999969091829 	8.947399220060472e-06 	101324.9963460658
0.2840340340340335 	299.9999969385128 	8.868171236160114e-06 	101324.9963806316
0.2865365365365361 	299.9999969694065 	8.783562107083157e-06 	101324.9964172278
0.2890390390390385 	299.9999969879008 	8.734467089775337e-06 	101324.9964389446
0.291541541541541 	299.9999969833574 	8.749069502364888e-06 	101324.9964335703
0.2940440440440436 	299.9999969519285 	8.8391875864769e-06 	101324.9963964172
0.296546546546546 	299.9999968966985 	8.995250523913434e-06 	101324.9963311861
0.2990490490490486 	299.999996826553 	9.193564904251362e-06 	101324.9962484657
0.3015515515515511 	299.9999967541463 	9.400213289884926e-06 	101324.996162569
0.3040540540540535 	299.9999966909235 	9.579202982243463e-06 	101324.9960879111
0.3065565565565562 	299.9999966471682 	9.70345933715176e-06 	101324.9960362213
0.3090590590590585 	299.9999966288324 	9.755049847599351e-06 	101324.9960145158
0.3115615615615611 	299.999996636573 	9.734066422416204e-06 	101324.9960238072
0.3140640640640635 	299.9999966665163 	9.651893765712857e-06 	101324.9960589441
0.316566566566566 	299.9999967096356 	9.530444686424081e-06 	101324.9961100133
0.3190690690690687 	299.9999967554252 	9.401307528793497e-06 	101324.9961644187
0.3215715715715711 	299.9999967936864 	9.294378882693568e-06 	101324.9962094403
0.3240740740740735 	299.9999968148844 	9.23535403263783e-06 	101324.9962345618
0.326576576576576 	299.9999968135617 	9.239113673918478e-06 	101324.9962332625
0.3290790790790786 	299.9999967895869 	9.307585206770544e-06 	101324.9962044918
0.3315815815815811 	299.9999967465092 	9.42899698405671e-06 	101324.9961534588
0.3340840840840836 	299.9999966932679 	9.578727790933948e-06 	101324.9960906376
0.3365865865865861 	299.9999966415043 	9.725218855551397e-06 	101324.9960292651
0.3390890890890886 	299.9999966019756 	9.836190866794365e-06 	101324.9959825838
0.3415915915915911 	299.9999965835171 	9.887284626268992e-06 	101324.9959609633
0.3440940940940935 	299.9999965910228 	9.865339568477006e-06 	101324.9959700243
0.3465965965965962 	299.9999966248586 	9.770371722460916e-06 	101324.9960097344
0.3490990990990985 	299.999996679678 	9.615200583326219e-06 	101324.9960745272
0.3516016016016011 	299.9999967476829 	9.421105350968558e-06 	101324.9961549548
0.3541041041041035 	299.9999968198748 	9.214198342313412e-06 	101324.9962402963
0.3566066066066061 	299.999996887681 	9.01942021176243e-06 	101324.9963206566
0.3591091091091085 	299.9999969448797 	8.854854663572177e-06 	101324.9963883742
0.3616116116116112 	299.99999698823 	8.729597485229506e-06 	101324.9964395673
0.3641141141141137 	299.9999970173933 	8.64401322536568e-06 	101324.9964741377
0.3666166166166161 	299.9999970347579 	8.591984197266236e-06 	101324.9964946907
0.3691191191191185 	299.9999970443483 	8.564930968345464e-06 	101324.9965056059
0.371621621621621 	299.9999970490467 	8.5512081560701e-06 	101324.9965112317
0.3741241241241237 	299.9999970522891 	8.541001838261275e-06 	101324.9965149102
0.3766266266266261 	299.9999970563294 	8.527707888091774e-06 	101324.9965197549
0.3791291291291286 	299.9999970633459 	8.506231719139022e-06 	101324.9965281998
0.3816316316316311 	299.9999970742224 	8.474003235232624e-06 	101324.9965412802
0.3841341341341336 	299.9999970900409 	8.428921326281785e-06 	101324.9965597353
0.3866366366366362 	299.9999971104852 	8.369583214836863e-06 	101324.9965839774
0.3891391391391387 	299.9999971363644 	8.293058665636043e-06 	101324.9966146698
0.391641641641641 	299.9999971693475 	8.197340205685962e-06 	101324.996653514
0.3941441441441436 	299.9999972100417 	8.081198820088241e-06 	101324.9967015762
0.3966466466466462 	299.9999972581264 	7.942697562982925e-06 	101324.9967584487
0.3991491491491486 	299.9999973128535 	7.784970398668017e-06 	101324.9968232953
0.4016516516516512 	299.9999973731819 	7.609895777217313e-06 	101324.9968946708
0.4041541541541536 	299.9999974375231 	7.422798917256468e-06 	101324.9969705742
0.4066566566566561 	299.9999975042327 	7.231067109829223e-06 	101324.9970494205
0.4091591591591587 	299.9999975713079 	7.03851804527763e-06 	101324.9971285529
0.4116616616616612 	299.9999976359235 	6.851932808081984e-06 	101324.9972049609
0.4141641641641635 	299.9999976973313 	6.673253374916959e-06 	101324.9972775158
0.4166666666666662 	299.9999977555887 	6.503128834883076e-06 	101324.9973466318
0.4191691691691687 	299.9999978125323 	6.337372270783646e-06 	101324.9974142273
0.421671671671671 	299.999997871821 	6.165809540336597e-06 	101324.9974840977
0.4241741741741737 	299.9999979349438 	5.983748049991435e-06 	101324.997558806
0.4266766766766761 	299.9999980022513 	5.787521058617334e-06 	101324.9976383931
0.4291791791791785 	299.999998072952 	5.583628957238972e-06 	101324.9977216028
0.4316816816816812 	299.9999981439715 	5.379691062123708e-06 	101324.997805476
0.4341841841841836 	299.9999982138551 	5.176176370304371e-06 	101324.9978880629
0.4366866866866862 	299.9999982831987 	4.97518500141849e-06 	101324.997970242
0.4391891891891885 	299.9999983536288 	4.77129548472562e-06 	101324.9980532982
0.4416916916916913 	299.9999984247689 	4.564067244493278e-06 	101324.9981374882
0.4441941941941936 	299.9999984969098 	4.356698420793533e-06 	101324.9982229268
0.4466966966966961 	299.9999985687773 	4.147495687006591e-06 	101324.9983083074
0.4491991991991987 	299.9999986411551 	3.937652295534349e-06 	101324.9983937882
0.4517017017017012 	299.9999987149847 	3.722522127331908e-06 	101324.9984812175
0.4542042042042035 	299.9999987916265 	3.500123233925414e-06 	101324.9985717404
0.4567067067067062 	299.9999988704035 	3.27235846820004e-06 	101324.9986647838
0.4592092092092087 	299.9999989506239 	3.040374891774594e-06 	101324.9987597257
0.4617117117117112 	299.9999990314972 	2.808095733020032e-06 	101324.9988547908
0.4642142142142137 	299.9999991124902 	2.572418236263522e-06 	101324.9989505396
0.4667167167167162 	299.9999991957931 	2.330897897020574e-06 	101324.999048711
0.4692192192192187 	299.9999992820339 	2.081635092859099e-06 	101324.9991507333
0.4717217217217212 	299.9999993715293 	1.822782311475073e-06 	101324.9992563577
0.4742242242242236 	299.9999994623705 	1.560320341930169e-06 	101324.9993640599
0.4767267267267262 	299.9999995522671 	1.300037047040911e-06 	101324.999470382
0.4792292292292287 	299.9999996396669 	1.046315606464864e-06 	101324.9995736708
0.4817317317317312 	299.9999997247888 	7.990656045408249e-07 	101324.999674396
0.4842342342342336 	299.9999998096999 	5.509732058186652e-07 	101324.9997750412
0.4867367367367362 	299.9999998973985 	2.954708896622475e-07 	101324.9998789392
0.4892392392392387 	299.9999999896996 	1.041144491356981e-07 	101324.9999879193
0.4917417417417412 	300.0000000851375 	2.471803729773149e-07 	101325.0001008291
0.4942442442442437 	300.0000001811864 	5.255971589960696e-07 	101325.0002147707
0.4967467467467462 	300.0000002764364 	8.018697506011508e-07 	101325.0003273759
0.4992492492492487 	300.0000003714936 	1.078252007137765e-06 	101325.0004397792
0.5017517517517511 	300.0000004691069 	1.361050691683129e-06 	101325.0005550252
0.5042542542542537 	300.0000005701646 	1.652689725946231e-06 	101325.0006744168
0.5067567567567562 	300.0000006722263 	1.946890259382042e-06 	101325.0007952172
0.5092592592592589 	300.0000007709529 	2.231645490629359e-06 	101325.000911977
0.5117617617617611 	300.0000008628929 	2.498551712528644e-06 	101325.0010207422
0.5142642642642637 	300.0000009493598 	2.751283652570641e-06 	101325.0011229634
0.5167667667667663 	300.0000010361514 	3.005726503175588e-06 	101325.0012256917
0.5192692692692688 	300.000001130325 	3.280444404572052e-06 	101325.0013372612
0.5217717717717714 	300.0000012355181 	3.583566762850415e-06 	101325.0014614404
0.5242742742742736 	300.000001347969 	3.906104430952646e-06 	101325.0015942647
0.5267767767767763 	300.0000014597634 	4.226803728192342e-06 	101325.0017262498
0.5292792792792789 	300.0000015634994 	4.526496453806281e-06 	101325.0018487721
0.5317817817817813 	300.000001657667 	4.801213972453463e-06 	101325.001960037
0.5342842842842837 	300.0000017480161 	5.06506099315645e-06 	101325.0020663907
0.5367867867867864 	300.0000018422685 	5.33989004703182e-06 	101325.0021777206
0.5392892892892888 	300.0000019458114 	5.639188380507091e-06 	101325.0023001477
0.5417917917917912 	300.0000020569908 	5.957522402651851e-06 	101325.0024312955
0.5442942942942938 	300.0000021672663 	6.273577968283067e-06 	101325.0025615961
0.5467967967967964 	300.0000022682506 	6.564941377337509e-06 	101325.0026809381
0.5492992992992988 	300.0000023572622 	6.82469683848022e-06 	101325.0027860798
0.5518018018018012 	300.000002439926 	7.068093396600543e-06 	101325.0028837272
0.5543043043043039 	300.0000025273114 	7.324150561240176e-06 	101325.0029867995
0.5568068068068063 	300.0000026281605 	7.61710948917267e-06 	101325.0031061541
0.5593093093093087 	300.0000027438369 	7.95002892181073e-06 	101325.0032432533
0.5618118118118114 	300.0000028667755 	8.301322794688418e-06 	101325.0033885799
0.5643143143143137 	300.0000029838579 	8.637198383485761e-06 	101325.003527148
0.5668168168168163 	300.0000030858242 	8.932021016783557e-06 	101325.0036475985
0.5693193193193188 	300.0000031717639 	9.183970527683217e-06 	101325.0037491103
0.5718218218218213 	300.0000032502086 	9.415893093022303e-06 	101325.003841848
0.5743243243243239 	300.0000033336565 	9.66083158905172e-06 	101325.0039404935
0.5768268268268262 	300.0000034305461 	9.941524675966561e-06 	101325.004055103
0.5793293293293288 	300.0000035403746 	1.02568652430675e-05 	101325.0041851402
0.5818318318318314 	300.0000036546075 	1.058371860350661e-05 	101325.0043202509
0.5843343343343338 	300.0000037621182 	1.089235529917135e-05 	101325.0044472087
0.5868368368368363 	300.0000038560932 	1.116579567750604e-05 	101325.0045584375
0.5893393393393387 	300.0000039390439 	1.141029460106821e-05 	101325.0046567561
0.5918418418418413 	300.0000040207671 	1.165112828170505e-05 	101325.0047534314
0.5943443443443439 	300.0000041116563 	1.191577685056329e-05 	101325.0048607478
0.5968468468468463 	300.0000042158234 	1.221570224778968e-05 	101325.0049838729
0.5993493493493487 	300.0000043285683 	1.253775241350301e-05 	101325.0051170698
0.6018518518518514 	300.0000044380914 	1.285096737867877e-05 	101325.005246659
0.6043543543543537 	300.0000045332864 	1.312468889463893e-05 	101325.0053590527
0.6068568568568564 	300.0000046094856 	1.334759261718874e-05 	101325.0054491104
0.6093593593593587 	300.0000046727049 	1.353623124860654e-05 	101325.0055239947
0.6118618618618614 	300.0000047370079 	1.372775537654033e-05 	101325.005599982
0.6143643643643638 	300.0000048166065 	1.396022183850617e-05 	101325.0056938033
0.6168668668668662 	300.0000049176364 	1.425147013279353e-05 	101325.0058133796
0.6193693693693688 	300.0000050355192 	1.458802542829258e-05 	101325.0059529287
0.6218718718718714 	300.0000051558736 	1.493052135264105e-05 	101325.0060952853
0.6243743743743737 	300.0000052615501 	1.523303075936628e-05 	101325.0062204087
0.6268768768768762 	300.0000053419027 	1.546645733170152e-05 	101325.0063155361
0.629379379379379 	300.0000053980914 	1.563378543882931e-05 	101325.0063819007
0.6318818818818812 	300.0000054426707 	1.576953858229157e-05 	101325.0064345263
0.6343843843843838 	300.0000054938897 	1.59230424011116e-05 	101325.0064949189
0.6368868868868864 	300.0000055662143 	1.613410645864027e-05 	101325.0065804323
0.6393893893893888 	300.0000056636275 	1.641325859185063e-05 	101325.0066956956
0.6418918918918912 	300.0000057776161 	1.673607253912059e-05 	101325.0068301174
0.6443943943943939 	300.0000058898895 	1.705455048536731e-05 	101325.0069628228
0.6468968968968963 	300.0000059828398 	1.731980723630051e-05 	101325.0070725873
0.6493993993993988 	300.0000060465663 	1.75054772576656e-05 	101325.0071478877
0.6519019019019012 	300.0000060844242 	1.762056211388395e-05 	101325.0071925778
0.6544044044044038 	300.0000061111788 	1.770625937129877e-05 	101325.0072244881
0.6569069069069065 	300.0000061475251 	1.781740639429557e-05 	101325.0072673972
0.6594094094094087 	300.0000062091208 	1.799773879904594e-05 	101325.007340251
0.6619119119119113 	300.0000063006169 	1.825974417767548e-05 	101325.0074485413
0.664414414414414 	300.0000064130273 	1.857820072338964e-05 	101325.0075814254
0.6669169169169162 	300.000006526763 	1.890007239856384e-05 	101325.0077160316
0.6694194194194188 	300.000006620493 	1.916673734161662e-05 	101325.0078270767
0.6719219219219214 	300.0000066797946 	1.933871366624874e-05 	101325.007897486
0.674424424424424 	300.0000067038304 	1.941304613781614e-05 	101325.0079258597
0.6769269269269262 	300.0000067052665 	1.94260868986489e-05 	101325.0079277611
0.679429429429429 	300.0000067073366 	1.94401986212687e-05 	101325.007929977
0.6819319319319311 	300.000006732744 	1.951960393028163e-05 	101325.0079600871
0.6844344344344341 	300.0000067967752 	1.970523926809969e-05 	101325.0080357286
0.686936936936936 	300.0000068996825 	1.999783429257021e-05 	101325.0081573695
0.6894394394394392 	300.0000070264921 	2.035565092845674e-05 	101325.0083072353
0.6919419419419413 	300.0000071515529 	2.070792737037997e-05 	101325.0084551245
0.694444444444444 	300.0000072475691 	2.097917622771469e-05 	101325.0085688345
0.6969469469469463 	300.0000072952815 	2.111524352990635e-05 	101325.0086251953
0.6994494494494489 	300.0000072895948 	2.110282237779067e-05 	101325.0086183687
0.7019519519519515 	300.0000072427372 	2.097600409931422e-05 	101325.0085627393
0.7044544544544538 	300.0000071803402 	2.080698940145711e-05 	101325.0084889995
0.7069569569569564 	300.0000071345338 	2.068392314851226e-05 	101325.0084345855
0.7094594594594589 	300.0000071324063 	2.068366494074752e-05 	101325.0084321193
0.7119619619619615 	300.0000071893305 	2.084831814933512e-05 	101325.0084995413
0.7144644644644638 	300.000007303429 	2.117143182112408e-05 	101325.0086342692
0.7169669669669665 	300.000007454754 	2.159848211641789e-05 	101325.0088132466
0.7194694694694688 	300.0000076123368 	2.204162526531621e-05 	101325.0089992907
0.7219719719719715 	300.0000077411024 	2.240415071579635e-05 	101325.0091515649
0.7244744744744737 	300.0000078129877 	2.260649439644862e-05 	101325.0092364894
0.7269769769769764 	300.0000078130309 	2.260741496215842e-05 	101325.0092365562
0.7294794794794791 	300.0000077442859 	2.241565369953544e-05 	101325.0091553221
0.7319819819819813 	300.0000076273041 	2.208883628933514e-05 	101325.0090170536
0.7344844844844839 	300.0000074949222 	2.171936359561424e-05 	101325.0088607234
0.7369869869869864 	300.0000073845516 	2.141126173817855e-05 	101325.0087301095
0.739489489489489 	300.0000073281247 	2.125546925364543e-05 	101325.0086633672
0.7419919919919914 	300.0000073460333 	2.130919259142248e-05 	101325.0086845688
0.7444944944944939 	300.0000074423075 	2.158286086462824e-05 	101325.0087982057
0.7469969969969963 	300.0000076026574 	2.203709110957883e-05 	101325.0089878014
0.7494994994994989 	300.000007798402 	2.259098595243638e-05 	101325.009219373
0.7520020020020015 	300.0000079927478 	2.313998561093014e-05 	101325.0094490546
0.7545045045045039 	300.0000081477939 	2.357762120075553e-05 	101325.0096323876
0.7570070070070062 	300.0000082325384 	2.381598724527196e-05 	101325.0097326685
0.7595095095095092 	300.0000082281282 	2.380151996441602e-05 	101325.0097274908
0.7620120120120112 	300.0000081313631 	2.352493743596248e-05 	101325.0096128763
0.7645145145145138 	300.0000079548066 	2.302322850693747e-05 	101325.0094042133
0.7670170170170165 	300.0000077257425 	2.237321501733116e-05 	101325.0091335947
0.7695195195195191 	300.0000074806946 	2.167751030159813e-05 	101325.0088438962
0.7720220220220213 	300.0000072584342 	2.10464834906803e-05 	101325.0085810665
0.7745245245245239 	300.0000070942152 	2.058106036678449e-05 	101325.0083869279
0.7770270270270263 	300.0000070155127 	2.035903587641359e-05 	101325.0082937307
0.779529529529529 	300.0000070379996 	2.042548015795688e-05 	101325.008320206
0.7820320320320313 	300.0000071640067 	2.078706420634995e-05 	101325.0084692012
0.784534534534534 	300.0000073824423 	2.14113693993504e-05 	101325.008727296
0.7870370370370364 	300.0000076695221 	2.223159810114612e-05 	101325.0090667199
0.7895395395395389 	300.0000079932345 	2.315642570207843e-05 	101325.0094494775
0.7920420420420413 	300.0000083174656 	2.408285925154848e-05 	101325.0098328442
0.794544544544544 	300.0000086065725 	2.490881086764184e-05 	101325.0101746916
0.7970470470470463 	300.0000088288837 	2.554300048933559e-05 	101325.0104374461
0.799549549549549 	300.0000089585765 	2.591181299645379e-05 	101325.0105908449
0.8020520520520515 	300.0000089779307 	2.59639229284482e-05 	101325.0106137953
0.8045545545545539 	300.0000088775513 	2.567246261234227e-05 	101325.0104953098
0.8070570570570563 	300.0000086570145 	2.503515955270977e-05 	101325.0102345184
0.8095595595595589 	300.0000083230805 	2.407224925927999e-05 	101325.0098398428
0.8120620620620614 	300.0000078896249 	2.282283912594941e-05 	101325.0093274691
0.8145645645645638 	300.0000073753765 	2.133997847468311e-05 	101325.0087193253
0.8170670670670666 	300.0000068014288 	1.968514467865513e-05 	101325.0080407937
0.8195695695695689 	300.0000061902973 	1.792265993811258e-05 	101325.0073184004
0.8220720720720714 	300.0000055636309 	1.611456175861872e-05 	101325.0065777049
0.8245745745745739 	300.000004941092 	1.431651690678592e-05 	101325.0058415783
0.8270770770770765 	300.0000043383338 	1.257494592737385e-05 	101325.0051290351
0.8295795795795788 	300.0000037679521 	1.092588961001018e-05 	101325.0044547531
0.8320820820820815 	300.0000032389732 	9.395076579757344e-06 	101325.0038291799
0.834584584584584 	300.0000027565906 	7.998887905785982e-06 	101325.0032589283
0.8370870870870865 	300.0000023237029 	6.745593376227627e-06 	101325.0027473038
0.8395895895895891 	300.0000019409496 	5.636800411618925e-06 	101325.0022948922
0.8420920920920915 	300.0000016071194 	4.668903479952097e-06 	101325.0019001554
0.844594594594594 	300.0000013193755 	3.834439930444596e-06 	101325.0015599934
0.8470970970970964 	300.00000107432 	3.123337930322614e-06 	101325.0012702468
0.8495995995995991 	300.0000008679492 	2.523953875221736e-06 	101325.0010261259
0.8521021021021015 	300.0000006957238 	2.023933476219997e-06 	101325.0008225601
0.8546046046046039 	300.0000005535092 	1.610881426600018e-06 	101325.0006544678
0.8571071071071066 	300.0000004372862 	1.272840829407048e-06 	101325.0005169584
0.8596096096096089 	300.0000003428963 	9.986609131708553e-07 	101325.0004054678
0.8621121121121116 	300.0000002670067 	7.781603040478332e-07 	101325.0003158429
0.8646146146146139 	300.0000002067329 	6.023005395418245e-07 	101325.0002443856
0.8671171171171166 	300.0000001588378 	4.631356530690661e-07 	101325.0001878631
0.8696196196196189 	300.0000001212081 	3.53860923358706e-07 	101325.0001434944
0.8721221221221216 	300.0000000920882 	2.686812169588523e-07 	101325.0001089233
0.874624624624624 	300.0000000695063 	2.027637401381726e-07 	101325.0000821784
0.8771271271271264 	300.0000000521434 	1.521050607563089e-07 	101325.0000616316
0.879629629629629 	300.0000000389277 	1.134319527877347e-07 	101325.0000459526
0.8821321321321317 	300.0000000287849 	8.410945745507302e-08 	101325.0000340667
0.8846346346346339 	300.0000000210536 	6.200729338000166e-08 	101325.0000251139
0.8871371371371364 	300.0000000154674 	4.546652100862343e-08 	101325.000018412
0.8896396396396391 	300.0000000112453 	3.314780106535108e-08 	101325.0000134254
0.8921421421421414 	300.00000000814 	2.404025077824662e-08 	101325.0000097377
0.8946446446446441 	300.0000000059142 	1.733613930941285e-08 	101325.0000070259
0.8971471471471464 	300.0000000042908 	1.243584433894988e-08 	101325.0000050431
0.8996496496496489 	300.0000000030137 	8.871630000041352e-09 	101325.0000036017
0.9021521521521517 	300.000000002084 	6.291579886497978e-09 	101325.000002559
0.9046546546546541 	300.0000000015202 	4.436988179594333e-09 	101325.0000018084
0.9071571571571564 	300.0000000009555 	3.107103238417525e-09 	101325.0000012714
0.9096596596596589 	300.0000000006169 	2.160959796597779e-09 	101325.0000008896
0.9121621621621616 	300.0000000005579 	1.49007367664429e-09 	101325.0000006196
0.9146646646646639 	300.0000000003143 	1.017430048168771e-09 	101325.0000004291
0.9171671671671666 	300.0000000001086 	6.880071518360534e-10 	101325.0000002957
0.9196696696696689 	300.0000000001819 	4.559283305039012e-10 	101325.0000002028
0.9221721721721714 	300.0000000001168 	3.01148936960421e-10 	101325.0000001385
0.9246746746746741 	299.9999999999237 	1.860685335286452e-10 	101325.0000000946
0.9271771771771765 	299.999999999943 	1.163208412863397e-10 	101325.0000000647
0.9296796796796791 	300.0000000000186 	6.082190888235672e-11 	101325.0000000439
0.9321821821821816 	299.9999999999317 	2.901788184642385e-11 	101325.0000000294
0.9346846846846838 	299.9999999998826 	9.925537090565238e-12 	101325.0000000194
0.9371871871871866 	300.0000000000402 	1.62517681030534e-11 	101325.0000000119
0.9396896896896891 	300.0000000000259 	2.98869018033781e-11 	101325.0000000067
0.9421921921921914 	300.0000000000098 	3.957825872525046e-11 	101325.0000000031
0.9446946946946939 	299.99999999992 	4.347605736369025e-11 	101325.0000000008
0.9471971971971965 	299.999999999815 	5.265411423310449e-11 	101324.999999999
0.9496996996996991 	299.9999999999216 	5.026607550355323e-11 	101324.9999999982
0.9522022022022016 	299.9999999999625 	5.563122184261132e-11 	101324.9999999974
0.9547047047047038 	299.9999999999501 	5.36885679896537e-11 	101324.999999997
0.9572072072072064 	299.999999999901 	5.642354124487457e-11 	101324.999999997
0.9597097097097093 	299.9999999999054 	5.549648762622602e-11 	101324.9999999969
0.9622122122122114 	299.9999999999052 	5.55177797890569e-11 	101324.9999999971
0.964714714714714 	299.9999999998811 	5.759839883244129e-11 	101324.9999999972
0.9672172172172167 	299.9999999998807 	5.543910449150811e-11 	101324.9999999971
0.969719719719719 	299.9999999999577 	5.715456445872816e-11 	101324.9999999972
0.9722222222222214 	299.9999999999474 	5.652356290148699e-11 	101324.9999999974
0.9747247247247239 	299.9999999999451 	5.708931667323845e-11 	101324.9999999972
0.9772272272272267 	300.0000000000363 	5.759314896912406e-11 	101324.9999999971
0.9797297297297292 	299.9999999999759 	5.702334953190291e-11 	101324.9999999967
0.9822322322322313 	299.9999999999634 	5.936437498230176e-11 	101324.9999999965
0.9847347347347344 	299.9999999999611 	5.602599865001013e-11 	101324.9999999966
0.9872372372372363 	299.9999999998378 	6.213472050758007e-11 	101324.9999999966
0.9897397397397389 	299.9999999998903 	5.7288274133238e-11 	101324.9999999964
0.9922422422422417 	299.9999999998593 	6.247404563366513e-11 	101324.9999999963
0.9947447447447441 	299.9999999999225 	5.954647610351102e-11 	101324.9999999962
0.9972472472472468 	299.999999999937 	6.213710720843378e-11 	101324.9999999962
0.999749749749749 	299.9999999999162 	6.032483348005302e-11 	101324.9999999962
1.002252252252252 	299.9999999999374 	6.095388826935728e-11 	101324.9999999962
1.004754754754754 	299.9999999999935 	6.037091374329634e-11 	101324.9999999965
1.007257257257256 	299.9999999999254 	5.847277474687013e-11 	101324.9999999966
1.009759759759759 	299.9999999998845 	6.311257416202274e-11 	101324.9999999966
1.012262262262261 	299.9999999999002 	5.901215823263322e-11 	101324.9999999965
1.014764764764764 	299.9999999998263 	6.26903694427026e-11 	101324.9999999966
1.017267267267267 	299.9999999997882 	5.994107141913063e-11 	101324.9999999964
1.019769769769769 	299.9999999998902 	6.229754309009129e-11 	101324.9999999963
1.022272272272272 	299.9999999999417 	6.174444801520922e-11 	101324.9999999962
1.024774774774774 	299.9999999999757 	6.236495097591478e-11 	101324.9999999961
1.027277277277277 	299.999999999965 	6.367709251310149e-11 	101324.9999999963
1.029779779779779 	300.0000000000362 	6.056969329596771e-11 	101324.9999999966
1.032282282282282 	300.0000000000361 	6.188375805540675e-11 	101324.9999999969
1.034784784784784 	300.0000000000073 	6.027509791317643e-11 	101324.9999999969
1.037287287287286 	299.9999999999246 	6.099361619502686e-11 	101324.9999999971
1.039789789789789 	299.9999999999319 	6.069410576694238e-11 	101324.9999999971
1.042292292292291 	300.0000000000242 	6.129310697195025e-11 	101324.9999999971
1.044794794794794 	300.0000000000808 	6.233789327731025e-11 	101324.999999997
1.047297297297296 	300.0000000001314 	5.98588041709193e-11 	101324.9999999968
1.049799799799799 	299.9999999999948 	6.453319142604936e-11 	101324.9999999967
1.052302302302302 	299.9999999998781 	6.028432411111138e-11 	101324.9999999967
1.054804804804804 	299.9999999998194 	6.474733225357702e-11 	101324.9999999968
1.057307307307306 	299.9999999998008 	6.174132265159696e-11 	101324.9999999969
1.059809809809809 	299.9999999999052 	6.355447110857082e-11 	101324.9999999972
1.062312312312312 	299.9999999998865 	6.137165755257473e-11 	101324.9999999973
1.064814814814814 	299.9999999998693 	6.237624787489235e-11 	101324.9999999974
1.067317317317317 	299.9999999998121 	6.158260225702988e-11 	101324.9999999975
1.069819819819819 	299.9999999998155 	6.039466584600505e-11 	101324.9999999975
1.072322322322321 	299.9999999999803 	6.306940726696659e-11 	101324.9999999977
1.074824824824824 	300.0000000000319 	5.877269161308335e-11 	101324.999999998
1.077327327327327 	300.0000000000905 	6.139643033696039e-11 	101324.999999998
1.079829829829829 	300.0000000001324 	5.954686775628446e-11 	101324.9999999979
1.082332332332332 	300.000000000025 	6.148165034167845e-11 	101324.9999999979
1.084834834834834 	299.99999999994 	6.083568432548547e-11 	101324.999999998
1.087337337337337 	299.9999999998402 	6.044119956600513e-11 	101324.9999999979
1.089839839839839 	299.9999999997935 	6.349542813185551e-11 	101324.9999999975
1.092342342342342 	299.9999999998835 	6.061023695986081e-11 	101324.9999999972
1.094844844844844 	299.9999999998794 	6.395635375082095e-11 	101324.999999997
1.097347347347347 	299.9999999998099 	6.049385559773069e-11 	101324.9999999969
1.099849849849849 	299.9999999997829 	6.643593959143642e-11 	101324.9999999968
1.102352352352352 	299.9999999998666 	6.152166586771869e-11 	101324.9999999968
1.104854854854854 	299.999999999936 	6.62945867552682e-11 	101324.9999999971
1.107357357357357 	299.9999999998951 	6.272040622151545e-11 	101324.9999999974
1.109859859859859 	299.9999999998698 	6.570560934154214e-11 	101324.9999999975
1.112362362362362 	300.0000000000416 	6.319622132362713e-11 	101324.9999999974
1.114864864864865 	300.0000000000383 	6.438218575076141e-11 	101324.9999999975
1.117367367367367 	299.9999999999021 	6.571035117947116e-11 	101324.9999999976
1.119869869869869 	299.9999999998079 	6.264429389267635e-11 	101324.9999999978
1.122372372372372 	299.9999999999071 	6.520770263189318e-11 	101324.9999999982
1.124874874874874 	299.9999999998944 	6.305641175962374e-11 	101324.9999999981
1.127377377377377 	299.9999999999169 	6.460920422128622e-11 	101324.9999999981
1.129879879879879 	300.0000000000566 	6.285549594036913e-11 	101324.9999999982
1.132382382382382 	300.0000000001053 	6.402970499454711e-11 	101324.9999999983
1.134884884884884 	300.0000000000389 	6.35709252370401e-11 	101324.9999999987
1.137387387387387 	300.0000000000534 	6.340642152423242e-11 	101324.9999999986
1.139889889889889 	299.9999999999029 	6.659588813228475e-11 	101324.9999999983
1.142392392392392 	299.9999999998736 	6.357416287319241e-11 	101324.9999999982
1.144894894894894 	300.0000000000522 	6.676990829363727e-11 	101324.999999998
1.147397397397397 	300.0000000000003 	6.426055249394467e-11 	101324.9999999977
1.149899899899899 	299.9999999998402 	6.691118450576116e-11 	101324.9999999975
1.152402402402402 	299.9999999998058 	6.535740863337336e-11 	101324.9999999977
1.154904904904904 	299.9999999999028 	6.675691610693751e-11 	101324.999999998
1.157407407407407 	299.9999999999026 	6.453230321211356e-11 	101324.9999999982
1.159909909909909 	299.9999999998145 	6.347120838802912e-11 	101324.9999999985
1.162412412412412 	299.9999999997968 	6.558457111491243e-11 	101324.9999999987
1.164914914914914 	299.9999999998901 	6.234731908373364e-11 	101324.999999999
1.167417417417417 	299.9999999999127 	6.557057846692635e-11 	101324.9999999992
1.169919919919919 	300.0000000000469 	6.343127869506972e-11 	101324.9999999992
1.172422422422422 	300.0000000001341 	6.575783054434421e-11 	101324.9999999991
1.174924924924925 	299.9999999999948 	6.342169218653385e-11 	101324.9999999988
1.177427427427427 	299.9999999999145 	6.430282074767002e-11 	101324.9999999986
1.179929929929929 	300.000000000056 	6.633057160455897e-11 	101324.9999999986
1.182432432432432 	300.0000000001291 	6.382872175697567e-11 	101324.9999999985
1.184934934934934 	300.0000000000202 	6.63787823575949e-11 	101324.9999999985
1.187437437437437 	299.9999999999146 	6.37429116932762e-11 	101324.9999999988
1.189939939939939 	299.9999999998823 	6.600167511922978e-11 	101324.9999999988
1.192442442442442 	299.9999999998126 	6.484050994318425e-11 	101324.9999999985
1.194944944944944 	299.9999999998327 	6.740183173491027e-11 	101324.9999999983
1.197447447447447 	299.9999999999934 	6.595330559158749e-11 	101324.9999999984
1.199949949949949 	300.0000000000467 	6.589372370764723e-11 	101324.9999999984
1.202452452452452 	299.999999999894 	6.858305827649937e-11 	101324.9999999981
1.204954954954955 	299.9999999998703 	6.632904501822808e-11 	101324.9999999979
1.207457457457457 	299.9999999999529 	6.908760538257005e-11 	101324.999999998
1.20995995995996 	299.9999999999483 	6.670964095292305e-11 	101324.9999999981
1.212462462462462 	299.9999999999699 	6.880508446467109e-11 	101324.9999999981
1.214964964964964 	299.9999999999654 	6.647829032847429e-11 	101324.9999999981
1.217467467467467 	299.9999999999829 	6.850083513191519e-11 	101324.9999999982
1.219969969969969 	299.9999999999125 	6.649651479181173e-11 	101324.9999999983
1.222472472472472 	300.0000000000207 	6.671015122837048e-11 	101324.9999999985
1.224974974974975 	300.0000000001289 	6.777555286969603e-11 	101324.9999999987
1.227477477477477 	299.9999999999856 	6.462191682159409e-11 	101324.9999999989
1.229979979979979 	299.9999999999508 	6.712538992324358e-11 	101324.9999999992
1.232482482482482 	299.999999999878 	6.468706739105577e-11 	101324.9999999993
1.234984984984984 	299.9999999998802 	6.740659127098898e-11 	101324.9999999994
1.237487487487487 	299.999999999957 	6.469422092688813e-11 	101324.9999999994
1.239989989989989 	299.9999999999681 	6.609372248491607e-11 	101324.9999999996
1.242492492492492 	300.0000000000604 	6.693399174697561e-11 	101324.9999999994
1.244994994994994 	299.9999999999703 	6.439344630152993e-11 	101324.9999999994
1.247497497497497 	299.9999999999818 	6.69281974129227e-11 	101324.9999999994
1.249999999999999 	300.0000000007749 	6.541191423930957e-11 	101324.9999999994
