-1.25 	300 	0.120399904035802 	101275.8856374636
-1.247497497497497 	299.9572781036298 	0.1199348330473593 	101276.0127989243
-1.244994994994995 	299.9586585985076 	0.1196146748179675 	101276.153769098
-1.242492492492492 	299.9588020786222 	0.1194250034651511 	101276.3036512583
-1.23998998998999 	299.9589356667705 	0.1189348039971709 	101276.4624030642
-1.237487487487487 	299.9590774778454 	0.1185627668595693 	101276.6300263104
-1.234984984984985 	299.959226929891 	0.1181283284714989 	101276.8066582616
-1.232482482482482 	299.9593841276142 	0.1176715354293484 	101276.9924434944
-1.22997997997998 	299.9595487922192 	0.117195285105344 	101277.1870538078
-1.227477477477477 	299.9597206794905 	0.1166999491556919 	101277.3902006641
-1.224974974974975 	299.9598998248712 	0.1161816577700158 	101277.6019253796
-1.222472472472472 	299.9600863123557 	0.1156398593872857 	101277.8223266999
-1.21996996996997 	299.9602802683042 	0.1150739479102951 	101278.0515542962
-1.217467467467467 	299.9604815563212 	0.1144865986774888 	101278.2894471661
-1.214964964964965 	299.9606899490922 	0.1138854511003421 	101278.5357378209
-1.212462462462462 	299.9609056651669 	0.1132622302843393 	101278.7906833358
-1.20995995995996 	299.9611290393109 	0.1126161920099513 	101279.0546791399
-1.207457457457457 	299.961359803318 	0.11194702555609 	101279.3274087434
-1.204954954954955 	299.9615974795968 	0.1112570085445989 	101279.6083081169
-1.202452452452452 	299.9618418371438 	0.1105526283996588 	101279.8971051381
-1.19994994994995 	299.9620929809184 	0.109825935469991 	101280.1939219679
-1.197447447447447 	299.9623513490045 	0.1090769632510691 	101280.4992765132
-1.194944944944945 	299.9626168102828 	0.1083047153786435 	101280.8130147227
-1.192442442442442 	299.9628888711998 	0.1075118298766434 	101281.1345532102
-1.18993993993994 	299.9631676154557 	0.1067058414104948 	101281.4639918417
-1.187437437437437 	299.9634534216551 	0.1058796411316059 	101281.8017770952
-1.184934934934935 	299.9637464723937 	0.1050328325200428 	101282.1481244708
-1.182432432432432 	299.96404637285 	0.1041658351440757 	101282.5025678206
-1.17992992992993 	299.9643524559535 	0.1032781533272746 	101282.8643190218
-1.177427427427427 	299.9646646391955 	0.1023732328436283 	101283.2332811075
-1.174924924924925 	299.9649834986431 	0.1014496956343432 	101283.6101341857
-1.172422422422422 	299.965309083341 	0.1005076741629294 	101283.99493556
-1.16991991991992 	299.9656408318312 	0.09954557996217284 	101284.3870215309
-1.167417417417417 	299.9659787063694 	0.09856420316256187 	101284.7863494207
-1.164914914914915 	299.9663228958129 	0.09756578926223397 	101285.1931446435
-1.162412412412412 	299.9666735327003 	0.09655013604809233 	101285.6075620442
-1.15990990990991 	299.9670307885751 	0.09551825098004661 	101286.0298011309
-1.157407407407407 	299.9673940079024 	0.0944670710391001 	101286.4590851922
-1.154904904904904 	299.9677626855105 	0.09339703218285315 	101286.8948190824
-1.152402402402403 	299.9681374316145 	0.09231076920461635 	101287.3377294454
-1.1498998998999 	299.9685181960531 	0.09120808901428348 	101287.7877602157
-1.147397397397397 	299.9689044826797 	0.09008993540586407 	101288.2443233877
-1.144894894894895 	299.9692964452449 	0.08895424540316216 	101288.7075957386
-1.142392392392392 	299.9696940084377 	0.0878008372281387 	101289.1774833667
-1.13988988988989 	299.9700972016537 	0.08663105522704012 	101289.6540186124
-1.137387387387387 	299.9705063929147 	0.08544630421369603 	101290.1376385591
-1.134884884884885 	299.9709211529708 	0.0842469478336111 	101290.627839859
-1.132382382382382 	299.9713410068238 	0.08303043975050839 	101291.12406275
-1.12987987987988 	299.9717659806283 	0.0817989068359142 	101291.6263403564
-1.127377377377377 	299.9721961462255 	0.08055129700163469 	101292.1347589462
-1.124874874874875 	299.9726314094262 	0.07928931616254821 	101292.6492066137
-1.122372372372372 	299.9730714332513 	0.07801708924838049 	101293.1692855583
-1.11986986986987 	299.9735160564658 	0.07672889775436667 	101293.6948046992
-1.117367367367367 	299.9739661027955 	0.07542424964625519 	101294.2267361102
-1.114864864864865 	299.9744213266342 	0.07410289577428696 	101294.7647890285
-1.112362362362362 	299.9748808305508 	0.07276921381151305 	101295.3079034562
-1.10985985985986 	299.9753451157866 	0.07142749655702853 	101295.8566725163
-1.107357357357357 	299.9758146738292 	0.07006983142833788 	101296.4116753034
-1.104854854854855 	299.9762880882793 	0.0686981766370801 	101296.9712375841
-1.102352352352353 	299.9767651533472 	0.06731263743985 	101297.5351172086
-1.09984984984985 	299.9772468719466 	0.06591499975819469 	101298.1044997927
-1.097347347347347 	299.9777332156165 	0.06450994537285148 	101298.6793515262
-1.094844844844845 	299.9782230146457 	0.0630924418951148 	101299.2582888926
-1.092342342342342 	299.9787163442837 	0.06166312800013578 	101299.8414019138
-1.08983983983984 	299.9792140951489 	0.06021875179308486 	101300.4297438424
-1.087337337337337 	299.9797167655203 	0.05876088077531624 	101301.0239024943
-1.084834834834835 	299.9802232156304 	0.05729639007234195 	101301.6225306891
-1.082332332332332 	299.980732281415 	0.05582245964752062 	101302.2242527683
-1.07982982982983 	299.9812443960436 	0.05433885300404916 	101302.8295813704
-1.077327327327327 	299.9817604575696 	0.05284367185779747 	101303.4395783086
-1.074824824824825 	299.9822802136723 	0.05133706097883625 	101304.0539447347
-1.072322322322323 	299.9828033008919 	0.04982231114414368 	101304.6722508096
-1.06981981981982 	299.983329440925 	0.04829901663656876 	101305.2941676187
-1.067317317317317 	299.9838581183623 	0.0467680946796063 	101305.9190865962
-1.064814814814815 	299.9843892457208 	0.04522861354480763 	101306.5469042089
-1.062312312312312 	299.9849232116344 	0.04368045870324284 	101307.1780802036
-1.05980980980981 	299.985460681748 	0.04212261023811864 	101307.8134016905
-1.057307307307307 	299.9860024416277 	0.04055347048022884 	101308.4537962019
-1.054804804804805 	299.9865477167153 	0.03897624858783189 	101309.0983476585
-1.052302302302302 	299.9870939311085 	0.03739425078147973 	101309.7440112735
-1.0497997997998 	299.987639661955 	0.03581208618641502 	101310.3891059012
-1.047297297297297 	299.9881858961567 	0.03422902198772537 	101311.0347996904
-1.044794794794795 	299.9887351887699 	0.03263713339512033 	101311.6841135815
-1.042292292292292 	299.9892902540197 	0.03103005692439842 	101312.3402552552
-1.03978978978979 	299.9898512406722 	0.02940598000935808 	101313.0033986053
-1.037287287287287 	299.9904144430618 	0.02777391270641698 	101313.6691609829
-1.034784784784785 	299.9909760737744 	0.02614630261326733 	101314.3330655432
-1.032282282282283 	299.9915344956189 	0.02452892776712135 	101314.9931806476
-1.02977977977978 	299.9920908514065 	0.02291708889662337 	101315.6508598813
-1.027277277277277 	299.9926487344575 	0.02129919250473069 	101316.3103491672
-1.024774774774775 	299.9932117450043 	0.01966819534964043 	101316.9759029651
-1.022272272272272 	299.993780674649 	0.01801975665943134 	101317.6484573272
-1.01976976976977 	299.9943552642775 	0.01635738180481625 	101318.3277058332
-1.017267267267267 	299.9949325568478 	0.01468905476748249 	101319.0101512216
-1.014764764764765 	299.995508278512 	0.01301941908260978 	101319.6907385705
-1.012262262262262 	299.996080403885 	0.01135922434276138 	101320.3670743555
-1.00975975975976 	299.9966491434736 	0.009710874259336439 	101321.0394140401
-1.007257257257257 	299.9972136254934 	0.00807291779893906 	101321.7067279295
-1.004754754754755 	299.9977770981665 	0.00644254994814244 	101322.3728512535
-1.002252252252252 	299.9983417234904 	0.004807978085984449 	101323.0403366464
-0.9997497497497498 	299.9989088035152 	0.003163763941467339 	101323.7107281277
-0.9972472472472473 	299.9994810403384 	0.00150666244728762 	101324.3872257006
-0.9947447447447449 	300.0000579266165 	0.0008341583277205988 	101325.0692261082
-0.9922422422422421 	300.0006360352106 	0.001836229045209739 	101325.7526690036
-0.9897397397397399 	300.0012132106835 	0.003508014613680038 	101326.4350020759
-0.9872372372372376 	300.0017890968001 	0.005176271933619724 	101327.1158108289
-0.9847347347347346 	300.0023637924873 	0.00684113544832405 	101327.7952236304
-0.9822322322322323 	300.0029374318272 	0.008502965140920258 	101328.4734024447
-0.9797297297297296 	300.0035101159443 	0.01016202063631952 	101329.1504568338
-0.9772272272272275 	300.0040818952728 	0.01181841472550957 	101329.8264328164
-0.9747247247247248 	300.0046527639886 	0.01347212722786725 	101330.5013214031
-0.9722222222222224 	300.0052226690859 	0.01512303782208744 	101331.1750724213
-0.9697197197197196 	300.0057915312843 	0.01677095744432489 	101331.8476075817
-0.9672172172172175 	300.0063592664375 	0.0184156516924578 	101332.5188306784
-0.9647147147147147 	300.0069257948555 	0.02005685924285186 	101333.1886347
-0.9622122122122124 	300.0074910358579 	0.02169430334472586 	101333.8569063622
-0.9597097097097099 	300.0080548972038 	0.02332769795728998 	101334.5235288783
-0.9572072072072073 	300.0086172704229 	0.02495675238584313 	101335.1883835417
-0.9547047047047047 	300.0091780384556 	0.02658117344912307 	101335.8513506321
-0.9522022022022023 	300.0097370877124 	0.02820066658367474 	101336.5123100184
-0.9496996996996998 	300.0102943172902 	0.02981493750839094 	101337.1711414825
-0.9471971971971973 	300.0108496382467 	0.03142369202453074 	101337.8277249178
-0.9446946946946947 	300.0114029649434 	0.03302663596839935 	101338.4819404653
-0.9421921921921923 	300.0119542055986 	0.03462347671999038 	101339.1336685074
-0.93968968968969 	300.0125032564926 	0.03621392230628071 	101339.7827897336
-0.9371871871871872 	300.0130500047156 	0.03779768101075207 	101340.4291852675
-0.9346846846846848 	300.0135943357578 	0.03937446284579767 	101341.0727366806
-0.9321821821821823 	300.0141361402518 	0.04094397917610049 	101341.7133260561
-0.9296796796796799 	300.0146753177343 	0.04250594228796316 	101342.3508360274
-0.9271771771771771 	300.0152117759561 	0.04406006603934108 	101342.9851497127
-0.9246746746746748 	300.01574542802 	0.04560606556376554 	101343.6161507967
-0.9221721721721724 	300.0162761882897 	0.04714365726317835 	101344.2437235818
-0.9196696696696698 	300.0168039675696 	0.04867255945352181 	101344.8677529406
-0.9171671671671672 	300.0173286716042 	0.05019249176001503 	101345.4881244188
-0.9146646646646649 	300.0178502014231 	0.05170317552349933 	101346.1047242457
-0.9121621621621623 	300.0183684555092 	0.05320433406738179 	101346.7174392854
-0.9096596596596597 	300.0188833327306 	0.05469569193067297 	101347.3261571723
-0.9071571571571573 	300.0193947333296 	0.05617697568414222 	101347.9307662734
-0.9046546546546547 	300.0199025595243 	0.05764791396335876 	101348.5311556112
-0.9021521521521524 	300.0204067157268 	0.05910823680793255 	101349.1272150759
-0.8996496496496498 	300.0209071086927 	0.06055767667447703 	101349.7188354302
-0.8971471471471473 	300.0214036467459 	0.06199596826061041 	101350.3059081679
-0.894644644644645 	300.02189623934 	0.06342284760371465 	101350.8883256289
-0.892142142142142 	300.0223847972409 	0.06483805308194099 	101351.4659809698
-0.8896396396396397 	300.0228692318137 	0.06624132537330743 	101352.0387681279
-0.8871371371371374 	300.0233494551449 	0.06763240696370428 	101352.6065820535
-0.8846346346346349 	300.0238253802564 	0.06901104286771242 	101353.1693185795
-0.8821321321321324 	300.0242969202479 	0.07037698005486542 	101353.726874224
-0.8796296296296297 	300.0247639891293 	0.07172996744871499 	101354.279146542
-0.8771271271271271 	300.0252265015548 	0.07306975692779892 	101354.8260341955
-0.8746246246246248 	300.0256843729684 	0.07439610288646557 	101355.3674367217
-0.8721221221221224 	300.0261375195416 	0.07570876187259244 	101355.9032547512
-0.8696196196196196 	300.0265858582535 	0.07700749338463547 	101356.4333900255
-0.8671171171171175 	300.027029307046 	0.07829205909207351 	101356.9577451223
-0.8646146146146148 	300.0274677843871 	0.07956222329414925 	101357.4762237627
-0.8621121121121121 	300.0279012102128 	0.08081775348365189 	101357.9887309653
-0.8596096096096097 	300.0283295050712 	0.08205841940728954 	101358.4951726752
-0.857107107107107 	300.0287525901845 	0.08328399379768335 	101358.9954559618
-0.8546046046046049 	300.0291703884755 	0.08449425243206389 	101359.4894892661
-0.8521021021021022 	300.0295828231938 	0.085688972921431 	101359.9771819317
-0.8495995995995997 	300.0299898185223 	0.08686793590078883 	101360.4584442691
-0.8470970970970974 	300.0303913000317 	0.08803092557669229 	101360.9331881312
-0.8445945945945946 	300.0307871942948 	0.08917772864568467 	101361.4013266394
-0.8420920920920922 	300.0311774288452 	0.09030813500566291 	101361.8627738649
-0.8395895895895897 	300.0315619318901 	0.09142193799601145 	101362.3174451847
-0.8370870870870872 	300.0319406330057 	0.09251893325398104 	101362.7652570981
-0.8345845845845846 	300.0323134623619 	0.09359891938913931 	101363.2061269105
-0.8320820820820823 	300.0326803511928 	0.09466169856500235 	101363.639973403
-0.8295795795795798 	300.0330412326676 	0.09570707629265644 	101364.0667172406
-0.8270770770770772 	300.0333960407059 	0.09673486103594414 	101364.4862803688
-0.8245745745745746 	300.0337447103179 	0.0977448637002233 	101364.8985858622
-0.8220720720720721 	300.0340871778304 	0.09873689832154948 	101365.3035583311
-0.8195695695695699 	300.0344233806009 	0.09971078259368298 	101365.7011236635
-0.817067067067067 	300.0347532567259 	0.1006663372239356 	101366.0912085876
-0.8145645645645651 	300.035076745268 	0.1016033867496758 	101366.4737410361
-0.8120620620620621 	300.0353937869357 	0.1025217599501633 	101366.8486506566
-0.8095595595595597 	300.0357043234249 	0.1034212883112583 	101367.2158686039
-0.8070570570570572 	300.0360082975144 	0.1043018063427507 	101367.5753272639
-0.8045545545545546 	300.036305653749 	0.105163152656966 	101367.926960717
-0.8020520520520523 	300.0365963378737 	0.106005170217969 	101368.2707048814
-0.7995495495495494 	300.0368802963723 	0.1068277056484916 	101368.6064963941
-0.7970470470470474 	300.037157475988 	0.1076306075371919 	101368.9342722655
-0.7945445445445446 	300.0374278252799 	0.1084137278650776 	101369.2539716242
-0.7920420420420423 	300.0376912951386 	0.1091769231716434 	101369.5655362506
-0.7895395395395397 	300.0379478368456 	0.1099200516696116 	101369.8689086026
-0.7870370370370371 	300.0381974026602 	0.1106429744175322 	101370.1640320717
-0.7845345345345348 	300.0384399477985 	0.1113455601138893 	101370.4508536575
-0.7820320320320323 	300.0386754292412 	0.1120276810151875 	101370.7293224832
-0.7795295295295296 	300.0389038027476 	0.1126892079205406 	101370.999386184
-0.7770270270270272 	300.0391250251708 	0.1133300165595859 	101371.2609936783
-0.7745245245245247 	300.0393390577881 	0.1139499935578854 	101371.5140989452
-0.7720220220220222 	300.0395458617359 	0.114549027841518 	101371.7586561809
-0.7695195195195199 	300.0397453955436 	0.1151270048789537 	101371.9946163428
-0.767017017017017 	300.0399376217238 	0.1156838186220526 	101372.2219348847
-0.7645145145145147 	300.0401225086915 	0.1162193754419657 	101372.4405745647
-0.7620120120120122 	300.0403000222149 	0.1167335753757984 	101372.6504947325
-0.7595095095095097 	300.0404701239433 	0.1172263108185523 	101372.8516501592
-0.7570070070070072 	300.0406327839987 	0.1176974915213467 	101373.0440053946
-0.7545045045045048 	300.0407879797538 	0.1181470424145753 	101373.2275336014
-0.7520020020020022 	300.0409356800879 	0.1185748735972066 	101373.402198091
-0.7494994994994997 	300.0410758492505 	0.1189808895963088 	101373.5679560965
-0.7469969969969972 	300.0412084647382 	0.1193650262873215 	101373.7247813798
-0.7444944944944945 	300.0413335119496 	0.1197272353128903 	101373.8726567548
-0.7419919919919924 	300.0414509609697 	0.1200674366954925 	101374.0115467728
-0.7394894894894897 	300.0415607768876 	0.1203855413596077 	101374.1414100714
-0.7369869869869872 	300.0416629487971 	0.120681508493518 	101374.2622332678
-0.7344844844844846 	300.0417574742014 	0.1209553129524728 	101374.374013692
-0.7319819819819822 	300.0418443243808 	0.1212068757148342 	101374.476717356
-0.7294794794794797 	300.0419234620445 	0.1214361080124512 	101374.5703006252
-0.7269769769769773 	300.0419948858291 	0.1216429989737334 	101374.6547617466
-0.7244744744744747 	300.0420586079507 	0.1218275635924568 	101374.730114741
-0.721971971971972 	300.042114599982 	0.1219897323373738 	101374.7963257536
-0.7194694694694695 	300.0421628182386 	0.1221294078378348 	101374.8533430313
-0.7169669669669674 	300.0422032713865 	0.1222466041713558 	101374.9011774677
-0.7144644644644647 	300.0422359957215 	0.1223413870736798 	101374.9398722034
-0.711961961961962 	300.042260968739 	0.1224136962134114 	101374.9694004842
-0.7094594594594597 	300.0422781296637 	0.1224634000468493 	101374.9896901807
-0.7069569569569573 	300.0422874870619 	0.1224905218851409 	101375.0007507483
-0.7044544544544545 	300.0422891091503 	0.12249520648295 	101375.0026624109
-0.7019519519519523 	300.0422829901662 	0.1224774372727752 	101374.995419725
-0.6994494494494495 	300.042269042252 	0.1224370257508385 	101374.9789196867
-0.6969469469469471 	300.0422472539037 	0.1223739526869878 	101374.9531478301
-0.6944444444444446 	300.0422177337211 	0.1222884568664468 	101374.9182324673
-0.6919419419419421 	300.0421805340804 	0.1221806445444415 	101374.8742349032
-0.6894394394394396 	300.0421355469459 	0.1220502802991182 	101374.821027168
-0.6869369369369374 	300.0420826893021 	0.1218972011561729 	101374.7585109277
-0.6844344344344344 	300.0420220808164 	0.1217216895405783 	101374.6868284757
-0.6819319319319321 	300.0419538781546 	0.1215240885982607 	101374.6061657814
-0.6794294294294296 	300.0418780082967 	0.1213042261310957 	101374.5164366177
-0.6769269269269272 	300.0417942757302 	0.1210616802067531 	101374.4174097361
-0.6744244244244245 	300.0417027196206 	0.1207965694675438 	101374.3091309654
-0.6719219219219222 	300.0416036198116 	0.1205095345274338 	101374.191930703
-0.6694194194194195 	300.0414970750649 	0.1202007844430812 	101374.0659249729
-0.6669169169169172 	300.0413828206053 	0.1198697217880745 	101373.9308007552
-0.6644144144144146 	300.0412606504778 	0.1195159163799174 	101373.7863154086
-0.661911911911912 	300.0411308230202 	0.1191399936800824 	101373.6327752546
-0.6594094094094097 	300.0409937504861 	0.1187428938912391 	101373.4706683022
-0.656906906906907 	300.0408493703227 	0.1183244535310015 	101373.2999205251
-0.6544044044044046 	300.0406971942338 	0.1178835670348303 	101373.1199541296
-0.6519019019019021 	300.0405370736348 	0.1174199509609381 	101372.9305933421
-0.6493993993993996 	300.040369556076 	0.1169349099748699 	101372.7324852615
-0.6468968968968971 	300.0401951857739 	0.1164296851314355 	101372.526272684
-0.6443943943943946 	300.040013683793 	0.1159035942871128 	101372.3116250188
-0.6418918918918921 	300.0398242774449 	0.1153548642964905 	101372.0876285084
-0.6393893893893897 	300.0396268570916 	0.1147833249789317 	101371.8541545384
-0.6368868868868871 	300.039422322275 	0.1141911397406429 	101371.6122677016
-0.6343843843843846 	300.0392114630293 	0.1135801346255293 	101371.3629021604
-0.6318818818818821 	300.0389938148887 	0.1129491602986239 	101371.1055085574
-0.6293793793793795 	300.0387681697725 	0.112295385091219 	101370.838658562
-0.6268768768768773 	300.0385342527001 	0.1116182681818154 	101370.5620275149
-0.6243743743743745 	300.0382932901901 	0.1109209259215675 	101370.2771233074
-0.6218718718718721 	300.038046718873 	0.110206560840014 	101369.9855494511
-0.6193693693693696 	300.0377941950501 	0.1094741968808896 	101369.6868643515
-0.6168668668668671 	300.0375338070812 	0.1087194581658378 	101369.3789151225
-0.6143643643643645 	300.03726458025 	0.1079400818479341 	101369.0605325922
-0.6118618618618621 	300.0369878832113 	0.107139476097724 	101368.7333187525
-0.6093593593593596 	300.0367060778462 	0.1063233697464516 	101368.4000659476
-0.6068568568568571 	300.0364197121708 	0.1054929803826323 	101368.0614205097
-0.6043543543543546 	300.0361266148568 	0.1046429386498447 	101367.7148135942
-0.6018518518518521 	300.0358242667347 	0.1037671721895493 	101367.3572671163
-0.5993493493493496 	300.0355129116844 	0.1028664685595472 	101366.9890718746
-0.5968468468468471 	300.0351957216731 	0.1019487330523477 	101366.613979525
-0.5943443443443446 	300.0348754951707 	0.1010207901368848 	101366.2352978095
-0.591841841841842 	300.0345513992232 	0.1000804235208379 	101365.852039427
-0.5893393393393397 	300.0342195176996 	0.09911788101134533 	101365.4595728611
-0.5868368368368371 	300.0338769551892 	0.09812611761058881 	101365.0544765244
-0.5843343343343346 	300.0335252552558 	0.09710920344301013 	101364.6385787714
-0.5818318318318321 	300.0331693185182 	0.09607947347263029 	101364.2176751036
-0.5793293293293297 	300.0328125945139 	0.0950454556842357 	101363.7958420145
-0.5768268268268271 	300.0324533394074 	0.09400258310667742 	101363.3710139714
-0.5743243243243245 	300.0320859193446 	0.09293661571910902 	101362.9365285205
-0.5718218218218221 	300.0317062060788 	0.09183729477961823 	101362.4875072416
-0.5693193193193196 	300.0313159395055 	0.09070927600174947 	101362.026011436
-0.5668168168168171 	300.0309216749091 	0.08956932152905576 	101361.5597940196
-0.5643143143143147 	300.030528983437 	0.0884315137558311 	101361.0954395853
-0.5618118118118121 	300.0301371442915 	0.0872938079505408 	101360.6320910697
-0.5593093093093094 	300.0297393152919 	0.08613858959765622 	101360.1616560503
-0.5568068068068072 	300.0293283104326 	0.08494753495355402 	101359.6756398842
-0.5543043043043046 	300.0289030742704 	0.08371818338698486 	101359.1727998005
-0.551801801801802 	300.0284701763057 	0.08246766697211518 	101358.6609077
-0.5492992992992995 	300.0280388067961 	0.08121973417928036 	101358.1508291887
-0.5467967967967969 	300.0276132709114 	0.07998537029702596 	101357.6476498308
-0.5442942942942947 	300.0271891483625 	0.07875291348755638 	101357.1461377263
-0.5417917917917919 	300.0267563466563 	0.07749605293720184 	101356.6343582725
-0.5392892892892895 	300.0263067997971 	0.07619389861662437 	101356.1027782148
-0.536786786786787 	300.025840932218 	0.07484780402236971 	101355.5519058679
-0.5342842842842846 	300.0253679131254 	0.07348196012407063 	101354.9925872571
-0.531781781781782 	300.0248993768345 	0.07212691687795401 	101354.4385773491
-0.5292792792792794 	300.0244411306072 	0.0707978254064465 	101353.8967365683
-0.526776776776777 	300.0239887934803 	0.06948296653585756 	101353.3618783745
-0.5242742742742745 	300.0235304227172 	0.06815068826454296 	101352.8198792379
-0.521771771771772 	300.0230543356911 	0.06677011405383056 	101352.2569292558
-0.5192692692692695 	300.0225569344792 	0.0653318833847872 	101351.6687816943
-0.516766766766767 	300.0220454427857 	0.06385539791754409 	101351.0639839104
-0.5142642642642645 	300.0215338026121 	0.06237790720366831 	101350.45902263
-0.511761761761762 	300.0210343386099 	0.06093230971564682 	101349.8684658501
-0.5092592592592596 	300.0205503425174 	0.059527325761951 	101349.2961980481
-0.506756756756757 	300.0200739528742 	0.05814174819749988 	101348.7329176553
-0.5042542542542544 	300.0195903843268 	0.05673574747217176 	101348.161140993
-0.5017517517517521 	300.0190859704999 	0.05527253091821467 	101347.5647135827
-0.4992492492492494 	300.0185556012083 	0.05373843043739254 	101346.9376010885
-0.496746746746747 	300.0180056676664 	0.05215088159598334 	101346.2873676384
-0.4942442442442445 	300.0174510998241 	0.05055044385192933 	101345.6316690661
-0.4917417417417421 	300.0169081541914 	0.04898130687016077 	101344.9897238731
-0.4892392392392395 	300.0163866708334 	0.04747025978762112 	101344.3731597168
-0.486736736736737 	300.0158855091285 	0.04601416303875838 	101343.7806200204
-0.4842342342342345 	300.0153930340414 	0.04458113836383152 	101343.1983426508
-0.481731731731732 	300.0148920888869 	0.04312410038361075 	101342.6060413946
-0.4792292292292296 	300.0143670859043 	0.04160023111936133 	101341.9852907544
-0.4767267267267268 	300.0138102838272 	0.0399882938344247 	101341.3269453036
-0.4742242242242246 	300.0132248915624 	0.0382972267005714 	101340.6348065888
-0.471721721721722 	300.0126239889927 	0.03656321664092795 	101339.9243449344
-0.4692192192192195 	300.0120258787554 	0.03483693929094542 	101339.2172007357
-0.4667167167167169 	300.0114477805133 	0.03316619678837671 	101338.5337297156
-0.4642142142142145 	300.0109002400531 	0.03158037005466006 	101337.8863933588
-0.461711711711712 	300.0103839976679 	0.03008158292276757 	101337.276059731
-0.4592092092092094 	300.0098899754962 	0.02864453268140009 	101336.6919898762
-0.456706706706707 	300.00940202236 	0.02722398951500345 	101336.1150850193
-0.4542042042042045 	300.0089012381212 	0.02576685315604212 	101335.5230002066
-0.451701701701702 	300.0083705636117 	0.02422509108307154 	101334.89556957
-0.4491991991991995 	300.0077985838132 	0.02256652576767331 	101334.2193032352
-0.4466966966966969 	300.0071818658168 	0.02078149098576751 	101333.4901491848
-0.4441941941941945 	300.0065255399076 	0.01888451569947387 	101332.7141790175
-0.441691691691692 	300.0058422027449 	0.01691125776733881 	101331.9062903583
-0.4391891891891895 	300.0051495297253 	0.01491178831218539 	101331.0873823544
-0.436686686686687 	300.004467196249 	0.01294196542247284 	101330.2807163807
-0.4341841841841846 	300.0038138573842 	0.01105504964392943 	101329.5083449539
-0.431681681681682 	300.0032049913074 	0.009295535196080153 	101328.7885635964
-0.4291791791791794 	300.0026518315022 	0.007695903043239792 	101328.1346487224
-0.426676676676677 	300.0021611123684 	0.006275781077697704 	101327.5545578169
-0.4241741741741744 	300.001735380347 	0.005042772180093563 	101327.0512977585
-0.421671671671672 	300.0013736611683 	0.003994326696461128 	101326.6237139135
-0.4191691691691694 	300.001072298356 	0.003120125833874975 	101326.2674814095
-0.4166666666666669 	300.0008258167744 	0.002404553998727804 	101325.976126115
-0.4141641641641645 	300.0006277107793 	0.001828966350340787 	101325.7419564075
-0.411661661661662 	300.0004710997112 	0.001373580569347236 	101325.5568371626
-0.4091591591591594 	300.0003492247473 	0.001018922212413368 	101325.4127786127
-0.406656656656657 	300.000255793843 	0.0007468269531957089 	101325.3023425843
-0.4041541541541545 	300.0001851888053 	0.000541049368743946 	101325.2188874284
-0.401651651651652 	300.0001325612739 	0.0003875521366137619 	101325.1566824187
-0.3991491491491494 	300.0000938487303 	0.000274555907817683 	101325.1109248706
-0.396646646646647 	300.0000657314063 	0.0001924257039637097 	101325.0776910716
-0.3941441441441444 	300.0000455584639 	0.0001334580009724256 	101325.0538473754
-0.3916416416416419 	300.000031255536 	9.161929447334696e-05 	101325.0369420305
-0.3891391391391395 	300.0000212302145 	6.227241532473968e-05 	101325.0250925916
-0.3866366366366368 	300.000014280714 	4.191517713284071e-05 	101325.0168787053
-0.3841341341341344 	300.0000095150635 	2.794530666181702e-05 	101325.0112459672
-0.381631631631632 	300.0000062809031 	1.845861177836081e-05 	101325.0074235056
-0.3791291291291294 	300.0000041084943 	1.208169156112732e-05 	101325.0048558119
-0.3766266266266269 	300.0000026635749 	7.837491016088699e-06 	101325.0031480173
-0.3741241241241244 	300.000001711775 	5.039936740323718e-06 	101325.0020230788
-0.371621621621622 	300.0000010906846 	3.213261190479371e-06 	101325.0012890303
-0.3691191191191194 	300.0000006891218 	2.031477113571456e-06 	101325.0008144396
-0.366616616616617 	300.000000431833 	1.27376498725836e-06 	101325.00051035
-0.3641141141141143 	300.0000002683648 	7.922208987979426e-07 	101325.0003172159
-0.3616116116116119 	300.0000001654482 	4.888108414996068e-07 	101325.0001956053
-0.3591091091091095 	300.0000001012566 	2.992538632494204e-07 	101325.000119675
-0.356606606606607 	300.000000061459 	1.818002137850281e-07 	101325.0000726574
-0.3541041041041044 	300.0000000370338 	1.096136827957605e-07 	101325.000043778
-0.3516016016016019 	300.0000000221649 	6.560072729609299e-08 	101325.0000261807
-0.3490990990990994 	300.0000000131445 	3.897281345914205e-08 	101325.0000155414
-0.346596596596597 	300.0000000078156 	2.298985647503948e-08 	101325.000009158
-0.3440940940940944 	300.0000000046093 	1.346304682328704e-08 	101325.0000053568
-0.3415915915915919 	300.0000000026604 	7.832388650689104e-09 	101325.0000031099
-0.3390890890890895 	300.0000000014986 	4.522596097359091e-09 	101325.0000017912
-0.3365865865865869 	300.0000000008997 	2.596789610069488e-09 	101325.0000010224
-0.3340840840840844 	300.0000000005074 	1.479043295505473e-09 	101325.0000005778
-0.3315815815815819 	300.0000000003138 	8.391274205133798e-10 	101325.0000003223
-0.3290790790790794 	300.0000000001792 	4.71578081180859e-10 	101325.0000001765
-0.3265765765765769 	299.9999999999961 	2.660544689715633e-10 	101325.0000000939
-0.3240740740740744 	300.0000000000433 	1.467999238648938e-10 	101325.0000000472
-0.3215715715715718 	300.0000000000364 	8.446754812899975e-11 	101325.0000000212
-0.3190690690690695 	299.9999999999229 	4.514439804142732e-11 	101325.000000007
-0.3165665665665668 	299.999999999997 	2.790915396337147e-11 	101324.9999999988
-0.3140640640640644 	300.0000000000094 	1.407857928352441e-11 	101324.9999999942
-0.311561561561562 	299.9999999999074 	1.288844308650026e-11 	101324.9999999919
-0.3090590590590593 	299.9999999999929 	4.370222138952472e-12 	101324.9999999906
-0.3065565565565568 	300.0000000000011 	8.276805559309325e-12 	101324.9999999898
-0.3040540540540545 	300.0000000000244 	1.551177387272068e-12 	101324.9999999896
-0.3015515515515518 	300.0000000000475 	6.577693421850755e-12 	101324.9999999893
-0.2990490490490494 	299.99999999993 	1.714227213697859e-12 	101324.9999999891
-0.2965465465465469 	299.999999999979 	4.32565238576243e-12 	101324.9999999893
-0.2940440440440444 	299.9999999999979 	1.865929368178253e-12 	101324.9999999891
-0.2915415415415418 	299.9999999999956 	2.925875196262333e-12 	101324.9999999889
-0.2890390390390395 	299.9999999999969 	2.076825705469496e-12 	101324.9999999889
-0.2865365365365368 	299.9999999999694 	1.576853705564269e-12 	101324.9999999889
-0.2840340340340343 	299.9999999999997 	2.635249341705072e-12 	101324.9999999891
-0.2815315315315318 	299.9999999999092 	1.498350032383339e-12 	101324.9999999893
-0.2790290290290295 	299.999999999944 	3.086721040435117e-12 	101324.9999999891
-0.2765265265265269 	300.0000000000106 	3.125504228610195e-12 	101324.9999999894
-0.2740240240240244 	300.0000000000378 	4.435939873361094e-12 	101324.9999999896
-0.2715215215215219 	300.0000000000208 	5.562926113841072e-12 	101324.9999999893
-0.2690190190190194 	299.9999999999299 	5.373438540449257e-12 	101324.9999999893
-0.2665165165165169 	299.9999999999937 	6.027627660456736e-12 	101324.9999999893
-0.2640140140140144 	299.9999999999525 	4.537665696378629e-12 	101324.9999999893
-0.2615115115115119 	300.0000000000006 	6.181886828293818e-12 	101324.9999999895
-0.2590090090090094 	299.9999999999178 	4.667012911454777e-12 	101324.9999999892
-0.2565065065065068 	299.9999999999943 	5.500313656282646e-12 	101324.9999999896
-0.2540040040040044 	300.0000000000028 	5.900918462790261e-12 	101324.9999999893
-0.2515015015015019 	300.0000000000522 	5.009721126324619e-12 	101324.9999999895
-0.2489989989989994 	300.00000000006 	7.337227017067537e-12 	101324.9999999896
-0.2464964964964968 	299.9999999999925 	4.127664707051776e-12 	101324.9999999894
-0.2439939939939944 	299.9999999999984 	7.656332837509843e-12 	101324.9999999894
-0.2414914914914919 	299.9999999999671 	2.910516489586824e-12 	101324.9999999896
-0.2389889889889893 	300.0000000000047 	7.239465345714525e-12 	101324.9999999894
-0.2364864864864869 	300.0000000000277 	2.841589383472682e-12 	101324.9999999895
-0.2339839839839843 	299.9999999999048 	7.534755959944127e-12 	101324.9999999896
-0.2314814814814819 	299.9999999999778 	3.055407395254526e-12 	101324.9999999898
-0.2289789789789792 	299.9999999999058 	6.528406591046518e-12 	101324.9999999898
-0.2264764764764769 	299.9999999999315 	3.325209460416853e-12 	101324.9999999899
-0.2239739739739743 	299.9999999999467 	5.397480923898553e-12 	101324.9999999896
-0.2214714714714718 	299.9999999999267 	3.887963252002078e-12 	101324.9999999895
-0.2189689689689693 	299.9999999999619 	3.972021399687625e-12 	101324.9999999894
-0.2164664664664669 	299.9999999999754 	4.544014926451584e-12 	101324.9999999895
-0.2139639639639643 	299.9999999999096 	3.460183270788995e-12 	101324.9999999895
-0.2114614614614618 	299.9999999999686 	3.990925736536628e-12 	101324.9999999895
-0.2089589589589593 	299.999999999991 	3.842867208042851e-12 	101324.9999999894
-0.2064564564564568 	299.9999999999902 	3.215420312606506e-12 	101324.9999999895
-0.2039539539539543 	299.9999999998842 	4.21194419295948e-12 	101324.9999999898
-0.2014514514514518 	299.9999999999401 	1.376580598900271e-12 	101324.99999999
-0.1989489489489494 	299.9999999999698 	3.444364164497216e-12 	101324.9999999899
-0.1964464464464468 	299.9999999999995 	1.307900525551528e-12 	101324.9999999897
-0.1939439439439443 	299.9999999999837 	2.748990258361552e-12 	101324.9999999899
-0.1914414414414418 	299.9999999998946 	8.514093424008155e-13 	101324.9999999898
-0.1889389389389393 	300.0000000000084 	1.913658979956571e-12 	101324.9999999894
-0.1864364364364368 	300.0000000000546 	4.69238913338713e-13 	101324.9999999893
-0.1839339339339343 	299.999999999964 	2.19539469780191e-12 	101324.9999999892
-0.1814314314314318 	299.9999999999912 	6.349581380475908e-13 	101324.9999999891
-0.1789289289289293 	299.9999999998806 	2.95141299482432e-12 	101324.9999999893
-0.1764264264264268 	299.9999999999739 	8.187311357340157e-13 	101324.9999999895
-0.1739239239239243 	299.9999999998756 	4.809862179807949e-12 	101324.9999999896
-0.1714214214214218 	299.9999999999867 	5.254843209276448e-13 	101324.9999999894
-0.1689189189189193 	299.9999999999426 	6.962800333641021e-12 	101324.9999999894
-0.1664164164164168 	300.0000000000095 	1.39206976148005e-12 	101324.9999999892
-0.1639139139139143 	299.9999999999868 	8.672568515644199e-12 	101324.9999999892
-0.1614114114114118 	300.0000000000391 	2.23853973274267e-12 	101324.9999999893
-0.1589089089089093 	299.9999999999972 	1.027549073721612e-11 	101324.9999999896
-0.1564064064064068 	299.9999999999828 	4.070299250000647e-12 	101324.9999999894
-0.1539039039039043 	299.9999999999901 	1.044480207865697e-11 	101324.9999999894
-0.1514014014014018 	300.0000000000375 	3.201060308973637e-12 	101324.9999999893
-0.1488988988988993 	299.999999999989 	1.029614907109783e-11 	101324.9999999892
-0.1463963963963968 	299.999999999998 	1.80579895306128e-12 	101324.9999999893
-0.1438938938938943 	299.9999999999357 	8.753230685499446e-12 	101324.9999999894
-0.1413913913913918 	299.9999999999078 	8.350076852689965e-13 	101324.9999999896
-0.1388888888888893 	299.9999999999758 	7.158460198935342e-12 	101324.9999999897
-0.1363863863863868 	299.9999999998649 	2.267438201825401e-12 	101324.9999999891
-0.1338838838838843 	299.9999999998931 	7.047334195046828e-12 	101324.9999999892
-0.1313813813813818 	299.9999999999964 	2.724590181358673e-12 	101324.9999999893
-0.1288788788788793 	299.9999999999628 	6.677486812789108e-12 	101324.9999999894
-0.1263763763763768 	299.9999999999615 	1.869978320100869e-12 	101324.9999999892
-0.1238738738738743 	299.9999999999035 	5.959844669384288e-12 	101324.9999999895
-0.1213713713713717 	299.9999999999716 	9.088947333709218e-13 	101324.9999999894
-0.1188688688688693 	300.0000000000063 	6.648164555471791e-12 	101324.9999999899
-0.1163663663663668 	299.9999999998846 	1.365861440437972e-12 	101324.9999999899
-0.1138638638638643 	299.9999999999851 	7.253714423988134e-12 	101324.9999999898
-0.1113613613613618 	299.9999999999792 	1.284578580059939e-12 	101324.9999999898
-0.1088588588588592 	299.999999999968 	9.064838442345276e-12 	101324.9999999897
-0.1063563563563568 	299.9999999999356 	2.655823224257086e-12 	101324.9999999892
-0.1038538538538543 	299.999999999965 	8.058490523056855e-12 	101324.999999989
-0.1013513513513517 	300.0000000000198 	2.665320118312661e-12 	101324.9999999891
-0.09884884884884926 	299.99999999992 	6.241236394488677e-12 	101324.9999999889
-0.09634634634634676 	299.999999999866 	2.28643782098016e-12 	101324.9999999889
-0.09384384384384425 	299.9999999999147 	4.610390915166078e-12 	101324.9999999892
-0.09134134134134177 	300.0000000000339 	1.472717303346307e-12 	101324.9999999895
-0.08883883883883925 	300.0000000000117 	3.407361979613682e-12 	101324.9999999898
-0.08633633633633674 	299.9999999999442 	1.708354344092611e-12 	101324.9999999898
-0.08383383383383426 	300.0000000000164 	2.318497097214855e-12 	101324.9999999899
-0.08133133133133173 	299.9999999999526 	1.439190767149563e-12 	101324.9999999898
-0.07882882882882926 	299.9999999998543 	1.718913487997965e-12 	101324.9999999898
-0.07632632632632676 	299.9999999999449 	1.491073920700257e-12 	101324.9999999894
-0.07382382382382424 	299.9999999998698 	2.120406914309274e-12 	101324.9999999892
-0.07132132132132173 	300.0000000000173 	1.593632033199147e-12 	101324.9999999891
-0.06881881881881925 	299.9999999999553 	1.04188205454727e-12 	101324.999999989
-0.06631631631631671 	299.9999999998699 	1.223597547473714e-13 	101324.9999999891
-0.06381381381381425 	299.9999999999384 	1.743827805215881e-13 	101324.9999999893
-0.06131131131131173 	299.9999999999408 	3.878078801187748e-13 	101324.9999999893
-0.05880880880880923 	299.9999999998898 	2.933268495187692e-13 	101324.9999999894
-0.05630630630630672 	299.9999999999616 	1.403464138035569e-13 	101324.9999999893
-0.05380380380380424 	300.0000000000223 	4.833045870426811e-13 	101324.9999999895
-0.05130130130130173 	300.000000000018 	4.898052924398498e-13 	101324.9999999893
-0.04879879879879922 	299.9999999999258 	2.313955961139298e-13 	101324.9999999895
-0.04629629629629672 	299.9999999999123 	6.564243151908306e-13 	101324.9999999893
-0.04379379379379422 	299.9999999998965 	9.015974013031381e-14 	101324.9999999892
-0.04129129129129173 	299.9999999999786 	6.549062851776376e-13 	101324.9999999893
-0.03878878878878922 	299.9999999999818 	4.362201590503947e-13 	101324.9999999891
-0.03628628628628671 	299.9999999999819 	5.191463940931709e-13 	101324.9999999891
-0.03378378378378422 	299.999999999903 	8.7833425573656e-13 	101324.9999999888
-0.03128128128128172 	299.9999999999522 	9.293299589236162e-13 	101324.9999999891
-0.02877877877877922 	299.9999999999507 	1.640699492036036e-13 	101324.999999989
-0.0262762762762767 	299.9999999998736 	9.247645498892365e-13 	101324.9999999891
-0.02377377377377422 	300.0000000000279 	9.104847986323788e-13 	101324.9999999892
-0.0212712712712717 	299.999999999879 	6.971848689464931e-13 	101324.9999999891
-0.01876876876876921 	299.9999999999523 	5.624327690712328e-13 	101324.9999999892
-0.01626626626626671 	300.0000000000181 	1.055016483977076e-13 	101324.9999999893
-0.0137637637637642 	299.9999999999587 	8.279982959210426e-13 	101324.9999999892
-0.0112612612612617 	300.0000000000247 	5.911344260624444e-13 	101324.9999999892
-0.008758758758759198 	299.9999999999976 	5.322504759158273e-13 	101324.9999999893
-0.006256256256256697 	299.9999999998564 	8.039331764888677e-13 	101324.9999999895
-0.003753753753754195 	299.9999999999452 	1.151038133800758e-12 	101324.9999999893
-0.001251251251251693 	299.9999999999123 	1.904290794058775e-13 	101324.9999999893
0.00125125125125081 	299.9999999999371 	4.070565373590153e-14 	101324.999999989
0.003753753753753312 	299.999999999947 	2.38351595189283e-13 	101324.9999999889
0.006256256256255817 	299.9999999998614 	4.792268273170693e-13 	101324.999999989
0.008758758758758317 	299.9999999999794 	2.866924598605045e-13 	101324.9999999893
0.01126126126126082 	300.0000000000037 	5.929047424545038e-13 	101324.9999999892
0.01376376376376332 	299.999999999962 	5.982143799409361e-13 	101324.9999999891
0.01626626626626582 	300.0000000000144 	9.235843207997126e-13 	101324.9999999888
0.01876876876876833 	299.9999999999448 	3.344375683251873e-13 	101324.9999999886
0.02127127127127083 	299.9999999999599 	8.534602696633732e-14 	101324.9999999883
0.02377377377377332 	299.9999999999953 	4.806605590337524e-13 	101324.9999999883
0.02627627627627583 	299.9999999998712 	1.159053902660988e-12 	101324.9999999882
0.02877877877877833 	300.0000000000082 	3.918807632657866e-13 	101324.9999999882
0.03128128128128083 	299.9999999999357 	3.514056120551352e-13 	101324.9999999883
0.03378378378378333 	299.9999999998722 	8.390865831214382e-13 	101324.9999999883
0.03628628628628584 	299.9999999999595 	7.881751598898851e-13 	101324.9999999886
0.03878878878878834 	299.9999999999756 	1.174743710814485e-13 	101324.9999999888
0.04129129129129084 	299.9999999999718 	2.122682633893926e-13 	101324.9999999888
0.04379379379379333 	299.9999999999369 	5.087128423026656e-14 	101324.9999999892
0.04629629629629585 	299.9999999998581 	1.457436863043363e-13 	101324.9999999892
0.04879879879879834 	299.9999999999428 	2.01128871164094e-13 	101324.9999999891
0.05130130130130085 	300.0000000000114 	2.582858562215032e-13 	101324.9999999889
0.05380380380380335 	300.0000000000257 	5.791245133468517e-13 	101324.9999999886
0.05630630630630584 	299.9999999999936 	9.123459722205967e-13 	101324.9999999885
0.05880880880880836 	299.9999999998996 	4.689924386244851e-13 	101324.9999999884
0.06131131131131085 	299.9999999999595 	8.703420536524751e-14 	101324.9999999882
0.06381381381381336 	299.9999999999509 	2.709685363956127e-13 	101324.999999988
0.06631631631631586 	299.9999999998609 	1.977846538373469e-13 	101324.9999999879
0.06881881881881835 	299.9999999999435 	8.685504612506148e-13 	101324.9999999878
0.07132132132132088 	299.9999999999787 	7.131650105801197e-13 	101324.9999999882
0.07382382382382337 	299.9999999998693 	1.458192194807766e-12 	101324.9999999886
0.07632632632632587 	299.9999999999603 	9.02677316932519e-13 	101324.999999989
0.07882882882882837 	299.9999999999221 	1.213837585930934e-12 	101324.999999989
0.08133133133133086 	299.9999999999757 	6.384715263459329e-13 	101324.9999999891
0.08383383383383337 	299.9999999999774 	2.767916267172924e-13 	101324.9999999891
0.08633633633633589 	299.999999999874 	2.859912274758205e-13 	101324.9999999888
0.08883883883883838 	300.0000000000067 	1.018238846476242e-12 	101324.9999999887
0.09134134134134086 	299.9999999999762 	5.056427054664693e-14 	101324.9999999885
0.09384384384384339 	299.9999999998637 	9.487644920060438e-13 	101324.9999999882
0.09634634634634588 	299.9999999999555 	1.759843090061932e-12 	101324.999999988
0.09884884884884838 	299.9999999999716 	2.296179452962494e-12 	101324.9999999878
0.1013513513513509 	300.0000000000208 	3.095273034698775e-12 	101324.9999999885
0.1038538538538534 	299.9999999999434 	3.51052382239103e-12 	101324.9999999888
0.1063563563563559 	300.0000000000102 	3.793349174913251e-12 	101324.9999999888
0.1088588588588584 	300.0000000000321 	3.146233656535883e-12 	101324.999999989
0.1113613613613609 	299.9999999999016 	2.565741050398549e-12 	101324.9999999891
0.1138638638638634 	299.9999999999339 	2.382471014544317e-12 	101324.9999999891
0.1163663663663659 	299.9999999999373 	2.197467200878368e-12 	101324.9999999891
0.1188688688688684 	299.9999999999662 	2.90039355063868e-12 	101324.9999999893
0.1213713713713709 	299.9999999999959 	2.312766094104049e-12 	101324.9999999891
0.1238738738738734 	299.9999999999076 	3.031744653828803e-12 	101324.9999999891
0.1263763763763759 	299.999999999979 	2.252172623606403e-12 	101324.9999999889
0.1288788788788784 	299.9999999999797 	2.444989071957372e-12 	101324.9999999887
0.1313813813813809 	299.9999999999791 	2.216094617334337e-12 	101324.9999999887
0.1338838838838834 	299.9999999999681 	2.444572447647909e-12 	101324.9999999887
0.1363863863863859 	300.0000000000186 	9.117634690653199e-13 	101324.9999999887
0.1388888888888884 	300.0000000000495 	1.327695770946753e-12 	101324.9999999888
0.1413913913913909 	300.0000000000057 	5.339327867520158e-13 	101324.9999999887
0.1438938938938934 	299.9999999999914 	2.247381111337563e-13 	101324.9999999887
0.1463963963963959 	299.9999999999457 	2.42155307373075e-12 	101324.9999999887
0.1488988988988985 	299.9999999998857 	4.096263666161789e-13 	101324.9999999889
0.1514014014014009 	299.9999999999591 	2.032577841943138e-12 	101324.999999989
0.1539039039039035 	299.999999999953 	7.427834847123361e-13 	101324.9999999892
0.1564064064064059 	299.9999999999143 	1.819824501911458e-12 	101324.9999999894
0.1589089089089084 	299.9999999999669 	1.734798677017994e-12 	101324.9999999894
0.1614114114114109 	299.9999999999615 	7.828955482426109e-13 	101324.9999999889
0.1639139139139134 	299.9999999998912 	2.034649380278337e-12 	101324.999999989
0.166416416416416 	300.0000000000102 	1.286932557450081e-12 	101324.9999999892
0.1689189189189185 	300.0000000000408 	1.761044600469631e-12 	101324.9999999891
0.1714214214214209 	300.0000000000024 	1.581130467799058e-12 	101324.999999989
0.1739239239239235 	299.9999999999869 	1.646413014003813e-13 	101324.9999999892
0.1764264264264259 	299.999999999962 	2.165965412980937e-12 	101324.9999999892
0.1789289289289284 	300.0000000000102 	3.066326394615068e-13 	101324.9999999891
0.181431431431431 	299.9999999999576 	2.320187594911157e-12 	101324.9999999891
0.1839339339339334 	299.9999999999673 	8.43208110140258e-13 	101324.9999999889
0.186436436436436 	299.9999999999095 	2.484311317935308e-12 	101324.999999989
0.1889389389389385 	299.9999999999754 	2.319950120951607e-12 	101324.9999999889
0.191441441441441 	299.9999999999694 	1.693679032734264e-12 	101324.999999989
0.1939439439439434 	299.9999999998965 	3.050331814162906e-12 	101324.999999989
0.196446446446446 	299.9999999999357 	2.272912805211369e-12 	101324.9999999889
0.1989489489489485 	299.9999999999616 	4.177597359162088e-12 	101324.9999999884
0.2014514514514509 	299.9999999999736 	1.635730823668297e-12 	101324.9999999882
0.2039539539539535 	299.9999999999928 	2.617044137941197e-12 	101324.9999999882
0.2064564564564559 	299.9999999999403 	1.853301273219797e-12 	101324.9999999881
0.2089589589589585 	299.999999999979 	1.728813760545244e-12 	101324.9999999883
0.211461461461461 	299.9999999999133 	1.768735295244868e-12 	101324.9999999885
0.2139639639639635 	299.999999999977 	9.545103692941796e-13 	101324.9999999884
0.2164664664664659 	299.999999999995 	2.064822306298778e-12 	101324.9999999884
0.2189689689689684 	299.9999999999955 	6.877611667395714e-13 	101324.9999999883
0.221471471471471 	299.999999999994 	1.933224803925197e-12 	101324.9999999883
0.2239739739739735 	299.9999999999446 	4.649719649991848e-13 	101324.9999999885
0.226476476476476 	299.9999999999718 	1.358645849406967e-12 	101324.9999999887
0.2289789789789785 	299.9999999999939 	4.554432033337883e-13 	101324.9999999887
0.231481481481481 	299.9999999999796 	6.587469932955942e-13 	101324.9999999888
0.2339839839839835 	299.9999999999811 	1.081594035552611e-12 	101324.9999999888
0.236486486486486 	300.0000000000354 	1.236493211816484e-13 	101324.9999999889
0.2389889889889885 	300.0000000000049 	1.221393463898194e-12 	101324.9999999886
0.241491491491491 	299.9999999998996 	1.610463108066365e-12 	101324.9999999887
0.2439939939939935 	299.9999999999742 	1.873133569097456e-12 	101324.9999999887
0.246496496496496 	299.9999999999901 	8.02934264578434e-13 	101324.9999999886
0.2489989989989985 	300.0000000000454 	2.758336373055853e-12 	101324.9999999888
0.251501501501501 	300.0000000000391 	1.932588555271267e-12 	101324.9999999888
0.2540040040040035 	299.9999999999903 	2.164467111651246e-12 	101324.9999999888
0.256506506506506 	300.000000000038 	2.620497272744291e-12 	101324.9999999889
0.2590090090090086 	299.9999999998909 	1.862207786455121e-12 	101324.999999989
0.261511511511511 	300.0000000000011 	3.795253574662497e-12 	101324.9999999891
0.2640140140140135 	299.9999999999885 	1.797666532236935e-12 	101324.9999999886
0.2665165165165161 	299.9999999999123 	3.273563081026265e-12 	101324.9999999885
0.2690190190190185 	300.0000000000182 	2.692341484251962e-12 	101324.9999999883
0.271521521521521 	300.0000000000226 	2.833885168807869e-12 	101324.9999999883
0.2740240240240235 	300.0000000000236 	3.082233179460324e-12 	101324.9999999885
0.276526526526526 	300.0000000000117 	2.681228053926381e-12 	101324.9999999886
0.2790290290290286 	299.9999999999283 	3.98958638707178e-12 	101324.9999999886
0.281531531531531 	299.9999999999099 	3.130898829504353e-12 	101324.9999999888
0.2840340340340335 	299.9999999999754 	4.794748204419182e-12 	101324.9999999888
0.2865365365365361 	299.9999999999504 	4.907669395938888e-12 	101324.999999989
0.2890390390390385 	300.0000000000001 	4.713365161456887e-12 	101324.9999999891
0.291541541541541 	299.9999999999993 	4.206226170114688e-12 	101324.999999989
0.2940440440440436 	299.9999999999881 	1.912862918343221e-12 	101324.9999999891
0.296546546546546 	299.9999999999916 	3.158413969816643e-12 	101324.999999989
0.2990490490490486 	299.9999999999233 	1.152578350520724e-12 	101324.9999999891
0.3015515515515511 	300.0000000000435 	4.272005960639462e-12 	101324.9999999888
0.3040540540540535 	299.9999999999924 	2.561583573051297e-12 	101324.9999999886
0.3065565565565562 	299.9999999999969 	4.29408162927258e-12 	101324.9999999886
0.3090590590590585 	299.9999999999866 	3.550146072512159e-12 	101324.9999999885
0.3115615615615611 	299.9999999999244 	2.637151059631598e-12 	101324.9999999884
0.3140640640640635 	300.0000000000102 	2.553269779054429e-12 	101324.9999999884
0.316566566566566 	299.9999999999937 	2.024287949332849e-12 	101324.9999999883
0.3190690690690687 	299.999999999938 	2.120131797376052e-12 	101324.9999999883
0.3215715715715711 	300.0000000000119 	2.274393775117854e-12 	101324.9999999883
0.3240740740740735 	299.9999999999915 	1.811860620972835e-12 	101324.9999999883
0.326576576576576 	299.9999999998744 	1.801354326175821e-12 	101324.9999999883
0.3290790790790786 	300.0000000000132 	1.274915647076186e-12 	101324.9999999884
0.3315815815815811 	300.0000000000465 	9.239570381483452e-13 	101324.9999999882
0.3340840840840836 	299.9999999999851 	1.382651387300352e-12 	101324.9999999882
0.3365865865865861 	300.0000000000654 	5.193079381699219e-13 	101324.9999999885
0.3390890890890886 	300.0000000000586 	2.934293134798882e-12 	101324.9999999884
0.3415915915915911 	300.0000000000024 	1.474991779366899e-12 	101324.9999999882
0.3440940940940935 	299.9999999999404 	2.327723145455152e-12 	101324.9999999879
0.3465965965965962 	300.0000000000441 	2.59050452904782e-13 	101324.9999999882
0.3490990990990985 	300.0000000000337 	8.690928383374048e-13 	101324.9999999884
0.3516016016016011 	299.9999999999839 	8.701296566029192e-14 	101324.9999999885
0.3541041041041035 	300.000000000006 	4.240655356846696e-13 	101324.9999999885
0.3566066066066061 	299.9999999999482 	1.004095136781896e-12 	101324.9999999884
0.3591091091091085 	299.9999999999 	1.654427297347217e-12 	101324.9999999884
0.3616116116116112 	299.9999999999288 	1.272058811054243e-12 	101324.9999999884
0.3641141141141137 	299.9999999999168 	3.076124641094403e-12 	101324.9999999881
0.3666166166166161 	299.9999999999026 	1.637476213921934e-12 	101324.9999999881
0.3691191191191185 	300.0000000000472 	3.973265966944736e-12 	101324.999999988
0.371621621621621 	300.0000000000174 	1.500565491541811e-12 	101324.9999999881
0.3741241241241237 	300.0000000000632 	3.542607019889405e-12 	101324.9999999881
0.3766266266266261 	300.0000000000367 	1.255374444800144e-12 	101324.9999999883
0.3791291291291286 	299.999999999979 	2.235761201944946e-12 	101324.9999999884
0.3816316316316311 	299.9999999999014 	1.678654817435802e-12 	101324.9999999885
0.3841341341341336 	300.0000000000114 	2.155496225291961e-12 	101324.9999999886
0.3866366366366362 	299.9999999999981 	1.534936711993687e-12 	101324.9999999888
0.3891391391391387 	299.9999999999461 	1.125641398474375e-12 	101324.999999989
0.391641641641641 	299.999999999992 	1.34768743687218e-12 	101324.9999999889
0.3941441441441436 	300.000000000008 	5.926702044622087e-13 	101324.9999999886
0.3966466466466462 	299.9999999999962 	1.408308079527122e-12 	101324.9999999885
0.3991491491491486 	299.9999999999277 	3.629732243003738e-13 	101324.9999999887
0.4016516516516512 	299.9999999998891 	1.254182991756364e-12 	101324.9999999888
0.4041541541541536 	299.9999999999433 	9.221586724168186e-13 	101324.9999999888
0.4066566566566561 	299.9999999999361 	1.059182367104667e-12 	101324.999999989
0.4091591591591587 	299.9999999999829 	1.063056229954218e-12 	101324.9999999889
0.4116616616616612 	299.9999999999978 	4.218633530368677e-13 	101324.999999989
0.4141641641641635 	300.0000000000574 	9.11037482306359e-13 	101324.9999999891
0.4166666666666662 	299.9999999999959 	9.753250461738918e-13 	101324.9999999891
0.4191691691691687 	299.9999999999295 	1.006440869934016e-12 	101324.9999999892
0.421671671671671 	300.0000000000153 	2.096380597811125e-12 	101324.999999989
0.4241741741741737 	299.9999999999729 	2.878740146653333e-12 	101324.9999999891
0.4266766766766761 	299.9999999999451 	2.24325495499548e-12 	101324.9999999891
0.4291791791791785 	300.0000000000211 	3.767435928787738e-12 	101324.999999989
0.4316816816816812 	300.0000000000127 	2.613986650253531e-12 	101324.9999999888
0.4341841841841836 	299.9999999999841 	3.714516276555361e-12 	101324.9999999888
0.4366866866866862 	299.9999999999035 	1.771438171117922e-12 	101324.9999999887
0.4391891891891885 	299.9999999999848 	2.315779739355584e-12 	101324.9999999891
0.4416916916916913 	299.9999999999825 	1.346482164309988e-12 	101324.9999999893
0.4441941941941936 	299.9999999999837 	2.109414351500147e-12 	101324.9999999895
0.4466966966966961 	299.9999999998961 	5.128055196491873e-13 	101324.9999999894
0.4491991991991987 	299.999999999976 	1.098997369556134e-12 	101324.9999999896
0.4517017017017012 	299.9999999999758 	2.144655650709459e-13 	101324.9999999897
0.4542042042042035 	299.9999999999984 	3.545144910517394e-13 	101324.9999999898
0.4567067067067062 	299.9999999999985 	2.786292164822441e-13 	101324.9999999896
0.4592092092092087 	299.9999999999093 	2.770683514153282e-13 	101324.9999999893
0.4617117117117112 	300.000000000023 	5.093631156181382e-13 	101324.9999999894
0.4642142142142137 	299.9999999999574 	5.647994340433996e-13 	101324.9999999893
0.4667167167167162 	299.9999999999893 	6.559894006035845e-13 	101324.9999999894
0.4692192192192187 	299.9999999999466 	5.092437109145314e-13 	101324.9999999896
0.4717217217217212 	300.0000000000222 	8.685775949387721e-13 	101324.9999999897
0.4742242242242236 	299.999999999959 	6.297864423791498e-13 	101324.9999999896
0.4767267267267262 	299.999999999952 	1.046585574159127e-12 	101324.9999999896
0.4792292292292287 	300.0000000000177 	1.241095083691888e-12 	101324.9999999896
0.4817317317317312 	300.000000000036 	7.23377084018908e-13 	101324.9999999894
0.4842342342342336 	299.9999999999757 	1.429342610417369e-12 	101324.9999999891
0.4867367367367362 	299.9999999999418 	8.658331746867748e-13 	101324.9999999891
0.4892392392392387 	300.0000000000348 	1.605891171431526e-12 	101324.9999999891
0.4917417417417412 	300.0000000000082 	7.345070734096396e-13 	101324.9999999889
0.4942442442442437 	299.999999999888 	1.494974554701938e-12 	101324.9999999885
0.4967467467467462 	299.9999999999167 	8.360554715811353e-13 	101324.9999999886
0.4992492492492487 	299.9999999999031 	1.85914139581858e-12 	101324.9999999886
0.5017517517517511 	299.9999999999463 	7.635298440732579e-13 	101324.9999999889
0.5042542542542537 	299.9999999999581 	9.178099274801343e-13 	101324.9999999889
0.5067567567567562 	299.9999999999307 	1.137051717776247e-12 	101324.999999989
0.5092592592592589 	299.9999999999588 	1.045154824178669e-12 	101324.9999999891
0.5117617617617611 	299.9999999999505 	2.64980796966025e-12 	101324.9999999893
0.5142642642642637 	299.9999999999811 	1.373923295032724e-12 	101324.9999999895
0.5167667667667663 	299.9999999999657 	3.993198554500282e-12 	101324.9999999895
0.5192692692692688 	299.9999999999026 	2.374889730997571e-12 	101324.9999999896
0.5217717717717714 	299.9999999999279 	5.35896637189486e-12 	101324.9999999897
0.5242742742742736 	299.9999999999325 	1.881683617879711e-12 	101324.9999999898
0.5267767767767763 	299.9999999999505 	4.708536011142122e-12 	101324.9999999896
0.5292792792792789 	299.9999999999263 	1.307714082230959e-12 	101324.9999999895
0.5317817817817813 	299.9999999998966 	4.10179523125389e-12 	101324.9999999895
0.5342842842842837 	300.0000000000175 	2.179859770629098e-12 	101324.9999999896
0.5367867867867864 	300.0000000000001 	4.741588132022039e-12 	101324.9999999895
0.5392892892892888 	299.9999999999518 	2.958595423349192e-12 	101324.9999999895
0.5417917917917912 	300.0000000000048 	4.308057571817231e-12 	101324.9999999893
0.5442942942942938 	299.9999999999808 	2.683389981547289e-12 	101324.9999999894
0.5467967967967964 	299.9999999999392 	3.834663612162353e-12 	101324.9999999894
0.5492992992992988 	299.9999999999337 	2.579334530689789e-12 	101324.9999999896
0.5518018018018012 	299.9999999999274 	4.137360576292722e-12 	101324.9999999896
0.5543043043043039 	300.0000000000247 	2.894910768386524e-12 	101324.9999999894
0.5568068068068063 	299.9999999999895 	3.927549116282668e-12 	101324.9999999893
0.5593093093093087 	299.9999999998879 	2.743282381858645e-12 	101324.9999999894
0.5618118118118114 	299.9999999999503 	4.226263767622748e-12 	101324.9999999891
0.5643143143143137 	299.9999999999349 	2.952214759327096e-12 	101324.999999989
0.5668168168168163 	299.9999999999914 	3.56767864267562e-12 	101324.9999999893
0.5693193193193188 	300.0000000000347 	3.028857499140314e-12 	101324.9999999895
0.5718218218218213 	300.0000000000273 	2.799184041921806e-12 	101324.9999999895
0.5743243243243239 	300.0000000000043 	4.26208537310462e-12 	101324.9999999894
0.5768268268268262 	299.9999999999999 	3.199133648032882e-12 	101324.9999999894
0.5793293293293288 	299.9999999999312 	5.691477509013496e-12 	101324.9999999892
0.5818318318318314 	299.9999999999042 	2.873524180748734e-12 	101324.9999999892
0.5843343343343338 	299.9999999999844 	7.154752411802467e-12 	101324.9999999894
0.5868368368368363 	299.9999999999789 	3.312173933462509e-12 	101324.9999999894
0.5893393393393387 	299.9999999999408 	6.550354887805112e-12 	101324.9999999893
0.5918418418418413 	299.9999999999306 	3.927872593274977e-12 	101324.9999999891
0.5943443443443439 	300.0000000000135 	6.136503705735621e-12 	101324.999999989
0.5968468468468463 	300.0000000000138 	4.235160580826143e-12 	101324.9999999892
0.5993493493493487 	300.0000000000406 	6.313613750055817e-12 	101324.9999999894
0.6018518518518514 	299.9999999999798 	5.122297592763342e-12 	101324.9999999895
0.6043543543543537 	299.9999999999928 	6.593937948825901e-12 	101324.9999999895
0.6068568568568564 	299.9999999999794 	4.270186055230031e-12 	101324.9999999897
0.6093593593593587 	299.9999999999215 	5.082699485236116e-12 	101324.9999999896
0.6118618618618614 	299.9999999999134 	3.694412424460499e-12 	101324.9999999899
0.6143643643643638 	300.0000000000295 	5.158190382375671e-12 	101324.99999999
0.6168668668668662 	299.9999999999907 	2.79341208814363e-12 	101324.9999999901
0.6193693693693688 	299.9999999999483 	4.121146803714756e-12 	101324.9999999898
0.6218718718718714 	299.9999999999582 	2.544501290729816e-12 	101324.9999999896
0.6243743743743737 	299.9999999999252 	5.199969530350669e-12 	101324.9999999895
0.6268768768768762 	299.9999999999134 	4.388982450325586e-12 	101324.9999999893
0.629379379379379 	299.9999999999461 	5.765596204550583e-12 	101324.9999999896
0.6318818818818812 	299.9999999999814 	5.298821284696184e-12 	101324.9999999897
0.6343843843843838 	300.0000000000223 	4.987261915625643e-12 	101324.9999999898
0.6368868868868864 	299.9999999999796 	5.215568761215257e-12 	101324.9999999899
0.6393893893893888 	299.9999999999112 	4.289391189230286e-12 	101324.9999999899
0.6418918918918912 	300.0000000000057 	6.832956515745795e-12 	101324.99999999
0.6443943943943939 	299.9999999999791 	3.193484226824552e-12 	101324.99999999
0.6468968968968963 	299.9999999999822 	6.714688009520985e-12 	101324.99999999
0.6493993993993988 	299.99999999997 	3.070777433044128e-12 	101324.9999999901
0.6519019019019012 	299.9999999999796 	6.541082428538706e-12 	101324.9999999903
0.6544044044044038 	299.9999999998927 	3.616221048312377e-12 	101324.9999999904
0.6569069069069065 	299.9999999999397 	7.105335568688536e-12 	101324.9999999901
0.6594094094094087 	299.9999999999553 	4.277251082896278e-12 	101324.9999999902
0.6619119119119113 	299.9999999999513 	6.225488772540311e-12 	101324.99999999
0.664414414414414 	300.0000000000037 	4.209096208206133e-12 	101324.99999999
0.6669169169169162 	300.0000000000252 	5.578910295877372e-12 	101324.9999999902
0.6694194194194188 	299.9999999999842 	3.479976230987338e-12 	101324.9999999903
0.6719219219219214 	299.9999999999066 	5.157871021223216e-12 	101324.9999999905
0.674424424424424 	299.9999999999675 	3.950988480628757e-12 	101324.9999999905
0.6769269269269262 	299.9999999999101 	5.412427199982393e-12 	101324.9999999907
0.679429429429429 	300.0000000000039 	4.847667224555923e-12 	101324.9999999907
0.6819319319319311 	299.9999999999814 	6.077074389604881e-12 	101324.9999999909
0.6844344344344341 	299.999999999991 	5.574652271897551e-12 	101324.999999991
0.686936936936936 	299.9999999999874 	7.25115693439833e-12 	101324.9999999911
0.6894394394394392 	299.999999999986 	7.097699971430011e-12 	101324.9999999912
0.6919419419419413 	299.9999999999814 	7.490794078880516e-12 	101324.9999999913
0.694444444444444 	299.9999999999186 	7.495145018069258e-12 	101324.9999999914
0.6969469469469463 	299.9999999999096 	7.570336517777084e-12 	101324.9999999915
0.6994494494494489 	299.9999999999108 	8.49526914300921e-12 	101324.9999999915
0.7019519519519515 	299.9999999999797 	7.182067519387885e-12 	101324.9999999916
0.7044544544544538 	299.9999999999459 	8.52301077441073e-12 	101324.9999999916
0.7069569569569564 	299.999999999997 	6.381699426864287e-12 	101324.9999999916
0.7094594594594589 	299.9999999999625 	9.040008843066264e-12 	101324.9999999916
0.7119619619619615 	299.9999999999034 	6.567132200563147e-12 	101324.9999999917
0.7144644644644638 	299.9999999999459 	7.912848875065518e-12 	101324.9999999916
0.7169669669669665 	299.9999999999112 	5.513969861114057e-12 	101324.9999999914
0.7194694694694688 	299.9999999999892 	6.838618267979412e-12 	101324.9999999914
0.7219719719719715 	299.999999999985 	6.405196900638823e-12 	101324.9999999912
0.7244744744744737 	300.0000000000091 	7.740674000326874e-12 	101324.9999999912
0.7269769769769764 	299.9999999999977 	7.776301805923069e-12 	101324.9999999913
0.7294794794794791 	299.9999999999811 	6.578086812752335e-12 	101324.9999999912
0.7319819819819813 	299.9999999999744 	8.498999384223671e-12 	101324.9999999911
0.7344844844844839 	299.9999999999046 	7.078566372519762e-12 	101324.9999999911
0.7369869869869864 	299.9999999999381 	8.330949492467495e-12 	101324.9999999913
0.739489489489489 	299.9999999999287 	8.178211384134213e-12 	101324.9999999914
0.7419919919919914 	299.9999999999132 	7.846605037092206e-12 	101324.9999999913
0.7444944944944939 	299.9999999999758 	8.413084483568335e-12 	101324.9999999915
0.7469969969969963 	299.9999999999707 	7.029039193950505e-12 	101324.9999999916
0.7494994994994989 	299.9999999999351 	9.421963488535423e-12 	101324.9999999916
0.7520020020020015 	299.9999999999688 	6.857986578418797e-12 	101324.9999999917
0.7545045045045039 	299.9999999999667 	1.065047106986414e-11 	101324.9999999918
0.7570070070070062 	299.999999999936 	8.497435885273664e-12 	101324.999999992
0.7595095095095092 	299.9999999999188 	1.058981512028028e-11 	101324.9999999923
0.7620120120120112 	300.0000000000089 	9.64540243840184e-12 	101324.9999999925
0.7645145145145138 	299.9999999999848 	9.971396448683185e-12 	101324.9999999927
0.7670170170170165 	299.999999999918 	1.032134733446376e-11 	101324.9999999928
0.7695195195195191 	299.9999999999092 	9.254722266353455e-12 	101324.9999999928
0.7720220220220213 	299.9999999999235 	1.169524414436934e-11 	101324.9999999928
0.7745245245245239 	299.999999999921 	9.376319151024911e-12 	101324.9999999928
0.7770270270270263 	299.9999999999634 	1.172481665181393e-11 	101324.9999999929
0.779529529529529 	299.9999999999792 	1.058302913995901e-11 	101324.9999999927
0.7820320320320313 	299.9999999999671 	1.092718851810535e-11 	101324.9999999926
0.784534534534534 	300.0000000000085 	1.077873230750323e-11 	101324.9999999927
0.7870370370370364 	299.9999999999961 	1.078125431711552e-11 	101324.9999999927
0.7895395395395389 	299.9999999999748 	1.184510653659427e-11 	101324.9999999925
0.7920420420420413 	299.9999999999655 	1.047947939845892e-11 	101324.9999999927
0.794544544544544 	299.9999999999658 	1.169596381417809e-11 	101324.9999999927
0.7970470470470463 	300 	9.150548908877158e-12 	101324.9999999926
0.799549549549549 	299.9999999999819 	1.2460607059167e-11 	101324.9999999928
0.8020520520520515 	299.999999999987 	9.887091855242418e-12 	101324.9999999927
0.8045545545545539 	299.9999999999378 	1.239602596993006e-11 	101324.9999999926
0.8070570570570563 	299.9999999999791 	1.130831000761827e-11 	101324.9999999928
0.8095595595595589 	299.9999999999495 	1.197425944937876e-11 	101324.9999999928
0.8120620620620614 	299.9999999999268 	1.178027724400874e-11 	101324.9999999928
0.8145645645645638 	299.9999999999976 	1.127877384858112e-11 	101324.999999993
0.8170670670670666 	299.9999999999932 	1.17212182993733e-11 	101324.9999999931
0.8195695695695689 	299.9999999999747 	1.033862998123697e-11 	101324.9999999931
0.8220720720720714 	299.9999999999376 	1.316270373660001e-11 	101324.999999993
0.8245745745745739 	299.9999999999911 	1.041146382853057e-11 	101324.9999999932
0.8270770770770765 	299.9999999999653 	1.202824808467222e-11 	101324.9999999935
0.8295795795795788 	299.9999999999443 	1.093943878707976e-11 	101324.9999999935
0.8320820820820815 	300.0000000000198 	1.213007698142341e-11 	101324.9999999937
0.834584584584584 	300.0000000000108 	1.185919280413544e-11 	101324.9999999938
0.8370870870870865 	299.9999999999659 	1.176283845702211e-11 	101324.9999999939
0.8395895895895891 	299.9999999999218 	1.224609447489331e-11 	101324.9999999938
0.8420920920920915 	299.9999999999397 	1.177532425317936e-11 	101324.999999994
0.844594594594594 	299.9999999999391 	1.258143719744583e-11 	101324.9999999942
0.8470970970970964 	299.9999999999528 	1.276280620623703e-11 	101324.9999999942
0.8495995995995991 	299.9999999999899 	1.233210535961318e-11 	101324.9999999942
0.8521021021021015 	299.9999999999782 	1.256083336715589e-11 	101324.999999994
0.8546046046046039 	299.9999999999726 	1.212309577649379e-11 	101324.9999999936
0.8571071071071066 	300.0000000000054 	1.393340327678884e-11 	101324.9999999937
0.8596096096096089 	299.9999999999646 	1.209450645550769e-11 	101324.9999999937
0.8621121121121116 	299.9999999999278 	1.473011329621856e-11 	101324.9999999938
0.8646146146146139 	299.9999999999965 	1.177698515972936e-11 	101324.999999994
0.8671171171171166 	299.9999999999646 	1.331243634789168e-11 	101324.9999999943
0.8696196196196189 	299.9999999999304 	1.276125860128704e-11 	101324.9999999943
0.8721221221221216 	299.9999999999819 	1.383836628157879e-11 	101324.9999999943
0.874624624624624 	300.0000000000008 	1.374883938661425e-11 	101324.9999999944
0.8771271271271264 	299.9999999999992 	1.327893486160925e-11 	101324.9999999944
0.879629629629629 	300.000000000007 	1.402334462690117e-11 	101324.9999999944
0.8821321321321317 	299.9999999999786 	1.231017325862367e-11 	101324.9999999945
0.8846346346346339 	299.999999999912 	1.516035856090018e-11 	101324.9999999945
0.8871371371371364 	299.9999999999507 	1.295273776621564e-11 	101324.9999999946
0.8896396396396391 	299.9999999999578 	1.5585272384516e-11 	101324.9999999945
0.8921421421421414 	299.9999999999648 	1.477362049266952e-11 	101324.9999999942
0.8946446446446441 	299.9999999999839 	1.606040611136597e-11 	101324.999999994
0.8971471471471464 	299.999999999999 	1.547717630589407e-11 	101324.9999999938
0.8996496496496489 	299.9999999999756 	1.516272381840223e-11 	101324.9999999936
0.9021521521521517 	299.9999999999575 	1.575495629464248e-11 	101324.9999999937
0.9046546546546541 	299.9999999999882 	1.527233134983788e-11 	101324.9999999942
0.9071571571571564 	299.9999999999454 	1.689325639043282e-11 	101324.9999999947
0.9096596596596589 	299.9999999999453 	1.700586710521255e-11 	101324.9999999947
0.9121621621621616 	300.0000000000093 	1.646693253880398e-11 	101324.9999999948
0.9146646646646639 	299.9999999999752 	1.635290401168188e-11 	101324.9999999951
0.9171671671671666 	299.9999999999426 	1.595576655026021e-11 	101324.9999999951
0.9196696696696689 	300.0000000000032 	1.658405969086088e-11 	101324.999999995
0.9221721721721714 	299.9999999999991 	1.430815928213723e-11 	101324.999999995
0.9246746746746741 	299.9999999999376 	1.684135051454605e-11 	101324.9999999951
0.9271771771771765 	299.9999999999463 	1.375659576095075e-11 	101324.9999999952
0.9296796796796791 	299.9999999999919 	1.543109757801921e-11 	101324.9999999952
0.9321821821821816 	299.9999999999619 	1.387577190471119e-11 	101324.9999999956
0.9346846846846838 	299.9999999999392 	1.565228006271922e-11 	101324.999999996
0.9371871871871866 	300.0000000000172 	1.523539198409294e-11 	101324.9999999958
0.9396896896896891 	300.0000000000151 	1.555135802493325e-11 	101324.9999999957
0.9421921921921914 	300.0000000000095 	1.608264879470436e-11 	101324.999999996
0.9446946946946939 	299.9999999999646 	1.53245873701546e-11 	101324.9999999963
0.9471971971971965 	299.9999999999168 	1.698207467968611e-11 	101324.9999999965
0.9496996996996991 	299.9999999999587 	1.395692774573525e-11 	101324.9999999965
0.9522022022022016 	299.9999999999774 	1.577071825241316e-11 	101324.9999999964
0.9547047047047038 	299.9999999999746 	1.542951353824471e-11 	101324.9999999966
0.9572072072072064 	299.9999999999601 	1.653898790284572e-11 	101324.9999999966
0.9597097097097093 	299.9999999999615 	1.598245492038254e-11 	101324.9999999963
0.9622122122122114 	299.9999999999544 	1.543405874237047e-11 	101324.9999999963
0.964714714714714 	299.9999999999512 	1.661679785913076e-11 	101324.9999999964
0.9672172172172167 	299.9999999999526 	1.597871482270686e-11 	101324.9999999966
0.969719719719719 	299.9999999999835 	1.694538002040353e-11 	101324.9999999966
0.9722222222222214 	299.9999999999777 	1.606515302396064e-11 	101324.9999999966
0.9747247247247239 	299.9999999999732 	1.622299811061839e-11 	101324.9999999968
0.9772272272272267 	300.0000000000106 	1.642931234497882e-11 	101324.999999997
0.9797297297297292 	299.9999999999926 	1.576851945023014e-11 	101324.999999997
0.9822322322322313 	299.9999999999908 	1.616024291286013e-11 	101324.9999999969
0.9847347347347344 	299.9999999999852 	1.476878151979629e-11 	101324.9999999972
0.9872372372372363 	299.9999999999396 	1.810354732012284e-11 	101324.9999999973
0.9897397397397389 	299.9999999999586 	1.572527398867346e-11 	101324.999999997
0.9922422422422417 	299.99999999994 	1.77901884360215e-11 	101324.999999997
0.9947447447447441 	299.9999999999617 	1.609070259911208e-11 	101324.9999999971
0.9972472472472468 	299.999999999977 	1.708695166924781e-11 	101324.9999999973
0.999749749749749 	299.9999999999661 	1.660093961744427e-11 	101324.9999999972
1.002252252252252 	299.9999999999728 	1.727854627017427e-11 	101324.999999997
1.004754754754754 	299.9999999999927 	1.764977805857577e-11 	101324.9999999969
1.007257257257256 	299.9999999999687 	1.688229357682114e-11 	101324.9999999969
1.009759759759759 	299.999999999956 	1.941262357941532e-11 	101324.9999999968
1.012262262262261 	299.9999999999494 	1.764948916012656e-11 	101324.9999999965
1.014764764764764 	299.9999999999214 	2.012124510037841e-11 	101324.9999999962
1.017267267267267 	299.9999999999146 	1.923523956562045e-11 	101324.9999999962
1.019769769769769 	299.9999999999699 	1.991933696921145e-11 	101324.9999999966
1.022272272272272 	299.9999999999889 	1.878303960121743e-11 	101324.999999997
1.024774774774774 	299.9999999999837 	1.853941858787969e-11 	101324.9999999973
1.027277277277277 	299.999999999981 	1.920664069470942e-11 	101324.9999999974
1.029779779779779 	300.0000000000173 	1.783658859536369e-11 	101324.9999999974
1.032282282282282 	300.0000000000173 	1.888944655943617e-11 	101324.9999999977
1.034784784784784 	300.0000000000018 	1.830139782960128e-11 	101324.9999999978
1.037287287287286 	299.999999999965 	1.859036293656404e-11 	101324.9999999976
1.039789789789789 	299.9999999999727 	1.892671226267356e-11 	101324.9999999975
1.042292292292291 	300.0000000000062 	1.995624765349054e-11 	101324.9999999975
1.044794794794794 	300.0000000000226 	2.051014938168973e-11 	101324.9999999974
1.047297297297296 	300.0000000000455 	1.945489284605428e-11 	101324.9999999974
1.049799799799799 	299.9999999999904 	2.148716837680144e-11 	101324.9999999974
1.052302302302302 	299.999999999949 	1.903299612984835e-11 	101324.9999999973
1.054804804804804 	299.999999999928 	2.072799845466257e-11 	101324.9999999972
1.057307307307306 	299.9999999999125 	1.916966671403246e-11 	101324.9999999974
1.059809809809809 	299.9999999999563 	2.049084951925383e-11 	101324.9999999975
1.062312312312312 	299.9999999999503 	2.012420892093177e-11 	101324.9999999976
1.064814814814814 	299.9999999999425 	2.078611831031707e-11 	101324.9999999976
1.067317317317317 	299.9999999999155 	2.023591190095668e-11 	101324.9999999977
1.069819819819819 	299.9999999999225 	1.972851884008153e-11 	101324.999999998
1.072322322322321 	299.9999999999918 	2.173207037700824e-11 	101324.9999999983
1.074824824824824 	300.0000000000058 	2.010056895080489e-11 	101324.9999999983
1.077327327327327 	300.0000000000333 	2.175764797632313e-11 	101324.9999999982
1.079829829829829 	300.0000000000566 	1.964644323520142e-11 	101324.9999999981
1.082332332332332 	300.0000000000154 	1.974076440576367e-11 	101324.9999999981
1.084834834834834 	299.9999999999802 	1.877743645482579e-11 	101324.999999998
1.087337337337337 	299.9999999999348 	1.897232772769773e-11 	101324.9999999979
1.089839839839839 	299.9999999999244 	2.158678020001869e-11 	101324.9999999978
1.092342342342342 	299.9999999999701 	2.060341216976605e-11 	101324.9999999978
1.094844844844844 	299.9999999999675 	2.204821402257474e-11 	101324.999999998
1.097347347347347 	299.9999999999329 	2.016788578066924e-11 	101324.999999998
1.099849849849849 	299.9999999999208 	2.278066214632724e-11 	101324.9999999982
1.102352352352352 	299.9999999999513 	1.989609810095589e-11 	101324.9999999982
1.104854854854854 	299.9999999999745 	2.202913792220502e-11 	101324.9999999983
1.107357357357357 	299.9999999999553 	2.005186754924418e-11 	101324.9999999984
1.109859859859859 	299.9999999999426 	2.174634995278044e-11 	101324.9999999985
1.112362362362362 	300.0000000000138 	2.048794562276412e-11 	101324.9999999986
1.114864864864865 	300.0000000000126 	2.036426352481726e-11 	101324.9999999986
1.117367367367367 	299.9999999999624 	2.119149772551103e-11 	101324.9999999985
1.119869869869869 	299.9999999999228 	1.952063636842901e-11 	101324.9999999985
1.122372372372372 	299.9999999999585 	2.144918043024531e-11 	101324.9999999984
1.124874874874874 	299.9999999999548 	2.017286823915018e-11 	101324.9999999982
1.127377377377377 	299.9999999999662 	2.128257333976906e-11 	101324.9999999982
1.129879879879879 	300.0000000000204 	2.059683268418191e-11 	101324.9999999982
1.132382382382382 	300.0000000000382 	2.109325692288461e-11 	101324.9999999981
1.134884884884884 	300.0000000000142 	2.005474962927929e-11 	101324.9999999983
1.137387387387387 	300.00000000002 	1.982388051692083e-11 	101324.9999999983
1.139889889889889 	299.9999999999588 	2.150967184674836e-11 	101324.9999999983
1.142392392392392 	299.9999999999462 	2.008341717112963e-11 	101324.9999999985
1.144894894894894 	300.0000000000189 	2.135448954298493e-11 	101324.9999999986
1.147397397397397 	300.0000000000024 	1.995661877864927e-11 	101324.9999999987
1.149899899899899 	299.9999999999383 	2.093308533890418e-11 	101324.9999999988
1.152402402402402 	299.9999999999225 	1.996692865535742e-11 	101324.9999999987
1.154904904904904 	299.9999999999653 	2.115662515101376e-11 	101324.9999999985
1.157407407407407 	299.9999999999661 	2.085530622494994e-11 	101324.9999999985
1.159909909909909 	299.9999999999304 	2.141154670312308e-11 	101324.9999999984
1.162412412412412 	299.9999999999196 	2.346198111013823e-11 	101324.9999999982
1.164914914914914 	299.9999999999471 	2.224299951758038e-11 	101324.999999998
1.167417417417417 	299.9999999999508 	2.44365209076856e-11 	101324.999999998
1.169919919919919 	300.0000000000085 	2.331865636190605e-11 	101324.9999999982
1.172422422422422 	300.0000000000447 	2.436053138522359e-11 	101324.9999999983
1.174924924924925 	299.9999999999883 	2.304112746394463e-11 	101324.9999999982
1.177427427427427 	299.9999999999538 	2.406844053152954e-11 	101324.9999999981
1.179929929929929 	300.0000000000073 	2.552593864366616e-11 	101324.9999999981
1.182432432432432 	300.0000000000405 	2.38461152877905e-11 	101324.9999999983
1.184934934934934 	300.0000000000055 	2.510178688597211e-11 	101324.9999999983
1.187437437437437 	299.9999999999774 	2.396778291670518e-11 	101324.9999999983
1.189939939939939 	299.999999999969 	2.527905347179647e-11 	101324.9999999984
1.192442442442442 	299.9999999999276 	2.432500217690291e-11 	101324.9999999984
1.194944944944944 	299.9999999999312 	2.58372925434367e-11 	101324.9999999983
1.197447447447447 	299.9999999999956 	2.520155820133394e-11 	101324.9999999982
1.199949949949949 	300.0000000000151 	2.546602888666575e-11 	101324.9999999981
1.202452452452452 	299.9999999999527 	2.650053391987461e-11 	101324.9999999982
1.204954954954955 	299.9999999999432 	2.483062717920495e-11 	101324.9999999984
1.207457457457457 	299.9999999999762 	2.618484362538036e-11 	101324.9999999987
1.20995995995996 	299.9999999999708 	2.476383451060121e-11 	101324.9999999987
1.212462462462462 	299.9999999999833 	2.549338787557123e-11 	101324.9999999988
1.214964964964964 	299.9999999999846 	2.386687068772565e-11 	101324.999999999
1.217467467467467 	299.9999999999783 	2.52210473128602e-11 	101324.9999999993
1.219969969969969 	299.9999999999654 	2.458048723898545e-11 	101324.9999999996
1.222472472472472 	300.0000000000202 	2.499005226894316e-11 	101324.9999999996
1.224974974974975 	300.0000000000519 	2.534730349387034e-11 	101324.9999999996
1.227477477477477 	299.9999999999965 	2.32329092717064e-11 	101324.9999999997
1.229979979979979 	299.9999999999777 	2.492279301541538e-11 	101324.9999999995
1.232482482482482 	299.9999999999456 	2.383591151772207e-11 	101324.9999999993
1.234984984984984 	299.9999999999447 	2.585828121744284e-11 	101324.9999999994
1.237487487487487 	299.9999999999768 	2.446202329152297e-11 	101324.9999999994
1.239989989989989 	299.9999999999839 	2.505812653071318e-11 	101324.9999999994
1.242492492492492 	300.0000000000225 	2.558958600854932e-11 	101324.9999999994
1.244994994994994 	299.9999999999866 	2.412739295804051e-11 	101324.9999999995
1.247497497497497 	299.9999999999951 	2.561532497305987e-11 	101324.9999999995
1.249999999999999 	300.0000000002882 	2.467179339064439e-11 	101324.9999999994
