-1.25 	300 	0 	101295.6107373854
-1.247497497497497 	299.9819525186417 	1.389094804556865 	101307.7820771796
-1.244994994994995 	299.9751831887992 	1.480535938719086 	101297.2911932933
-1.242492492492492 	299.9851762106065 	1.559200180603263 	101308.6908070754
-1.23998998998999 	299.9777630082046 	1.623781835474605 	101300.4696657368
-1.237487487487487 	299.9849412928397 	1.67345824099888 	101308.6527839335
-1.234984984984985 	299.9789128333576 	1.694737546030542 	101301.9362189308
-1.232482482482482 	299.983950101089 	1.68203925460925 	101307.5252808998
-1.22997997997998 	299.9814240585764 	1.65432471845217 	101304.7966358763
-1.227477477477477 	299.9856857828025 	1.616875987302327 	101309.479941383
-1.224974974974975 	299.9831869478105 	1.577005364805534 	101306.7089251672
-1.222472472472472 	299.9872350600087 	1.53132945481033 	101311.177998075
-1.21996996996997 	299.9844758911175 	1.480215296552805 	101308.0388575743
-1.217467467467467 	299.9874408978729 	1.429855684460961 	101311.2655443037
-1.214964964964965 	299.9845450196445 	1.376307002246472 	101307.9304647854
-1.212462462462462 	299.9885801321772 	1.321535870928034 	101312.4550244745
-1.20995995995996 	299.9861828470596 	1.264785876978486 	101309.6806649885
-1.207457457457457 	299.989732702479 	1.210874025063546 	101313.6670786437
-1.204954954954955 	299.9858339480553 	1.151678312248167 	101309.0982293436
-1.202452452452452 	299.9902756112444 	1.092956989319686 	101314.16253124
-1.19994994994995 	299.9884254979854 	1.031300551818756 	101311.997716123
-1.197447447447447 	299.9914989559995 	0.969174984540937 	101315.4687149165
-1.194944944944945 	299.9896544424608 	0.905774265451886 	101313.2985133507
-1.192442442442442 	299.9921235211258 	0.8451205540881697 	101316.0825255063
-1.18993993993994 	299.9905841461668 	0.7837485265304847 	101314.2680799809
-1.187437437437437 	299.9931681890204 	0.7255900885556492 	101317.2138668345
-1.184934934934935 	299.9920162301084 	0.6680737828374927 	101315.854668925
-1.182432432432432 	299.9944453736426 	0.6131643212338764 	101318.6406520015
-1.17992992992993 	299.9933964601364 	0.5601033534612245 	101317.4017968833
-1.177427427427427 	299.995604396795 	0.5098884909641798 	101319.9467593302
-1.174924924924925 	299.994628518135 	0.4612779633496874 	101318.7935795869
-1.172422422422422 	299.9964638360817 	0.4157356079468978 	101320.9146557966
-1.16991991991992 	299.9954906547114 	0.3729613899160149 	101319.7649163315
-1.167417417417417 	299.9971473194678 	0.3322724325617004 	101321.6880715223
-1.164914914914915 	299.9965911486254 	0.294385460815981 	101321.0313967649
-1.162412412412412 	299.998297792298 	0.2590018831951204 	101323.024212085
-1.15990990990991 	299.9978592747075 	0.2270094916336748 	101322.5068804162
-1.157407407407407 	299.9991722436211 	0.1957617653019318 	101324.0419828719
-1.154904904904904 	299.9989538379646 	0.1691396875671282 	101323.7851725954
-1.152402402402403 	300.0003049026305 	0.142832318068337 	101325.3711192518
-1.1498998998999 	300.0002500229933 	0.1219639726552136 	101325.307865968
-1.147397397397397 	300.0009117737716 	0.09920650757576449 	101326.0826002114
-1.144894894894895 	300.0009742075854 	0.08315312294676111 	101326.1581833608
-1.142392392392392 	300.0023343501869 	0.06496317349493463 	101327.7613081385
-1.13988988988989 	300.0028837515609 	0.05243160704736827 	101328.4124924988
-1.137387387387387 	300.0027730075681 	0.03413605362662308 	101328.2782834692
-1.134884884884885 	300.0042768238108 	0.02322996508041939 	101330.0571893155
-1.132382382382382 	300.0034664644521 	0.01641630316582838 	101329.0978459372
-1.12987987987988 	300.004830159782 	0.01156684763356332 	101330.7103886519
-1.127377377377377 	300.005156611042 	0.01514985556965245 	101331.0961807226
-1.124874874874875 	300.0056828167253 	0.01645247729421509 	101331.7182895642
-1.122372372372372 	300.0062045957369 	0.0179585340595166 	101332.3351648952
-1.11986986986987 	300.0067106699835 	0.01943888282573831 	101332.9334763101
-1.117367367367367 	300.0072331243472 	0.02095210831955765 	101333.5511549781
-1.114864864864865 	300.0077716605957 	0.02249827466122719 	101334.1878496391
-1.112362362362362 	300.0082927660441 	0.02400525269172357 	101334.8039382215
-1.10985985985986 	300.0087896947456 	0.02545599642394886 	101335.3914428849
-1.107357357357357 	300.0092901430454 	0.02691365548097107 	101335.9831094958
-1.104854854854855 	300.0098142243513 	0.028427212669945 	101336.6027218596
-1.102352352352353 	300.0103503216601 	0.02997003816754693 	101337.2365473306
-1.09984984984985 	300.0108722438312 	0.03147744391631676 	101337.8536187558
-1.097347347347347 	300.0113679828965 	0.0329179204244572 	101338.4397357074
-1.094844844844845 	300.0118486013872 	0.03431803166637096 	101339.0079747889
-1.092342342342342 	300.0123343466843 	0.03572930561010921 	101339.5822750334
-1.08983983983984 	300.012836102161 	0.03718079806542834 	101340.1755061951
-1.087337337337337 	300.0133486497979 	0.03866013568117732 	101340.7815010399
-1.084834834834835 	300.0138576296554 	0.04013020426176214 	101341.383282229
-1.082332332332332 	300.0143513383822 	0.04155985602203387 	101341.9670112149
-1.07982982982983 	300.0148281310823 	0.04294412805515282 	101342.530741721
-1.077327327327327 	300.0152960094696 	0.04430393215426332 	101343.0839337952
-1.074824824824825 	300.0157666420228 	0.04567044518688503 	101343.6403833673
-1.072322322322323 	300.0162483551857 	0.04706619848909015 	101344.2099361076
-1.06981981981982 	300.0167418448171 	0.04849323431806405 	101344.7934156716
-1.067317317317317 	300.0172402188873 	0.04993301289561473 	101345.3826736906
-1.064814814814815 	300.0177328128544 	0.05135665138636954 	101345.9651007103
-1.062312312312312 	300.0182105792463 	0.05273948303807163 	101346.5299982038
-1.05980980980981 	300.0186702187919 	0.05407226615552767 	101347.0734644543
-1.057307307307307 	300.0191150349877 	0.05536363976945971 	101347.5994051649
-1.054804804804805 	300.0195524704936 	0.05663369136251004 	101348.116620328
-1.052302302302302 	300.0199901870095 	0.05790349102431713 	101348.6341698553
-1.0497997997998 	300.0204330314842 	0.05918674758249227 	101349.1577854451
-1.047297297297297 	300.0208820824152 	0.06048687005164131 	101349.6887425359
-1.044794794794795 	300.0213353544648 	0.0617985546327575 	101350.224693768
-1.042292292292292 	300.0217889913519 	0.06311096062319761 	101350.7610785516
-1.03978978978979 	300.0222382005999 	0.06441046747045745 	101351.2922295714
-1.037287287287287 	300.0226780199928 	0.06568306093041819 	101351.8122790071
-1.034784784784785 	300.0231043240595 	0.06691726665020765 	101352.3163484461
-1.032282282282283 	300.0235151063995 	0.06810767235200037 	101352.8020658147
-1.02977977977978 	300.0239115308507 	0.06925771774846337 	101353.2708075476
-1.027277277277277 	300.0242980885918 	0.07038002667052892 	101353.7278843248
-1.024774774774775 	300.0246815382938 	0.07149341686032135 	101354.1812880338
-1.022272272272272 	300.0250688417185 	0.07261715461932172 	101354.6392500946
-1.01976976976977 	300.0254647295375 	0.07376421052772451 	101355.1073641158
-1.017267267267267 	300.0258697251895 	0.07493581810747146 	101355.5862492276
-1.014764764764765 	300.0262793938731 	0.07611946646959382 	101356.0706616336
-1.012262262262262 	300.0266852725452 	0.07729156700622719 	101356.5505949054
-1.00975975975976 	300.0270773962807 	0.07842450686384712 	101357.0142662778
-1.007257257257257 	300.0274476933931 	0.0794960442230889 	101357.4521308794
-1.004754754754755 	300.0277930549748 	0.08049774292200813 	101357.8605119228
-1.002252252252252 	300.0281168486818 	0.08143907427212374 	101358.243390166
-0.9997497497497498 	300.0284281306822 	0.08234518030925171 	101358.6114732213
-0.9972472472472473 	300.0287386934376 	0.08324871946090047 	101358.978705123
-0.9947447447447449 	300.0290590229938 	0.08417876404447207 	101359.3574854866
-0.9922422422422421 	300.0293947920993 	0.08515118505685788 	101359.7545231443
-0.9897397397397399 	300.0297453379652 	0.0861644371649242 	101360.1690354082
-0.9872372372372376 	300.0301046509757 	0.08720216277847358 	101360.5939168745
-0.9847347347347346 	300.0304641840388 	0.08824075998394752 	101361.0190613227
-0.9822322322322323 	300.0308159626719 	0.0892578438781334 	101361.4350386773
-0.9797297297297296 	300.0311545340484 	0.09023768432144974 	101361.8354006319
-0.9772272272272275 	300.0314771868934 	0.09117204723142559 	101362.2169405356
-0.9747247247247248 	300.0317829747255 	0.09205778684470373 	101362.578538333
-0.9722222222222224 	300.0320716555727 	0.09289409712434253 	101362.9199076815
-0.9697197197197196 	300.0323434009048 	0.09368168577550673 	101363.2412509153
-0.9672172172172175 	300.0325993322689 	0.09442409442188086 	101363.5438940451
-0.9647147147147147 	300.0328422754052 	0.09512960493870494 	101363.8311786897
-0.9622122122122124 	300.0330769962879 	0.09581178807199306 	101364.1087403838
-0.9597097097097099 	300.0333095587561 	0.09648770393907478 	101364.3837498581
-0.9572072072072073 	300.0335459578964 	0.09717411770251327 	101364.6632966741
-0.9547047047047047 	300.0337904941342 	0.09788298514378035 	101364.9524660769
-0.9522022022022023 	300.0340444204679 	0.09861770635073437 	101365.2527403646
-0.9496996996996998 	300.034305331703 	0.09937146780821127 	101365.5612751424
-0.9471971971971973 	300.0345675993756 	0.1001285152071212 	101365.8714146944
-0.9446946946946947 	300.0348238729466 	0.1008683544707903 	101366.1744670869
-0.9421921921921923 	300.0350672403183 	0.1015717182287187 	101366.462258095
-0.93968968968969 	300.0352932622132 	0.1022261557817944 	101366.7295383538
-0.9371871871871872 	300.0355010676469 	0.1028290528123764 	101366.9752780132
-0.9346846846846848 	300.0356931085392 	0.103387007506023 	101367.2023763451
-0.9321821821821823 	300.0358738056991 	0.1039121685356835 	101367.4160610203
-0.9296796796796799 	300.0360477764872 	0.104417370804632 	101367.6217917058
-0.9271771771771771 	300.0362183685265 	0.1049120424130011 	101367.8235268729
-0.9246746746746748 	300.0363869188278 	0.1054000756684922 	101368.0228474222
-0.9221721721721724 	300.0365527992107 	0.1058799049191925 	101368.2190100611
-0.9196696696696698 	300.0367141100142 	0.1063464375175345 	101368.4097687427
-0.9171671671671672 	300.0368687966039 	0.106794165859383 	101368.5926938682
-0.9146646646646649 	300.0370158519705 	0.1072204854970032 	101368.7665945623
-0.9121621621621623 	300.0371561526294 	0.1076279443273193 	101368.9325077919
-0.9096596596596597 	300.0372924642759 	0.1080241721180937 	101369.0937039079
-0.9071571571571573 	300.0374284007114 	0.1084189730361426 	101369.2544564675
-0.9046546546546547 	300.0375666331577 	0.1088194262437042 	101369.4179246158
-0.9021521521521524 	300.0377071220293 	0.1092250950584746 	101369.584061706
-0.8996496496496498 	300.0378462622871 	0.1096257579219919 	101369.7486048089
-0.8971471471471473 	300.0379774958079 	0.1100031458455802 	101369.9037984709
-0.894644644644645 	300.0380932870263 	0.1103363864568102 	101370.0407313798
-0.892142142142142 	300.0381877074601 	0.1106091017485124 	101370.1523924369
-0.8896396396396397 	300.038258582394 	0.1108153156269529 	101370.2362091686
-0.8871371371371374 	300.0383083594517 	0.1109618609737218 	101370.2950758761
-0.8846346346346349 	300.0383434048379 	0.1110664581397567 	101370.3365206461
-0.8821321321321324 	300.0383720513985 	0.1111523512478113 	101370.3703974883
-0.8796296296296297 	300.0384021775113 	0.1112416107045701 	101370.4060235053
-0.8771271271271271 	300.0384391650301 	0.1113494200338359 	101370.4497630965
-0.8746246246246248 	300.038484791149 	0.1114809230768388 	101370.503718296
-0.8721221221221224 	300.0385372112199 	0.1116311073872142 	101370.5657081302
-0.8696196196196196 	300.0385918538075 	0.1117872477050973 	101370.6303265143
-0.8671171171171175 	300.0386428255641 	0.1119328056930493 	101370.6906043995
-0.8646146146146148 	300.0386843630803 	0.1120515016482816 	101370.7397261957
-0.8621121121121121 	300.038711967281 	0.1121305275190458 	101370.7723713398
-0.8596096096096097 	300.0387230190385 	0.1121623127656195 	101370.7854421547
-0.857107107107107 	300.0387168330524 	0.1121447352771832 	101370.7781279266
-0.8546046046046049 	300.0386942963947 	0.1120801850750989 	101370.7514797803
-0.8521021021021022 	300.0386573718157 	0.1119741727568445 	101370.7078162382
-0.8495995995995997 	300.0386086288501 	0.1118340055222812 	101370.6501750452
-0.8470970970970974 	300.0385508679651 	0.111667679956431 	101370.5818686916
-0.8445945945945946 	300.0384867897909 	0.1114829035551613 	101370.506091326
-0.8420920920920922 	300.0384186695088 	0.1112861584986428 	101370.4255341511
-0.8395895895895897 	300.0383480618128 	0.1110818899015893 	101370.3420362773
-0.8370870870870872 	300.0382756530533 	0.1108721354841001 	101370.2564091014
-0.8345845845845846 	300.0382014043705 	0.1106569244308462 	101370.1686060143
-0.8320820820820823 	300.0381249285181 	0.1104352381587037 	101370.0781685232
-0.8295795795795798 	300.038045755182 	0.1102056560906557 	101369.9845401093
-0.8270770770770772 	300.037963174885 	0.1099659508405113 	101369.8868821599
-0.8245745745745746 	300.0378757923127 	0.1097119976708627 	101369.7835455429
-0.8220720720720721 	300.0377813222126 	0.1094373607540139 	101369.671828615
-0.8195695695695699 	300.0376770929282 	0.1091347315791807 	101369.5485723176
-0.817067067067067 	300.0375611968035 	0.1087990114541641 	101369.411520448
-0.8145645645645651 	300.0374336170594 	0.1084302355540054 	101369.2606521294
-0.8120620620620621 	300.0372964350521 	0.1080340076725118 	101369.0984277853
-0.8095595595595597 	300.0371526928201 	0.1076184138371637 	101368.9284446888
-0.8070570570570572 	300.0370044713828 	0.1071889561256859 	101368.7531642466
-0.8045545545545546 	300.0368515063413 	0.106744968925326 	101368.5722742587
-0.8020520520520523 	300.0366914600258 	0.106280401424919 	101368.3830107982
-0.7995495495495494 	300.0365218283847 	0.1057888667108984 	101368.1824129653
-0.7970470470470474 	300.0363422297525 	0.1052696595967734 	101367.9700294377
-0.7945445445445446 	300.0361554582967 	0.104730488622223 	101367.7491641423
-0.7920420420420423 	300.0359664557211 	0.1041846858354108 	101367.5256603283
-0.7895395395395397 	300.0357796984203 	0.1036442057801212 	101367.3048111717
-0.7870370370370371 	300.0355965023256 	0.1031124086153337 	101367.0881730587
-0.7845345345345348 	300.0354138179387 	0.1025808461936046 	101366.8721406266
-0.7820320320320323 	300.035225260158 	0.1020320657020401 	101366.6491640384
-0.7795295295295296 	300.0350238969104 	0.1014471469131129 	101366.4110459694
-0.7770270270270272 	300.0348053541638 	0.1008140909966449 	101366.1526131535
-0.7745245245245247 	300.034569625133 	0.1001327534972003 	101365.8738568246
-0.7720220220220222 	300.0343207578601 	0.09941410255830545 	101365.579563905
-0.7695195195195199 	300.034064840145 	0.09867484814900015 	101365.2769339329
-0.767017017017017 	300.0338075077501 	0.09793063682638807 	101364.9726315785
-0.7645145145145147 	300.0335520878558 	0.0971908444377189 	101364.6705913382
-0.7620120120120122 	300.0332988703049 	0.09645647298462134 	101364.3711558817
-0.7595095095095097 	300.0330455497113 	0.09572137358543377 	101364.0715993596
-0.7570070070070072 	300.032788659635 	0.09497619509950056 	101363.7678230308
-0.7545045045045048 	300.0325254179053 	0.09421333786516678 	101363.4565370381
-0.7520020020020022 	300.0322549448663 	0.09343016862751685 	101363.1367007108
-0.7494994994994997 	300.0319780542849 	0.09262853844928129 	101362.8092753611
-0.7469969969969972 	300.0316959487503 	0.0918115076318425 	101362.4756830936
-0.7444944944944945 	300.0314091074652 	0.09098046918046705 	101362.136491574
-0.7419919919919924 	300.0311172514403 	0.09013486094987112 	101361.7913719951
-0.7394894894894897 	300.0308199321345 	0.08927344720998634 	101361.4397943824
-0.7369869869869872 	300.0305166920385 	0.08839472057469946 	101361.0812168501
-0.7344844844844846 	300.0302066441094 	0.08749607269596786 	101360.7145893971
-0.7319819819819822 	300.02988842934 	0.08657392600172656 	101360.3383042612
-0.7294794794794797 	300.0295611582882 	0.08562611804089086 	101359.9513102993
-0.7269769769769773 	300.0292254456301 	0.08465431004749299 	101359.5543353567
-0.7244744744744747 	300.0288830663377 	0.08366297005954856 	101359.149479341
-0.721971971971972 	300.0285352183801 	0.08265507440305925 	101358.7381590805
-0.7194694694694695 	300.0281812801879 	0.08162919606542957 	101358.3196389659
-0.7169669669669674 	300.0278197967319 	0.08058209812529059 	101357.8921979
-0.7144644644644647 	300.0274509850244 	0.07951490670658579 	101357.4560918623
-0.711961961961962 	300.0270779730322 	0.07843595483202821 	101357.0150196422
-0.7094594594594597 	300.0267048824389 	0.07735574707880692 	101356.5738554286
-0.7069569569569573 	300.0263331178827 	0.07627759665746472 	101356.1342605486
-0.7044544544544545 	300.0259594427511 	0.07519292414273902 	101355.6924082397
-0.7019519519519523 	300.0255780815522 	0.07408677677961603 	101355.2414695273
-0.6994494494494495 	300.0251853564625 	0.07294973297075261 	101354.7770956172
-0.6969469469469471 	300.0247828940069 	0.07178612249933479 	101354.3012095717
-0.6944444444444446 	300.0243766273189 	0.07061149007507732 	101353.8208268653
-0.6919419419419421 	300.0239725065802 	0.06944155975357638 	101353.3429828106
-0.6894394394394396 	300.0235725262777 	0.06828186645584883 	101352.8700356436
-0.6869369369369374 	300.0231740480853 	0.06712575703296454 	101352.3988653604
-0.6844344344344344 	300.0227723608798 	0.06596082710738678 	101351.9239017964
-0.6819319319319321 	300.0223639456987 	0.06477743732288369 	101351.4409848295
-0.6794294294294296 	300.0219479775935 	0.06357291397407612 	101350.9491396648
-0.6769269269269272 	300.0215256387443 	0.06235011663267268 	101350.4497645579
-0.6744244244244245 	300.0210986635523 	0.06111380249766356 	101349.9449098918
-0.6719219219219222 	300.0206686192229 	0.05986860406632279 	101349.4364280678
-0.6694194194194195 	300.0202370981251 	0.05861920333068731 	101348.926200905
-0.6669169169169172 	300.0198058502763 	0.05737040436958399 	101348.4162973385
-0.6644144144144146 	300.0193760692083 	0.05612520562439063 	101347.9081290925
-0.661911911911912 	300.0189472138219 	0.05488186745948662 	101347.4010571702
-0.6594094094094097 	300.0185166013833 	0.05363306895839847 	101346.8919105475
-0.656906906906907 	300.0180806090086 	0.05236919182422761 	101346.3764060393
-0.6544044044044046 	300.0176369652257 	0.05108432785501771 	101345.8518573575
-0.6519019019019021 	300.0171865099978 	0.04978082248556091 	101345.3192566834
-0.6493993993993996 	300.0167329662511 	0.04846859374364594 	101344.7830049
-0.6468968968968971 	300.0162806440846 	0.04715903317308417 	101344.2481976964
-0.6443943943943946 	300.0158315412149 	0.04585735231069195 	101343.7171973966
-0.6418918918918921 	300.0153838340835 	0.04455863975013232 	101343.1878486092
-0.6393893893893897 	300.0149328762296 	0.0432505510218725 	101342.6546585557
-0.6368868868868871 	300.0144741581888 	0.04192118810627228 	101342.1122961498
-0.6343843843843846 	300.0140063910945 	0.04056730070135844 	101341.5592376563
-0.6318818818818821 	300.013532772363 	0.03919762855142887 	101340.9992635433
-0.6293793793793795 	300.0130595837817 	0.03782912309383824 	101340.4398005775
-0.6268768768768773 	300.0125928752225 	0.03647804388406092 	101339.888000863
-0.6243743743743745 	300.0121351178207 	0.03515091627066295 	101339.3467649484
-0.6218718718718721 	300.0116835875208 	0.03384034215596322 	101338.8129094735
-0.6193693693693696 	300.0112315136662 	0.03252791230521389 	101338.2784439141
-0.6168668668668671 	300.0107712591708 	0.03119276565330255 	101337.7342945724
-0.6143643643643645 	300.0102979133409 	0.02982163620164649 	101337.1746616477
-0.6118618618618621 	300.0098118498756 	0.02841572276524993 	101336.5999944434
-0.6093593593593596 	300.0093189707767 	0.02699134166103186 	101336.0172708058
-0.6068568568568571 	300.0088285872722 	0.02557415704741365 	101335.437499255
-0.6043543543543546 	300.0083499037631 	0.02418955137394129 	101334.8715620657
-0.6018518518518521 	300.0078885736151 	0.02285313966676895 	101334.3261432237
-0.5993493493493496 	300.0074446365703 	0.02156501827316802 	101333.801290125
-0.5968468468468471 	300.0070124577108 	0.02030951040769536 	101333.2903409381
-0.5943443443443446 	300.0065824904371 	0.01905999669401924 	101332.782009243
-0.591841841841842 	300.0061441254707 	0.01778683686427266 	101332.2637522331
-0.5893393393393397 	300.0056887013019 	0.01646581212936132 	101331.7253295665
-0.5868368368368371 	300.0052118804193 	0.01508482868292494 	101331.161612943
-0.5843343343343346 	300.0047148825179 	0.01364741438242066 	101330.574044197
-0.5818318318318321 	300.0042043918648 	0.01217248162812487 	101329.9705255051
-0.5793293293293297 	300.0036912758202 	0.01069075048617583 	101329.3639045216
-0.5768268268268271 	300.0031885194088 	0.009238996574638838 	101328.7695322147
-0.5743243243243245 	300.0027089794654 	0.007853840229752796 	101328.2026081675
-0.5718218218218221 	300.0022636353879 	0.006566762492843767 	101327.6761123125
-0.5693193193193196 	300.0018605868128 	0.005401127570154853 	101327.1996198447
-0.5668168168168171 	300.0015046908187 	0.004371065031334732 	101326.7788728011
-0.5643143143143147 	300.001197686813 	0.003481772055024401 	101326.4159271269
-0.5618118118118121 	300.0009386477748 	0.002730769321299288 	101326.1096865622
-0.5593093093093094 	300.000724603471 	0.002109666424218273 	101325.8566397095
-0.5568068068068072 	300.0005512077919 	0.001606066490369516 	101325.6516484123
-0.5543043043043046 	300.0004133573444 	0.001205343618423099 	101325.4886792576
-0.551801801801802 	300.0003057073515 	0.0008921324616218424 	101325.3614136257
-0.5492992992992995 	300.0002230620092 	0.0006514594293026054 	101325.2637087265
-0.5467967967967969 	300.0001606377529 	0.000469512620989857 	101325.1899095479
-0.5442942942942947 	300.0001142162585 	0.0003340908452842632 	101325.1350291287
-0.5417917917917919 	300.0000802075439 	0.0002347944532726212 	101325.0948233759
-0.5392892892892895 	300.0000556482451 	0.000163026620400865 	101325.065788869
-0.536786786786787 	300.000038156807 	0.0001118693903730292 	101325.0451100475
-0.5342842842842846 	300.0000258645036 	7.588814779167997e-05 	101325.0305777888
-0.531781781781782 	300.0000173368073 	5.090591118844061e-05 	101325.0204961586
-0.5292792792792794 	300.0000114943192 	3.377609884683409e-05 	101325.0135890182
-0.526776776776777 	300.0000075397144 	2.217215249689579e-05 	101325.0089137986
-0.5242742742742745 	300.0000048943672 	1.440348136013312e-05 	101325.0057863032
-0.521771771771772 	300.0000031448764 	9.261654402391622e-06 	101325.0037179427
-0.5192692692692695 	300.0000020005603 	5.896098209357207e-06 	101325.0023651682
-0.516766766766767 	300.0000012602945 	3.716963071636959e-06 	101325.0014899424
-0.5142642642642645 	300.0000007862963 	2.320825834724289e-06 	101325.0009296318
-0.511761761761762 	300.0000004859925 	1.435537487883323e-06 	101325.0005746039
-0.5092592592592596 	300.0000002976348 	8.797851825120776e-07 	101325.000351901
-0.506756756756757 	300.0000001805932 	5.343360301566484e-07 	101325.0002135704
-0.5042542542542544 	300.0000001086732 	3.216523251827464e-07 	101325.0001284699
-0.5017517517517521 	300.0000000648382 	1.919486620795501e-07 	101325.0000766069
-0.4992492492492494 	300.0000000383501 	1.135658671126376e-07 	101325.0000452898
-0.496746746746747 	300.0000000224506 	6.663311859969884e-08 	101325.0000265493
-0.4942442442442445 	300.0000000129967 	3.877066053038186e-08 	101325.0000154336
-0.4917417417417421 	300.0000000074646 	2.238045407737387e-08 	101325.0000088977
-0.4892392392392395 	300.0000000042636 	1.281330247078349e-08 	101325.0000050871
-0.486736736736737 	300.0000000024071 	7.283059322776127e-09 	101325.0000028841
-0.4842342342342345 	300.0000000012948 	4.104465913407583e-09 	101325.0000016205
-0.481731731731732 	300.0000000008039 	2.300330430125063e-09 	101325.0000009018
-0.4792292292292296 	300.0000000004504 	1.275508294451403e-09 	101325.0000004961
-0.4767267267267268 	300.0000000001817 	7.0799536200473e-10 	101325.0000002691
-0.4742242242242246 	300.0000000001232 	3.84750591848983e-10 	101325.0000001428
-0.471721721721722 	300.0000000000172 	2.136057623946243e-10 	101325.0000000732
-0.4692192192192195 	300.0000000000102 	1.133104762975103e-10 	101325.0000000351
-0.4667167167167169 	299.9999999999223 	6.484469608026505e-11 	101325.0000000143
-0.4642142142142145 	300.0000000000052 	3.38816803545926e-11 	101325.0000000034
-0.461711711711712 	300.0000000000214 	2.214490409377403e-11 	101324.9999999975
-0.4592092092092094 	300.0000000000101 	1.175661961563306e-11 	101324.9999999943
-0.456706706706707 	300.000000000052 	9.578697486416895e-12 	101324.9999999924
-0.4542042042042045 	299.9999999999383 	5.538910813996133e-12 	101324.9999999916
-0.451701701701702 	299.9999999999505 	6.405441617978778e-12 	101324.999999991
-0.4491991991991995 	299.9999999999483 	3.398860888735879e-12 	101324.9999999907
-0.4466966966966969 	299.9999999999401 	4.753567484839309e-12 	101324.9999999905
-0.4441941941941945 	299.9999999999919 	1.828200484047555e-12 	101324.9999999906
-0.441691691691692 	299.99999999995 	4.866708222389073e-12 	101324.9999999907
-0.4391891891891895 	299.9999999999886 	1.723961464830564e-12 	101324.9999999908
-0.436686686686687 	299.9999999999685 	5.618244449301038e-12 	101324.9999999909
-0.4341841841841846 	299.9999999999926 	2.36123160219352e-12 	101324.9999999909
-0.431681681681682 	299.9999999999433 	5.682407669078159e-12 	101324.9999999909
-0.4291791791791794 	299.9999999999283 	1.329911642064534e-12 	101324.999999991
-0.426676676676677 	299.9999999999021 	4.997839949945467e-12 	101324.999999991
-0.4241741741741744 	299.9999999999667 	2.467103420432831e-12 	101324.9999999909
-0.421671671671672 	300.0000000000084 	5.762258213010892e-12 	101324.9999999909
-0.4191691691691694 	300.0000000000547 	3.446298251823957e-12 	101324.9999999907
-0.4166666666666669 	300.0000000000622 	5.051959745251672e-12 	101324.9999999904
-0.4141641641641645 	299.9999999999279 	2.750410414333052e-12 	101324.9999999903
-0.411661661661662 	300.0000000000001 	3.862425830881465e-12 	101324.9999999903
-0.4091591591591594 	300.0000000000005 	2.323681308465071e-12 	101324.9999999904
-0.406656656656657 	299.9999999999338 	3.959664063593843e-12 	101324.9999999905
-0.4041541541541545 	300.0000000000181 	1.556350876427183e-12 	101324.9999999908
-0.401651651651652 	299.9999999999202 	4.251685090935651e-12 	101324.999999991
-0.3991491491491494 	299.9999999999958 	1.591404752376175e-12 	101324.9999999912
-0.396646646646647 	299.9999999999511 	5.202437632127083e-12 	101324.9999999915
-0.3941441441441444 	299.9999999999771 	1.900492745801421e-12 	101324.9999999915
-0.3916416416416419 	299.9999999999282 	5.128595972752665e-12 	101324.9999999914
-0.3891391391391395 	299.999999999955 	1.493998849743101e-12 	101324.9999999914
-0.3866366366366368 	299.9999999999549 	3.91306236121534e-12 	101324.9999999913
-0.3841341341341344 	299.9999999999931 	1.499631087183363e-12 	101324.9999999913
-0.381631631631632 	299.9999999999416 	2.161824643095619e-12 	101324.9999999911
-0.3791291291291294 	300.0000000000035 	1.061898585043721e-12 	101324.9999999909
-0.3766266266266269 	300.0000000000238 	9.292880056836846e-13 	101324.9999999908
-0.3741241241241244 	300.0000000000271 	1.587195232563257e-12 	101324.9999999906
-0.371621621621622 	300.0000000000191 	7.081425421393813e-13 	101324.9999999907
-0.3691191191191194 	300.0000000000056 	2.974975922718589e-12 	101324.9999999908
-0.366616616616617 	300.0000000000086 	1.022501592781298e-12 	101324.9999999911
-0.3641141141141143 	299.9999999999646 	3.156689425819603e-12 	101324.9999999907
-0.3616116116116119 	299.9999999999449 	1.212491238956165e-12 	101324.9999999907
-0.3591091091091095 	299.9999999999816 	2.588449019040864e-12 	101324.999999991
-0.356606606606607 	299.9999999999724 	1.71797005323342e-12 	101324.9999999909
-0.3541041041041044 	299.9999999999899 	1.050143853211436e-12 	101324.9999999911
-0.3516016016016019 	300.0000000000092 	1.751886633294031e-12 	101324.9999999911
-0.3490990990990994 	299.999999999992 	3.169456081513791e-13 	101324.9999999912
-0.346596596596597 	300.0000000000458 	2.831306732511519e-12 	101324.9999999912
-0.3440940940940944 	300.0000000000537 	8.561364926259618e-13 	101324.9999999909
-0.3415915915915919 	300.00000000002 	3.642690971687258e-12 	101324.9999999909
-0.3390890890890895 	299.9999999999806 	1.227224800867455e-12 	101324.9999999911
-0.3365865865865869 	300.0000000000214 	2.913368583069004e-12 	101324.9999999908
-0.3340840840840844 	300.000000000003 	1.479021954845982e-12 	101324.9999999907
-0.3315815815815819 	300.0000000000228 	2.428035515950501e-12 	101324.9999999907
-0.3290790790790794 	300.000000000021 	1.113245983849126e-12 	101324.9999999907
-0.3265765765765769 	299.999999999918 	1.94814417401651e-12 	101324.9999999905
-0.3240740740740744 	299.9999999999902 	8.220876074392375e-13 	101324.9999999905
-0.3215715715715718 	300.000000000001 	2.59655501758894e-12 	101324.9999999905
-0.3190690690690695 	299.9999999999272 	9.316263785147509e-13 	101324.9999999906
-0.3165665665665668 	299.9999999999919 	4.156041782104655e-12 	101324.9999999908
-0.3140640640640644 	300.000000000004 	2.277066871905228e-12 	101324.9999999907
-0.311561561561562 	299.9999999999216 	6.557881137950607e-12 	101324.9999999908
-0.3090590590590593 	299.999999999992 	1.652386731139e-12 	101324.9999999908
-0.3065565565565568 	300.000000000001 	7.30460779695557e-12 	101324.9999999905
-0.3040540540540545 	299.999999999998 	1.784549725277106e-12 	101324.9999999904
-0.3015515515515518 	300.0000000000356 	6.747801489621504e-12 	101324.9999999904
-0.2990490490490494 	299.9999999999447 	2.910970740134126e-12 	101324.9999999905
-0.2965465465465469 	299.999999999986 	5.024292710963589e-12 	101324.9999999908
-0.2940440440440444 	299.9999999999994 	3.713069190902425e-12 	101324.9999999908
-0.2915415415415418 	299.9999999999994 	4.720606739583553e-12 	101324.9999999908
-0.2890390390390395 	300.0000000000007 	4.952469037103222e-12 	101324.9999999908
-0.2865365365365368 	299.9999999999789 	4.068767835584672e-12 	101324.9999999908
-0.2840340340340343 	299.9999999999996 	5.791943218466535e-12 	101324.9999999908
-0.2815315315315318 	299.9999999999191 	2.858200408007093e-12 	101324.999999991
-0.2790290290290295 	299.9999999999556 	3.799003640327846e-12 	101324.9999999909
-0.2765265265265269 	300.0000000000088 	1.720414542534057e-12 	101324.9999999907
-0.2740240240240244 	300.000000000024 	2.128105258135095e-12 	101324.9999999909
-0.2715215215215219 	300.0000000000111 	1.516033893952893e-12 	101324.9999999909
-0.2690190190190194 	299.99999999994 	1.467833087421128e-12 	101324.9999999911
-0.2665165165165169 	299.9999999999987 	2.516885125247289e-12 	101324.9999999911
-0.2640140140140144 	299.9999999999623 	1.707407519836311e-12 	101324.9999999908
-0.2615115115115119 	299.999999999999 	3.208496236282645e-12 	101324.9999999908
-0.2590090090090094 	299.9999999999277 	1.460299316954844e-12 	101324.9999999907
-0.2565065065065068 	299.9999999999897 	2.634571124691856e-12 	101324.9999999908
-0.2540040040040044 	299.9999999999973 	3.0413206522447e-12 	101324.999999991
-0.2515015015015019 	300.0000000000394 	2.027143610390426e-12 	101324.9999999909
-0.2489989989989994 	300.0000000000464 	4.457513012494976e-12 	101324.9999999909
-0.2464964964964968 	299.9999999999879 	1.864132817495182e-12 	101324.9999999908
-0.2439939939939944 	299.9999999999931 	5.897633478158021e-12 	101324.9999999908
-0.2414914914914919 	299.9999999999654 	1.421997491259354e-12 	101324.9999999906
-0.2389889889889893 	300.0000000000031 	6.000270343723981e-12 	101324.9999999905
-0.2364864864864869 	300.0000000000236 	1.971288418644403e-12 	101324.9999999903
-0.2339839839839843 	299.9999999999258 	6.196645877416954e-12 	101324.9999999904
-0.2314814814814819 	299.9999999999787 	1.69087361603056e-12 	101324.9999999903
-0.2289789789789792 	299.9999999999163 	5.227834654283493e-12 	101324.9999999905
-0.2264764764764769 	299.9999999999456 	2.799343765163411e-12 	101324.9999999907
-0.2239739739739743 	299.9999999999544 	5.002750457535429e-12 	101324.9999999907
-0.2214714714714718 	299.9999999999374 	4.183252341312303e-12 	101324.9999999909
-0.2189689689689693 	299.9999999999646 	3.835723652447878e-12 	101324.9999999911
-0.2164664664664669 	299.9999999999798 	4.917380994143113e-12 	101324.9999999908
-0.2139639639639643 	299.999999999926 	3.451854606731052e-12 	101324.9999999909
-0.2114614614614618 	299.9999999999686 	4.148546020425761e-12 	101324.9999999912
-0.2089589589589593 	299.9999999999932 	3.80891234478307e-12 	101324.9999999913
-0.2064564564564568 	299.9999999999926 	2.969783851327623e-12 	101324.9999999911
-0.2039539539539543 	299.9999999999031 	3.729677795933135e-12 	101324.999999991
-0.2014514514514518 	299.9999999999436 	1.591144821860209e-12 	101324.9999999907
-0.1989489489489494 	299.9999999999678 	4.191864069194293e-12 	101324.9999999907
-0.1964464464464468 	299.999999999997 	5.894694251606335e-13 	101324.9999999905
-0.1939439439439443 	299.9999999999802 	3.270499962894926e-12 	101324.9999999905
-0.1914414414414418 	299.9999999999134 	4.472046075888217e-13 	101324.9999999907
-0.1889389389389393 	300.0000000000023 	1.885443034024117e-12 	101324.9999999907
-0.1864364364364368 	300.0000000000463 	9.467794968500947e-13 	101324.9999999907
-0.1839339339339343 	299.9999999999713 	2.678540664535572e-12 	101324.9999999904
-0.1814314314314318 	299.9999999999911 	1.021645677136538e-12 	101324.9999999906
-0.1789289289289293 	299.9999999998915 	2.230335373336144e-12 	101324.9999999906
-0.1764264264264268 	299.9999999999781 	7.395011510962149e-13 	101324.9999999907
-0.1739239239239243 	299.999999999894 	2.923967365077022e-12 	101324.9999999907
-0.1714214214214218 	299.9999999999887 	8.348944624212448e-13 	101324.9999999907
-0.1689189189189193 	299.9999999999454 	5.212395379632405e-12 	101324.9999999908
-0.1664164164164168 	300.0000000000022 	1.885511229792897e-12 	101324.9999999905
-0.1639139139139143 	299.9999999999808 	6.440230184649046e-12 	101324.9999999905
-0.1614114114114118 	300.0000000000222 	3.362385733521e-12 	101324.9999999902
-0.1589089089089093 	299.9999999999992 	8.19962620914249e-12 	101324.9999999903
-0.1564064064064068 	299.9999999999806 	4.026280538821706e-12 	101324.9999999903
-0.1539039039039043 	299.9999999999852 	9.386880904998401e-12 	101324.9999999901
-0.1514014014014018 	300.0000000000246 	2.44033661458501e-12 	101324.9999999898
-0.1488988988988993 	299.9999999999797 	9.637979548209833e-12 	101324.9999999896
-0.1463963963963968 	299.9999999999997 	6.210342815118952e-13 	101324.9999999896
-0.1438938938938943 	299.9999999999496 	9.220686198030183e-12 	101324.9999999897
-0.1413913913913918 	299.999999999922 	2.202924627340523e-12 	101324.9999999897
-0.1388888888888893 	299.9999999999773 	6.803351583790226e-12 	101324.9999999899
-0.1363863863863868 	299.9999999998867 	1.427024124922805e-12 	101324.99999999
-0.1338838838838843 	299.9999999999109 	4.282531580170413e-12 	101324.99999999
-0.1313813813813818 	299.9999999999929 	9.05602211321863e-13 	101324.9999999903
-0.1288788788788793 	299.9999999999549 	3.696103813009116e-12 	101324.9999999901
-0.1263763763763768 	299.9999999999684 	6.760478756387607e-13 	101324.9999999901
-0.1238738738738743 	299.9999999999268 	3.556188151137558e-12 	101324.9999999901
-0.1213713713713717 	299.9999999999802 	2.497483441041611e-13 	101324.9999999903
-0.1188688688688693 	300.0000000000055 	4.612953968351236e-12 	101324.9999999903
-0.1163663663663668 	299.9999999999043 	3.621445660020792e-13 	101324.9999999904
-0.1138638638638643 	299.9999999999876 	5.921328595852861e-12 	101324.9999999906
-0.1113613613613618 	299.9999999999831 	4.950778226321808e-13 	101324.9999999909
-0.1088588588588592 	299.9999999999728 	5.859569178241723e-12 	101324.9999999907
-0.1063563563563568 	299.9999999999537 	1.162513218466925e-12 	101324.999999991
-0.1038538538538543 	299.999999999974 	5.056775925334059e-12 	101324.9999999912
-0.1013513513513517 	300.0000000000143 	1.035358132237294e-12 	101324.9999999912
-0.09884884884884926 	299.9999999999444 	4.66707490038438e-12 	101324.999999991
-0.09634634634634676 	299.9999999998826 	1.853011776586501e-12 	101324.9999999909
-0.09384384384384425 	299.9999999999258 	3.745105461039936e-12 	101324.999999991
-0.09134134134134177 	300.0000000000245 	2.420800934614016e-12 	101324.9999999909
-0.08883883883883925 	300.0000000000065 	4.268221927571749e-12 	101324.9999999907
-0.08633633633633674 	299.9999999999471 	2.460208916643998e-12 	101324.9999999906
-0.08383383383383426 	300.000000000008 	1.852663063976858e-12 	101324.9999999904
-0.08133133133133173 	299.9999999999678 	1.495744559986516e-12 	101324.9999999903
-0.07882882882882926 	299.9999999998742 	9.772362243127668e-13 	101324.99999999
-0.07632632632632676 	299.9999999999553 	4.771381347628533e-13 	101324.9999999902
-0.07382382382382424 	299.9999999998917 	8.949205887042389e-14 	101324.9999999904
-0.07132132132132173 	300.0000000000104 	2.56686905242608e-13 	101324.9999999906
-0.06881881881881925 	299.9999999999571 	4.975115386934598e-13 	101324.9999999906
-0.06631631631631671 	299.9999999998876 	4.476942332835882e-14 	101324.9999999905
-0.06381381381381425 	299.9999999999524 	1.212139337319759e-13 	101324.9999999908
-0.06131131131131173 	299.9999999999543 	4.259210024105597e-14 	101324.9999999907
-0.05880880880880923 	299.999999999916 	1.291062491538061e-13 	101324.9999999905
-0.05630630630630672 	299.9999999999633 	8.23839458563411e-14 	101324.9999999907
-0.05380380380380424 	300.0000000000157 	5.577196520516525e-13 	101324.9999999909
-0.05130130130130173 	300.0000000000128 	6.801861078769973e-13 	101324.9999999907
-0.04879879879879922 	299.9999999999362 	1.016127757745762e-12 	101324.9999999906
-0.04629629629629672 	299.999999999929 	2.512904718108419e-13 	101324.9999999907
-0.04379379379379422 	299.9999999999128 	7.500582350388777e-13 	101324.9999999906
-0.04129129129129173 	299.9999999999755 	5.989740686582358e-13 	101324.9999999906
-0.03878878878878922 	299.9999999999831 	3.384056613733631e-13 	101324.9999999905
-0.03628628628628671 	299.99999999998 	5.95035203158832e-13 	101324.9999999905
-0.03378378378378422 	299.9999999999232 	4.615369730223299e-13 	101324.9999999907
-0.03128128128128172 	299.9999999999664 	1.054272611870413e-12 	101324.9999999907
-0.02877877877877922 	299.999999999967 	5.44327780854798e-13 	101324.9999999908
-0.0262762762762767 	299.9999999998939 	7.900967262676923e-13 	101324.9999999909
-0.02377377377377422 	300.0000000000217 	1.138089399892132e-13 	101324.9999999909
-0.0212712712712717 	299.9999999998958 	5.679902669253593e-13 	101324.999999991
-0.01876876876876921 	299.9999999999748 	6.22342059991006e-13 	101324.999999991
-0.01626626626626671 	300.0000000000112 	1.065756952818391e-12 	101324.9999999909
-0.0137637637637642 	299.9999999999609 	1.238682583886548e-13 	101324.9999999907
-0.0112612612612617 	300.0000000000176 	2.78972004177904e-13 	101324.9999999905
-0.008758758758759198 	299.9999999999967 	4.095294151876598e-13 	101324.9999999906
-0.006256256256256697 	299.9999999998782 	2.024350182017187e-13 	101324.9999999906
-0.003753753753754195 	299.9999999999493 	8.641254898414743e-13 	101324.9999999909
-0.001251251251251693 	299.9999999999247 	5.42140980590291e-13 	101324.9999999908
0.00125125125125081 	299.9999999999509 	1.336764800972653e-12 	101324.9999999911
0.003753753753753312 	299.9999999999619 	6.318186586071196e-13 	101324.9999999912
0.006256256256255817 	299.9999999998849 	1.344135573697449e-12 	101324.9999999911
0.008758758758758317 	299.9999999999901 	5.039707601351044e-13 	101324.9999999911
0.01126126126126082 	300.0000000000074 	1.46675761239714e-13 	101324.999999991
0.01376376376376332 	299.999999999968 	4.138300739321705e-14 	101324.9999999909
0.01626626626626582 	300.0000000000089 	1.418281752541106e-13 	101324.9999999904
0.01876876876876833 	299.999999999949 	6.21656896037403e-13 	101324.9999999902
0.02127127127127083 	299.9999999999647 	4.921409650502071e-13 	101324.9999999906
0.02377377377377332 	299.9999999999964 	2.783892486840933e-13 	101324.9999999906
0.02627627627627583 	299.9999999999009 	1.452171452938401e-13 	101324.9999999905
0.02877877877877833 	300.0000000000069 	1.048586293136415e-12 	101324.9999999907
0.03128128128128083 	299.9999999999414 	9.585126842651188e-13 	101324.9999999908
0.03378378378378333 	299.9999999998983 	1.088469258610075e-12 	101324.999999991
0.03628628628628584 	299.99999999997 	2.908403736469921e-13 	101324.9999999909
0.03878878878878834 	299.9999999999781 	6.78285698281114e-14 	101324.9999999908
0.04129129129129084 	299.9999999999757 	3.1880853372262e-13 	101324.999999991
0.04379379379379333 	299.9999999999377 	3.757751638797998e-13 	101324.9999999911
0.04629629629629585 	299.9999999998827 	4.578119023478205e-13 	101324.999999991
0.04879879879879834 	299.9999999999515 	1.044172023511036e-12 	101324.9999999907
0.05130130130130085 	300.000000000017 	1.142143218865494e-12 	101324.9999999907
0.05380380380380335 	300.0000000000179 	7.890579462011671e-13 	101324.9999999903
0.05630630630630584 	299.9999999999862 	7.144558828768634e-13 	101324.9999999898
0.05880880880880836 	299.9999999999157 	4.145866606047682e-13 	101324.9999999901
0.06131131131131085 	299.9999999999721 	3.402025427315928e-13 	101324.9999999902
0.06381381381381336 	299.9999999999616 	4.065992608609967e-13 	101324.9999999904
0.06631631631631586 	299.9999999998844 	2.539114552696785e-13 	101324.9999999901
0.06881881881881835 	299.9999999999456 	1.655741685030809e-14 	101324.9999999902
0.07132132132132088 	299.9999999999865 	1.455645273685042e-14 	101324.9999999901
0.07382382382382337 	299.9999999998984 	4.698150915742625e-13 	101324.99999999
0.07632632632632587 	299.9999999999666 	8.107120494972927e-14 	101324.9999999901
0.07882882882882837 	299.9999999999375 	1.586970514630556e-13 	101324.9999999901
0.08133133133133086 	299.9999999999837 	7.310762215593025e-13 	101324.9999999902
0.08383383383383337 	299.9999999999849 	2.894210305401225e-13 	101324.9999999904
0.08633633633633589 	299.9999999999014 	8.365491889860946e-13 	101324.9999999907
0.08883883883883838 	300.0000000000098 	1.565228846078301e-12 	101324.9999999905
0.09134134134134086 	299.9999999999881 	1.485640679725821e-12 	101324.9999999905
0.09384384384384339 	299.9999999998904 	2.277327830415888e-12 	101324.9999999905
0.09634634634634588 	299.9999999999638 	2.48124867232519e-12 	101324.9999999905
0.09884884884884838 	299.99999999997 	1.903806580929807e-12 	101324.9999999906
0.1013513513513509 	300.0000000000175 	1.966526146795869e-12 	101324.9999999904
0.1038538538538534 	299.9999999999495 	2.166811868408995e-12 	101324.9999999904
0.1063563563563559 	300.0000000000168 	2.62366840244544e-12 	101324.9999999904
0.1088588588588584 	300.0000000000319 	2.440995840457088e-12 	101324.9999999909
0.1113613613613609 	299.9999999999142 	2.910196078778677e-12 	101324.9999999908
0.1138638638638634 	299.999999999941 	3.500615024660867e-12 	101324.9999999908
0.1163663663663659 	299.9999999999413 	3.513098764302559e-12 	101324.9999999908
0.1188688688688684 	299.9999999999675 	4.078358221611477e-12 	101324.9999999908
0.1213713713713709 	299.9999999999945 	3.896662553958473e-12 	101324.999999991
0.1238738738738734 	299.999999999922 	4.431849151942156e-12 	101324.9999999909
0.1263763763763759 	299.9999999999865 	4.559097367536389e-12 	101324.9999999907
0.1288788788788784 	299.999999999989 	4.109863827135315e-12 	101324.9999999906
0.1313813813813809 	299.9999999999879 	3.981956512845554e-12 	101324.9999999904
0.1338838838838834 	299.999999999973 	4.010258985514896e-12 	101324.9999999901
0.1363863863863859 	300.0000000000302 	3.449098047939689e-12 	101324.9999999903
0.1388888888888884 	300.0000000000469 	3.584636550822019e-12 	101324.9999999901
0.1413913913913909 	300.0000000000022 	2.763853627460946e-12 	101324.9999999901
0.1438938938938934 	299.9999999999901 	3.19572159534624e-12 	101324.9999999905
0.1463963963963959 	299.999999999957 	2.436378383637247e-12 	101324.9999999907
0.1488988988988985 	299.9999999999065 	3.638429360583996e-12 	101324.9999999911
0.1514014014014009 	299.9999999999681 	2.360802835121679e-12 	101324.9999999911
0.1539039039039035 	299.99999999996 	4.552188216196698e-12 	101324.9999999908
0.1564064064064059 	299.9999999999336 	2.415583824724875e-12 	101324.9999999909
0.1589089089089084 	299.9999999999793 	6.04395518641314e-12 	101324.9999999906
0.1614114114114109 	299.9999999999741 	3.145350479900138e-12 	101324.9999999905
0.1639139139139134 	299.9999999999051 	4.185736921106501e-12 	101324.9999999904
0.166416416416416 	300.0000000000067 	3.065795864356362e-12 	101324.9999999904
0.1689189189189185 	300.0000000000294 	2.894116675128789e-12 	101324.9999999905
0.1714214214214209 	299.9999999999955 	3.606025508234589e-12 	101324.9999999904
0.1739239239239235 	299.9999999999837 	1.561214457291597e-12 	101324.9999999903
0.1764264264264259 	299.9999999999645 	3.266651367806273e-12 	101324.9999999902
0.1789289289289284 	300.0000000000028 	8.202893109921804e-13 	101324.9999999902
0.181431431431431 	299.9999999999612 	3.665881848425351e-12 	101324.9999999899
0.1839339339339334 	299.9999999999704 	1.862382310532582e-12 	101324.9999999901
0.186436436436436 	299.9999999999217 	3.098365988422225e-12 	101324.9999999904
0.1889389389389385 	299.9999999999801 	2.837652890698992e-12 	101324.9999999903
0.191441441441441 	299.9999999999752 	2.370873976992709e-12 	101324.9999999905
0.1939439439439434 	299.999999999915 	3.798531315690459e-12 	101324.9999999907
0.196446446446446 	299.9999999999394 	1.865607222463357e-12 	101324.9999999911
0.1989489489489485 	299.9999999999678 	4.158044215701846e-12 	101324.9999999912
0.2014514514514509 	299.9999999999817 	2.344084494466808e-12 	101324.999999991
0.2039539539539535 	299.9999999999901 	4.4508644393244e-12 	101324.9999999908
0.2064564564564559 	299.9999999999571 	3.964032395679303e-12 	101324.9999999908
0.2089589589589585 	299.9999999999823 	4.550753591838896e-12 	101324.9999999909
0.211461461461461 	299.9999999999308 	4.841624390747859e-12 	101324.9999999911
0.2139639639639635 	299.9999999999815 	4.240793644015673e-12 	101324.999999991
0.2164664664664659 	299.9999999999953 	4.693951785337177e-12 	101324.9999999907
0.2189689689689684 	299.9999999999951 	1.815218808437819e-12 	101324.9999999906
0.221471471471471 	299.9999999999911 	3.800611887626667e-12 	101324.9999999905
0.2239739739739735 	299.9999999999521 	1.373577087548208e-12 	101324.9999999905
0.226476476476476 	299.9999999999795 	2.67266363761568e-12 	101324.9999999907
0.2289789789789785 	299.9999999999933 	1.832425427676525e-12 	101324.9999999905
0.231481481481481 	299.9999999999868 	2.070671943777417e-12 	101324.9999999904
0.2339839839839835 	299.9999999999865 	2.463147281669513e-12 	101324.9999999902
0.236486486486486 	300.0000000000206 	1.61712339636296e-12 	101324.9999999903
0.2389889889889885 	300.000000000001 	3.027739612287236e-12 	101324.99999999
0.241491491491491 	299.99999999992 	1.011890331708319e-12 	101324.99999999
0.2439939939939935 	299.999999999982 	4.200307710924581e-12 	101324.99999999
0.246496496496496 	299.9999999999894 	1.723853522101692e-12 	101324.99999999
0.2489989989989985 	300.0000000000359 	3.328402605830841e-12 	101324.9999999901
0.251501501501501 	300.0000000000303 	2.199310304703204e-12 	101324.9999999902
0.2540040040040035 	299.999999999989 	1.862178125369084e-12 	101324.9999999904
0.256506506506506 	300.000000000028 	1.936985434104441e-12 	101324.9999999904
0.2590090090090086 	299.9999999999025 	6.090448595799114e-13 	101324.9999999908
0.261511511511511 	300.0000000000005 	1.935787298358e-12 	101324.9999999909
0.2640140140140135 	299.9999999999894 	1.149424684166501e-12 	101324.9999999908
0.2665165165165161 	299.999999999926 	1.262345044690135e-12 	101324.9999999907
0.2690190190190185 	300.000000000009 	4.912569250380618e-13 	101324.9999999907
0.271521521521521 	300.0000000000132 	1.357084479307885e-12 	101324.9999999907
0.2740240240240235 	300.0000000000172 	1.368887436854598e-12 	101324.999999991
0.276526526526526 	300.0000000000087 	4.324549357673172e-13 	101324.9999999913
0.2790290290290286 	299.999999999941 	1.428003325981323e-12 	101324.9999999912
0.281531531531531 	299.9999999999225 	4.471552801735649e-13 	101324.999999991
0.2840340340340335 	299.9999999999729 	2.401418307373931e-12 	101324.9999999908
0.2865365365365361 	299.9999999999617 	1.345256671702995e-12 	101324.9999999907
0.2890390390390385 	300.0000000000007 	1.975349414115088e-12 	101324.9999999905
0.291541541541541 	299.9999999999995 	2.033451533596223e-12 	101324.9999999904
0.2940440440440436 	299.9999999999891 	1.078060783197612e-12 	101324.9999999903
0.296546546546546 	299.9999999999908 	2.91129371911905e-12 	101324.9999999902
0.2990490490490486 	299.9999999999324 	8.612509373250658e-13 	101324.9999999903
0.3015515515515511 	300.0000000000335 	4.544730336721821e-12 	101324.9999999901
0.3040540540540535 	299.9999999999951 	2.455207099230595e-12 	101324.9999999901
0.3065565565565562 	299.9999999999969 	4.12671821476264e-12 	101324.9999999902
0.3090590590590585 	299.9999999999887 	3.343929077911866e-12 	101324.9999999904
0.3115615615615611 	299.9999999999383 	2.447393481730884e-12 	101324.9999999906
0.3140640640640635 	300.0000000000077 	2.347091725663004e-12 	101324.9999999908
0.316566566566566 	299.9999999999919 	1.97687301348256e-12 	101324.9999999911
0.3190690690690687 	299.9999999999499 	1.213225577065724e-12 	101324.9999999912
0.3215715715715711 	300.0000000000182 	2.233004420267273e-12 	101324.9999999912
0.3240740740740735 	300.0000000000013 	1.048178051236127e-12 	101324.9999999911
0.326576576576576 	299.9999999999047 	2.019381724412328e-12 	101324.9999999912
0.3290790790790786 	300.0000000000081 	8.582489115886207e-13 	101324.9999999913
0.3315815815815811 	300.0000000000323 	1.728871810178901e-12 	101324.9999999914
0.3340840840840836 	299.999999999985 	6.303156476906451e-13 	101324.9999999911
0.3365865865865861 	300.0000000000555 	1.691455078815788e-12 	101324.9999999908
0.3390890890890886 	300.0000000000497 	3.97470057871077e-13 	101324.9999999905
0.3415915915915911 	300.0000000000019 	1.62896618224441e-12 	101324.9999999902
0.3440940940940935 	299.9999999999465 	4.902268105896732e-13 	101324.9999999904
0.3465965965965962 	300.0000000000311 	2.129882174117331e-12 	101324.9999999901
0.3490990990990985 	300.000000000025 	6.714667288342677e-13 	101324.9999999899
0.3516016016016011 	299.9999999999878 	1.290544609149282e-12 	101324.99999999
0.3541041041041035 	300.000000000007 	9.330012436790211e-13 	101324.9999999901
0.3566066066066061 	299.9999999999574 	4.153540533365937e-13 	101324.9999999902
0.3591091091091085 	299.9999999999169 	1.443087409481477e-12 	101324.99999999
0.3616116116116112 	299.999999999937 	1.337289805860004e-12 	101324.9999999902
0.3641141141141137 	299.9999999999301 	2.228602936846493e-12 	101324.9999999902
0.3666166166166161 	299.9999999999249 	2.432482636030162e-12 	101324.9999999903
0.3691191191191185 	300.0000000000401 	2.950375393737367e-12 	101324.9999999902
0.371621621621621 	300.0000000000088 	2.440550828710177e-12 	101324.9999999903
0.3741241241241237 	300.0000000000458 	2.191936004626306e-12 	101324.9999999906
0.3766266266266261 	300.0000000000317 	1.685952920035672e-12 	101324.9999999907
0.3791291291291286 	299.9999999999869 	1.623773466891773e-12 	101324.9999999909
0.3816316316316311 	299.9999999999194 	1.491649575871343e-12 	101324.9999999909
0.3841341341341336 	300.0000000000101 	1.713078452394962e-12 	101324.9999999912
0.3866366366366362 	299.9999999999977 	9.698332143917442e-13 	101324.999999991
0.3891391391391387 	299.9999999999562 	1.367660282325193e-12 	101324.9999999911
0.391641641641641 	299.9999999999933 	4.966249177854789e-13 	101324.999999991
0.3941441441441436 	300.0000000000101 	8.8718849674993e-13 	101324.9999999909
0.3966466466466462 	300.0000000000031 	1.188144639520485e-12 	101324.9999999909
0.3991491491491486 	299.999999999952 	3.493772362627628e-13 	101324.9999999909
0.4016516516516512 	299.9999999999183 	1.299963822780807e-12 	101324.9999999908
0.4041541541541536 	299.9999999999472 	1.409180876287491e-12 	101324.9999999906
0.4066566566566561 	299.9999999999483 	5.845145658862291e-13 	101324.9999999908
0.4091591591591587 	299.9999999999944 	2.596715748666181e-12 	101324.9999999906
0.4116616616616612 	300.0000000000052 	1.589537291060684e-12 	101324.9999999905
0.4141641641641635 	300.0000000000375 	1.966366896614544e-12 	101324.9999999905
0.4166666666666662 	299.9999999999958 	1.863861845347504e-12 	101324.9999999905
0.4191691691691687 	299.9999999999442 	8.953499838209076e-13 	101324.9999999906
0.421671671671671 	300.000000000014 	2.873443384531132e-12 	101324.9999999906
0.4241741741741737 	299.9999999999717 	2.114004222993309e-12 	101324.9999999904
0.4266766766766761 	299.9999999999492 	2.604260760333253e-12 	101324.9999999902
0.4291791791791785 	300.0000000000193 	3.488280980363333e-12 	101324.9999999903
0.4316816816816812 	300.0000000000125 	2.715500258730455e-12 	101324.9999999905
0.4341841841841836 	299.9999999999842 	3.346425429842144e-12 	101324.9999999906
0.4366866866866862 	299.9999999999237 	1.421920481275217e-12 	101324.9999999906
0.4391891891891885 	299.9999999999883 	2.499554322478124e-12 	101324.9999999905
0.4416916916916913 	299.9999999999813 	1.244833390578031e-12 	101324.9999999904
0.4441941941941936 	299.9999999999876 	1.333353956091775e-12 	101324.9999999904
0.4466966966966961 	299.9999999999167 	9.521910529249159e-13 	101324.9999999904
0.4491991991991987 	299.9999999999815 	5.345907314962048e-13 	101324.9999999901
0.4517017017017012 	299.9999999999799 	1.141650603752991e-12 	101324.9999999899
0.4542042042042035 	299.9999999999816 	1.218855407230037e-12 	101324.9999999897
0.4567067067067062 	299.999999999994 	1.411334555692653e-12 	101324.9999999899
0.4592092092092087 	299.9999999999245 	1.365360021679325e-12 	101324.9999999899
0.4617117117117112 	300.0000000000174 	1.091537393643744e-12 	101324.9999999897
0.4642142142142137 	299.9999999999599 	9.229737557519702e-13 	101324.9999999897
0.4667167167167162 	299.9999999999885 	8.164591370216067e-13 	101324.9999999898
0.4692192192192187 	299.9999999999546 	4.163480347153668e-13 	101324.9999999899
0.4717217217217212 	300.0000000000149 	3.354271086703123e-13 	101324.9999999898
0.4742242242242236 	299.9999999999554 	1.010472121474981e-12 	101324.99999999
0.4767267267267262 	299.999999999978 	1.168952497736347e-12 	101324.9999999901
0.4792292292292287 	300.0000000000145 	1.459822297338917e-12 	101324.9999999902
0.4817317317317312 	300.0000000000318 	1.833716380576728e-12 	101324.9999999903
0.4842342342342336 	299.9999999999863 	1.795305103729696e-12 	101324.9999999905
0.4867367367367362 	299.9999999999553 	2.303174762810219e-12 	101324.9999999903
0.4892392392392387 	300.0000000000277 	1.102876075268189e-12 	101324.9999999899
0.4917417417417412 	300.0000000000048 	1.995993916129022e-12 	101324.99999999
0.4942442442442437 	299.9999999999049 	8.037031646124754e-13 	101324.9999999899
0.4967467467467462 	299.9999999999214 	1.68523037628355e-12 	101324.9999999899
0.4992492492492487 	299.9999999999171 	1.364709892357824e-12 	101324.9999999899
0.5017517517517511 	299.9999999999515 	4.112495081780896e-13 	101324.99999999
0.5042542542542537 	299.9999999999642 	7.478807698727457e-13 	101324.9999999903
0.5067567567567562 	299.9999999999454 	5.530258078763093e-13 	101324.9999999903
0.5092592592592589 	299.9999999999698 	8.296608158585497e-13 	101324.9999999903
0.5117617617617611 	299.9999999999569 	1.586777891708867e-12 	101324.9999999902
0.5142642642642637 	299.999999999987 	1.820075881293181e-12 	101324.9999999903
0.5167667667667663 	299.9999999999724 	2.475646124740308e-12 	101324.9999999903
0.5192692692692688 	299.9999999999186 	3.28378600474145e-12 	101324.9999999902
0.5217717717717714 	299.9999999999322 	3.23909169198548e-12 	101324.9999999902
0.5242742742742736 	299.9999999999355 	3.047017329656274e-12 	101324.9999999902
0.5267767767767763 	299.999999999954 	2.316461796967533e-12 	101324.99999999
0.5292792792792789 	299.999999999937 	2.894761986266654e-12 	101324.9999999899
0.5317817817817813 	299.9999999999091 	9.602668006712168e-13 	101324.9999999898
0.5342842842842837 	300.0000000000144 	1.777817061120995e-12 	101324.9999999896
0.5367867867867864 	300.0000000000003 	1.324240029318546e-12 	101324.9999999897
0.5392892892892888 	299.999999999955 	7.181912199822362e-13 	101324.9999999896
0.5417917917917912 	300.0000000000015 	1.671516779676307e-12 	101324.9999999898
0.5442942942942938 	299.9999999999818 	7.876453545972339e-13 	101324.9999999896
0.5467967967967964 	299.9999999999517 	1.91186896012277e-12 	101324.9999999898
0.5492992992992988 	299.999999999942 	1.029543145162394e-12 	101324.99999999
0.5518018018018012 	299.9999999999345 	1.942636842142335e-12 	101324.9999999899
0.5543043043043039 	300.0000000000196 	1.107618147052235e-12 	101324.9999999901
0.5568068068068063 	299.99999999999 	1.400981990017482e-12 	101324.9999999902
0.5593093093093087 	299.9999999999019 	6.300973244634219e-13 	101324.9999999903
0.5618118118118114 	299.9999999999577 	2.053803704114374e-12 	101324.9999999902
0.5643143143143137 	299.9999999999418 	1.366043274125077e-12 	101324.9999999904
0.5668168168168163 	299.9999999999923 	2.77301770553999e-12 	101324.9999999905
0.5693193193193188 	300.0000000000326 	2.903977705013968e-12 	101324.9999999907
0.5718218218218213 	300.000000000028 	2.261400802301021e-12 	101324.9999999908
0.5743243243243239 	300.0000000000076 	2.970250261225391e-12 	101324.9999999908
0.5768268268268262 	300.000000000008 	1.447576340723196e-12 	101324.9999999907
0.5793293293293288 	299.999999999953 	3.346947830860367e-12 	101324.9999999906
0.5818318318318314 	299.9999999999183 	2.071023764074749e-12 	101324.9999999908
0.5843343343343338 	299.999999999975 	4.461806358014661e-12 	101324.9999999907
0.5868368368368363 	299.9999999999702 	1.54435485588025e-12 	101324.9999999906
0.5893393393393387 	299.9999999999442 	4.071487375499007e-12 	101324.9999999907
0.5918418418418413 	299.9999999999409 	1.736353668590039e-12 	101324.9999999907
0.5943443443443439 	300.0000000000165 	4.003069216506219e-12 	101324.9999999908
0.5968468468468463 	300.0000000000177 	2.224338025577433e-12 	101324.9999999907
0.5993493493493487 	300.0000000000434 	3.391786236659628e-12 	101324.9999999909
0.6018518518518514 	299.9999999999783 	2.037439085102436e-12 	101324.9999999909
0.6043543543543537 	299.9999999999918 	3.395412771637035e-12 	101324.9999999911
0.6068568568568564 	299.9999999999812 	2.246619971915634e-12 	101324.9999999912
0.6093593593593587 	299.9999999999357 	3.63562257002871e-12 	101324.9999999914
0.6118618618618614 	299.9999999999233 	3.133891486758476e-12 	101324.9999999913
0.6143643643643638 	300.0000000000112 	4.17789453488724e-12 	101324.9999999913
0.6168668668668662 	299.9999999999781 	2.644537146153129e-12 	101324.9999999914
0.6193693693693688 	299.9999999999554 	4.100779415409293e-12 	101324.9999999914
0.6218718718718714 	299.9999999999653 	2.615043386572061e-12 	101324.9999999913
0.6243743743743737 	299.9999999999376 	4.577386246831924e-12 	101324.9999999913
0.6268768768768762 	299.9999999999259 	3.168883614729058e-12 	101324.9999999914
0.629379379379379 	299.9999999999532 	4.152121490721098e-12 	101324.9999999914
0.6318818818818812 	299.9999999999773 	3.971347746754619e-12 	101324.9999999916
0.6343843843843838 	300.0000000000197 	4.163931535845346e-12 	101324.9999999917
0.6368868868868864 	299.9999999999849 	4.789025715034288e-12 	101324.9999999916
0.6393893893893888 	299.9999999999246 	3.55148689973138e-12 	101324.9999999918
0.6418918918918912 	300.0000000000101 	6.093374253902954e-12 	101324.9999999917
0.6443943943943939 	299.9999999999808 	3.318555845674292e-12 	101324.9999999917
0.6468968968968963 	299.999999999984 	6.963220380398218e-12 	101324.9999999917
0.6493993993993988 	299.9999999999791 	3.014484915361017e-12 	101324.9999999918
0.6519019019019012 	299.9999999999727 	5.635430348463025e-12 	101324.9999999917
0.6544044044044038 	299.9999999999047 	2.329806241036133e-12 	101324.9999999916
0.6569069069069065 	299.9999999999536 	5.268695475417625e-12 	101324.9999999918
0.6594094094094087 	299.9999999999657 	2.624479858916302e-12 	101324.9999999917
0.6619119119119113 	299.9999999999541 	4.241655158970991e-12 	101324.9999999917
0.664414414414414 	300.0000000000034 	1.811017404711742e-12 	101324.9999999919
0.6669169169169162 	300.0000000000218 	2.769830410763009e-12 	101324.9999999921
0.6694194194194188 	299.9999999999882 	1.11303931106099e-12 	101324.9999999922
0.6719219219219214 	299.9999999999238 	2.332512510551763e-12 	101324.9999999922
0.674424424424424 	299.9999999999732 	1.730235370527075e-12 	101324.9999999923
0.6769269269269262 	299.9999999999208 	3.193743491221181e-12 	101324.9999999923
0.679429429429429 	300.0000000000056 	3.222275405454863e-12 	101324.9999999925
0.6819319319319311 	299.9999999999849 	4.486460644144945e-12 	101324.9999999924
0.6844344344344341 	299.9999999999956 	3.69310012022328e-12 	101324.9999999924
0.686936936936936 	299.9999999999885 	4.188520776456145e-12 	101324.9999999927
0.6894394394394392 	299.9999999999829 	3.273798542076606e-12 	101324.9999999926
0.6919419419419413 	299.9999999999868 	3.601399994730166e-12 	101324.9999999927
0.694444444444444 	299.9999999999392 	4.071032200108898e-12 	101324.9999999925
0.6969469469469463 	299.999999999932 	4.406861110632186e-12 	101324.9999999924
0.6994494494494489 	299.9999999999225 	5.314228304495692e-12 	101324.9999999926
0.7019519519519515 	299.9999999999873 	4.869062443714542e-12 	101324.9999999926
0.7044544544544538 	299.9999999999487 	6.247937539245967e-12 	101324.9999999925
0.7069569569569564 	299.9999999999977 	4.012940147503572e-12 	101324.9999999925
0.7094594594594589 	299.9999999999677 	5.963603030770937e-12 	101324.9999999926
0.7119619619619615 	299.9999999999168 	4.206005266196029e-12 	101324.9999999927
0.7144644644644638 	299.999999999956 	6.219703441550392e-12 	101324.9999999928
0.7169669669669665 	299.9999999999302 	5.248153030875041e-12 	101324.9999999929
0.7194694694694688 	299.9999999999974 	6.09705121523938e-12 	101324.9999999929
0.7219719719719715 	299.999999999991 	5.2965028489302e-12 	101324.9999999929
0.7244744744744737 	300.0000000000073 	5.485594926900894e-12 	101324.999999993
0.7269769769769764 	299.9999999999985 	5.718608068448542e-12 	101324.9999999931
0.7294794794794791 	299.9999999999895 	4.679514876075998e-12 	101324.9999999929
0.7319819819819813 	299.9999999999824 	6.448083966185018e-12 	101324.9999999928
0.7344844844844839 	299.9999999999233 	4.533054298806996e-12 	101324.9999999928
0.7369869869869864 	299.999999999949 	5.207228041342288e-12 	101324.999999993
0.739489489489489 	299.9999999999403 	4.660181574799172e-12 	101324.999999993
0.7419919919919914 	299.99999999993 	4.785811765454147e-12 	101324.9999999931
0.7444944944944939 	299.9999999999825 	5.193519486187356e-12 	101324.9999999932
0.7469969969969963 	299.9999999999749 	3.59892460117921e-12 	101324.9999999933
0.7494994994994989 	299.9999999999443 	5.12424339833736e-12 	101324.9999999934
0.7520020020020015 	299.9999999999698 	2.464097487718329e-12 	101324.9999999935
0.7545045045045039 	299.9999999999655 	5.43406139056255e-12 	101324.9999999935
0.7570070070070062 	299.9999999999429 	2.987611848106804e-12 	101324.9999999934
0.7595095095095092 	299.9999999999354 	4.521762695539768e-12 	101324.9999999933
0.7620120120120112 	300.0000000000092 	3.14526915712142e-12 	101324.9999999931
0.7645145145145138 	299.9999999999861 	3.379488876542804e-12 	101324.9999999931
0.7670170170170165 	299.9999999999347 	4.054666515983612e-12 	101324.9999999932
0.7695195195195191 	299.9999999999288 	3.194623802402383e-12 	101324.9999999933
0.7720220220220213 	299.9999999999408 	5.419824865927741e-12 	101324.9999999931
0.7745245245245239 	299.9999999999344 	3.714873127594596e-12 	101324.999999993
0.7770270270270263 	299.9999999999642 	6.032451627579783e-12 	101324.9999999931
0.779529529529529 	299.9999999999788 	5.328784755904693e-12 	101324.9999999932
0.7820320320320313 	299.9999999999711 	6.435191758230644e-12 	101324.9999999933
0.784534534534534 	300.0000000000019 	6.315288132745573e-12 	101324.9999999935
0.7870370370370364 	299.9999999999922 	6.002328841921461e-12 	101324.9999999936
0.7895395395395389 	299.9999999999795 	6.819025178594866e-12 	101324.9999999938
0.7920420420420413 	299.9999999999778 	5.847584417749306e-12 	101324.9999999938
0.794544544544544 	299.9999999999749 	7.647089680488678e-12 	101324.9999999936
0.7970470470470463 	300.0000000000005 	5.330580983801939e-12 	101324.9999999935
0.799549549549549 	299.9999999999893 	8.425902799814242e-12 	101324.9999999935
0.8020520520520515 	299.9999999999832 	5.790297050344757e-12 	101324.9999999934
0.8045545545545539 	299.9999999999434 	7.644420314649328e-12 	101324.9999999934
0.8070570570570563 	299.999999999982 	6.042702176700391e-12 	101324.9999999936
0.8095595595595589 	299.9999999999598 	6.521376682083152e-12 	101324.9999999938
0.8120620620620614 	299.9999999999453 	6.187789192611955e-12 	101324.9999999938
0.8145645645645638 	300.0000000000013 	5.771243075435206e-12 	101324.9999999939
0.8170670670670666 	300.0000000000006 	6.146250740747693e-12 	101324.9999999939
0.8195695695695689 	299.999999999984 	4.605009901594368e-12 	101324.999999994
0.8220720720720714 	299.9999999999455 	6.628140838751376e-12 	101324.9999999939
0.8245745745745739 	299.9999999999877 	4.777983858366391e-12 	101324.9999999937
0.8270770770770765 	299.9999999999776 	6.592372762609512e-12 	101324.9999999935
0.8295795795795788 	299.9999999999557 	5.574364757320029e-12 	101324.9999999934
0.8320820820820815 	300.0000000000146 	6.456843124242863e-12 	101324.9999999933
0.834584584584584 	300.0000000000022 	5.840540956695658e-12 	101324.9999999932
0.8370870870870865 	299.9999999999565 	5.682393463919733e-12 	101324.9999999931
0.8395895895895891 	299.9999999999285 	6.823486317941102e-12 	101324.9999999933
0.8420920920920915 	299.9999999999528 	6.615985427798503e-12 	101324.9999999934
0.844594594594594 	299.9999999999434 	7.439868743615367e-12 	101324.9999999933
0.8470970970970964 	299.9999999999477 	7.501923784356896e-12 	101324.9999999934
0.8495995995995991 	299.9999999999925 	7.063309910041338e-12 	101324.9999999936
0.8521021021021015 	299.9999999999816 	6.874452936526603e-12 	101324.9999999937
0.8546046046046039 	299.9999999999723 	6.1865061451277e-12 	101324.9999999937
0.8571071071071066 	299.9999999999988 	7.232099594068071e-12 	101324.9999999937
0.8596096096096089 	299.9999999999683 	5.417622361392178e-12 	101324.9999999939
0.8621121121121116 	299.9999999999403 	8.204398960131928e-12 	101324.999999994
0.8646146146146139 	300.0000000000001 	5.894415510720517e-12 	101324.999999994
0.8671171171171166 	299.9999999999784 	7.400957404887211e-12 	101324.9999999939
0.8696196196196189 	299.9999999999451 	6.79482554894402e-12 	101324.9999999938
0.8721221221221216 	299.9999999999745 	7.492018369666725e-12 	101324.9999999936
0.874624624624624 	300.0000000000052 	6.852869173604355e-12 	101324.9999999935
0.8771271271271264 	299.9999999999986 	6.121727506528755e-12 	101324.9999999936
0.879629629629629 	299.9999999999969 	6.671898935497576e-12 	101324.9999999937
0.8821321321321317 	299.9999999999825 	5.06237038423149e-12 	101324.9999999938
0.8846346346346339 	299.9999999999322 	7.501480397963098e-12 	101324.9999999939
0.8871371371371364 	299.9999999999578 	5.535300907398064e-12 	101324.9999999939
0.8896396396396391 	299.9999999999561 	7.372854609543321e-12 	101324.999999994
0.8921421421421414 	299.9999999999648 	6.236791991803064e-12 	101324.999999994
0.8946446446446441 	299.9999999999901 	6.919434637245021e-12 	101324.9999999941
0.8971471471471464 	300.0000000000046 	6.154812936679923e-12 	101324.9999999943
0.8996496496496489 	299.9999999999827 	5.538592139379244e-12 	101324.9999999943
0.9021521521521517 	299.999999999965 	6.422167642673837e-12 	101324.9999999941
0.9046546546546541 	299.9999999999912 	5.396327854712367e-12 	101324.9999999937
0.9071571571571564 	299.9999999999486 	6.193123515393689e-12 	101324.9999999938
0.9096596596596589 	299.9999999999488 	6.283628814501826e-12 	101324.9999999939
0.9121621621621616 	300.0000000000128 	6.698885692590583e-12 	101324.9999999938
0.9146646646646639 	299.9999999999774 	6.480081594301437e-12 	101324.9999999938
0.9171671671671666 	299.999999999939 	6.466998768348603e-12 	101324.9999999939
0.9196696696696689 	299.999999999994 	7.387113962285901e-12 	101324.999999994
0.9221721721721714 	299.9999999999981 	6.049291380631806e-12 	101324.999999994
0.9246746746746741 	299.9999999999412 	8.564272647498011e-12 	101324.9999999941
0.9271771771771765 	299.9999999999465 	6.243732361498334e-12 	101324.9999999942
0.9296796796796791 	299.999999999992 	7.749859328239806e-12 	101324.9999999942
0.9321821821821816 	299.9999999999788 	6.268016904569103e-12 	101324.9999999943
0.9346846846846838 	299.9999999999576 	7.515379658298782e-12 	101324.9999999942
0.9371871871871866 	300.0000000000193 	7.09908956317367e-12 	101324.999999994
0.9396896896896891 	300.0000000000202 	6.9862246538407e-12 	101324.9999999939
0.9421921921921914 	300.0000000000132 	7.270087442882032e-12 	101324.9999999939
0.9446946946946939 	299.9999999999676 	6.528242155209437e-12 	101324.9999999938
0.9471971971971965 	299.9999999999271 	9.235427075403425e-12 	101324.9999999939
0.9496996996996991 	299.9999999999567 	7.56607469525689e-12 	101324.9999999938
0.9522022022022016 	299.99999999997 	9.032408291311087e-12 	101324.9999999937
0.9547047047047038 	299.9999999999694 	7.947999935475078e-12 	101324.9999999936
0.9572072072072064 	299.9999999999601 	8.529148383340799e-12 	101324.9999999937
0.9597097097097093 	299.9999999999585 	7.81983712709284e-12 	101324.9999999936
0.9622122122122114 	299.9999999999544 	7.315008310209757e-12 	101324.9999999934
0.964714714714714 	299.9999999999537 	8.280934556602515e-12 	101324.9999999933
0.9672172172172167 	299.9999999999612 	7.404454704090018e-12 	101324.9999999934
0.969719719719719 	299.9999999999908 	8.092163412041956e-12 	101324.9999999933
0.9722222222222214 	299.9999999999748 	7.232502259415069e-12 	101324.9999999932
0.9747247247247239 	299.9999999999688 	7.016917702969233e-12 	101324.9999999934
0.9772272272272267 	299.9999999999972 	7.034205434175264e-12 	101324.9999999936
0.9797297297297292 	299.9999999999852 	6.363911184950098e-12 	101324.9999999938
0.9822322322322313 	299.9999999999936 	7.049665691892787e-12 	101324.9999999939
0.9847347347347344 	299.9999999999936 	5.372290536319912e-12 	101324.999999994
0.9872372372372363 	299.9999999999512 	7.829288328136293e-12 	101324.9999999941
0.9897397397397389 	299.9999999999746 	5.924965180246742e-12 	101324.999999994
0.9922422422422417 	299.9999999999562 	8.066063283454533e-12 	101324.9999999939
0.9947447447447441 	299.99999999995 	7.030864392226203e-12 	101324.9999999937
0.9972472472472468 	299.9999999999591 	8.394950961851341e-12 	101324.9999999937
0.999749749749749 	299.9999999999635 	8.086020640563585e-12 	101324.9999999936
1.002252252252252 	299.9999999999849 	8.268496109453243e-12 	101324.9999999936
1.004754754754754 	299.9999999999857 	8.133252723005491e-12 	101324.9999999937
1.007257257257256 	299.9999999999677 	7.109018160831121e-12 	101324.9999999938
1.009759759759759 	299.9999999999577 	8.872406834831287e-12 	101324.9999999937
1.012262262262261 	299.999999999958 	6.560191111719128e-12 	101324.9999999937
1.014764764764764 	299.9999999999297 	7.424461600333301e-12 	101324.9999999938
1.017267267267267 	299.999999999918 	6.226784361323061e-12 	101324.9999999936
1.019769769769769 	299.9999999999592 	7.142050357783026e-12 	101324.9999999933
1.022272272272272 	299.999999999972 	6.79685643224319e-12 	101324.999999993
1.024774774774774 	299.9999999999754 	7.453350246750196e-12 	101324.9999999931
1.027277277277277 	299.9999999999726 	8.60714275146907e-12 	101324.9999999932
1.029779779779779 	299.9999999999995 	8.111897687056144e-12 	101324.9999999932
1.032282282282282 	299.9999999999992 	8.86737681183274e-12 	101324.9999999932
1.034784784784784 	299.999999999991 	8.273273867718158e-12 	101324.9999999932
1.037287287287286 	299.9999999999641 	8.400261687141707e-12 	101324.9999999933
1.039789789789789 	299.9999999999747 	8.170589537687692e-12 	101324.9999999934
1.042292292292291 	300.0000000000099 	8.37294597830257e-12 	101324.9999999934
1.044794794794794 	300.0000000000185 	8.727469628923179e-12 	101324.9999999936
1.047297297297296 	300.0000000000316 	7.599785834507094e-12 	101324.9999999936
1.049799799799799 	299.9999999999885 	9.254646290290051e-12 	101324.9999999934
1.052302302302302 	299.99999999996 	7.520159508661992e-12 	101324.9999999933
1.054804804804804 	299.9999999999401 	8.739164641269176e-12 	101324.9999999933
1.057307307307306 	299.9999999999203 	7.170577757565068e-12 	101324.9999999933
1.059809809809809 	299.9999999999495 	7.891978364026617e-12 	101324.9999999931
1.062312312312312 	299.9999999999451 	7.193000352069669e-12 	101324.999999993
1.064814814814814 	299.9999999999424 	7.730353768892751e-12 	101324.9999999931
1.067317317317317 	299.9999999999228 	7.817626542211206e-12 	101324.999999993
1.069819819819819 	299.9999999999252 	7.879290700689552e-12 	101324.999999993
1.072322322322321 	299.9999999999894 	9.709671500464078e-12 	101324.9999999931
1.074824824824824 	300.0000000000163 	8.467391979443358e-12 	101324.9999999931
1.077327327327327 	300.0000000000316 	9.864674000893558e-12 	101324.9999999931
1.079829829829829 	300.0000000000329 	8.444239428077022e-12 	101324.999999993
1.082332332332332 	300.0000000000028 	8.641874781682611e-12 	101324.9999999929
1.084834834834834 	299.999999999977 	8.021224116957333e-12 	101324.9999999928
1.087337337337337 	299.9999999999399 	7.661686552707364e-12 	101324.9999999928
1.089839839839839 	299.9999999999341 	8.685619403715948e-12 	101324.9999999928
1.092342342342342 	299.9999999999673 	7.350998445106927e-12 	101324.9999999929
1.094844844844844 	299.9999999999694 	8.383915263219509e-12 	101324.9999999929
1.097347347347347 	299.9999999999441 	7.190766355255074e-12 	101324.999999993
1.099849849849849 	299.9999999999288 	9.678477301854648e-12 	101324.9999999931
1.102352352352352 	299.9999999999546 	7.717106475816765e-12 	101324.9999999932
1.104854854854854 	299.9999999999797 	9.272925292007108e-12 	101324.9999999933
1.107357357357357 	299.9999999999633 	7.474017271880924e-12 	101324.9999999935
1.109859859859859 	299.9999999999453 	8.576902215777213e-12 	101324.9999999936
1.112362362362362 	300.0000000000144 	7.535478276126816e-12 	101324.9999999936
1.114864864864865 	300.0000000000165 	7.777020523777087e-12 	101324.9999999939
1.117367367367367 	299.9999999999658 	8.389993710620909e-12 	101324.9999999939
1.119869869869869 	299.9999999999307 	7.564950753445234e-12 	101324.9999999937
1.122372372372372 	299.9999999999607 	8.930259340679918e-12 	101324.9999999936
1.124874874874874 	299.999999999955 	7.502269088538711e-12 	101324.9999999934
1.127377377377377 	299.9999999999675 	8.160207553961859e-12 	101324.9999999932
1.129879879879879 	300.0000000000182 	7.644072295679318e-12 	101324.9999999932
1.132382382382382 	300.0000000000207 	7.921378175960016e-12 	101324.9999999932
1.134884884884884 	299.9999999999986 	7.110642470426714e-12 	101324.9999999932
1.137387387387387 	300.0000000000144 	6.842416879594471e-12 	101324.9999999931
1.139889889889889 	299.999999999961 	7.901470470116734e-12 	101324.999999993
1.142392392392392 	299.9999999999488 	7.010122439256967e-12 	101324.999999993
1.144894894894894 	300.0000000000109 	8.03936275919159e-12 	101324.9999999932
1.147397397397397 	300.000000000002 	6.726903068567214e-12 	101324.9999999934
1.149899899899899 	299.9999999999427 	7.502897550250013e-12 	101324.9999999935
1.152402402402402 	299.9999999999295 	6.996953267024e-12 	101324.9999999934
1.154904904904904 	299.9999999999731 	8.012115819950095e-12 	101324.9999999934
1.157407407407407 	299.9999999999736 	7.775034046752005e-12 	101324.9999999934
1.159909909909909 	299.9999999999404 	8.151694579756058e-12 	101324.9999999935
1.162412412412412 	299.9999999999291 	9.783886072595993e-12 	101324.9999999935
1.164914914914914 	299.9999999999637 	8.640964649331476e-12 	101324.9999999934
1.167417417417417 	299.9999999999729 	9.513098191350049e-12 	101324.9999999934
1.169919919919919 	300.0000000000136 	8.042636936157136e-12 	101324.9999999935
1.172422422422422 	300.0000000000315 	8.148240440161665e-12 	101324.9999999935
1.174924924924925 	299.9999999999838 	6.629369816471535e-12 	101324.9999999935
1.177427427427427 	299.999999999967 	6.912774289072356e-12 	101324.9999999935
1.179929929929929 	300.0000000000076 	7.807891842205002e-12 	101324.9999999935
1.182432432432432 	300.0000000000238 	6.675485060536025e-12 	101324.9999999937
1.184934934934934 	299.9999999999992 	7.367867248701854e-12 	101324.9999999937
1.187437437437437 	299.9999999999871 	6.493144613644529e-12 	101324.9999999937
1.189939939939939 	299.9999999999782 	7.702088127376922e-12 	101324.9999999938
1.192442442442442 	299.9999999999313 	7.264317365887293e-12 	101324.9999999937
1.194944944944944 	299.999999999937 	8.407754682484246e-12 	101324.9999999936
1.197447447447447 	300.000000000004 	8.090164149611791e-12 	101324.9999999937
1.199949949949949 	300.000000000014 	8.307333726673467e-12 	101324.9999999937
1.202452452452452 	299.9999999999542 	9.371864181068446e-12 	101324.9999999936
1.204954954954955 	299.999999999951 	8.550747232700247e-12 	101324.9999999933
1.207457457457457 	299.9999999999886 	9.47391374883332e-12 	101324.9999999934
1.20995995995996 	299.9999999999791 	8.687584324761741e-12 	101324.9999999934
1.212462462462462 	299.9999999999745 	9.669792718323596e-12 	101324.9999999932
1.214964964964964 	299.999999999975 	8.661176997624441e-12 	101324.9999999932
1.217467467467467 	299.9999999999751 	9.26815297349029e-12 	101324.9999999931
1.219969969969969 	299.999999999968 	8.387922794077675e-12 	101324.9999999932
1.222472472472472 	300.0000000000105 	8.499511440143807e-12 	101324.9999999934
1.224974974974975 	300.0000000000264 	8.471076796772179e-12 	101324.9999999935
1.227477477477477 	299.9999999999876 	6.918058113225127e-12 	101324.9999999936
1.229979979979979 	299.9999999999877 	7.690908846911069e-12 	101324.9999999937
1.232482482482482 	299.9999999999571 	6.589102868532418e-12 	101324.9999999937
1.234984984984984 	299.9999999999482 	7.569397687166229e-12 	101324.9999999937
1.237487487487487 	299.9999999999846 	6.515045842268467e-12 	101324.9999999937
1.239989989989989 	299.9999999999956 	7.183651272094627e-12 	101324.9999999937
1.242492492492492 	300.0000000000238 	7.57632637820879e-12 	101324.9999999937
1.244994994994994 	299.9999999999968 	6.628303785818008e-12 	101324.9999999937
1.247497497497497 	300.0000000000005 	7.60817549875993e-12 	101324.9999999937
1.249999999999999 	300.0000000000589 	6.921437432491601e-12 	101324.9999999937
