-1.25 	257.7836037248986 	0.00216606610301657 	101325.0069115038
-1.247497497497497 	300.1402438393853 	0.00203644096869083 	101325.00000424
-1.244994994994995 	300.000900590939 	0.001791657492234008 	101325.0064814231
-1.242492492492492 	300.0000022655328 	0.001552710448087189 	101324.9997508813
-1.23998998998999 	300.0000048284396 	0.001327478381404696 	101325.0057391087
-1.237487487487487 	299.9999997977609 	0.001116448169006867 	101324.9997334071
-1.234984984984985 	300.0000046493594 	0.0009198488780479872 	101325.0055209494
-1.232482482482482 	300.0000002530895 	0.0007376394578703895 	101325.0002724949
-1.22997997997998 	300.0000045551432 	0.0005696017857364212 	101325.0054079298
-1.227477477477477 	300.0000004008995 	0.0004154639674307399 	101325.0004522083
-1.224974974974975 	300.000004027278 	0.0002750686827785827 	101325.004782138
-1.222472472472472 	300.0000002306199 	0.0001479542763844692 	101325.0002579034
-1.21996996996997 	300.0000034507841 	4.788898979634817e-05 	101325.0041006884
-1.217467467467467 	300.0000001179171 	6.879454258179585e-05 	101325.0001237236
-1.214964964964965 	300.0000030358324 	0.0001595790635003411 	101325.0036051402
-1.212462462462462 	300.0000000782507 	0.0002390566408093028 	101325.00007476
-1.20995995995996 	300.0000026670278 	0.0003084170080827571 	101325.0031668079
-1.207457457457457 	300.0000000098578 	0.000367959316012832 	101324.9999984254
-1.204954954954955 	300.0000024029401 	0.0004181574954116866 	101325.0028575457
-1.202452452452452 	300.0000000760552 	0.000460490003181065 	101325.0000756236
-1.19994994994995 	300.0000023712038 	0.0004942689351197267 	101325.0028162925
-1.197447447447447 	300.000000277988 	0.0005217977691345549 	101325.0003125741
-1.194944944944945 	300.0000022648288 	0.0005422764646205023 	101325.0026881366
-1.192442442442442 	300.0000000923104 	0.0005566565500278991 	101325.0000972442
-1.18993993993994 	300.0000019127815 	0.000566312518201173 	101325.0022794158
-1.187437437437437 	299.9999997268254 	0.0005706281245459779 	101324.9996698864
-1.184934934934935 	300.0000013134666 	0.0005712292711137615 	101325.0015682788
-1.182432432432432 	299.9999994777424 	0.0005674854602486083 	101324.9993709355
-1.17992992992993 	300.0000011115103 	0.0005610850362003683 	101325.0013244144
-1.177427427427427 	299.9999993178709 	0.0005514596294073194 	101324.9991798399
-1.174924924924925 	300.0000010093183 	0.0005395568657220633 	101325.0012027716
-1.172422422422422 	299.9999994255638 	0.0005258449414652444 	101324.9993084534
-1.16991991991992 	300.0000010726038 	0.0005100251543327348 	101325.0012783147
-1.167417417417417 	299.9999994614464 	0.0004931356177557759 	101324.9993564814
-1.164914914914915 	300.0000009337811 	0.0004752531984793381 	101325.0011142436
-1.162412412412412 	299.9999993180124 	0.0004561152214616709 	101324.9991842007
-1.15990990990991 	300.0000006954785 	0.0004370642354151209 	101325.0008309196
-1.157407407407407 	299.9999991176815 	0.0004169553584013837 	101324.9989486287
-1.154904904904904 	300.0000003957375 	0.0003974237412972888 	101325.0004762104
-1.152402402402403 	299.9999988468198 	0.0003768663470103646 	101324.9986308173
-1.1498998998999 	300.0000000377809 	0.0003578933270399452 	101325.0000538905
-1.147397397397397 	299.9999985456232 	0.0003373964800501227 	101324.9982765095
-1.144894894894895 	299.999999691907 	0.0003189443915166967 	101324.9996421828
-1.142392392392392 	299.9999983645173 	0.0002996405976471492 	101324.9980589415
-1.13988988988989 	299.9999996571122 	0.0002815891110568463 	101324.999597322
-1.137387387387387 	299.9999986417302 	0.0002637729282534779 	101324.9983873371
-1.134884884884885 	299.9999999364888 	0.0002467171171618409 	101324.9999264038
-1.132382382382382 	299.9999987960561 	0.0002298993538081708 	101324.9985733502
-1.12987987987988 	299.9999997338095 	0.0002147272487849122 	101324.9996941003
-1.127377377377377 	299.999998438302 	0.0001982253993472792 	101324.9981530625
-1.124874874874875 	299.99999914645 	0.0001854196131425415 	101324.9989951401
-1.122372372372372 	299.9999978459749 	0.0001698268083657606 	101324.9974521726
-1.11986986986987 	299.9999986815736 	0.0001578244275052984 	101324.9984423832
-1.117367367367367 	299.999997823096 	0.0001442703754753369 	101324.9974228176
-1.114864864864865 	299.9999988292909 	0.0001331967264395282 	101324.998616263
-1.112362362362362 	299.9999979822262 	0.0001209316965807256 	101324.997613614
-1.10985985985986 	299.9999988043608 	0.0001111374196546554 	101324.9985886635
-1.107357357357357 	299.9999979783937 	9.981874295874315e-05 	101324.9976100606
-1.104854854854855 	299.999998735257 	9.124773717000772e-05 	101324.9985058103
-1.102352352352353 	299.9999979855809 	8.047540960212779e-05 	101324.9976175046
-1.09984984984985 	299.9999984451022 	7.267110488582853e-05 	101324.9981608223
-1.097347347347347 	299.999997915787 	6.179829883579708e-05 	101324.9975343277
-1.094844844844845 	299.9999980867254 	5.442816493289553e-05 	101324.9977372197
-1.092342342342342 	299.9999978850778 	4.407387923012865e-05 	101324.9974997003
-1.08983983983984 	299.9999978043063 	3.804702981032044e-05 	101324.9974054942
-1.087337337337337 	299.9999976890717 	2.89787796382473e-05 	101324.997269773
-1.084834834834835 	299.9999975957978 	2.478075001216456e-05 	101324.9971583242
-1.082332332332332 	299.9999975337748 	1.725110249390656e-05 	101324.9970845379
-1.07982982982983 	299.9999975021429 	1.456975873065332e-05 	101324.9970457986
-1.077327327327327 	299.9999975433444 	8.660411713993102e-06 	101324.9970940282
-1.074824824824825 	299.9999975621358 	7.127146639713708e-06 	101324.9971161443
-1.072322322322323 	299.9999976675955 	7.499167879320336e-06 	101324.9972415452
-1.06981981981982 	299.9999975955407 	6.35864109326196e-06 	101324.9971570039
-1.067317317317317 	299.9999975703678 	7.409787379282653e-06 	101324.9971277214
-1.064814814814815 	299.9999974419157 	7.341543346526693e-06 	101324.9969758875
-1.062312312312312 	299.9999973068726 	7.80475259395572e-06 	101324.9968161563
-1.05980980980981 	299.9999971767502 	8.167625573683402e-06 	101324.9966622788
-1.057307307307307 	299.9999970786689 	8.447235248663569e-06 	101324.9965462749
-1.054804804804805 	299.9999970258292 	8.601608133050976e-06 	101324.9964835361
-1.052302302302302 	299.9999970154736 	8.637514080446695e-06 	101324.9964710073
-1.0497997997998 	299.99999703333 	8.592507595189624e-06 	101324.9964921101
-1.047297297297297 	299.9999970618082 	8.514992834428208e-06 	101324.9965260241
-1.044794794794795 	299.999997086457 	8.446035893007401e-06 	101324.9965555298
-1.042292292292292 	299.9999970986175 	8.411825069832189e-06 	101324.9965700505
-1.03978978978979 	299.999997094014 	8.426001459383447e-06 	101324.9965645174
-1.037287287287287 	299.9999970700288 	8.496513068161747e-06 	101324.9965360494
-1.034784784784785 	299.9999970241047 	8.630136985096315e-06 	101324.9964817682
-1.032282282282283 	299.9999969547644 	8.829622047172648e-06 	101324.9963999632
-1.02977977977978 	299.9999968655382 	9.083721463887101e-06 	101324.9962945601
-1.027277277277277 	299.9999967685967 	9.357518217901793e-06 	101324.9961798107
-1.024774774774775 	299.9999966844173 	9.594099917096803e-06 	101324.9960798289
-1.022272272272272 	299.999996635069 	9.731988150625614e-06 	101324.9960211086
-1.01976976976977 	299.999996635117 	9.731029690215835e-06 	101324.9960212909
-1.017267267267267 	299.9999966840073 	9.594126735765444e-06 	101324.9960796753
-1.014764764764765 	299.9999967640682 	9.371765009213584e-06 	101324.9961747617
-1.012262262262262 	299.9999968458032 	9.146097325262829e-06 	101324.9962712904
-1.00975975975976 	299.999996898926 	9.000696615978266e-06 	101324.9963335969
-1.007257257257257 	299.9999969037282 	8.98839126800225e-06 	101324.9963389515
-1.004754754754755 	299.9999968582382 	9.114014492862232e-06 	101324.9962854935
-1.002252252252252 	299.9999967776266 	9.336510797579305e-06 	101324.9961911084
-0.9997497497497498 	299.9999966867069 	9.589692219144849e-06 	101324.9960842105
-0.9972472472472473 	299.9999966093521 	9.809448669649123e-06 	101324.9959922178
-0.9947447447447449 	299.9999965610582 	9.950833735215484e-06 	101324.995933665
-0.9922422422422421 	299.9999965473473 	9.994580720899585e-06 	101324.9959160581
-0.9897397397397399 	299.9999965659357 	9.943406157442596e-06 	101324.9959379497
-0.9872372372372376 	299.9999966108396 	9.813765109338044e-06 	101324.9959923286
-0.9847347347347346 	299.9999966742394 	9.630403971997366e-06 	101324.9960689371
-0.9822322322322323 	299.9999967465781 	9.423892069435845e-06 	101324.9961550856
-0.9797297297297296 	299.999996815848 	9.22949073847518e-06 	101324.9962362099
-0.9772272272272275 	299.9999968685739 	9.084005909685828e-06 	101324.9962971673
-0.9747247247247248 	299.999996892543 	9.01901953055776e-06 	101324.9963246969
-0.9722222222222224 	299.9999968808067 	9.0510752785303e-06 	101324.9963113661
-0.9697197197197196 	299.9999968360192 	9.172815346215417e-06 	101324.9962597961
-0.9672172172172175 	299.9999967712197 	9.349504667596939e-06 	101324.9961845558
-0.9647147147147147 	299.9999967072916 	9.525354838408329e-06 	101324.9961094838
-0.9622122122122124 	299.9999966666375 	9.638633824282257e-06 	101324.9960608644
-0.9597097097097099 	299.9999966666251 	9.63901318954074e-06 	101324.9960595548
-0.9572072072072073 	299.999996714858 	9.503681695376929e-06 	101324.9961151186
-0.9547047047047047 	299.9999968072246 	9.24408351306799e-06 	101324.9962230851
-0.9522022022022023 	299.9999969285628 	8.901533396737767e-06 	101324.9963659886
-0.9496996996996998 	299.9999970576754 	8.535620580512077e-06 	101324.996518641
-0.9471971971971973 	299.9999971730244 	8.207716447063363e-06 	101324.9966552265
-0.9446946946946947 	299.9999972572488 	7.96655733826895e-06 	101324.9967551397
-0.9421921921921923 	299.9999973011618 	7.83911469410099e-06 	101324.9968072059
-0.93968968968969 	299.9999973046417 	7.826215205372412e-06 	101324.9968113578
-0.9371871871871872 	299.9999972762446 	7.902961444518676e-06 	101324.9967778387
-0.9346846846846848 	299.9999972310717 	8.027107166377898e-06 	101324.9967245937
-0.9321821821821823 	299.9999971857405 	8.153071591121628e-06 	101324.9966712036
-0.9296796796796799 	299.9999971531753 	8.243780881703223e-06 	101324.9966328749
-0.9271771771771771 	299.999997142036 	8.273447525188504e-06 	101324.9966199268
-0.9246746746746748 	299.9999971577647 	8.227251436596344e-06 	101324.9966386479
-0.9221721721721724 	299.9999972007752 	8.104621995475115e-06 	101324.9966895423
-0.9196696696696698 	299.9999972656287 	7.919582188702507e-06 	101324.9967662804
-0.9171671671671672 	299.999997344565 	7.694085036033539e-06 	101324.9968596161
-0.9146646646646649 	299.9999974317367 	7.444050692051804e-06 	101324.9969625115
-0.9121621621621623 	299.9999975232928 	7.180874444453098e-06 	101324.9970706148
-0.9096596596596597 	299.9999976141304 	6.920329778417624e-06 	101324.9971780807
-0.9071571571571573 	299.9999976982457 	6.678403145433717e-06 	101324.9972775956
-0.9046546546546547 	299.9999977715676 	6.465956493593054e-06 	101324.9973644323
-0.9021521521521524 	299.9999978346767 	6.281257139588252e-06 	101324.9974393115
-0.8996496496496498 	299.9999978912173 	6.114608284273619e-06 	101324.9975062851
-0.8971471471471473 	299.9999979449011 	5.957137134825063e-06 	101324.9975697891
-0.894644644644645 	299.9999979986235 	5.799455077672025e-06 	101324.9976333577
-0.892142142142142 	299.9999980556045 	5.631961327191807e-06 	101324.9977008329
-0.8896396396396397 	299.9999981195847 	5.444765457540297e-06 	101324.9977765794
-0.8871371371371374 	299.9999981929652 	5.231801817898305e-06 	101324.9978634917
-0.8846346346346349 	299.9999982743314 	4.998492109736411e-06 	101324.9979596721
-0.8821321321321324 	299.9999983569867 	4.762488803540888e-06 	101324.9980573136
-0.8796296296296297 	299.9999984327438 	4.544426262694174e-06 	101324.9981468952
-0.8771271271271271 	299.9999984980718 	4.353335168903489e-06 	101324.9982242504
-0.8746246246246248 	299.9999985569 	4.179692719281863e-06 	101324.9982938539
-0.8721221221221224 	299.9999986169608 	4.003783138478295e-06 	101324.9983648117
-0.8696196196196196 	299.9999986843532 	3.808617109972589e-06 	101324.9984443568
-0.8671171171171175 	299.9999987612122 	3.586719710073319e-06 	101324.9985350789
-0.8646146146146148 	299.9999988465253 	3.340344096727631e-06 	101324.998636074
-0.8621121121121121 	299.999998937422 	3.078602000128357e-06 	101324.9987436967
-0.8596096096096097 	299.999999029226 	2.814071031767662e-06 	101324.998852278
-0.857107107107107 	299.9999991175445 	2.559474368789054e-06 	101324.9989566287
-0.8546046046046049 	299.9999992003904 	2.319806284971119e-06 	101324.9990543374
-0.8521021021021022 	299.9999992792343 	2.089616069036814e-06 	101324.9991474478
-0.8495995995995997 	299.9999993576295 	1.861127475814194e-06 	101324.9992403219
-0.8470970970970974 	299.9999994375767 	1.628258530438139e-06 	101324.9993352171
-0.8445945945945946 	299.9999995194252 	1.390058701408126e-06 	101324.999432074
-0.8420920920920922 	299.9999996041862 	1.14511909141531e-06 	101324.9995319835
-0.8395895895895897 	299.9999996934386 	8.87351072015755e-07 	101324.9996371017
-0.8370870870870872 	299.9999997883085 	6.136723205815608e-07 	101324.999748974
-0.8345845845845846 	299.9999998879425 	3.265774869793701e-07 	101324.9998667955
-0.8320820820820823 	299.9999999887762 	1.182441891413696e-07 	101324.999986395
-0.8295795795795798 	300.0000000879778 	2.537996802440505e-07 	101325.0001041182
-0.8270770770770772 	300.0000001849779 	5.355554340654404e-07 	101325.0002189565
-0.8245745745745746 	300.0000002801872 	8.110500056223623e-07 	101325.000331492
-0.8220720720720721 	300.0000003728589 	1.078076521878206e-06 	101325.0004407971
-0.8195695695695699 	300.000000461201 	1.333408704202313e-06 	101325.0005449665
-0.817067067067067 	300.0000005459882 	1.580441111818377e-06 	101325.0006451131
-0.8145645645645651 	300.000000631987 	1.831658993441755e-06 	101325.0007467964
-0.8120620620620621 	300.000000724582 	2.10065770870956e-06 	101325.0008562507
-0.8095595595595597 	300.0000008250564 	2.391061412476318e-06 	101325.0009751847
-0.8070570570570572 	300.0000009299633 	2.694024395984336e-06 	101325.0010995338
-0.8045545545545546 	300.00000103467 	2.996763329275803e-06 	101325.001223455
-0.8020520520520523 	300.0000011372308 	3.293342223945349e-06 	101325.0013443933
-0.7995495495495494 	300.0000012389127 	3.586793630965335e-06 	101325.0014640279
-0.7970470470470474 	300.0000013410782 	3.88101829513008e-06 	101325.0015843828
-0.7945445445445446 	300.0000014422498 	4.173092993243073e-06 	101325.0017040181
-0.7920420420420423 	300.0000015392014 	4.455850392333648e-06 	101325.0018193406
-0.7895395395395397 	300.0000016316753 	4.728427299414205e-06 	101325.0019297344
-0.7870370370370371 	300.0000017242634 	5.000925830970524e-06 	101325.0020399554
-0.7845345345345348 	300.0000018226412 	5.286369877107809e-06 	101325.0021561858
-0.7820320320320323 	300.0000019281631 	5.587859249372474e-06 	101325.0022799057
-0.7795295295295296 	300.0000020362334 	5.895111506900596e-06 	101325.0024062924
-0.7770270270270272 	300.0000021407075 	6.193604547253236e-06 	101325.0025286408
-0.7745245245245247 	300.0000022387529 	6.477337772499022e-06 	101325.0026442037
-0.7720220220220222 	300.0000023331464 	6.753550820949955e-06 	101325.0027563135
-0.7695195195195199 	300.000002429556 	7.036388159130868e-06 	101325.0028713987
-0.767017017017017 	300.0000025319647 	7.334778200626097e-06 	101325.0029935061
-0.7645145145145147 	300.0000026391073 	7.64478366720076e-06 	101325.0031207645
-0.7620120120120122 	300.0000027457052 	7.953245791631201e-06 	101325.0032470726
-0.7595095095095097 	300.0000028474631 	8.250049364059734e-06 	101325.0033678308
-0.7570070070070072 	300.0000029450073 	8.536231530024503e-06 	101325.003483899
-0.7545045045045048 	300.0000030415214 	8.818930479680255e-06 	101325.0035990348
-0.7520020020020022 	300.0000031376959 	9.099038544973722e-06 	101325.0037137962
-0.7494994994994997 	300.0000032308909 	9.369362630976115e-06 	101325.0038243223
-0.7469969969969972 	300.0000033199285 	9.627760587547806e-06 	101325.0039288817
-0.7444944944944945 	300.0000034100788 	9.88909138126573e-06 	101325.0040340433
-0.7419919919919924 	300.0000035102055 	1.017638260615002e-05 	101325.0041507736
-0.7394894894894897 	300.0000036228513 	1.049689033079012e-05 	101325.004282832
-0.7369869869869872 	300.000003739937 	1.083015219513943e-05 	101325.0044208059
-0.7344844844844846 	300.0000038488589 	1.114424423772547e-05 	101325.004549878
-0.7319819819819822 	300.0000039441733 	1.142364680909685e-05 	101325.0046631684
-0.7294794794794797 	300.0000040305465 	1.167878355050589e-05 	101325.0047660891
-0.7269769769769773 	300.0000041162654 	1.192985630395159e-05 	101325.0048681869
-0.7244744744744747 	300.0000042047319 	1.21863816454188e-05 	101325.0049733585
-0.721971971971972 	300.0000042941407 	1.244486468933654e-05 	101325.0050792024
-0.7194694694694695 	300.0000043831757 	1.270159942212313e-05 	101325.0051836199
-0.7169669669669674 	300.0000044736052 	1.296115233292653e-05 	101325.0052889067
-0.7144644644644647 	300.0000045683811 	1.323071329656601e-05 	101325.0053987665
-0.711961961961962 	300.0000046667109 	1.350974441742798e-05 	101325.0055131452
-0.7094594594594597 	300.0000047642604 	1.378867243431347e-05 	101325.0056275963
-0.7069569569569573 	300.0000048571649 	1.405784549526415e-05 	101325.0057376252
-0.7044544544544545 	300.0000049453153 	1.431610078277722e-05 	101325.0058427634
-0.7019519519519523 	300.000005031624 	1.45694701810922e-05 	101325.0059459703
-0.6994494494494495 	300.000005118135 	1.482212298276963e-05 	101325.0060493243
-0.6969469469469471 	300.0000052035278 	1.507002747884953e-05 	101325.0061509581
-0.6944444444444446 	300.0000052843154 	1.530524074561607e-05 	101325.0062469858
-0.6919419419419421 	300.0000053599355 	1.552703762671157e-05 	101325.0063368044
-0.6894394394394396 	300.0000054346472 	1.574705115724823e-05 	101325.0064257262
-0.6869369369369374 	300.0000055145485 	1.597987490123497e-05 	101325.0065206919
-0.6844344344344344 	300.0000056002702 	1.622674417690822e-05 	101325.0066224625
-0.6819319319319321 	300.0000056851899 	1.647096978688331e-05 	101325.0067231918
-0.6794294294294296 	300.0000057620518 	1.669416008144996e-05 	101325.006813978
-0.6769269269269272 	300.000005831524 	1.689843874854815e-05 	101325.0068956069
-0.6744244244244245 	300.0000059036331 	1.710856722756952e-05 	101325.0069798838
-0.6719219219219222 	300.0000059870425 	1.734643388273267e-05 	101325.007077602
-0.6694194194194195 	300.0000060781753 	1.760258485760991e-05 	101325.0071847657
-0.6669169169169172 	300.0000061612716 	1.783806655833155e-05 	101325.0072831118
-0.6644144144144146 	300.0000062231508 	1.802030196272677e-05 	101325.0073569949
-0.661911911911912 	300.0000062676296 	1.815824133428423e-05 	101325.0074103063
-0.6594094094094097 	300.00000631327 	1.829780370736557e-05 	101325.0074646173
-0.656906906906907 	300.0000063758778 	1.847848304801004e-05 	101325.0075385815
-0.6544044044044046 	300.0000064531339 	1.869492558965454e-05 	101325.0076295554
-0.6519019019019021 	300.0000065277121 	1.890509225919075e-05 	101325.007717342
-0.6493993993993996 	300.0000065868137 	1.907810485165516e-05 	101325.0077869547
-0.6468968968968971 	300.0000066372226 	1.923113943177267e-05 	101325.007846362
-0.6443943943943946 	300.0000066990224 	1.941321447418375e-05 	101325.0079190971
-0.6418918918918921 	300.0000067829694 	1.964901657648193e-05 	101325.0080176891
-0.6393893893893897 	300.0000068744267 	1.990028404405975e-05 	101325.0081250918
-0.6368868868868871 	300.0000069426928 	2.008975121184028e-05 	101325.0082053839
-0.6343843843843846 	300.0000069690306 	2.017185615601096e-05 	101325.0082365994
-0.6318818818818821 	300.0000069677598 	2.018543259568393e-05 	101325.0082357365
-0.6293793793793795 	300.0000069791375 	2.023347453054299e-05 	101325.0082499338
-0.6268768768768773 	300.0000070364478 	2.040029853453669e-05 	101325.0083183984
-0.6243743743743745 	300.0000071366442 	2.067592380934468e-05 	101325.008437223
-0.6218718718718721 	300.0000072395002 	2.095607750301181e-05 	101325.008558954
-0.6193693693693696 	300.0000072990075 	2.112281803019658e-05 	101325.0086294924
-0.6168668668668671 	300.0000073015152 	2.114094853436681e-05 	101325.008632369
-0.6143643643643645 	300.0000072774061 	2.109020273277596e-05 	101325.0086037829
-0.6118618618618621 	300.0000072779773 	2.110391880946537e-05 	101325.0086045118
-0.6093593593593596 	300.0000073346187 	2.126269775830295e-05 	101325.0086714761
-0.6068568568568571 	300.0000074327027 	2.15280645811749e-05 	101325.0087874147
-0.6043543543543546 	300.000007522183 	2.176923470004896e-05 	101325.0088930825
-0.6018518518518521 	300.000007555657 	2.186237819786949e-05 	101325.0089322886
-0.5993493493493496 	300.0000075246978 	2.178660895546826e-05 	101325.0088952038
-0.5968468468468471 	300.0000074682396 	2.164452917083917e-05 	101325.0088279306
-0.5943443443443446 	300.0000074452089 	2.159159039165794e-05 	101325.008800332
-0.591841841841842 	300.0000074929083 	2.172641608701633e-05 	101325.0088568394
-0.5893393393393397 	300.000007600614 	2.202029756711453e-05 	101325.0089847672
-0.5868368368368371 	300.0000077160408 	2.233444032056677e-05 	101325.0091220776
-0.5843343343343346 	300.0000077801177 	2.251174740078681e-05 	101325.0091987601
-0.5818318318318321 	300.0000077657189 	2.247953381797648e-05 	101325.0091823457
-0.5793293293293297 	300.0000076950843 	2.229662277399658e-05 	101325.0090990177
-0.5768268268268271 	300.0000076256908 	2.211515019287797e-05 	101325.0090164988
-0.5743243243243245 	300.0000076131518 	2.208394804091787e-05 	101325.0090007674
-0.5718218218218221 	300.0000076770343 	2.22557186850333e-05 	101325.0090752977
-0.5693193193193196 	300.0000077884438 	2.255348897102928e-05 	101325.0092061133
-0.5668168168168171 	300.0000078864074 	2.281434359556451e-05 	101325.0093214602
-0.5643143143143147 	300.000007913023 	2.28821337764855e-05 	101325.0093526916
-0.5618118118118121 	300.000007845629 	2.26961277276641e-05 	101325.0092727414
-0.5593093093093094 	300.0000077109007 	2.232947819657048e-05 	101325.0091132753
-0.5568068068068072 	300.00000757338 	2.195731927118478e-05 	101325.0089505853
-0.5543043043043046 	300.000007503977 	2.1773012981476e-05 	101325.0088685483
-0.551801801801802 	300.000007546747 	2.189669342740937e-05 	101325.0089195275
-0.5492992992992995 	300.0000076978425 	2.231630752469621e-05 	101325.0090988465
-0.5467967967967969 	300.0000079041499 	2.288666042200736e-05 	101325.0093439067
-0.5442942942942947 	300.0000080855126 	2.338674295004375e-05 	101325.0095597859
-0.5417917917917919 	300.0000081658508 	2.360559633916005e-05 	101325.0096562882
-0.5392892892892895 	300.0000081009291 	2.342063149839017e-05 	101325.0095806797
-0.536786786786787 	300.0000078951435 	2.284449776578511e-05 	101325.0093378234
-0.5342842842842846 	300.0000076017751 	2.202477472024821e-05 	101325.0089906719
-0.531781781781782 	300.0000073050969 	2.119525337495514e-05 	101325.0086388852
-0.5292792792792794 	300.0000070927013 	2.060152224580369e-05 	101325.0083861367
-0.526776776776777 	300.0000070314641 	2.043209756067413e-05 	101325.0083118309
-0.5242742742742745 	300.00000715113 	2.07699190274629e-05 	101325.008451356
-0.521771771771772 	300.0000074356248 	2.157010902501301e-05 	101325.0087861733
-0.5192692692692695 	300.0000078267199 	2.267080177901593e-05 	101325.0092477955
-0.516766766766767 	300.0000082405716 	2.383703637745007e-05 	101325.0097368931
-0.5142642642642645 	300.0000085886196 	2.481864571977633e-05 	101325.0101489746
-0.511761761761762 	300.0000087951804 	2.539916606080658e-05 	101325.0103942785
-0.5092592592592596 	300.0000088073689 	2.542683831841092e-05 	101325.0104100555
-0.506756756756757 	300.0000086004393 	2.483045262051052e-05 	101325.010166972
-0.5042542542542544 	300.0000081788738 	2.362116385993866e-05 	101325.009669941
-0.5017517517517521 	300.0000075721105 	2.188203893125175e-05 	101325.0089537678
-0.4992492492492494 	300.0000068277758 	1.974764518731228e-05 	101325.0080746948
-0.496746746746747 	300.0000060024287 	1.737822439153285e-05 	101325.0070995664
-0.4942442442442445 	300.0000051522359 	1.493322352397548e-05 	101325.0060947333
-0.4917417417417421 	300.0000043250976 	1.25497342723872e-05 	101325.0051168623
-0.4892392392392395 	300.0000035563001 	1.033005095727615e-05 	101325.0042077323
-0.486736736736737 	300.0000028680194 	8.339508777135648e-06 	101325.0033936899
-0.4842342342342345 	300.0000022711391 	6.610804671870501e-06 	101325.0026877069
-0.481731731731732 	300.0000017679648 	5.150947021114731e-06 	101325.0020922749
-0.4792292292292296 	300.0000013539147 	3.948445118594459e-06 	101325.0016023986
-0.4767267267267268 	300.0000010207922 	2.980008293760799e-06 	101325.0012083173
-0.4742242242242246 	300.0000007584043 	2.215976491534728e-06 	101325.0008977518
-0.471721721721722 	300.0000005554633 	1.624607126154389e-06 	101325.0006576139
-0.4692192192192195 	300.0000004013621 	1.174926205879036e-06 	101325.0004751959
-0.4667167167167169 	300.0000002861595 	8.386541661850717e-07 	101325.0003389112
-0.4642142142142145 	300.0000002015858 	5.911038543493896e-07 	101325.0002386795
-0.461711711711712 	300.0000001402621 	4.11576301477889e-07 	101325.0001660533
-0.4592092092092094 	300.0000000964391 	2.832075025755361e-07 	101325.0001141704
-0.456706706706707 	300.0000000656 	1.926649139623924e-07 	101325.0000776053
-0.4542042042042045 	300.0000000439883 	1.296198476526736e-07 	101325.0000521682
-0.451701701701702 	300.0000000292447 	8.627351238041783e-08 	101325.000034692
-0.4491991991991995 	300.0000000192276 	5.682078459481649e-08 	101325.0000228285
-0.4466966966966969 	300.0000000124977 	3.704705733956609e-08 	101325.0000148686
-0.4441941941941945 	300.0000000080906 	2.391192148502167e-08 	101325.0000095872
-0.441691691691692 	300.0000000051257 	1.5290997181205e-08 	101325.0000061212
-0.4391891891891895 	300.000000003262 	9.680094722431312e-09 	101325.00000387
-0.436686686686687 	300.000000002015 	6.079555182975411e-09 	101325.0000024228
-0.4341841841841846 	300.000000001274 	3.776398886726446e-09 	101325.0000015017
-0.431681681681682 	300.000000000726 	2.332527809901711e-09 	101325.0000009213
-0.4291791791791794 	300.0000000003984 	1.422290904937729e-09 	101325.0000005588
-0.426676676676677 	300.0000000001808 	8.657003695963332e-10 	101325.0000003343
-0.4241741741741744 	300.0000000001343 	5.174252340965203e-10 	101325.0000001967
-0.421671671671672 	300.0000000001081 	3.113313493593451e-10 	101325.000000113
-0.4191691691691694 	300.0000000001191 	1.825124196705697e-10 	101325.0000000626
-0.4166666666666669 	300.0000000001053 	1.099865419915205e-10 	101325.0000000326
-0.4141641641641645 	299.9999999999436 	6.305872952744828e-11 	101325.000000015
-0.411661661661662 	300.0000000000188 	3.797206393106949e-11 	101325.0000000047
-0.4091591591591594 	300.0000000000043 	2.092910558619347e-11 	101324.9999999985
-0.406656656656657 	299.9999999999349 	1.373067392843255e-11 	101324.9999999948
-0.4041541541541545 	300.0000000000246 	6.229343699098053e-12 	101324.9999999928
-0.401651651651652 	299.9999999999052 	6.86154661632714e-12 	101324.9999999917
-0.3991491491491494 	299.9999999999965 	1.468363948866771e-12 	101324.9999999909
-0.396646646646647 	299.9999999999501 	5.726190991971036e-12 	101324.9999999905
-0.3941441441441444 	299.9999999999743 	2.101929924701632e-12 	101324.9999999903
-0.3916416416416419 	299.9999999999184 	4.771927313292744e-12 	101324.9999999901
-0.3891391391391395 	299.9999999999533 	1.33909565108573e-12 	101324.9999999901
-0.3866366366366368 	299.9999999999503 	3.148993586148107e-12 	101324.9999999899
-0.3841341341341344 	299.9999999999953 	9.967451037433646e-13 	101324.9999999899
-0.381631631631632 	299.9999999999453 	1.831985537869963e-12 	101324.9999999898
-0.3791291291291294 	300.0000000000082 	6.174577710372398e-13 	101324.9999999899
-0.3766266266266269 	300.0000000000296 	7.378424562170004e-13 	101324.9999999898
-0.3741241241241244 	300.0000000000327 	2.127927418258211e-12 	101324.9999999901
-0.371621621621622 	300.0000000000218 	4.778044263779299e-13 	101324.9999999903
-0.3691191191191194 	300.0000000000061 	3.237536586087232e-12 	101324.9999999905
-0.366616616616617 	300.0000000000067 	1.561747491951394e-12 	101324.9999999908
-0.3641141141141143 	299.9999999999517 	3.008099145278879e-12 	101324.9999999907
-0.3616116116116119 	299.9999999999397 	1.065767854605864e-12 	101324.9999999908
-0.3591091091091095 	299.9999999999849 	2.901072665676662e-12 	101324.9999999909
-0.356606606606607 	299.9999999999801 	2.615278671260195e-12 	101324.999999991
-0.3541041041041044 	299.9999999999867 	2.760521680087648e-12 	101324.9999999911
-0.3516016016016019 	300.0000000000049 	3.58263107555556e-12 	101324.9999999912
-0.3490990990990994 	299.9999999999911 	1.980734147302529e-12 	101324.9999999911
-0.346596596596597 	300.0000000000511 	4.33292509887291e-12 	101324.9999999911
-0.3440940940940944 	300.0000000000602 	2.019221567195916e-12 	101324.999999991
-0.3415915915915919 	300.0000000000239 	4.061116625331635e-12 	101324.9999999908
-0.3390890890890895 	299.9999999999772 	1.850136141313166e-12 	101324.9999999908
-0.3365865865865869 	300.0000000000241 	3.597233223669863e-12 	101324.9999999906
-0.3340840840840844 	300.0000000000031 	2.319623351487634e-12 	101324.9999999905
-0.3315815815815819 	300.0000000000261 	3.073843169463238e-12 	101324.9999999908
-0.3290790790790794 	300.0000000000252 	2.028114661509853e-12 	101324.9999999906
-0.3265765765765769 	299.9999999999138 	3.170390827431639e-12 	101324.9999999905
-0.3240740740740744 	299.9999999999951 	1.179430843686214e-12 	101324.9999999905
-0.3215715715715718 	300.0000000000082 	3.019090616856372e-12 	101324.9999999904
-0.3190690690690695 	299.9999999999222 	9.24239965101764e-13 	101324.9999999902
-0.3165665665665668 	299.9999999999901 	2.346438338728054e-12 	101324.99999999
-0.3140640640640644 	300.0000000000099 	1.523787975319696e-12 	101324.9999999898
-0.311561561561562 	299.99999999991 	3.337084755814985e-12 	101324.9999999896
-0.3090590590590593 	299.9999999999927 	2.876302702146435e-12 	101324.9999999893
-0.3065565565565568 	300.0000000000053 	4.493016876966069e-12 	101324.9999999895
-0.3040540540540545 	300.0000000000005 	3.030871351431499e-12 	101324.9999999898
-0.3015515515515518 	300.0000000000388 	4.450071133493492e-12 	101324.9999999903
-0.2990490490490494 	299.9999999999413 	1.313319131539773e-12 	101324.9999999905
-0.2965465465465469 	299.9999999999838 	3.289292557747799e-12 	101324.9999999907
-0.2940440440440444 	299.999999999997 	1.582792428485165e-12 	101324.9999999909
-0.2915415415415418 	300.0000000000039 	2.547836637571328e-12 	101324.9999999909
-0.2890390390390395 	300.0000000000051 	2.540114613400333e-12 	101324.9999999912
-0.2865365365365368 	299.9999999999783 	1.507441566534904e-12 	101324.9999999911
-0.2840340340340343 	300.0000000000015 	3.196752437492801e-12 	101324.9999999911
-0.2815315315315318 	299.9999999999205 	1.256869397271685e-12 	101324.9999999909
-0.2790290290290295 	299.9999999999591 	2.814043256289199e-12 	101324.9999999905
-0.2765265265265269 	300.000000000014 	1.772449681931827e-12 	101324.9999999903
-0.2740240240240244 	300.0000000000275 	2.805674913928292e-12 	101324.9999999899
-0.2715215215215219 	300.0000000000223 	3.019171628377982e-12 	101324.9999999898
-0.2690190190190194 	299.9999999999308 	3.004287265578635e-12 	101324.9999999898
-0.2665165165165169 	299.9999999999994 	3.840786469674915e-12 	101324.9999999898
-0.2640140140140144 	299.9999999999565 	2.514870513707886e-12 	101324.99999999
-0.2615115115115119 	300.0000000000013 	4.187983540360408e-12 	101324.9999999901
-0.2590090090090094 	299.9999999999208 	2.725362551288854e-12 	101324.9999999899
-0.2565065065065068 	299.9999999999901 	3.342285182964377e-12 	101324.9999999899
-0.2540040040040044 	299.9999999999957 	3.401566778015607e-12 	101324.99999999
-0.2515015015015019 	300.0000000000418 	2.536223390475966e-12 	101324.99999999
-0.2489989989989994 	300.0000000000495 	4.910082611467166e-12 	101324.9999999902
-0.2464964964964968 	299.9999999999893 	2.175954927694436e-12 	101324.9999999902
-0.2439939939939944 	299.9999999999997 	6.246013627924921e-12 	101324.9999999903
-0.2414914914914919 	299.9999999999683 	1.871320232170067e-12 	101324.9999999906
-0.2389889889889893 	299.999999999999 	6.678997758569474e-12 	101324.9999999906
-0.2364864864864869 	300.0000000000284 	2.220759009742472e-12 	101324.9999999905
-0.2339839839839843 	299.9999999999204 	6.219306205611907e-12 	101324.9999999907
-0.2314814814814819 	299.9999999999783 	1.708755968744564e-12 	101324.9999999907
-0.2289789789789792 	299.9999999999028 	4.9915645442975e-12 	101324.9999999906
-0.2264764764764769 	299.9999999999382 	2.169083138823533e-12 	101324.9999999907
-0.2239739739739743 	299.9999999999539 	3.504766959976306e-12 	101324.9999999908
-0.2214714714714718 	299.9999999999297 	2.453743158148746e-12 	101324.9999999908
-0.2189689689689693 	299.9999999999628 	2.186053863478408e-12 	101324.9999999907
-0.2164664664664669 	299.9999999999764 	3.372376301976013e-12 	101324.9999999905
-0.2139639639639643 	299.9999999999143 	2.48947667041749e-12 	101324.9999999903
-0.2114614614614618 	299.9999999999708 	3.422982415511217e-12 	101324.99999999
-0.2089589589589593 	299.9999999999906 	4.155353086120963e-12 	101324.9999999898
-0.2064564564564568 	299.9999999999885 	3.839244514563138e-12 	101324.9999999892
-0.2039539539539543 	299.9999999998906 	5.56212397727353e-12 	101324.9999999892
-0.2014514514514518 	299.9999999999434 	2.897987874858594e-12 	101324.9999999892
-0.1989489489489494 	299.9999999999653 	5.824397895505816e-12 	101324.9999999891
-0.1964464464464468 	299.9999999999916 	1.811493693642263e-12 	101324.9999999892
-0.1939439439439443 	299.9999999999876 	4.864047096829875e-12 	101324.9999999895
-0.1914414414414418 	299.9999999999051 	1.705719263697829e-12 	101324.9999999897
-0.1889389389389393 	300.0000000000125 	3.463638431849089e-12 	101324.9999999896
-0.1864364364364368 	300.0000000000522 	1.86698460565443e-12 	101324.9999999897
-0.1839339339339343 	299.9999999999702 	3.127763677984862e-12 	101324.9999999897
-0.1814314314314318 	299.9999999999919 	1.422933321691105e-12 	101324.9999999899
-0.1789289289289293 	299.9999999998856 	3.869988000483153e-12 	101324.9999999897
-0.1764264264264268 	299.9999999999754 	1.007319038247851e-12 	101324.99999999
-0.1739239239239243 	299.9999999998849 	4.960833384889699e-12 	101324.9999999901
-0.1714214214214218 	299.9999999999822 	4.593928876582122e-13 	101324.9999999902
-0.1689189189189193 	299.9999999999406 	6.089038073225423e-12 	101324.9999999904
-0.1664164164164168 	299.9999999999973 	2.217513625619078e-12 	101324.9999999903
-0.1639139139139143 	299.9999999999834 	6.559000324457385e-12 	101324.9999999901
-0.1614114114114118 	300.0000000000309 	3.521517608405229e-12 	101324.99999999
-0.1589089089089093 	299.9999999999986 	8.050410378569439e-12 	101324.99999999
-0.1564064064064068 	299.9999999999834 	5.450178340173641e-12 	101324.99999999
-0.1539039039039043 	299.9999999999902 	7.807509444783319e-12 	101324.9999999899
-0.1514014014014018 	300.0000000000272 	5.249204507760393e-12 	101324.9999999898
-0.1488988988988993 	299.9999999999833 	7.210502541539728e-12 	101324.9999999897
-0.1463963963963968 	299.9999999999947 	3.668578507974913e-12 	101324.9999999898
-0.1438938938938943 	299.9999999999488 	6.352913846122313e-12 	101324.9999999898
-0.1413913913913918 	299.9999999999143 	1.859782198747837e-12 	101324.9999999902
-0.1388888888888893 	299.9999999999766 	5.076973454300285e-12 	101324.9999999902
-0.1363863863863868 	299.9999999998746 	4.231855534222548e-13 	101324.9999999901
-0.1338838838838843 	299.9999999998966 	4.227547152547724e-12 	101324.9999999902
-0.1313813813813818 	299.9999999999957 	1.150521793074168e-12 	101324.9999999901
-0.1288788788788793 	299.9999999999505 	5.125112025040915e-12 	101324.99999999
-0.1263763763763768 	299.9999999999665 	1.907478851431883e-12 	101324.99999999
-0.1238738738738743 	299.9999999999122 	5.612007558073527e-12 	101324.9999999899
-0.1213713713713717 	299.9999999999673 	1.258327984262384e-12 	101324.9999999898
-0.1188688688688693 	300.0000000000047 	6.058473964956308e-12 	101324.9999999897
-0.1163663663663668 	299.9999999998927 	3.565618430220015e-13 	101324.9999999896
-0.1138638638638643 	299.9999999999905 	5.409234886753009e-12 	101324.9999999894
-0.1113613613613618 	299.9999999999849 	1.65298506597449e-12 	101324.9999999894
-0.1088588588588592 	299.9999999999698 	5.120569468630046e-12 	101324.9999999893
-0.1063563563563568 	299.9999999999421 	2.269176408945591e-12 	101324.9999999894
-0.1038538538538543 	299.9999999999654 	3.577316573668451e-12 	101324.9999999895
-0.1013513513513517 	300.0000000000149 	1.949194173704133e-12 	101324.9999999896
-0.09884884884884926 	299.9999999999294 	1.992285038194394e-12 	101324.9999999895
-0.09634634634634676 	299.9999999998699 	1.561922749162008e-12 	101324.9999999897
-0.09384384384384425 	299.9999999999197 	7.412671417224452e-13 	101324.9999999895
-0.09134134134134177 	300.0000000000286 	1.889169871388054e-12 	101324.9999999898
-0.08883883883883925 	300.0000000000131 	1.55360836476009e-13 	101324.9999999897
-0.08633633633633674 	299.9999999999434 	4.089860627848391e-13 	101324.9999999895
-0.08383383383383426 	300.0000000000122 	6.315319076673954e-13 	101324.9999999893
-0.08133133133133173 	299.9999999999608 	1.732446299359174e-12 	101324.9999999895
-0.07882882882882926 	299.999999999859 	2.305514260953062e-12 	101324.9999999896
-0.07632632632632676 	299.9999999999516 	2.778335536816199e-12 	101324.9999999898
-0.07382382382382424 	299.9999999998823 	3.024975943461513e-12 	101324.9999999898
-0.07132132132132173 	300.0000000000165 	2.66346443680438e-12 	101324.99999999
-0.06881881881881925 	299.999999999945 	2.751360648858738e-12 	101324.9999999901
-0.06631631631631671 	299.9999999998762 	2.501020747834644e-12 	101324.9999999904
-0.06381381381381425 	299.9999999999555 	3.207273566059514e-12 	101324.9999999903
-0.06131131131131173 	299.9999999999562 	3.441500810165592e-12 	101324.9999999904
-0.05880880880880923 	299.999999999912 	3.200013461779917e-12 	101324.9999999905
-0.05630630630630672 	299.9999999999697 	2.79685439832622e-12 	101324.9999999903
-0.05380380380380424 	300.0000000000201 	2.676213809383924e-12 	101324.9999999903
-0.05130130130130173 	300.0000000000166 	2.624933232699203e-12 	101324.9999999902
-0.04879879879879922 	299.9999999999241 	2.780222548457255e-12 	101324.99999999
-0.04629629629629672 	299.999999999901 	2.457097081015026e-12 	101324.99999999
-0.04379379379379422 	299.9999999999222 	2.297953175256632e-12 	101324.9999999902
-0.04129129129129173 	299.9999999999702 	1.526064313323127e-12 	101324.9999999899
-0.03878878878878922 	299.9999999999838 	1.423177576896585e-12 	101324.9999999898
-0.03628628628628671 	299.9999999999823 	9.948815380382258e-13 	101324.9999999896
-0.03378378378378422 	299.9999999999112 	7.140409358217916e-13 	101324.9999999895
-0.03128128128128172 	299.9999999999594 	1.859920400798654e-13 	101324.9999999894
-0.02877877877877922 	299.9999999999596 	3.015705569640308e-13 	101324.9999999896
-0.0262762762762767 	299.9999999998833 	1.149616059742348e-13 	101324.9999999897
-0.02377377377377422 	300.0000000000227 	2.764272579174707e-13 	101324.9999999897
-0.0212712712712717 	299.9999999998824 	1.796847278165927e-14 	101324.9999999897
-0.01876876876876921 	299.9999999999619 	9.082217654860656e-13 	101324.9999999897
-0.01626626626626671 	300.0000000000198 	3.414912491734559e-13 	101324.9999999897
-0.0137637637637642 	299.9999999999632 	8.46105442045153e-13 	101324.9999999897
-0.0112612612612617 	300.0000000000157 	6.30690934439882e-13 	101324.9999999893
-0.008758758758759198 	299.9999999999882 	7.520521359953851e-13 	101324.9999999894
-0.006256256256256697 	299.999999999865 	1.097550234517102e-13 	101324.9999999894
-0.003753753753754195 	299.9999999999451 	1.1172846734045e-12 	101324.9999999895
-0.001251251251251693 	299.9999999999163 	2.863921245635406e-13 	101324.9999999896
0.00125125125125081 	299.9999999999476 	9.645627374252573e-13 	101324.9999999895
0.003753753753753312 	299.999999999953 	6.19558672267746e-14 	101324.9999999897
0.006256256256255817 	299.9999999998624 	9.45219782081645e-13 	101324.9999999898
0.008758758758758317 	299.9999999999944 	1.730294872760793e-13 	101324.9999999898
0.01126126126126082 	300.0000000000066 	5.113511800092397e-15 	101324.9999999896
0.01376376376376332 	299.9999999999622 	5.539494014996268e-13 	101324.9999999895
0.01626626626626582 	300.0000000000159 	8.97553148846459e-14 	101324.9999999892
0.01876876876876833 	299.9999999999441 	4.899245457246994e-13 	101324.9999999891
0.02127127127127083 	299.9999999999701 	7.006667545315846e-13 	101324.9999999892
0.02377377377377332 	299.9999999999946 	1.10548747608016e-12 	101324.9999999893
0.02627627627627583 	299.9999999998838 	1.549597374193071e-12 	101324.9999999895
0.02877877877877833 	300.0000000000116 	1.325366400644869e-12 	101324.9999999897
0.03128128128128083 	299.9999999999407 	7.58882158433218e-13 	101324.9999999897
0.03378378378378333 	299.9999999998848 	9.233938683569274e-13 	101324.99999999
0.03628628628628584 	299.9999999999598 	8.446273760648056e-13 	101324.9999999904
0.03878878878878834 	299.9999999999786 	2.545576974935176e-13 	101324.9999999904
0.04129129129129084 	299.9999999999723 	5.086192317998698e-14 	101324.9999999904
0.04379379379379333 	299.9999999999298 	6.039474786308748e-14 	101324.9999999903
0.04629629629629585 	299.9999999998739 	3.412438439494516e-13 	101324.9999999902
0.04879879879879834 	299.9999999999538 	9.457106836187828e-14 	101324.9999999903
0.05130130130130085 	300.0000000000139 	3.627587721201915e-13 	101324.9999999904
0.05380380380380335 	300.0000000000244 	3.210589638730289e-13 	101324.9999999903
0.05630630630630584 	299.9999999999936 	5.849834384462203e-13 	101324.9999999905
0.05880880880880836 	299.9999999999076 	9.625546083400434e-14 	101324.9999999907
0.06131131131131085 	299.9999999999636 	8.908727663659773e-13 	101324.9999999908
0.06381381381381336 	299.9999999999501 	1.190526852317651e-12 	101324.9999999906
0.06631631631631586 	299.9999999998766 	1.109667652351488e-12 	101324.9999999903
0.06881881881881835 	299.9999999999507 	1.566855284573532e-12 	101324.99999999
0.07132132132132088 	299.9999999999842 	1.239791645611181e-12 	101324.9999999899
0.07382382382382337 	299.9999999998835 	1.122113585271421e-12 	101324.9999999898
0.07632632632632587 	299.9999999999631 	1.225466212899383e-12 	101324.9999999898
0.07882882882882837 	299.9999999999321 	1.02267436970708e-12 	101324.99999999
0.08133133133133086 	299.999999999976 	1.027950806301308e-12 	101324.99999999
0.08383383383383337 	299.9999999999841 	9.497887475856042e-13 	101324.99999999
0.08633633633633589 	299.999999999894 	1.853211258191785e-12 	101324.9999999899
0.08883883883883838 	300.0000000000056 	2.407451569421349e-12 	101324.9999999897
0.09134134134134086 	299.9999999999773 	1.828314153324018e-12 	101324.9999999897
0.09384384384384339 	299.9999999998735 	1.953608750274575e-12 	101324.9999999895
0.09634634634634588 	299.9999999999588 	1.599755429565151e-12 	101324.9999999893
0.09884884884884838 	299.9999999999653 	6.945044805078326e-13 	101324.9999999893
0.1013513513513509 	300.0000000000217 	7.173081967773897e-13 	101324.9999999894
0.1038538538538534 	299.999999999948 	3.065353225917462e-13 	101324.9999999895
0.1063563563563559 	300.0000000000101 	1.703902479966171e-13 	101324.9999999895
0.1088588588588584 	300.0000000000249 	5.86983463440679e-13 	101324.9999999895
0.1113613613613609 	299.9999999998976 	7.389796205412334e-13 	101324.9999999893
0.1138638638638634 	299.999999999941 	9.515602414340049e-13 	101324.9999999893
0.1163663663663659 	299.9999999999449 	9.937351919730957e-13 	101324.9999999891
0.1188688688688684 	299.9999999999617 	6.028807561806341e-13 	101324.9999999893
0.1213713713713709 	299.9999999999923 	1.070862909351185e-12 	101324.9999999892
0.1238738738738734 	299.9999999999198 	3.935849810131986e-13 	101324.9999999892
0.1263763763763759 	299.9999999999779 	5.114766596559804e-13 	101324.999999989
0.1288788788788784 	299.9999999999808 	3.326494650800343e-13 	101324.9999999892
0.1313813813813809 	299.9999999999797 	2.401556227796524e-14 	101324.9999999894
0.1338838838838834 	299.9999999999715 	4.154283984410074e-13 	101324.9999999896
0.1363863863863859 	300.0000000000264 	6.882378240683821e-13 	101324.9999999896
0.1388888888888884 	300.0000000000556 	1.802431126378477e-13 	101324.9999999895
0.1413913913913909 	300.0000000000087 	8.466028275409034e-13 	101324.9999999892
0.1438938938938934 	299.9999999999902 	3.235806014545704e-13 	101324.9999999892
0.1463963963963959 	299.9999999999437 	8.491219634315629e-13 	101324.999999989
0.1488988988988985 	299.9999999998968 	1.501037549297186e-12 	101324.9999999892
0.1514014014014009 	299.9999999999669 	5.935192116136356e-13 	101324.9999999896
0.1539039039039035 	299.9999999999596 	2.259851615643714e-12 	101324.9999999898
0.1564064064064059 	299.9999999999149 	1.283492954039297e-12 	101324.9999999899
0.1589089089089084 	299.9999999999716 	3.016717520388667e-12 	101324.9999999899
0.1614114114114109 	299.9999999999664 	8.970015097366596e-13 	101324.99999999
0.1639139139139134 	299.9999999999043 	3.989479464884361e-12 	101324.9999999898
0.166416416416416 	300.0000000000014 	3.257415892654049e-12 	101324.9999999899
0.1689189189189185 	300.0000000000384 	3.635601782116132e-12 	101324.9999999899
0.1714214214214209 	300.0000000000081 	3.426657004403726e-12 	101324.9999999897
0.1739239239239235 	299.9999999999905 	1.72211611608648e-12 	101324.9999999897
0.1764264264264259 	299.9999999999627 	2.917784682636495e-12 	101324.9999999896
0.1789289289289284 	300.0000000000114 	6.837338272933364e-13 	101324.9999999893
0.181431431431431 	299.9999999999579 	2.916548517629964e-12 	101324.9999999892
0.1839339339339334 	299.999999999967 	1.866757957698156e-12 	101324.9999999888
0.186436436436436 	299.9999999999205 	2.680498533173692e-12 	101324.9999999886
0.1889389389389385 	299.999999999982 	2.297722604517832e-12 	101324.9999999883
0.191441441441441 	299.9999999999751 	1.836912785035455e-12 	101324.9999999886
0.1939439439439434 	299.9999999999004 	3.064919850890476e-12 	101324.9999999886
0.196446446446446 	299.9999999999358 	1.665347479597412e-12 	101324.9999999884
0.1989489489489485 	299.9999999999612 	3.918770501256526e-12 	101324.9999999885
0.2014514514514509 	299.9999999999746 	1.972155221579846e-12 	101324.9999999885
0.2039539539539535 	299.9999999999886 	3.583174536382198e-12 	101324.9999999886
0.2064564564564559 	299.99999999995 	3.115623720680712e-12 	101324.9999999889
0.2089589589589585 	299.9999999999819 	3.615760886068088e-12 	101324.9999999894
0.211461461461461 	299.999999999925 	3.314944623353573e-12 	101324.9999999899
0.2139639639639635 	299.9999999999813 	2.773573444084302e-12 	101324.9999999898
0.2164664664664659 	300.0000000000049 	3.536590327387865e-12 	101324.9999999898
0.2189689689689684 	300.0000000000005 	1.675441275463838e-12 	101324.9999999898
0.221471471471471 	299.9999999999982 	4.221492720295758e-12 	101324.9999999897
0.2239739739739735 	299.9999999999512 	2.626852682982755e-12 	101324.9999999898
0.226476476476476 	299.9999999999852 	3.93621488916939e-12 	101324.9999999898
0.2289789789789785 	299.9999999999936 	2.81221266443092e-12 	101324.9999999899
0.231481481481481 	299.9999999999647 	2.629111581434647e-12 	101324.9999999897
0.2339839839839835 	299.9999999999941 	2.603298934984052e-12 	101324.9999999894
0.236486486486486 	300.0000000000267 	1.283033296904817e-12 	101324.9999999895
0.2389889889889885 	299.9999999999988 	2.060771270628492e-12 	101324.9999999894
0.241491491491491 	299.9999999999037 	2.865915355786931e-13 	101324.9999999894
0.2439939939939935 	299.9999999999783 	2.591696898256144e-12 	101324.9999999892
0.246496496496496 	299.9999999999881 	3.79051672814698e-13 	101324.9999999891
0.2489989989989985 	300.00000000004 	9.119607759593142e-13 	101324.9999999891
0.251501501501501 	300.0000000000317 	9.257493396460065e-14 	101324.9999999889
0.2540040040040035 	299.9999999999812 	3.645533551430822e-13 	101324.9999999889
0.256506506506506 	300.000000000026 	1.291497849586392e-12 	101324.999999989
0.2590090090090086 	299.9999999998936 	6.31156824027757e-13 	101324.9999999892
0.261511511511511 	300.0000000000022 	3.045540124549231e-12 	101324.9999999892
0.2640140140140135 	299.9999999999886 	9.387195052554094e-13 	101324.9999999894
0.2665165165165161 	299.9999999999191 	2.57681116060219e-12 	101324.9999999896
0.2690190190190185 	300.0000000000145 	1.103155763369723e-12 	101324.9999999896
0.271521521521521 	300.0000000000157 	1.559590721072138e-12 	101324.9999999897
0.2740240240240235 	300.000000000016 	1.18730773618672e-12 	101324.9999999897
0.276526526526526 	300.0000000000064 	3.259858859047356e-13 	101324.9999999897
0.2790290290290286 	299.9999999999297 	1.057407413634682e-12 	101324.9999999897
0.281531531531531 	299.9999999999183 	5.405736687378814e-13 	101324.9999999895
0.2840340340340335 	299.999999999979 	1.631850332787243e-12 	101324.9999999893
0.2865365365365361 	299.9999999999499 	9.583822550101305e-13 	101324.9999999892
0.2890390390390385 	299.9999999999953 	1.474693913087899e-12 	101324.9999999892
0.291541541541541 	299.9999999999946 	1.422619290476413e-12 	101324.9999999891
0.2940440440440436 	299.9999999999894 	6.036702572117284e-13 	101324.999999989
0.296546546546546 	299.9999999999872 	2.673722893311088e-12 	101324.999999989
0.2990490490490486 	299.9999999999297 	9.368333062470274e-13 	101324.9999999893
0.3015515515515511 	300.00000000004 	4.325503571172364e-12 	101324.9999999893
0.3040540540540535 	300.0000000000109 	1.987012996989506e-12 	101324.9999999896
0.3065565565565562 	299.9999999999868 	5.228147008581783e-12 	101324.9999999897
0.3090590590590585 	299.9999999999824 	1.844853343619641e-12 	101324.9999999898
0.3115615615615611 	299.9999999999279 	3.118305919171972e-12 	101324.9999999897
0.3140640640640635 	300.000000000009 	1.73073228760967e-12 	101324.9999999896
0.316566566566566 	299.9999999999917 	1.984528486199593e-12 	101324.9999999898
0.3190690690690687 	299.999999999938 	1.59485589429794e-12 	101324.9999999898
0.3215715715715711 	300.0000000000128 	2.158721570215791e-12 	101324.9999999898
0.3240740740740735 	299.999999999991 	1.359889941587244e-12 	101324.9999999899
0.326576576576576 	299.9999999998922 	1.534371213015268e-12 	101324.9999999901
0.3290790790790786 	300.000000000009 	7.952705784394362e-13 	101324.9999999901
0.3315815815815811 	300.0000000000412 	8.337533776300731e-13 	101324.9999999902
0.3340840840840836 	299.9999999999876 	8.945325012168368e-13 	101324.99999999
0.3365865865865861 	300.0000000000598 	1.476391705983447e-12 	101324.9999999902
0.3390890890890886 	300.0000000000534 	4.357990908198641e-13 	101324.9999999902
0.3415915915915911 	299.9999999999971 	1.892050778908418e-12 	101324.9999999901
0.3440940940940935 	299.9999999999496 	1.019401575243062e-12 	101324.9999999902
0.3465965965965962 	300.0000000000383 	2.982447470654006e-12 	101324.9999999901
0.3490990990990985 	300.0000000000301 	1.483359986822266e-12 	101324.9999999898
0.3516016016016011 	299.9999999999884 	1.894574496987081e-12 	101324.9999999894
0.3541041041041035 	300.0000000000052 	1.59304495525854e-12 	101324.9999999891
0.3566066066066061 	299.9999999999495 	4.349639694313881e-13 	101324.9999999893
0.3591091091091085 	299.9999999999153 	1.831679084597143e-12 	101324.9999999893
0.3616116116116112 	299.9999999999339 	1.57553851379605e-12 	101324.9999999893
0.3641141141141137 	299.9999999999264 	1.73536310125731e-12 	101324.9999999891
0.3666166166166161 	299.9999999999191 	2.91957848789168e-12 	101324.9999999893
0.3691191191191185 	300.0000000000457 	2.907906464532037e-12 	101324.9999999894
0.371621621621621 	300.00000000001 	2.715380319423374e-12 	101324.9999999895
0.3741241241241237 	300.0000000000567 	2.184364990220725e-12 	101324.9999999896
0.3766266266266261 	300.0000000000349 	2.022478587411103e-12 	101324.9999999895
0.3791291291291286 	299.9999999999789 	1.613043277334144e-12 	101324.9999999896
0.3816316316316311 	299.9999999999168 	2.076583603637026e-12 	101324.9999999896
0.3841341341341336 	300.0000000000156 	1.3664941197233e-12 	101324.9999999894
0.3866366366366362 	299.9999999999992 	1.78781387066453e-12 	101324.9999999893
0.3891391391391387 	299.9999999999469 	8.487007042663629e-13 	101324.9999999893
0.391641641641641 	300.0000000000009 	1.442511265324275e-12 	101324.9999999894
0.3941441441441436 	300.0000000000089 	3.385685268027404e-13 	101324.9999999894
0.3966466466466462 	299.9999999999986 	1.4787175466641e-12 	101324.9999999892
0.3991491491491486 	299.999999999942 	7.351521903248575e-13 	101324.9999999892
0.4016516516516512 	299.9999999999016 	1.151197561967048e-12 	101324.9999999894
0.4041541541541536 	299.9999999999398 	1.007171121222549e-12 	101324.9999999893
0.4066566566566561 	299.9999999999377 	1.098138254129404e-12 	101324.9999999893
0.4091591591591587 	299.9999999999882 	1.007449133462911e-12 	101324.9999999891
0.4116616616616612 	300.0000000000049 	2.107133148562459e-13 	101324.9999999891
0.4141641641641635 	300.0000000000535 	5.467885253053666e-14 	101324.999999989
0.4166666666666662 	299.9999999999922 	4.1464655755153e-13 	101324.9999999891
0.4191691691691687 	299.9999999999289 	1.87871794072526e-12 	101324.9999999893
0.421671671671671 	300.0000000000158 	1.44501956380404e-12 	101324.9999999895
0.4241741741741737 	299.9999999999775 	3.701653740735217e-12 	101324.9999999894
0.4266766766766761 	299.9999999999509 	1.760959126079446e-12 	101324.9999999892
0.4291791791791785 	300.0000000000198 	4.422861266324605e-12 	101324.9999999893
0.4316816816816812 	300.0000000000088 	2.302325357831858e-12 	101324.9999999892
0.4341841841841836 	299.9999999999818 	4.465832105376106e-12 	101324.9999999892
0.4366866866866862 	299.9999999999035 	1.132424036604136e-12 	101324.9999999891
0.4391891891891885 	299.9999999999776 	3.102751689868455e-12 	101324.9999999891
0.4416916916916913 	299.9999999999776 	1.320196490264848e-12 	101324.9999999892
0.4441941941941936 	299.9999999999857 	1.645882477409948e-12 	101324.9999999893
0.4466966966966961 	299.9999999999082 	8.780064329263509e-13 	101324.9999999894
0.4491991991991987 	299.9999999999746 	5.457357304415499e-13 	101324.9999999892
0.4517017017017012 	299.9999999999691 	1.449935185139992e-13 	101324.9999999893
0.4542042042042035 	299.999999999981 	4.492312369508675e-13 	101324.9999999892
0.4567067067067062 	299.9999999999924 	8.710447848320702e-13 	101324.999999989
0.4592092092092087 	299.9999999999165 	1.107310638708967e-12 	101324.9999999889
0.4617117117117112 	300.0000000000178 	1.027308276904049e-12 	101324.9999999888
0.4642142142142137 	299.9999999999591 	6.796367703504556e-13 	101324.9999999886
0.4667167167167162 	299.9999999999925 	1.664405417070069e-13 	101324.9999999888
0.4692192192192187 	299.9999999999536 	1.851504223318755e-13 	101324.999999989
0.4717217217217212 	300.0000000000168 	3.654257101132137e-13 	101324.9999999894
0.4742242242242236 	299.999999999952 	7.889705561847471e-13 	101324.9999999896
0.4767267267267262 	299.9999999999749 	7.505809895414848e-13 	101324.9999999897
0.4792292292292287 	300.000000000021 	5.344908299738363e-13 	101324.9999999897
0.4817317317317312 	300.0000000000415 	5.549764092602841e-13 	101324.9999999898
0.4842342342342336 	299.999999999984 	1.906441726060454e-13 	101324.99999999
0.4867367367367362 	299.9999999999484 	5.12055931263249e-13 	101324.9999999901
0.4892392392392387 	300.0000000000327 	1.404069922306825e-12 	101324.9999999903
0.4917417417417412 	300.0000000000076 	1.373837566953249e-12 	101324.9999999904
0.4942442442442437 	299.9999999999022 	1.070660696062868e-12 	101324.9999999902
0.4967467467467462 	299.999999999919 	1.58364427418062e-12 	101324.9999999898
0.4992492492492487 	299.9999999999093 	9.520779524848035e-13 	101324.9999999895
0.5017517517517511 	299.9999999999527 	6.796290355056274e-13 	101324.9999999892
0.5042542542542537 	299.9999999999637 	7.587767417407843e-14 	101324.9999999893
0.5067567567567562 	299.9999999999387 	1.574350328195982e-13 	101324.9999999896
0.5092592592592589 	299.9999999999583 	6.526131383652547e-13 	101324.9999999898
0.5117617617617611 	299.9999999999554 	1.85577044723705e-12 	101324.9999999899
0.5142642642642637 	299.9999999999902 	1.258664264660836e-12 	101324.9999999902
0.5167667667667663 	299.9999999999727 	3.341565288628734e-12 	101324.9999999902
0.5192692692692688 	299.9999999999104 	1.89888095754225e-12 	101324.99999999
0.5217717717717714 	299.999999999936 	5.21954138052013e-12 	101324.9999999898
0.5242742742742736 	299.9999999999372 	1.338473284554735e-12 	101324.9999999898
0.5267767767767763 	299.9999999999546 	5.004437025270552e-12 	101324.9999999898
0.5292792792792789 	299.9999999999351 	1.715368591468912e-12 	101324.9999999897
0.5317817817817813 	299.9999999998998 	4.593732223247852e-12 	101324.9999999898
0.5342842842842837 	300.0000000000152 	2.907840686170523e-12 	101324.9999999896
0.5367867867867864 	300.0000000000001 	4.489723773707119e-12 	101324.9999999896
0.5392892892892888 	299.9999999999532 	2.88998965983081e-12 	101324.9999999896
0.5417917917917912 	300.000000000007 	4.145223548266185e-12 	101324.9999999898
0.5442942942942938 	299.9999999999831 	3.195274077071024e-12 	101324.9999999898
0.5467967967967964 	299.999999999937 	4.734934006323296e-12 	101324.9999999898
0.5492992992992988 	299.9999999999336 	4.288095346288952e-12 	101324.9999999897
0.5518018018018012 	299.9999999999355 	5.684586710529905e-12 	101324.9999999899
0.5543043043043039 	300.0000000000236 	4.788049180751572e-12 	101324.99999999
0.5568068068068063 	299.9999999999916 	5.533816562935012e-12 	101324.9999999901
0.5593093093093087 	299.9999999998981 	4.169713771210903e-12 	101324.9999999903
0.5618118118118114 	299.9999999999601 	5.431539024273057e-12 	101324.9999999905
0.5643143143143137 	299.9999999999413 	3.557181172307212e-12 	101324.9999999905
0.5668168168168163 	299.9999999999933 	3.790883520427167e-12 	101324.9999999905
0.5693193193193188 	300.0000000000315 	2.719496911257135e-12 	101324.9999999904
0.5718218218218213 	300.000000000025 	2.099108121747647e-12 	101324.9999999905
0.5743243243243239 	300.0000000000065 	2.795918982595499e-12 	101324.9999999904
0.5768268268268262 	300.0000000000038 	1.586245974503798e-12 	101324.9999999903
0.5793293293293288 	299.999999999939 	4.030124494107109e-12 	101324.9999999903
0.5818318318318314 	299.9999999999137 	1.970843989479558e-12 	101324.9999999904
0.5843343343343338 	299.9999999999824 	5.519999402716091e-12 	101324.9999999905
0.5868368368368363 	299.9999999999758 	1.969756784064836e-12 	101324.9999999906
0.5893393393393387 	299.9999999999418 	5.194915796772776e-12 	101324.9999999906
0.5918418418418413 	299.9999999999395 	2.622722384952395e-12 	101324.9999999905
0.5943443443443439 	300.0000000000146 	4.647183562756061e-12 	101324.9999999904
0.5968468468468463 	300.0000000000177 	2.667635405876693e-12 	101324.9999999902
0.5993493493493487 	300.0000000000404 	3.941113138279359e-12 	101324.9999999902
0.6018518518518514 	299.999999999979 	2.014219797866442e-12 	101324.99999999
0.6043543543543537 	299.9999999999929 	3.214399383379846e-12 	101324.9999999899
0.6068568568568564 	299.9999999999812 	2.216101168524544e-12 	101324.9999999902
0.6093593593593587 	299.9999999999308 	3.787692441022357e-12 	101324.9999999906
0.6118618618618614 	299.999999999923 	3.149517863317997e-12 	101324.9999999907
0.6143643643643638 	300.0000000000188 	4.417059594290057e-12 	101324.9999999907
0.6168668668668662 	299.9999999999831 	2.341939313561992e-12 	101324.9999999908
0.6193693693693688 	299.9999999999536 	3.740947963348345e-12 	101324.9999999905
0.6218718718718714 	299.9999999999627 	2.020431637940415e-12 	101324.9999999902
0.6243743743743737 	299.9999999999321 	4.67006315422711e-12 	101324.9999999901
0.6268768768768762 	299.9999999999157 	3.435695006136312e-12 	101324.9999999901
0.629379379379379 	299.9999999999534 	4.454159402954527e-12 	101324.9999999901
0.6318818818818812 	299.9999999999782 	4.077846683157178e-12 	101324.9999999903
0.6343843843843838 	300.0000000000149 	3.944162394224264e-12 	101324.9999999903
0.6368868868868864 	299.9999999999806 	4.544433846116138e-12 	101324.9999999901
0.6393893893893888 	299.9999999999145 	3.372567005164038e-12 	101324.9999999901
0.6418918918918912 	300.000000000001 	6.10365113694543e-12 	101324.9999999902
0.6443943943943939 	299.9999999999794 	3.039465167305666e-12 	101324.9999999904
0.6468968968968963 	299.999999999982 	7.440680566836065e-12 	101324.9999999905
0.6493993993993988 	299.9999999999769 	3.473482341112044e-12 	101324.9999999904
0.6519019019019012 	299.9999999999767 	6.561464176843089e-12 	101324.9999999904
0.6544044044044038 	299.9999999998974 	3.384038058309601e-12 	101324.9999999903
0.6569069069069065 	299.9999999999486 	6.312963474419953e-12 	101324.9999999902
0.6594094094094087 	299.99999999996 	3.826567608462241e-12 	101324.9999999901
0.6619119119119113 	299.9999999999522 	6.423657733011566e-12 	101324.9999999902
0.664414414414414 	300.0000000000078 	4.727509499016324e-12 	101324.9999999901
0.6669169169169162 	300.0000000000182 	6.181708213541161e-12 	101324.9999999901
0.6694194194194188 	299.9999999999824 	4.617423906160246e-12 	101324.99999999
0.6719219219219214 	299.9999999999162 	5.74116864481174e-12 	101324.9999999904
0.674424424424424 	299.9999999999648 	4.158903533472193e-12 	101324.9999999907
0.6769269269269262 	299.9999999999111 	5.271529050296445e-12 	101324.9999999908
0.679429429429429 	300.0000000000065 	4.805286798936064e-12 	101324.999999991
0.6819319319319311 	299.9999999999736 	5.534171224933367e-12 	101324.9999999911
0.6844344344344341 	299.999999999982 	4.520294919379775e-12 	101324.9999999913
0.686936936936936 	299.9999999999812 	5.598591916508611e-12 	101324.9999999912
0.6894394394394392 	299.999999999992 	4.474467076653054e-12 	101324.9999999911
0.6919419419419413 	299.999999999981 	4.281508460456368e-12 	101324.9999999912
0.694444444444444 	299.9999999999216 	4.42706859830446e-12 	101324.9999999914
0.6969469469469463 	299.9999999999185 	4.805363187857305e-12 	101324.9999999915
0.6994494494494489 	299.999999999917 	5.732001143490636e-12 	101324.9999999916
0.7019519519519515 	299.9999999999807 	4.87673342500984e-12 	101324.9999999918
0.7044544544544538 	299.9999999999472 	6.276004530961421e-12 	101324.999999992
0.7069569569569564 	299.9999999999957 	4.321095301186692e-12 	101324.999999992
0.7094594594594589 	299.9999999999611 	6.907655664040191e-12 	101324.9999999917
0.7119619619619615 	299.9999999999048 	4.727238582575562e-12 	101324.9999999915
0.7144644644644638 	299.9999999999517 	6.739802986266539e-12 	101324.9999999912
0.7169669669669665 	299.9999999999194 	5.771665668476034e-12 	101324.9999999911
0.7194694694694688 	299.9999999999961 	7.092482550678094e-12 	101324.9999999912
0.7219719719719715 	299.9999999999889 	6.560225067708154e-12 	101324.9999999912
0.7244744744744737 	300.0000000000034 	7.38204916207738e-12 	101324.9999999911
0.7269769769769764 	299.9999999999969 	7.441725282376136e-12 	101324.9999999911
0.7294794794794791 	299.9999999999885 	6.132070502889669e-12 	101324.9999999912
0.7319819819819813 	299.9999999999761 	7.696872253588255e-12 	101324.9999999914
0.7344844844844839 	299.9999999999141 	6.212298260644843e-12 	101324.9999999917
0.7369869869869864 	299.9999999999461 	7.367024954552115e-12 	101324.9999999918
0.739489489489489 	299.9999999999404 	7.086904397719497e-12 	101324.999999992
0.7419919919919914 	299.9999999999267 	6.925182691425003e-12 	101324.9999999921
0.7444944944944939 	299.9999999999795 	7.294502548722986e-12 	101324.9999999921
0.7469969969969963 	299.9999999999683 	5.101480220101019e-12 	101324.999999992
0.7494994994994989 	299.9999999999366 	7.176051931568452e-12 	101324.999999992
0.7520020020020015 	299.9999999999672 	4.549612548044094e-12 	101324.9999999922
0.7545045045045039 	299.9999999999649 	7.92304176705713e-12 	101324.9999999921
0.7570070070070062 	299.9999999999395 	5.542139018113157e-12 	101324.999999992
0.7595095095095092 	299.99999999993 	7.780186392035886e-12 	101324.9999999921
0.7620120120120112 	300.0000000000099 	7.043919796670423e-12 	101324.9999999923
0.7645145145145138 	299.9999999999894 	7.685208174860533e-12 	101324.9999999924
0.7670170170170165 	299.9999999999292 	8.439603140950138e-12 	101324.9999999924
0.7695195195195191 	299.9999999999155 	7.418225876448184e-12 	101324.9999999928
0.7720220220220213 	299.9999999999275 	9.304048041800267e-12 	101324.9999999929
0.7745245245245239 	299.999999999925 	6.57026849965443e-12 	101324.9999999929
0.7770270270270263 	299.9999999999658 	8.158022088069344e-12 	101324.9999999929
0.779529529529529 	299.9999999999815 	7.445946280789081e-12 	101324.999999993
0.7820320320320313 	299.9999999999694 	8.756877832441888e-12 	101324.9999999928
0.784534534534534 	300.0000000000007 	8.593840075216882e-12 	101324.9999999926
0.7870370370370364 	299.9999999999961 	7.918614285059882e-12 	101324.9999999926
0.7895395395395389 	299.9999999999882 	8.5400339081465e-12 	101324.9999999928
0.7920420420420413 	299.9999999999759 	7.414589310568344e-12 	101324.999999993
0.794544544544544 	299.9999999999655 	9.471157669201313e-12 	101324.9999999931
0.7970470470470463 	300.0000000000014 	7.715793631463632e-12 	101324.9999999931
0.799549549549549 	299.9999999999868 	1.123921316709443e-11 	101324.999999993
0.8020520520520515 	299.9999999999878 	8.376719847775966e-12 	101324.9999999929
0.8045545545545539 	299.9999999999463 	1.0049973341334e-11 	101324.9999999928
0.8070570570570563 	299.999999999975 	8.838585333002632e-12 	101324.9999999928
0.8095595595595589 	299.9999999999505 	9.694893357759797e-12 	101324.9999999927
0.8120620620620614 	299.9999999999363 	9.890539572203738e-12 	101324.9999999926
0.8145645645645638 	300.0000000000023 	9.279280417442887e-12 	101324.9999999927
0.8170670670670666 	299.999999999999 	9.591533127582766e-12 	101324.9999999928
0.8195695695695689 	299.9999999999762 	7.598895098012224e-12 	101324.999999993
0.8220720720720714 	299.9999999999417 	9.644020518159163e-12 	101324.999999993
0.8245745745745739 	299.9999999999981 	6.901552840988697e-12 	101324.9999999932
0.8270770770770765 	299.9999999999706 	8.432830505575756e-12 	101324.9999999935
0.8295795795795788 	299.9999999999479 	7.561205328399458e-12 	101324.9999999935
0.8320820820820815 	300.0000000000173 	8.978047990572321e-12 	101324.9999999935
0.834584584584584 	300.0000000000102 	8.767213292350188e-12 	101324.9999999936
0.8370870870870865 	299.9999999999724 	8.857167245986375e-12 	101324.9999999937
0.8395895895895891 	299.9999999999309 	1.003130027725188e-11 	101324.9999999937
0.8420920920920915 	299.9999999999396 	9.364196711777733e-12 	101324.9999999937
0.844594594594594 	299.9999999999378 	1.020392198513157e-11 	101324.9999999938
0.8470970970970964 	299.9999999999594 	1.034218138194257e-11 	101324.9999999938
0.8495995995995991 	299.9999999999928 	1.036178172758128e-11 	101324.9999999938
0.8521021021021015 	299.9999999999825 	1.05943602158372e-11 	101324.999999994
0.8546046046046039 	299.9999999999769 	1.005796343950277e-11 	101324.9999999941
0.8571071071071066 	300.0000000000043 	1.095957885875627e-11 	101324.9999999943
0.8596096096096089 	299.9999999999671 	8.540068738961806e-12 	101324.9999999944
0.8621121121121116 	299.9999999999311 	1.088393928165725e-11 	101324.9999999945
0.8646146146146139 	299.9999999999941 	8.53910405762631e-12 	101324.9999999946
0.8671171171171166 	299.9999999999718 	1.020444081267708e-11 	101324.9999999947
0.8696196196196189 	299.9999999999427 	9.570917618060751e-12 	101324.9999999948
0.8721221221221216 	299.9999999999783 	1.059754884791895e-11 	101324.999999995
0.874624624624624 	299.9999999999994 	1.066311183513084e-11 	101324.9999999951
0.8771271271271264 	300.0000000000003 	1.066752908661522e-11 	101324.9999999952
0.879629629629629 	300.0000000000136 	1.163117225535833e-11 	101324.999999995
0.8821321321321317 	299.9999999999839 	1.017231994677771e-11 	101324.9999999948
0.8846346346346339 	299.9999999999266 	1.317382969640951e-11 	101324.9999999947
0.8871371371371364 	299.9999999999579 	1.100677152971316e-11 	101324.9999999946
0.8896396396396391 	299.9999999999575 	1.293566439631732e-11 	101324.9999999945
0.8921421421421414 	299.9999999999623 	1.190987921481479e-11 	101324.9999999945
0.8946446446446441 	299.9999999999852 	1.293143804590914e-11 	101324.9999999947
0.8971471471471464 	300.0000000000019 	1.227967997837037e-11 	101324.9999999948
0.8996496496496489 	299.9999999999798 	1.176163885085627e-11 	101324.9999999948
0.9021521521521517 	299.9999999999639 	1.244659760132409e-11 	101324.9999999949
0.9046546546546541 	299.9999999999932 	1.113026321302493e-11 	101324.9999999948
0.9071571571571564 	299.9999999999509 	1.169865852927732e-11 	101324.9999999949
0.9096596596596589 	299.9999999999483 	1.156152675659108e-11 	101324.999999995
0.9121621621621616 	300.0000000000104 	1.194261630262516e-11 	101324.9999999949
0.9146646646646639 	299.9999999999787 	1.184911898497117e-11 	101324.9999999948
0.9171671671671666 	299.999999999945 	1.151184719204751e-11 	101324.9999999948
0.9196696696696689 	299.999999999998 	1.261339565964372e-11 	101324.9999999947
0.9221721721721714 	299.9999999999949 	1.131626183078595e-11 	101324.9999999947
0.9246746746746741 	299.9999999999375 	1.428178455359386e-11 	101324.9999999946
0.9271771771771765 	299.9999999999526 	1.164429293541127e-11 	101324.9999999947
0.9296796796796791 	299.9999999999916 	1.322998143291198e-11 	101324.999999995
0.9321821821821816 	299.9999999999671 	1.156631434031338e-11 	101324.9999999951
0.9346846846846838 	299.9999999999459 	1.267232079309119e-11 	101324.9999999951
0.9371871871871866 	300.0000000000075 	1.163564852713145e-11 	101324.9999999949
0.9396896896896891 	300.0000000000098 	1.140586768278339e-11 	101324.9999999948
0.9421921921921914 	300.000000000009 	1.178644355960461e-11 	101324.9999999949
0.9446946946946939 	299.9999999999693 	1.093986831559751e-11 	101324.9999999952
0.9471971971971965 	299.9999999999248 	1.324623652583886e-11 	101324.9999999954
0.9496996996996991 	299.9999999999634 	1.111691963139372e-11 	101324.9999999956
0.9522022022022016 	299.999999999977 	1.303408629940465e-11 	101324.9999999956
0.9547047047047038 	299.9999999999736 	1.225255211224786e-11 	101324.9999999958
0.9572072072072064 	299.9999999999622 	1.317988483967887e-11 	101324.9999999959
0.9597097097097093 	299.9999999999633 	1.245027066140959e-11 	101324.9999999961
0.9622122122122114 	299.9999999999617 	1.186112861663727e-11 	101324.9999999962
0.964714714714714 	299.9999999999537 	1.274895561402804e-11 	101324.9999999961
0.9672172172172167 	299.9999999999582 	1.190631518478804e-11 	101324.9999999958
0.969719719719719 	299.9999999999898 	1.274120952739118e-11 	101324.9999999957
0.9722222222222214 	299.9999999999848 	1.224549844130587e-11 	101324.9999999957
0.9747247247247239 	299.9999999999771 	1.241808434081592e-11 	101324.9999999958
0.9772272272272267 	300.0000000000063 	1.275811708884917e-11 	101324.9999999959
0.9797297297297292 	299.9999999999868 	1.267438339333668e-11 	101324.9999999956
0.9822322322322313 	299.999999999986 	1.338035693234519e-11 	101324.9999999955
0.9847347347347344 	299.9999999999852 	1.201907969437394e-11 	101324.9999999956
0.9872372372372363 	299.9999999999385 	1.482415724974536e-11 	101324.9999999957
0.9897397397397389 	299.9999999999649 	1.244961585248836e-11 	101324.9999999959
0.9922422422422417 	299.9999999999537 	1.44558075810643e-11 	101324.999999996
0.9947447447447441 	299.9999999999607 	1.324308776438615e-11 	101324.999999996
0.9972472472472468 	299.9999999999725 	1.440268909119542e-11 	101324.9999999961
0.999749749749749 	299.9999999999633 	1.354387782818798e-11 	101324.9999999963
1.002252252252252 	299.9999999999716 	1.380787890188319e-11 	101324.9999999965
1.004754754754754 	299.9999999999943 	1.38939831149796e-11 	101324.9999999965
1.007257257257256 	299.9999999999697 	1.32837010756633e-11 	101324.9999999964
1.009759759759759 	299.9999999999574 	1.573380752400034e-11 	101324.9999999964
1.012262262262261 	299.9999999999586 	1.384168890668054e-11 	101324.9999999962
1.014764764764764 	299.9999999999344 	1.574132172714559e-11 	101324.9999999963
1.017267267267267 	299.9999999999234 	1.478039979038662e-11 	101324.9999999965
1.019769769769769 	299.9999999999631 	1.617731040599077e-11 	101324.9999999967
1.022272272272272 	299.9999999999797 	1.58254042942369e-11 	101324.9999999967
1.024774774774774 	299.9999999999891 	1.542076744212173e-11 	101324.9999999967
1.027277277277277 	299.9999999999818 	1.584835377039595e-11 	101324.9999999967
1.029779779779779 	300.0000000000026 	1.457975872701462e-11 	101324.9999999967
1.032282282282282 	300.0000000000049 	1.552736481988124e-11 	101324.9999999969
1.034784784784784 	299.9999999999963 	1.525690554948564e-11 	101324.9999999969
1.037287287287286 	299.9999999999626 	1.595092564682699e-11 	101324.9999999969
1.039789789789789 	299.9999999999715 	1.562404703269476e-11 	101324.9999999969
1.042292292292291 	300.000000000008 	1.554197248036939e-11 	101324.9999999967
1.044794794794794 	300.0000000000229 	1.564400911803407e-11 	101324.9999999964
1.047297297297296 	300.0000000000389 	1.434968446457714e-11 	101324.9999999965
1.049799799799799 	299.9999999999949 	1.650660872823121e-11 	101324.9999999967
1.052302302302302 	299.9999999999596 	1.475822539636239e-11 	101324.9999999968
1.054804804804804 	299.9999999999403 	1.712715431467086e-11 	101324.9999999971
1.057307307307306 	299.9999999999256 	1.645690066724538e-11 	101324.9999999971
1.059809809809809 	299.9999999999558 	1.812663069139115e-11 	101324.9999999971
1.062312312312312 	299.9999999999491 	1.759576439382691e-11 	101324.999999997
1.064814814814814 	299.9999999999459 	1.826979316253563e-11 	101324.9999999969
1.067317317317317 	299.9999999999267 	1.812184853748503e-11 	101324.999999997
1.069819819819819 	299.9999999999259 	1.78615202833731e-11 	101324.9999999971
1.072322322322321 	299.9999999999872 	1.895016401012603e-11 	101324.9999999971
1.074824824824824 	300.0000000000068 	1.595547373988861e-11 	101324.9999999974
1.077327327327327 	300.0000000000305 	1.694961300538009e-11 	101324.9999999976
1.079829829829829 	300.0000000000459 	1.561269869283978e-11 	101324.9999999976
1.082332332332332 	300.0000000000067 	1.653991687355415e-11 	101324.9999999974
1.084834834834834 	299.9999999999781 	1.599667468923326e-11 	101324.9999999972
1.087337337337337 	299.9999999999404 	1.60670318480078e-11 	101324.9999999973
1.089839839839839 	299.999999999929 	1.799865960775883e-11 	101324.9999999975
1.092342342342342 	299.9999999999676 	1.686883894391668e-11 	101324.9999999975
1.094844844844844 	299.9999999999677 	1.814862911148899e-11 	101324.9999999974
1.097347347347347 	299.9999999999368 	1.654897781618329e-11 	101324.9999999973
1.099849849849849 	299.9999999999217 	1.965928111476156e-11 	101324.9999999974
1.102352352352352 	299.9999999999491 	1.773528622000997e-11 	101324.9999999972
1.104854854854854 	299.9999999999732 	2.057615123905784e-11 	101324.9999999971
1.107357357357357 	299.9999999999613 	1.909927039095349e-11 	101324.9999999972
1.109859859859859 	299.9999999999533 	2.100091908827432e-11 	101324.9999999971
1.112362362362362 	300.0000000000193 	2.007674832264667e-11 	101324.999999997
1.114864864864865 	300.0000000000181 	2.031303554839849e-11 	101324.9999999969
1.117367367367367 	299.9999999999642 	2.122725860108743e-11 	101324.9999999969
1.119869869869869 	299.9999999999264 	1.994143939514288e-11 	101324.999999997
1.122372372372372 	299.9999999999635 	2.157099164274468e-11 	101324.9999999971
1.124874874874874 	299.9999999999577 	2.030665488433458e-11 	101324.9999999972
1.127377377377377 	299.9999999999667 	2.147360614285855e-11 	101324.9999999973
1.129879879879879 	300.0000000000188 	2.064213571656446e-11 	101324.9999999976
1.132382382382382 	300.0000000000352 	2.080596403905628e-11 	101324.9999999978
1.134884884884884 	300.0000000000109 	1.98523439955208e-11 	101324.9999999978
1.137387387387387 	300.0000000000155 	1.934816381579295e-11 	101324.9999999977
1.139889889889889 	299.999999999964 	2.073146868220569e-11 	101324.9999999977
1.142392392392392 	299.9999999999537 	1.947060689381093e-11 	101324.9999999978
1.144894894894894 	300.0000000000175 	2.120525348181615e-11 	101324.999999998
1.147397397397397 	299.9999999999984 	2.009751235819081e-11 	101324.999999998
1.149899899899899 	299.9999999999404 	2.14851844853112e-11 	101324.999999998
1.152402402402402 	299.9999999999294 	2.111481780508804e-11 	101324.9999999979
1.154904904904904 	299.9999999999629 	2.277305692442105e-11 	101324.9999999979
1.157407407407407 	299.9999999999632 	2.267192853698921e-11 	101324.999999998
1.159909909909909 	299.9999999999304 	2.30863782062401e-11 	101324.9999999978
1.162412412412412 	299.9999999999242 	2.515753738269405e-11 	101324.9999999975
1.164914914914914 	299.9999999999652 	2.371389578326418e-11 	101324.9999999975
1.167417417417417 	299.999999999975 	2.530823498247484e-11 	101324.9999999978
1.169919919919919 	300.0000000000197 	2.387743984112805e-11 	101324.999999998
1.172422422422422 	300.0000000000454 	2.464900900984158e-11 	101324.999999998
1.174924924924925 	299.9999999999941 	2.292913097108064e-11 	101324.999999998
1.177427427427427 	299.9999999999688 	2.332486446170303e-11 	101324.999999998
1.179929929929929 	300.0000000000177 	2.427200339575204e-11 	101324.999999998
1.182432432432432 	300.0000000000452 	2.214501969638106e-11 	101324.9999999982
1.184934934934934 	300.0000000000073 	2.293980613894834e-11 	101324.9999999985
1.187437437437437 	299.9999999999703 	2.138557889078383e-11 	101324.9999999986
1.189939939939939 	299.9999999999576 	2.245611535869649e-11 	101324.9999999987
1.192442442442442 	299.9999999999288 	2.193450685838037e-11 	101324.9999999987
1.194944944944944 	299.9999999999338 	2.360892892722191e-11 	101324.9999999986
1.197447447447447 	299.9999999999912 	2.278530463525606e-11 	101324.9999999984
1.199949949949949 	300.0000000000123 	2.276708894149774e-11 	101324.9999999984
1.202452452452452 	299.9999999999566 	2.408965496898897e-11 	101324.9999999983
1.204954954954955 	299.9999999999489 	2.301051290930835e-11 	101324.9999999983
1.207457457457457 	299.9999999999785 	2.451685777514166e-11 	101324.9999999984
1.20995995995996 	299.999999999976 	2.338234227732829e-11 	101324.9999999984
1.212462462462462 	299.9999999999876 	2.437334884751571e-11 	101324.9999999984
1.214964964964964 	299.9999999999871 	2.310703614737733e-11 	101324.9999999985
1.217467467467467 	299.9999999999964 	2.408892610041207e-11 	101324.9999999985
1.219969969969969 	299.9999999999704 	2.318593761623374e-11 	101324.9999999984
1.222472472472472 	300.0000000000069 	2.41996185225905e-11 	101324.9999999985
1.224974974974975 	300.0000000000481 	2.538707220216374e-11 	101324.9999999986
1.227477477477477 	299.9999999999947 	2.413659432036373e-11 	101324.9999999987
1.229979979979979 	299.9999999999809 	2.605007944650806e-11 	101324.9999999986
1.232482482482482 	299.999999999955 	2.477671762417916e-11 	101324.9999999985
1.234984984984984 	299.9999999999553 	2.644365840072168e-11 	101324.9999999985
1.237487487487487 	299.9999999999818 	2.49561156145009e-11 	101324.9999999985
1.239989989989989 	299.9999999999864 	2.538738655905924e-11 	101324.9999999987
1.242492492492492 	300.0000000000207 	2.53451234875388e-11 	101324.9999999989
1.244994994994994 	299.999999999986 	2.355142775111785e-11 	101324.999999999
1.247497497497497 	299.9999999999903 	2.498967301795165e-11 	101324.9999999991
1.249999999999999 	300.0000000002872 	2.412538581726288e-11 	101324.9999999991
