-1.25 	300 	1 	101372.5528258148
-1.247497497497497 	299.6114642519934 	30.1090964556941 	101381.0780622123
-1.244994994994995 	299.62843644502 	28.45910387032652 	101361.3259466979
-1.242492492492492 	299.6750351731336 	26.83297185336323 	101373.8786382674
-1.23998998998999 	299.705693677835 	25.2708042269607 	101353.7238265811
-1.237487487487487 	299.7469396623657 	23.73967419120982 	101365.0350074666
-1.234984984984985 	299.7690804653098 	22.28464669773624 	101345.5370292389
-1.232482482482482 	299.8033031559746 	20.86568894439761 	101354.6880639051
-1.22997997997998 	299.8196216887829 	19.52872025891282 	101337.642573806
-1.227477477477477 	299.8467784798205 	18.23063584406477 	101344.1737697653
-1.224974974974975 	299.859035780914 	17.01714116198209 	101330.2066078483
-1.222472472472472 	299.8788644834084 	15.8430606002531 	101333.1666431144
-1.21996996996997 	299.889398682687 	14.75148181668944 	101323.6513896175
-1.217467467467467 	299.9035795482239 	13.69839846863926 	101324.2404392445
-1.214964964964965 	299.9128610475441 	12.72143822335289 	101318.4159873672
-1.212462462462462 	299.9225927888357 	11.78344978820984 	101317.3320211411
-1.20995995995996 	299.9314276432085 	10.91601580723575 	101315.0548983394
-1.207457457457457 	299.9371399965679 	10.08809958104071 	101312.2036956082
-1.204954954954955 	299.9463000892364 	9.322613515671701 	101313.4871608983
-1.202452452452452 	299.948950177372 	8.596481103034373 	101309.3662345882
-1.19994994994995 	299.9584333162692 	7.922663063503398 	101313.4759390992
-1.197447447447447 	299.9592883602978 	7.290036902816643 	101309.0586244675
-1.194944944944945 	299.9695119170825 	6.699087725490956 	101315.9256403936
-1.192442442442442 	299.9698531971222 	6.150912266699887 	101312.2794774956
-1.18993993993994 	299.9808461910873 	5.63429325267761 	101321.4971505603
-1.187437437437437 	299.9811284753761 	5.163354708959175 	101318.8371436471
-1.184934934934935 	299.9917021794142 	4.712873161034013 	101328.6268556291
-1.182432432432432 	299.9921457169299 	4.315296098381473 	101326.9966647424
-1.17992992992993 	300.0021688616599 	3.924521568158217 	101336.9012979273
-1.177427427427427 	300.0022772496674 	3.590024308959737 	101335.5083206408
-1.174924924924925 	300.013154554103 	3.252282027967598 	101346.9712980029
-1.172422422422422 	300.0135261144111 	2.975711291239776 	101346.3746621464
-1.16991991991992 	300.0222326968532 	2.686791155739312 	101355.6598631904
-1.167417417417417 	300.0218748038255 	2.461502322822341 	101354.557814242
-1.164914914914915 	300.0331981615488 	2.207542540040129 	101367.1962119516
-1.162412412412412 	300.0335669524544 	2.017177273133589 	101367.1909565508
-1.15990990990991 	300.0374505641919 	1.77930527573304 	101371.1839165447
-1.157407407407407 	300.0421519158815 	1.59795017337016 	101376.4198926346
-1.154904904904904 	300.0421450580141 	1.379430320699898 	101375.9624213787
-1.152402402402403 	300.0468260684685 	1.226954290104018 	101381.2991443349
-1.1498998998999 	300.0457175247379 	1.040585967511183 	101379.6907102938
-1.147397397397397 	300.0492647103741 	0.9211683164990867 	101383.7759178448
-1.144894894894895 	300.0479348604891 	0.7687837485539815 	101382.0198440694
-1.142392392392392 	300.0494476751862 	0.6822339853254126 	101383.7550052516
-1.13988988988989 	300.0480520641562 	0.5614504744420417 	101381.9962794665
-1.137387387387387 	300.0481375461134 	0.4980484016843813 	101382.0702176799
-1.134884884884885 	300.0461379039146 	0.4039910576862912 	101379.6438956052
-1.132382382382382 	300.0442232099517 	0.3598749644704266 	101377.3704384842
-1.12987987987988 	300.0414915555065 	0.2887543439142525 	101374.1048228082
-1.127377377377377 	300.0388804452812 	0.2553290498687049 	101371.0114143026
-1.124874874874875 	300.0358738161982 	0.2021088649900825 	101367.4378187873
-1.122372372372372 	300.0324588648313 	0.1780183514038197 	101363.3969832511
-1.11986986986987 	300.0287480855091 	0.1399211105391419 	101358.9998379495
-1.117367367367367 	300.024414916483 	0.1185118247667606 	101353.8744314931
-1.114864864864865 	300.0205895770578 	0.09541634321054195 	101349.3467069691
-1.112362362362362 	300.016909505445 	0.0768157144777059 	101344.9954502451
-1.10985985985986 	300.0138337242336 	0.05829460754345053 	101341.355519474
-1.107357357357357 	300.0092557427865 	0.04593841877851255 	101335.9440172618
-1.104854854854855 	300.0079664559931 	0.04606414101083567 	101334.418022127
-1.102352352352353 	300.0019096978547 	0.027551067535232 	101327.2585322864
-1.09984984984985 	299.9979897920074 	0.02274728885075213 	101322.622831131
-1.097347347347347 	299.9975818075987 	0.01273322538103387 	101322.1408977706
-1.094844844844845 	299.9951633426579 	0.01250242815663486 	101319.2815379716
-1.092342342342342 	299.9939656819246 	0.01766594121734923 	101317.8657951112
-1.08983983983984 	299.9928736247775 	0.02067351707120568 	101316.5748604788
-1.087337337337337 	299.9920049367934 	0.02308123542463767 	101315.5478532144
-1.084834834834835 	299.9917259076926 	0.02375794556055804 	101315.2179413929
-1.082332332332332 	299.9923561035346 	0.02190235787628247 	101315.9629181118
-1.07982982982983 	299.9938686299199 	0.0175996174919008 	101317.7507905403
-1.077327327327327 	299.9959937180141 	0.01158743647646636 	101320.2628934817
-1.074824824824825 	299.9984550692121 	0.004463266093170394 	101323.1726656368
-1.072322322322323 	300.001177690223 	0.004541729212140296 	101326.3912405933
-1.06981981981982 	300.0042115108714 	0.01227783677468727 	101329.9778198584
-1.067317317317317 	300.0075587199598 	0.02198014923348073 	101333.9351262206
-1.064814814814815 	300.0111753843559 	0.03241729661681936 	101338.2110076824
-1.062312312312312 	300.0149895069283 	0.0433984686115017 	101342.7204485689
-1.05980980980981 	300.0189211891187 	0.05476489753631508 	101347.3691851328
-1.057307307307307 	300.0229093439712 	0.06629645028382761 	101352.0847627794
-1.054804804804805 	300.0268940873164 	0.07783455475280013 	101356.7964631179
-1.052302302302302 	300.0308027652213 	0.08913824216254873 	101361.4184439164
-1.0497997997998 	300.0345536240678 	0.09994649790632273 	101365.8538643615
-1.047297297297297 	300.0380511489963 	0.1100656881175274 	101369.9899003452
-1.044794794794795 	300.041233433131 	0.1192970731645861 	101373.7533163541
-1.042292292292292 	300.0441134078425 	0.1276460149273101 	101377.1591807741
-1.03978978978979 	300.046708347806 	0.135114366426337 	101380.2280842932
-1.037287287287287 	300.0489397428898 	0.1414839018409377 	101382.8671888361
-1.034784784784785 	300.0506638835906 	0.1464540901416049 	101384.9063090021
-1.032282282282283 	300.0518189951123 	0.1498452412211588 	101386.2725121346
-1.02977977977978 	300.0524929932904 	0.1518422561048363 	101387.0697416838
-1.027277277277277 	300.0527626712768 	0.1525863443007679 	101387.3886523919
-1.024774774774775 	300.0525470782382 	0.1518843916731872 	101387.1337007927
-1.022272272272272 	300.0517177433114 	0.149492504283194 	101386.1529746597
-1.01976976976977 	300.0502713955182 	0.1453474230612748 	101384.4424084753
-1.017267267267267 	300.0483360445881 	0.139786295548304 	101382.1536044995
-1.014764764764765 	300.0460574633142 	0.1331901821171187 	101379.4588871605
-1.012262262262262 	300.0434746860491 	0.1256402633188469 	101376.404379156
-1.00975975975976 	300.0405187981862 	0.117073676079878 	101372.9088228671
-1.007257257257257 	300.0371463831825 	0.1073435580905392 	101368.9207260519
-1.004754754754755 	300.0334173561193 	0.09658559458022728 	101364.5109802697
-1.002252252252252 	300.0294842880483 	0.08526641365208967 	101359.8602187614
-0.9997497497497498 	300.0255416522088 	0.07386665899370833 	101355.198160599
-0.9972472472472473 	300.0217235562085 	0.0628094851337742 	101350.6834790077
-0.9947447447447449 	300.0180619074129 	0.05221280512550486 	101346.3540982109
-0.9922422422422421 	300.014545762619 	0.04200096726973316 	101342.1967126733
-0.9897397397397399 	300.0111482777707 	0.03214450466210897 	101338.1797394374
-0.9872372372372376 	300.0078737737355 	0.02268077503090099 	101334.3084349449
-0.9847347347347346 	300.0048113334286 	0.01386767912149859 	101330.6877941726
-0.9822322322322323 	300.0020856392867 	0.006039868403916777 	101327.4653167548
-0.9797297297297296 	299.9998236825171 	0.002904876215298794 	101324.7912666163
-0.9772272272272275 	299.9981639195044 	0.005225878095506789 	101322.829031826
-0.9747247247247248 	299.9971799343433 	0.00810789248234838 	101321.6657032463
-0.9722222222222224 	299.9968662163751 	0.00900773435761845 	101321.2948404293
-0.9697197197197196 	299.99718267867 	0.0080969225490188 	101321.6688581249
-0.9672172172172175 	299.9980239228707 	0.005719120632268011 	101322.6633200363
-0.9647147147147147 	299.9992613464153 	0.00212743813567498 	101324.1261635948
-0.9622122122122124 	300.0008707368748 	0.003036631894826965 	101326.0286822557
-0.9597097097097099 	300.0029243580152 	0.008580606595984138 	101328.4564952737
-0.9572072072072073 	300.0054611071063 	0.01592541857674553 	101331.4554906754
-0.9547047047047047 	300.0084392386267 	0.0245267102489819 	101334.9763091138
-0.9522022022022023 	300.0117756163943 	0.03416665850504694 	101338.9209331556
-0.9496996996996998 	300.0153957906613 	0.0446350615433293 	101343.2011151774
-0.9471971971971973 	300.0192444989387 	0.05576236290070607 	101347.7515951485
-0.9446946946946947 	300.0232608134912 	0.06736860543109568 	101352.5005798256
-0.9421921921921923 	300.027367916359 	0.07923825746892371 	101357.3569412312
-0.93968968968969 	300.0314907606266 	0.09115958589349048 	101362.2321019157
-0.9371871871871872 	300.0355696834816 	0.1029545755475556 	101367.0556044405
-0.9346846846846848 	300.0395474573268 	0.1144493011888672 	101371.7595365702
-0.9321821821821823 	300.0433497846909 	0.1254285305875028 	101376.2561853788
-0.9296796796796799 	300.0468849156096 	0.1356329311987115 	101380.4370544136
-0.9271771771771771 	300.0500609856296 	0.1448058655847687 	101384.1932912002
-0.9246746746746748 	300.0528120794237 	0.1527660964530269 	101387.4470636791
-0.9221721721721724 	300.0551216243108 	0.1594641623600807 	101390.1786984507
-0.9196696696696698 	300.0570160632063 	0.1649585678946112 	101392.4193148775
-0.9171671671671672 	300.0585177230207 	0.1692949912287967 	101394.1955077411
-0.9146646646646649 	300.0595968682727 	0.1723882672752949 	101395.4719523867
-0.9121621621621623 	300.0601761965966 	0.1740362056998658 	101396.1571488982
-0.9096596596596597 	300.060186920707 	0.1740583130938819 	101396.1699029048
-0.9071571571571573 	300.0596163735323 	0.1724169649820821 	101395.4951064268
-0.9046546546546547 	300.0585059513229 	0.1692207619197095 	101394.1817871249
-0.9021521521521524 	300.0569209354991 	0.1646496468985825 	101392.3072280482
-0.8996496496496498 	300.0549249132706 	0.1588797258628291 	101389.9464324991
-0.8971471471471473 	300.0525585746525 	0.1520223835441122 	101387.1477496251
-0.894644644644645 	300.0498243059475 	0.1440913252180868 	101383.9140283749
-0.892142142142142 	300.0467075051066 	0.1350720536933811 	101380.2278585255
-0.8896396396396397 	300.0432486495881 	0.125105470031801 	101376.1373583099
-0.8871371371371374 	300.0395976679674 	0.1146038690898172 	101371.8197329619
-0.8846346346346349 	300.0359534039874 	0.1040849093922972 	101367.5100861909
-0.8821321321321324 	300.0324160265065 	0.09380943867327717 	101363.3271133008
-0.8796296296296297 	300.0289167260213 	0.08362211993109679 	101359.1891988227
-0.8771271271271271 	300.0253365227533 	0.07326372754854099 	101354.9556940535
-0.8746246246246248 	300.0217230720072 	0.06290525712629537 	101350.6831416566
-0.8721221221221224 	300.0183666815043 	0.05331857670646781 	101346.7145142459
-0.8696196196196196 	300.0156179458259 	0.04541250851010715 	101343.4644091724
-0.8671171171171175 	300.0136113966785 	0.0395328866664201 	101341.0920083435
-0.8646146146146148 	300.0121650088893 	0.03523152697755115 	101339.3818537838
-0.8621121121121121 	300.0109908736051 	0.03180031558125437 	101337.9936371174
-0.8596096096096097 	300.0100134504489 	0.02906015226934174 	101336.8380287921
-0.857107107107107 	300.0094642008859 	0.02761634670786576 	101336.1885637976
-0.8546046046046049 	300.0096912520904 	0.02835729716381743 	101336.456994012
-0.8521021021021022 	300.0108406886544 	0.03160804039815639 	101337.8158589481
-0.8495995995995997 	300.0126535858799 	0.03669089836648607 	101339.9591631052
-0.8470970970970974 	300.0146780771718 	0.04248318788081714 	101342.3528675137
-0.8445945945945946 	300.0167270460607 	0.04852322110506373 	101344.775368366
-0.8420920920920922 	300.0190695895128 	0.05550894701871763 	101347.5450144007
-0.8395895895895897 	300.0221982214036 	0.06469167364473613 	101351.2443117286
-0.8370870870870872 	300.0263654743312 	0.07665559234467527 	101356.1716492009
-0.8345845845845846 	300.0312412102817 	0.09049595606727265 	101361.9370598702
-0.8320820820820823 	300.0360687726951 	0.1042399844984153 	101367.6458858984
-0.8295795795795798 	300.0402278562117 	0.1162850394049656 	101372.5642801584
-0.8270770770770772 	300.0437301491041 	0.126690698213841 	101376.7061626092
-0.8245745745745746 	300.0472708035068 	0.1373147600588321 	101380.8934300398
-0.8220720720720721 	300.051801032985 	0.1506795655329341 	101386.2510448183
-0.8195695695695699 	300.0578995219837 	0.1682591405767783 	101393.4638679518
-0.817067067067067 	300.0652715117849 	0.1891791898514048 	101402.1833751741
-0.8145645645645651 	300.0727324721682 	0.2102010591601604 	101411.0088189802
-0.8120620620620621 	300.0787269942912 	0.2270702670500779 	101418.1002681039
-0.8095595595595597 	300.0820241591446 	0.2364521736463024 	101422.0009628807
-0.8070570570570572 	300.0823190959955 	0.2375962200323586 	101422.3497439882
-0.8045545545545546 	300.0805091381622 	0.2330118065094491 	101420.208862804
-0.8020520520520523 	300.0784063773921 	0.227679802172631 	101417.721434716
-0.7995495495495494 	300.0780267741728 	0.2272144937865923 	101417.2727056232
-0.7970470470470474 	300.0809399601774 	0.2359797495504827 	101420.7187673808
-0.7945445445445446 	300.0877837122008 	0.2556638503668645 	101428.8141325972
-0.7920420420420423 	300.0979525276352 	0.2845150257276074 	101440.8445595066
-0.7895395395395397 	300.1096995595462 	0.3177010323351378 	101454.7437991712
-0.7870370370370371 	300.1207306659735 	0.3488418236445057 	101467.797451815
-0.7845345345345348 	300.1288914544559 	0.3718500158253609 	101477.4556071678
-0.7820320320320323 	300.132608705958 	0.3822490171404944 	101481.854892449
-0.7795295295295296 	300.1311136467213 	0.3778491599749261 	101480.0845895175
-0.7770270270270272 	300.1244965644146 	0.3589081521883669 	101472.254934239
-0.7745245245245247 	300.1136140120313 	0.3278233500039394 	101459.3780020352
-0.7720220220220222 	300.0998283449784 	0.2884206250883101 	101443.0664371298
-0.7695195195195199 	300.0846765599019 	0.24502770446203 	101425.1404094128
-0.767017017017017 	300.0695525303161 	0.2015916266474187 	101407.2493926458
-0.7645145145145147 	300.0554904668105 	0.1610870469039039 	101390.6165920845
-0.7620120120120122 	300.0431118535198 	0.1253394769325852 	101375.9765636365
-0.7595095095095097 	300.0326862127749 	0.09516464090558269 	101363.6474240785
-0.7570070070070072 	300.0242260799251 	0.07062998594338725 	101353.643409431
-0.7545045045045048 	300.0175789322711 	0.05131827529556475 	101345.7837023665
-0.7520020020020022 	300.0125036662326 	0.03654870915405671 	101339.7828935425
-0.7494994994994997 	300.0087274273333 	0.02554229855483628 	101335.3181603915
-0.7469969969969972 	300.0059833723986 	0.01753253889360548 	101332.0738824588
-0.7444944944944945 	300.004032493261 	0.01183001046620131 	101329.7674112681
-0.7419919919919924 	300.0026735296165 	0.007852324167725841 	101328.1607646504
-0.7394894894894897 	300.0017448661042 	0.005130589333025203 	101327.0628526477
-0.7369869869869872 	300.0011216536831 	0.003301771083846027 	101326.3260635496
-0.7344844844844846 	300.0007105670385 	0.002093958889709778 	101325.8400602453
-0.7319819819819822 	300.0004438240626 	0.001309306532174731 	101325.5247062598
-0.7294794794794797 	300.0002734441578 	0.0008075317574776737 	101325.3232765942
-0.7269769769769773 	300.0001662478898 	0.0004914745392983591 	101325.1965450088
-0.7244744744744747 	300.0000997786889 	0.0002952775799877941 	101325.1179625069
-0.721971971971972 	300.0000591379496 	0.0001751867652709405 	101325.0699154502
-0.7194694694694695 	300.0000346246249 	0.0001026730745137656 	101325.0409347635
-0.7169669669669674 	300.0000200320998 	5.946072921392265e-05 	101325.0236829083
-0.7144644644644647 	300.0000114556113 	3.403674403290663e-05 	101325.0135433745
-0.711961961961962 	300.0000064770704 	1.92631907481037e-05 	101325.0076574809
-0.7094594594594597 	300.0000036217351 	1.078158301570483e-05 	101325.0042817717
-0.7069569569569573 	300.0000020032746 	5.969202940543928e-06 	101325.0023683447
-0.7044544544544545 	300.0000010963572 	3.269865232064026e-06 	101325.0012961337
-0.7019519519519523 	300.0000005937873 	1.772628654154243e-06 	101325.0007019927
-0.6994494494494495 	300.0000003182766 	9.511973161693762e-07 	101325.0003763422
-0.6969469469469471 	300.0000001689151 	5.053285349924753e-07 	101325.0001997494
-0.6944444444444446 	300.0000000887714 	2.658338279259824e-07 	101325.0001049833
-0.6919419419419421 	300.0000000462502 	1.385024773557487e-07 	101325.0000546464
-0.6894394394394396 	300.0000000238331 	7.148188219279948e-08 	101325.0000281758
-0.6869369369369374 	300.0000000121878 	3.65500459869386e-08 	101325.0000143919
-0.6844344344344344 	300.0000000061827 	1.851926858117523e-08 	101325.0000072831
-0.6819319319319321 	300.0000000030604 	9.298686115756196e-09 	101325.0000036515
-0.6794294294294296 	300.0000000014913 	4.6277436694698e-09 	101325.0000018132
-0.6769269269269272 	300.0000000006869 	2.282725491673687e-09 	101325.0000008911
-0.6744244244244245 	300.00000000034 	1.116137725347629e-09 	101325.0000004326
-0.6719219219219222 	300.0000000001426 	5.412754547022052e-10 	101325.0000002066
-0.6694194194194195 	300.0000000000844 	2.593432715925429e-10 	101325.0000000963
-0.6669169169169172 	300.0000000000581 	1.238144604471945e-10 	101325.000000043
-0.6644144144144146 	299.9999999999908 	5.778111433398417e-11 	101325.0000000175
-0.661911911911912 	299.9999999999793 	2.71557398573657e-11 	101325.0000000054
-0.6594094094094097 	299.999999999982 	1.174402720619769e-11 	101324.9999999997
-0.656906906906907 	299.9999999999527 	5.682319856885715e-12 	101324.9999999972
-0.6544044044044046 	299.9999999999598 	2.056021281390423e-12 	101324.9999999959
-0.6519019019019021 	299.9999999999882 	1.077808736155958e-12 	101324.9999999953
-0.6493993993993996 	300.0000000000194 	2.638329358845804e-12 	101324.9999999951
-0.6468968968968971 	300.0000000000283 	2.402559087635488e-12 	101324.9999999949
-0.6443943943943946 	299.9999999999974 	2.733455823374445e-12 	101324.9999999949
-0.6418918918918921 	299.9999999999957 	1.427606109482243e-12 	101324.9999999948
-0.6393893893893897 	299.9999999999986 	1.849116431958314e-12 	101324.9999999947
-0.6368868868868871 	299.9999999999827 	9.931564486716133e-13 	101324.9999999946
-0.6343843843843846 	299.9999999999934 	1.64600030974378e-12 	101324.9999999946
-0.6318818818818821 	299.9999999999605 	1.396813712986139e-12 	101324.9999999946
-0.6293793793793795 	300.000000000003 	9.752315579178128e-13 	101324.9999999945
-0.6268768768768773 	300.000000000014 	9.450636853229286e-13 	101324.9999999946
-0.6243743743743745 	299.9999999999818 	8.661000413164182e-13 	101324.9999999947
-0.6218718718718721 	300.0000000000048 	1.0403993886424e-12 	101324.9999999945
-0.6193693693693696 	299.9999999999488 	1.301937204824166e-12 	101324.9999999943
-0.6168668668668671 	299.9999999999822 	8.645430362562745e-13 	101324.9999999944
-0.6143643643643645 	300.0000000000125 	2.102880486501213e-12 	101324.9999999946
-0.6118618618618621 	299.9999999999911 	1.307695319792437e-12 	101324.9999999947
-0.6093593593593596 	299.9999999999905 	2.029569543815968e-12 	101324.9999999947
-0.6068568568568571 	299.9999999999906 	1.118192412814433e-12 	101324.9999999946
-0.6043543543543546 	299.9999999999646 	1.101368215452703e-12 	101324.9999999946
-0.6018518518518521 	299.9999999999739 	9.516211491436728e-13 	101324.9999999947
-0.5993493493493496 	299.9999999999536 	4.058477600962127e-13 	101324.9999999946
-0.5968468468468471 	299.9999999999638 	1.637745105889019e-12 	101324.9999999944
-0.5943443443443446 	299.9999999999937 	1.038070503754513e-12 	101324.9999999942
-0.591841841841842 	299.9999999999662 	2.011012619983106e-12 	101324.9999999941
-0.5893393393393397 	299.9999999999544 	1.244019495357727e-12 	101324.999999994
-0.5868368368368371 	299.9999999999941 	2.626430403316201e-12 	101324.999999994
-0.5843343343343346 	300.0000000000073 	2.380353273677039e-12 	101324.9999999941
-0.5818318318318321 	300.0000000000264 	2.362746938749204e-12 	101324.999999994
-0.5793293293293297 	299.9999999999897 	2.113622082274209e-12 	101324.9999999939
-0.5768268268268271 	300.000000000004 	1.455319066298079e-12 	101324.999999994
-0.5743243243243245 	300.0000000000184 	1.842896223335276e-12 	101324.999999994
-0.5718218218218221 	300.0000000000178 	7.064309105180999e-13 	101324.9999999939
-0.5693193193193196 	300.000000000035 	7.261512522555897e-13 	101324.9999999937
-0.5668168168168171 	299.999999999991 	1.354674242005531e-12 	101324.9999999938
-0.5643143143143147 	299.9999999999559 	5.375679763675021e-13 	101324.9999999937
-0.5618118118118121 	300.0000000000089 	1.395046655427294e-12 	101324.9999999939
-0.5593093093093094 	300.000000000026 	8.146739749798753e-13 	101324.9999999938
-0.5568068068068072 	300.0000000000118 	1.989615389759682e-12 	101324.9999999938
-0.5543043043043046 	300.0000000000131 	1.3440036234647e-12 	101324.999999994
-0.551801801801802 	299.9999999999632 	2.034793137885088e-12 	101324.9999999938
-0.5492992992992995 	299.9999999999964 	1.33409264199064e-12 	101324.9999999936
-0.5467967967967969 	300.0000000000106 	2.278794775659265e-12 	101324.9999999937
-0.5442942942942947 	300.0000000000078 	1.852088607269945e-12 	101324.9999999937
-0.5417917917917919 	299.9999999999649 	2.632510576607183e-12 	101324.9999999936
-0.5392892892892895 	299.9999999999426 	7.283757139381564e-13 	101324.9999999936
-0.536786786786787 	299.9999999999619 	1.882757251433897e-12 	101324.9999999937
-0.5342842842842846 	299.9999999999665 	1.211481394347079e-12 	101324.9999999935
-0.531781781781782 	299.9999999999446 	2.238652657489531e-12 	101324.9999999936
-0.5292792792792794 	299.9999999999412 	2.785888050832428e-12 	101324.9999999935
-0.526776776776777 	299.9999999999257 	2.824448761979111e-12 	101324.9999999936
-0.5242742742742745 	299.999999999979 	4.299607999427029e-12 	101324.9999999939
-0.521771771771772 	300.0000000000142 	4.071825144333127e-12 	101324.9999999942
-0.5192692692692695 	299.9999999999688 	4.63457946826441e-12 	101324.9999999943
-0.516766766766767 	300.0000000000023 	4.723469078424521e-12 	101324.9999999942
-0.5142642642642645 	299.9999999999737 	3.8772116411009e-12 	101324.9999999942
-0.511761761761762 	299.9999999999603 	4.194013049165129e-12 	101324.999999994
-0.5092592592592596 	299.9999999999754 	2.942931601357529e-12 	101324.9999999939
-0.506756756756757 	299.9999999999498 	3.329098215579419e-12 	101324.9999999938
-0.5042542542542544 	299.9999999999932 	2.133272044122771e-12 	101324.9999999938
-0.5017517517517521 	300.0000000000217 	2.981215455607173e-12 	101324.9999999936
-0.4992492492492494 	300.0000000000242 	1.054715039751855e-12 	101324.9999999934
-0.496746746746747 	299.999999999989 	1.945194352279366e-12 	101324.9999999933
-0.4942442442442445 	299.9999999999533 	1.147742638501926e-12 	101324.9999999933
-0.4917417417417421 	299.9999999999543 	1.066322553534623e-12 	101324.9999999932
-0.4892392392392395 	299.9999999999665 	1.345465415686735e-12 	101324.9999999933
-0.486736736736737 	299.9999999999648 	1.07889011390991e-12 	101324.9999999934
-0.4842342342342345 	299.9999999999349 	1.964405539869661e-12 	101324.9999999933
-0.481731731731732 	300.0000000000276 	1.757240301205348e-12 	101324.9999999935
-0.4792292292292296 	300.0000000000148 	1.50276241800112e-12 	101324.9999999933
-0.4767267267267268 	299.9999999999654 	3.299516106037435e-12 	101324.9999999933
-0.4742242242242246 	300.0000000000007 	2.007997294183638e-12 	101324.9999999935
-0.471721721721722 	299.9999999999652 	3.849294757011498e-12 	101324.9999999936
-0.4692192192192195 	299.9999999999832 	1.13561650594853e-12 	101324.9999999937
-0.4667167167167169 	299.9999999999288 	3.207436048424364e-12 	101324.9999999936
-0.4642142142142145 	299.9999999999955 	8.776131502024758e-13 	101324.9999999935
-0.461711711711712 	300.0000000000144 	2.751533423444489e-12 	101324.9999999935
-0.4592092092092094 	300.0000000000036 	7.259450856863535e-13 	101324.9999999935
-0.456706706706707 	300.0000000000404 	1.914782661050198e-12 	101324.9999999934
-0.4542042042042045 	299.9999999999483 	4.240577860187507e-13 	101324.9999999935
-0.451701701701702 	299.9999999999607 	7.696453836987586e-13 	101324.9999999935
-0.4491991991991995 	299.9999999999682 	8.100869634958833e-13 	101324.9999999935
-0.4466966966966969 	299.9999999999655 	7.67134733509949e-13 	101324.9999999936
-0.4441941941941945 	299.9999999999984 	1.624031044975323e-12 	101324.9999999936
-0.441691691691692 	299.9999999999693 	1.784752980379729e-12 	101324.9999999935
-0.4391891891891895 	299.9999999999913 	2.031228682253406e-12 	101324.9999999934
-0.436686686686687 	299.9999999999769 	2.926102389276243e-12 	101324.9999999935
-0.4341841841841846 	299.9999999999969 	2.349954172914826e-12 	101324.9999999933
-0.431681681681682 	299.9999999999592 	3.158845286488446e-12 	101324.999999993
-0.4291791791791794 	299.9999999999466 	1.451141326112026e-12 	101324.9999999931
-0.426676676676677 	299.9999999999307 	2.436048999727106e-12 	101324.9999999933
-0.4241741741741744 	299.9999999999732 	1.374413763762585e-12 	101324.9999999936
-0.421671671671672 	300.0000000000027 	2.141972315281905e-12 	101324.9999999938
-0.4191691691691694 	300.0000000000377 	4.228815366082359e-13 	101324.9999999939
-0.4166666666666669 	300.0000000000439 	2.015800285756351e-12 	101324.999999994
-0.4141641641641645 	299.999999999952 	1.477656730751249e-12 	101324.9999999939
-0.411661661661662 	300.0000000000004 	2.347382780967009e-12 	101324.9999999938
-0.4091591591591594 	300.0000000000075 	2.083874284631905e-12 	101324.9999999935
-0.406656656656657 	299.9999999999617 	2.770790708531152e-12 	101324.9999999937
-0.4041541541541545 	300.0000000000121 	1.444668878393679e-12 	101324.9999999937
-0.401651651651652 	299.9999999999426 	3.499425620116163e-12 	101324.9999999936
-0.3991491491491494 	300.0000000000035 	9.587239364171083e-13 	101324.9999999933
-0.396646646646647 	299.9999999999628 	3.3368847332027e-12 	101324.9999999933
-0.3941441441441444 	299.9999999999831 	2.550682076882337e-12 	101324.9999999931
-0.3916416416416419 	299.9999999999511 	2.401806909218974e-12 	101324.999999993
-0.3891391391391395 	299.9999999999645 	1.861624105000914e-12 	101324.999999993
-0.3866366366366368 	299.9999999999648 	1.598488541722822e-12 	101324.9999999929
-0.3841341341341344 	299.9999999999982 	8.806659687058718e-13 	101324.9999999929
-0.381631631631632 	299.9999999999597 	1.530331913894592e-12 	101324.9999999929
-0.3791291291291294 	299.9999999999983 	1.260121480400147e-12 	101324.999999993
-0.3766266266266269 	300.000000000015 	1.16649289133935e-12 	101324.9999999929
-0.3741241241241244 	300.0000000000171 	1.761101839807629e-12 	101324.9999999929
-0.371621621621622 	300.0000000000166 	4.860718273906074e-13 	101324.9999999928
-0.3691191191191194 	300.0000000000037 	2.655238334177029e-12 	101324.9999999928
-0.366616616616617 	300.0000000000021 	1.091398963238986e-12 	101324.9999999928
-0.3641141141141143 	299.9999999999793 	2.600140990336238e-12 	101324.9999999927
-0.3616116116116119 	299.999999999956 	9.852055820758337e-13 	101324.9999999928
-0.3591091091091095 	299.9999999999835 	2.040745743676163e-12 	101324.9999999929
-0.356606606606607 	299.9999999999857 	1.75957173024244e-12 	101324.9999999928
-0.3541041041041044 	299.999999999992 	2.297688863652754e-12 	101324.9999999929
-0.3516016016016019 	300.0000000000119 	3.485655697860467e-12 	101324.9999999929
-0.3490990990990994 	299.9999999999949 	1.912436643311005e-12 	101324.9999999929
-0.346596596596597 	300.0000000000276 	3.725804766663302e-12 	101324.9999999925
-0.3440940940940944 	300.0000000000331 	1.641782922739796e-12 	101324.9999999922
-0.3415915915915919 	300.0000000000166 	4.043899256097242e-12 	101324.9999999923
-0.3390890890890895 	299.9999999999824 	2.279367595282682e-12 	101324.9999999922
-0.3365865865865869 	300.0000000000136 	3.175616496155628e-12 	101324.9999999923
-0.3340840840840844 	299.9999999999981 	2.776652441475693e-12 	101324.9999999925
-0.3315815815815819 	300.0000000000153 	3.830905657378022e-12 	101324.9999999928
-0.3290790790790794 	300.0000000000155 	3.789660290517989e-12 	101324.9999999926
-0.3265765765765769 	299.9999999999416 	4.743102649490413e-12 	101324.9999999924
-0.3240740740740744 	299.9999999999964 	3.864152041945258e-12 	101324.9999999924
-0.3215715715715718 	300.0000000000067 	5.420205131538175e-12 	101324.9999999927
-0.3190690690690695 	299.999999999949 	4.447031914590085e-12 	101324.9999999927
-0.3165665665665668 	299.999999999992 	5.946966053750791e-12 	101324.9999999931
-0.3140640640640644 	300.0000000000016 	4.407561222856322e-12 	101324.9999999933
-0.311561561561562 	299.9999999999463 	7.419260083302235e-12 	101324.9999999932
-0.3090590590590593 	299.9999999999965 	3.75298954955993e-12 	101324.9999999933
-0.3065565565565568 	300.0000000000055 	9.119488630119569e-12 	101324.9999999933
-0.3040540540540545 	300.0000000000014 	4.140561359058093e-12 	101324.9999999933
-0.3015515515515518 	300.0000000000258 	8.474945195022567e-12 	101324.9999999932
-0.2990490490490494 	299.999999999957 	5.140877676152835e-12 	101324.9999999931
-0.2965465465465469 	299.9999999999882 	6.361250957422916e-12 	101324.999999993
-0.2940440440440444 	299.9999999999972 	5.3617044150044e-12 	101324.999999993
-0.2915415415415418 	300.0000000000055 	5.603130999451758e-12 	101324.9999999928
-0.2890390390390395 	300.0000000000061 	6.134457357411905e-12 	101324.9999999929
-0.2865365365365368 	299.9999999999836 	4.391433206304686e-12 	101324.999999993
-0.2840340340340343 	299.9999999999966 	5.714872122399738e-12 	101324.9999999928
-0.2815315315315318 	299.9999999999411 	2.871145555063e-12 	101324.9999999929
-0.2790290290290295 	299.9999999999708 	4.937269104936535e-12 	101324.999999993
-0.2765265265265269 	300.0000000000061 	3.654717791086349e-12 	101324.9999999927
-0.2740240240240244 	300.0000000000172 	4.833783603350556e-12 	101324.9999999928
-0.2715215215215219 	300.0000000000089 	4.663577605020712e-12 	101324.9999999927
-0.2690190190190194 	299.9999999999553 	4.221199865801743e-12 	101324.999999993
-0.2665165165165169 	299.999999999996 	5.061482833348876e-12 	101324.9999999931
-0.2640140140140144 	299.9999999999766 	4.063143151173295e-12 	101324.9999999933
-0.2615115115115119 	300.0000000000001 	6.402095219891662e-12 	101324.9999999932
-0.2590090090090094 	299.9999999999461 	4.249673752732655e-12 	101324.9999999931
-0.2565065065065068 	299.9999999999924 	4.859963624203169e-12 	101324.9999999932
-0.2540040040040044 	299.9999999999933 	4.597152312277675e-12 	101324.9999999929
-0.2515015015015019 	300.0000000000287 	4.155748571035414e-12 	101324.9999999927
-0.2489989989989994 	300.0000000000316 	5.970504168718792e-12 	101324.9999999925
-0.2464964964964968 	299.9999999999917 	3.434039830658374e-12 	101324.9999999926
-0.2439939939939944 	299.9999999999948 	6.771246739188377e-12 	101324.9999999925
-0.2414914914914919 	299.999999999973 	2.89527721082269e-12 	101324.9999999926
-0.2389889889889893 	300.0000000000015 	5.980819098956565e-12 	101324.9999999928
-0.2364864864864869 	300.0000000000191 	3.031595427269226e-12 	101324.9999999929
-0.2339839839839843 	299.9999999999505 	6.914128371529807e-12 	101324.999999993
-0.2314814814814819 	299.9999999999841 	2.899450592881941e-12 	101324.9999999933
-0.2289789789789792 	299.9999999999357 	5.378438404651988e-12 	101324.9999999932
-0.2264764764764769 	299.9999999999575 	3.162930026621933e-12 	101324.9999999934
-0.2239739739739743 	299.9999999999714 	4.732605126993546e-12 	101324.9999999933
-0.2214714714714718 	299.9999999999526 	4.429713173063898e-12 	101324.9999999934
-0.2189689689689693 	299.9999999999753 	3.749055216942398e-12 	101324.9999999936
-0.2164664664664669 	299.9999999999857 	5.694979872754095e-12 	101324.9999999937
-0.2139639639639643 	299.9999999999517 	4.359459435825981e-12 	101324.9999999935
-0.2114614614614618 	299.9999999999779 	5.435381960483623e-12 	101324.9999999933
-0.2089589589589593 	299.9999999999929 	4.809600622154727e-12 	101324.999999993
-0.2064564564564568 	299.9999999999924 	4.31699282023853e-12 	101324.999999993
-0.2039539539539543 	299.9999999999338 	5.45004541394494e-12 	101324.9999999931
-0.2014514514514518 	299.9999999999566 	3.580837178105227e-12 	101324.9999999928
-0.1989489489489494 	299.9999999999721 	6.398115730941364e-12 	101324.9999999928
-0.1964464464464468 	299.999999999992 	2.506785341657141e-12 	101324.9999999927
-0.1939439439439443 	299.9999999999895 	5.128481209976542e-12 	101324.9999999929
-0.1914414414414418 	299.9999999999422 	2.47782835950164e-12 	101324.9999999929
-0.1889389389389393 	300.0000000000029 	4.01466574714645e-12 	101324.9999999929
-0.1864364364364368 	300.0000000000286 	3.725123894658303e-12 	101324.999999993
-0.1839339339339343 	299.9999999999829 	4.264858331508077e-12 	101324.9999999932
-0.1814314314314318 	299.9999999999972 	3.760696124105696e-12 	101324.9999999931
-0.1789289289289293 	299.9999999999256 	4.060353265607704e-12 	101324.9999999935
-0.1764264264264268 	299.9999999999846 	3.297188910585758e-12 	101324.9999999935
-0.1739239239239243 	299.9999999999263 	4.2251731206918e-12 	101324.9999999939
-0.1714214214214218 	299.9999999999885 	1.745562671198685e-12 	101324.999999994
-0.1689189189189193 	299.9999999999634 	4.86954551630382e-12 	101324.9999999938
-0.1664164164164168 	300.0000000000034 	6.182831732219176e-13 	101324.9999999934
-0.1639139139139143 	299.9999999999887 	5.952333195997496e-12 	101324.9999999938
-0.1614114114114118 	300.0000000000169 	1.17290485358701e-12 	101324.9999999937
-0.1589089089089093 	299.9999999999975 	7.22097348188174e-12 	101324.9999999936
-0.1564064064064068 	299.9999999999858 	3.081645228259609e-12 	101324.9999999936
-0.1539039039039043 	299.9999999999937 	7.496935679137944e-12 	101324.9999999936
-0.1514014014014018 	300.0000000000185 	1.835029126639608e-12 	101324.9999999936
-0.1488988988988993 	299.9999999999901 	7.730553272858462e-12 	101324.9999999933
-0.1463963963963968 	300.0000000000013 	4.828353951495786e-13 	101324.9999999937
-0.1438938938938943 	299.9999999999678 	6.238346664505045e-12 	101324.9999999938
-0.1413913913913918 	299.9999999999426 	5.586414262120969e-13 	101324.9999999939
-0.1388888888888893 	299.999999999983 	3.228257166975657e-12 	101324.9999999938
-0.1363863863863868 	299.9999999999179 	4.156970956395484e-13 	101324.9999999939
-0.1338838838838843 	299.9999999999395 	1.385832550639992e-12 	101324.9999999938
-0.1313813813813818 	299.9999999999955 	8.512460542892048e-14 	101324.9999999937
-0.1288788788788793 	299.9999999999716 	1.724038720531943e-12 	101324.9999999935
-0.1263763763763768 	299.9999999999782 	6.734494895489381e-13 	101324.9999999934
-0.1238738738738743 	299.9999999999506 	2.457761820914935e-12 	101324.9999999933
-0.1213713713713717 	299.9999999999899 	2.792139605242674e-13 	101324.9999999936
-0.1188688688688693 	300.0000000000074 	3.108120063042493e-12 	101324.9999999936
-0.1163663663663668 	299.9999999999308 	6.48512198564767e-13 	101324.9999999935
-0.1138638638638643 	299.9999999999931 	3.633759033096003e-12 	101324.9999999934
-0.1113613613613618 	299.9999999999901 	9.851561679274975e-13 	101324.9999999937
-0.1088588588588592 	299.9999999999857 	4.462824466979129e-12 	101324.9999999938
-0.1063563563563568 	299.999999999969 	5.271374209967913e-13 	101324.9999999936
-0.1038538538538543 	299.9999999999841 	3.954708940436056e-12 	101324.9999999935
-0.1013513513513517 	300.0000000000103 	1.212582131178703e-12 	101324.9999999935
-0.09884884884884926 	299.9999999999624 	4.334819408585167e-12 	101324.9999999931
-0.09634634634634676 	299.9999999999241 	1.871234355286616e-12 	101324.9999999932
-0.09384384384384425 	299.9999999999438 	2.453183207661821e-12 	101324.9999999931
-0.09134134134134177 	300.0000000000137 	1.171341378690942e-12 	101324.9999999931
-0.08883883883883925 	300.0000000000069 	2.676207305491327e-12 	101324.999999993
-0.08633633633633674 	299.9999999999631 	2.244538894733817e-12 	101324.9999999932
-0.08383383383383426 	300.0000000000034 	2.06654061187092e-12 	101324.9999999931
-0.08133133133133173 	299.9999999999766 	2.044059449230114e-12 	101324.999999993
-0.07882882882882926 	299.9999999999138 	1.079908531598087e-12 	101324.9999999929
-0.07632632632632676 	299.9999999999699 	1.082280642850134e-12 	101324.9999999929
-0.07382382382382424 	299.9999999999241 	5.681938983708957e-13 	101324.9999999929
-0.07132132132132173 	300.0000000000085 	1.791617902422268e-13 	101324.9999999931
-0.06881881881881925 	299.9999999999693 	2.998559536335001e-13 	101324.9999999931
-0.06631631631631671 	299.9999999999203 	1.101634110379324e-13 	101324.9999999932
-0.06381381381381425 	299.9999999999666 	2.031158945101744e-13 	101324.9999999932
-0.06131131131131173 	299.9999999999678 	3.182233358231285e-14 	101324.9999999935
-0.05880880880880923 	299.9999999999403 	3.223656704290497e-14 	101324.9999999937
-0.05630630630630672 	299.9999999999745 	3.554281960628064e-13 	101324.9999999937
-0.05380380380380424 	300.0000000000118 	8.178332577743736e-13 	101324.9999999936
-0.05130130130130173 	300.0000000000069 	1.316335927997754e-12 	101324.9999999936
-0.04879879879879922 	299.9999999999592 	1.505290317870784e-12 	101324.9999999935
-0.04629629629629672 	299.9999999999519 	8.866615308452739e-13 	101324.9999999933
-0.04379379379379422 	299.9999999999362 	9.146649454345892e-13 	101324.9999999935
-0.04129129129129173 	299.9999999999834 	6.69593866298705e-13 	101324.9999999933
-0.03878878878878922 	299.9999999999872 	1.30800611116917e-12 	101324.9999999931
-0.03628628628628671 	299.9999999999844 	5.731226307733891e-13 	101324.9999999931
-0.03378378378378422 	299.9999999999474 	5.498417914638187e-13 	101324.9999999932
-0.03128128128128172 	299.9999999999774 	4.671329620763476e-13 	101324.9999999932
-0.02877877877877922 	299.9999999999761 	2.246854185270656e-13 	101324.9999999932
-0.0262762762762767 	299.9999999999251 	5.652017373869855e-13 	101324.9999999931
-0.02377377377377422 	300.0000000000139 	6.558639446936127e-13 	101324.9999999928
-0.0212712712712717 	299.9999999999274 	9.86003274235981e-14 	101324.999999993
-0.01876876876876921 	299.9999999999788 	2.382520214642e-13 	101324.9999999933
-0.01626626626626671 	300.0000000000084 	8.111332904856234e-13 	101324.9999999932
-0.0137637637637642 	299.9999999999729 	8.079629247655162e-13 	101324.9999999935
-0.0112612612612617 	300.0000000000113 	9.467475641635048e-13 	101324.9999999935
-0.008758758758759198 	299.9999999999972 	1.398404172252045e-14 	101324.9999999934
-0.006256256256256697 	299.9999999999181 	1.873118893938307e-14 	101324.9999999934
-0.003753753753754195 	299.9999999999641 	9.96110749600158e-13 	101324.9999999934
-0.001251251251251693 	299.9999999999439 	7.837216713573134e-13 	101324.9999999932
0.00125125125125081 	299.9999999999653 	1.139783390334325e-12 	101324.9999999932
0.003753753753753312 	299.9999999999745 	4.278307969319756e-13 	101324.9999999931
0.006256256256255817 	299.9999999999166 	7.558922294165269e-13 	101324.999999993
0.008758758758758317 	299.9999999999897 	2.704168987571432e-13 	101324.9999999931
0.01126126126126082 	300.0000000000063 	3.777741502871484e-13 	101324.9999999934
0.01376376376376332 	299.9999999999756 	2.872007934553892e-13 	101324.9999999934
0.01626626626626582 	300.0000000000061 	4.265214803966242e-13 	101324.9999999934
0.01876876876876833 	299.9999999999685 	6.009386481960885e-13 	101324.9999999934
0.02127127127127083 	299.9999999999782 	1.082202310113363e-12 	101324.9999999936
0.02377377377377332 	299.9999999999962 	1.307188403906162e-12 	101324.9999999937
0.02627627627627583 	299.9999999999309 	1.208029107402048e-12 	101324.9999999936
0.02877877877877833 	300.0000000000045 	1.181925631916571e-12 	101324.9999999936
0.03128128128128083 	299.9999999999574 	6.074494362596542e-13 	101324.9999999933
0.03378378378378333 	299.9999999999271 	1.328015743875175e-12 	101324.9999999933
0.03628628628628584 	299.9999999999801 	1.138387353197599e-12 	101324.9999999934
0.03878878878878834 	299.9999999999857 	7.214259389131401e-13 	101324.9999999934
0.04129129129129084 	299.9999999999827 	9.352603536446749e-13 	101324.9999999934
0.04379379379379333 	299.9999999999548 	7.393130611810564e-13 	101324.9999999934
0.04629629629629585 	299.9999999999166 	8.120319838699979e-13 	101324.9999999934
0.04879879879879834 	299.9999999999652 	1.195913880465657e-12 	101324.9999999935
0.05130130130130085 	300.0000000000097 	8.888477760197271e-13 	101324.9999999937
0.05380380380380335 	300.0000000000138 	3.047894794404822e-13 	101324.9999999936
0.05630630630630584 	299.9999999999912 	5.892792008507444e-13 	101324.9999999935
0.05880880880880836 	299.9999999999422 	7.351947479586923e-13 	101324.9999999935
0.06131131131131085 	299.9999999999825 	5.390192652539196e-13 	101324.9999999935
0.06381381381381336 	299.9999999999729 	7.358704499826759e-13 	101324.9999999935
0.06631631631631586 	299.9999999999191 	4.766263512515402e-13 	101324.9999999934
0.06881881881881835 	299.9999999999617 	1.968762215516244e-14 	101324.9999999932
0.07132132132132088 	299.9999999999906 	3.997909804563042e-14 	101324.9999999931
0.07382382382382337 	299.9999999999292 	3.866304667415853e-13 	101324.999999993
0.07632632632632587 	299.9999999999771 	1.015004593391143e-12 	101324.9999999929
0.07882882882882837 	299.9999999999537 	1.204924394030589e-12 	101324.9999999931
0.08133133133133086 	299.999999999991 	1.582713388352103e-12 	101324.999999993
0.08383383383383337 	299.99999999999 	1.308230423730587e-12 	101324.9999999932
0.08633633633633589 	299.9999999999297 	1.518913625486949e-12 	101324.9999999931
0.08883883883883838 	300.0000000000068 	2.120903886842757e-12 	101324.9999999931
0.09134134134134086 	299.9999999999901 	1.457940149270436e-12 	101324.9999999932
0.09384384384384339 	299.999999999924 	2.063534724612421e-12 	101324.9999999932
0.09634634634634588 	299.999999999974 	2.132325363542289e-12 	101324.9999999931
0.09884884884884838 	299.999999999979 	1.894327376495888e-12 	101324.9999999931
0.1013513513513509 	300.000000000016 	2.214406550556093e-12 	101324.9999999929
0.1038538538538534 	299.9999999999636 	2.539470297421303e-12 	101324.999999993
0.1063563563563559 	300.00000000001 	3.190680611473998e-12 	101324.999999993
0.1088588588588584 	300.000000000017 	2.781193172041459e-12 	101324.9999999933
0.1113613613613609 	299.9999999999449 	3.161498089445556e-12 	101324.9999999932
0.1138638638638634 	299.9999999999602 	3.221136517276786e-12 	101324.9999999932
0.1163663663663659 	299.9999999999562 	3.258176227016146e-12 	101324.9999999933
0.1188688688688684 	299.999999999975 	3.436772595187303e-12 	101324.9999999934
0.1213713713713709 	299.999999999996 	3.027051439553354e-12 	101324.9999999937
0.1238738738738734 	299.9999999999457 	2.821986238889208e-12 	101324.9999999938
0.1263763763763759 	299.9999999999876 	3.218262817705369e-12 	101324.9999999938
0.1288788788788784 	299.9999999999909 	3.232356544319698e-12 	101324.9999999941
0.1313813813813809 	299.9999999999897 	3.813809692387377e-12 	101324.999999994
0.1338838838838834 	299.999999999982 	3.497493620244876e-12 	101324.9999999938
0.1363863863863859 	300.0000000000201 	3.635801803640438e-12 	101324.9999999936
0.1388888888888884 	300.0000000000336 	3.3691054396896e-12 	101324.9999999938
0.1413913913913909 	299.9999999999999 	2.880142355870059e-12 	101324.9999999939
0.1438938938938934 	299.9999999999953 	2.575557958983167e-12 	101324.9999999937
0.1463963963963959 	299.9999999999677 	2.192054829452112e-12 	101324.9999999937
0.1488988988988985 	299.9999999999368 	3.466926428273491e-12 	101324.9999999934
0.1514014014014009 	299.9999999999723 	3.055280696383032e-12 	101324.9999999933
0.1539039039039035 	299.9999999999708 	5.090757794395699e-12 	101324.9999999933
0.1564064064064059 	299.9999999999583 	3.106767003222542e-12 	101324.9999999933
0.1589089089089084 	299.9999999999886 	5.979718105190548e-12 	101324.9999999935
0.1614114114114109 	299.9999999999833 	3.194029720729055e-12 	101324.9999999935
0.1639139139139134 	299.9999999999323 	5.091771403568366e-12 	101324.9999999934
0.166416416416416 	300.0000000000022 	3.940121985140989e-12 	101324.9999999933
0.1689189189189185 	300.000000000018 	3.695719735639755e-12 	101324.9999999936
0.1714214214214209 	299.9999999999943 	4.18636243747675e-12 	101324.9999999938
0.1739239239239235 	299.9999999999868 	2.995274957435703e-12 	101324.9999999939
0.1764264264264259 	299.9999999999769 	4.769114483086522e-12 	101324.9999999939
0.1789289289289284 	300.0000000000003 	1.813174405552267e-12 	101324.9999999938
0.181431431431431 	299.9999999999687 	4.129653947445408e-12 	101324.9999999935
0.1839339339339334 	299.9999999999712 	2.147287679844053e-12 	101324.9999999936
0.186436436436436 	299.9999999999466 	3.816583301740822e-12 	101324.9999999933
0.1889389389389385 	299.9999999999872 	3.680340130537062e-12 	101324.9999999933
0.191441441441441 	299.9999999999859 	3.709833484247365e-12 	101324.9999999932
0.1939439439439434 	299.9999999999434 	5.152547053830688e-12 	101324.9999999931
0.196446446446446 	299.9999999999607 	3.003223603393467e-12 	101324.9999999932
0.1989489489489485 	299.9999999999729 	5.160940933697677e-12 	101324.9999999932
0.2014514514514509 	299.9999999999869 	2.97231601591695e-12 	101324.9999999933
0.2039539539539535 	299.9999999999949 	4.09519896662208e-12 	101324.9999999935
0.2064564564564559 	299.9999999999689 	2.589231914390694e-12 	101324.9999999931
0.2089589589589585 	299.9999999999874 	3.205926190479775e-12 	101324.9999999932
0.211461461461461 	299.9999999999479 	3.330533950375876e-12 	101324.999999993
0.2139639639639635 	299.9999999999849 	2.839319825875996e-12 	101324.9999999926
0.2164664664664659 	299.9999999999973 	3.239876394534413e-12 	101324.9999999924
0.2189689689689684 	299.9999999999948 	1.00521978233844e-12 	101324.9999999924
0.221471471471471 	299.9999999999941 	3.328898149182076e-12 	101324.9999999927
0.2239739739739735 	299.9999999999669 	1.008182361106828e-12 	101324.999999993
0.226476476476476 	299.9999999999872 	2.738665926580782e-12 	101324.9999999931
0.2289789789789785 	299.9999999999933 	1.746682587259972e-12 	101324.9999999931
0.231481481481481 	299.999999999992 	2.257104891638152e-12 	101324.9999999932
0.2339839839839835 	299.9999999999897 	3.172411332521222e-12 	101324.9999999931
0.236486486486486 	300.0000000000158 	2.593603492782738e-12 	101324.999999993
0.2389889889889885 	300.0000000000007 	4.329384246032175e-12 	101324.999999993
0.241491491491491 	299.9999999999434 	3.074471377203872e-12 	101324.9999999931
0.2439939939939935 	299.9999999999846 	6.887650318586419e-12 	101324.9999999931
0.246496496496496 	299.9999999999912 	4.573860985496122e-12 	101324.9999999929
0.2489989989989985 	300.0000000000259 	5.440275334436227e-12 	101324.9999999926
0.251501501501501 	300.0000000000186 	3.877538286765221e-12 	101324.9999999923
0.2540040040040035 	299.9999999999904 	3.475093252842653e-12 	101324.9999999926
0.256506506506506 	300.0000000000185 	4.011000899749717e-12 	101324.9999999922
0.2590090090090086 	299.9999999999338 	2.82540594443639e-12 	101324.9999999922
0.261511511511511 	299.9999999999989 	5.665634640307692e-12 	101324.9999999921
0.2640140140140135 	299.9999999999925 	2.927846826916124e-12 	101324.9999999921
0.2665165165165161 	299.9999999999491 	4.125260856644486e-12 	101324.9999999922
0.2690190190190185 	300.0000000000023 	2.269601714076668e-12 	101324.9999999923
0.271521521521521 	300.0000000000041 	2.448482319712249e-12 	101324.9999999925
0.2740240240240235 	300.0000000000088 	2.071879625110854e-12 	101324.9999999926
0.276526526526526 	300.0000000000024 	9.501244099217173e-13 	101324.9999999928
0.2790290290290286 	299.9999999999543 	2.102727472962104e-12 	101324.999999993
0.281531531531531 	299.9999999999457 	8.934891485247042e-13 	101324.9999999928
0.2840340340340335 	299.9999999999843 	2.904951431985607e-12 	101324.9999999927
0.2865365365365361 	299.9999999999683 	1.285326670177505e-12 	101324.9999999925
0.2890390390390385 	299.9999999999973 	2.530545783706477e-12 	101324.9999999923
0.291541541541541 	299.9999999999966 	2.058523315289602e-12 	101324.9999999923
0.2940440440440436 	299.9999999999917 	1.56699603971451e-12 	101324.9999999924
0.296546546546546 	299.9999999999914 	2.349910422071038e-12 	101324.9999999924
0.2990490490490486 	299.9999999999513 	7.95964436111402e-13 	101324.9999999925
0.3015515515515511 	300.0000000000237 	4.106592487794968e-12 	101324.9999999927
0.3040540540540535 	299.999999999994 	1.656598461988196e-12 	101324.999999993
0.3065565565565562 	299.9999999999981 	4.269406986943439e-12 	101324.999999993
0.3090590590590585 	299.9999999999922 	1.621945284751799e-12 	101324.999999993
0.3115615615615611 	299.999999999954 	3.107196857675346e-12 	101324.999999993
0.3140640640640635 	300.0000000000013 	3.662669306161806e-13 	101324.9999999931
0.316566566566566 	299.9999999999906 	2.370837981693769e-12 	101324.999999993
0.3190690690690687 	299.9999999999652 	7.585028520244806e-13 	101324.999999993
0.3215715715715711 	300.0000000000099 	2.756731300735266e-12 	101324.999999993
0.3240740740740735 	299.9999999999979 	1.697893247831839e-12 	101324.9999999931
0.326576576576576 	299.9999999999279 	3.516179636416861e-12 	101324.999999993
0.3290790790790786 	300.0000000000035 	2.712976136940611e-12 	101324.9999999931
0.3315815815815811 	300.000000000025 	3.262183893697393e-12 	101324.9999999931
0.3340840840840836 	299.9999999999914 	2.719734241578722e-12 	101324.9999999932
0.3365865865865861 	300.0000000000391 	2.989762574002257e-12 	101324.9999999931
0.3390890890890886 	300.0000000000358 	1.296183830505996e-12 	101324.9999999932
0.3415915915915911 	300.0000000000007 	1.787246647974985e-12 	101324.9999999932
0.3440940940940935 	299.9999999999627 	6.421145342807098e-13 	101324.9999999932
0.3465965965965962 	300.0000000000245 	1.290569422171816e-12 	101324.9999999933
0.3490990990990985 	300.0000000000187 	6.177753538294038e-13 	101324.9999999932
0.3516016016016011 	299.9999999999872 	7.031048176930322e-13 	101324.9999999932
0.3541041041041035 	300.0000000000033 	5.755481038287555e-13 	101324.9999999931
0.3566066066066061 	299.9999999999653 	3.625665058230005e-13 	101324.9999999929
0.3591091091091085 	299.9999999999425 	1.539255766147448e-12 	101324.9999999926
0.3616116116116112 	299.9999999999533 	1.03818094714594e-12 	101324.9999999925
0.3641141141141137 	299.9999999999495 	2.899974244479006e-12 	101324.9999999924
0.3666166166166161 	299.9999999999447 	1.004427311272874e-12 	101324.9999999924
0.3691191191191185 	300.0000000000256 	3.732231342373315e-12 	101324.9999999924
0.371621621621621 	300.0000000000101 	9.663280287703252e-13 	101324.9999999925
0.3741241241241237 	300.0000000000328 	2.753245349902576e-12 	101324.9999999926
0.3766266266266261 	300.000000000016 	5.590398188138515e-13 	101324.9999999927
0.3791291291291286 	299.9999999999879 	2.419604930466714e-12 	101324.999999993
0.3816316316316311 	299.9999999999425 	9.704551459652972e-13 	101324.9999999932
0.3841341341341336 	300.0000000000066 	1.788271854256583e-12 	101324.9999999932
0.3866366366366362 	299.9999999999972 	5.014654441173548e-13 	101324.9999999931
0.3891391391391387 	299.9999999999688 	1.378503807034593e-12 	101324.9999999931
0.391641641641641 	299.9999999999966 	5.144312854934285e-13 	101324.9999999932
0.3941441441441436 	300.0000000000062 	8.571133530226767e-13 	101324.999999993
0.3966466466466462 	299.9999999999984 	3.843778965306537e-13 	101324.9999999928
0.3991491491491486 	299.9999999999637 	8.61039621625766e-13 	101324.9999999926
0.4016516516516512 	299.9999999999397 	8.166428574172217e-13 	101324.9999999926
0.4041541541541536 	299.9999999999609 	1.160135242601784e-12 	101324.9999999929
0.4066566566566561 	299.9999999999615 	1.328901619784031e-12 	101324.9999999931
0.4091591591591587 	299.9999999999951 	1.187741103000111e-12 	101324.9999999931
0.4116616616616612 	300.0000000000055 	8.011123095899449e-13 	101324.9999999931
0.4141641641641635 	300.0000000000244 	6.617586667341312e-13 	101324.9999999932
0.4166666666666662 	299.9999999999971 	5.470255859793451e-13 	101324.999999993
0.4191691691691687 	299.9999999999578 	5.724440937196032e-13 	101324.9999999931
0.421671671671671 	300.0000000000057 	1.832919014568182e-12 	101324.9999999929
0.4241741741741737 	299.9999999999816 	1.938629037861814e-12 	101324.9999999927
0.4266766766766761 	299.9999999999627 	2.635201559332256e-12 	101324.9999999925
0.4291791791791785 	300.0000000000168 	2.496129793943813e-12 	101324.9999999928
0.4316816816816812 	300.0000000000096 	2.685794801031031e-12 	101324.9999999931
0.4341841841841836 	299.9999999999878 	2.638092733720458e-12 	101324.999999993
0.4366866866866862 	299.99999999994 	1.373121827784341e-12 	101324.999999993
0.4391891891891885 	299.9999999999929 	1.774954928179594e-12 	101324.9999999931
0.4416916916916913 	299.9999999999891 	7.813548067758165e-13 	101324.9999999931
0.4441941941941936 	299.999999999993 	1.002064642702874e-12 	101324.9999999929
0.4466966966966961 	299.999999999942 	2.532618553956981e-13 	101324.9999999929
0.4491991991991987 	299.9999999999862 	1.650687856214485e-13 	101324.9999999928
0.4517017017017012 	299.9999999999848 	5.378841177595498e-13 	101324.9999999927
0.4542042042042035 	299.9999999999877 	3.822772047280374e-13 	101324.9999999927
0.4567067067067062 	299.9999999999977 	8.083899421729757e-13 	101324.9999999925
0.4592092092092087 	299.9999999999486 	4.809065734788383e-13 	101324.9999999925
0.4617117117117112 	300.0000000000136 	7.5849499372795e-13 	101324.9999999925
0.4642142142142137 	299.9999999999735 	9.909403715371429e-13 	101324.9999999923
0.4667167167167162 	299.9999999999919 	1.417703627121049e-12 	101324.9999999924
0.4692192192192187 	299.9999999999699 	1.900995291086268e-12 	101324.9999999925
0.4717217217217212 	300.0000000000054 	1.519554065406273e-12 	101324.9999999927
0.4742242242242236 	299.9999999999677 	1.597573043398228e-12 	101324.9999999928
0.4767267267267262 	299.9999999999771 	1.31701689549138e-12 	101324.9999999929
0.4792292292292287 	300.0000000000103 	1.377449257183568e-12 	101324.9999999931
0.4817317317317312 	300.0000000000231 	1.209051378112836e-12 	101324.9999999934
0.4842342342342336 	299.9999999999879 	1.50622423313253e-12 	101324.9999999937
0.4867367367367362 	299.9999999999676 	1.797466271959827e-12 	101324.9999999937
0.4892392392392387 	300.0000000000229 	1.321047855493371e-12 	101324.9999999937
0.4917417417417412 	300.0000000000047 	2.64364030658394e-12 	101324.9999999936
0.4942442442442437 	299.9999999999355 	1.453879661503029e-12 	101324.9999999936
0.4967467467467462 	299.9999999999487 	3.183103989990756e-12 	101324.9999999937
0.4992492492492487 	299.9999999999455 	1.768286275451517e-12 	101324.9999999935
0.5017517517517511 	299.9999999999682 	3.364816553028424e-12 	101324.9999999932
0.5042542542542537 	299.9999999999742 	2.642635811083215e-12 	101324.9999999931
0.5067567567567562 	299.9999999999636 	2.872377571866976e-12 	101324.9999999931
0.5092592592592589 	299.9999999999793 	2.165545901619941e-12 	101324.9999999929
0.5117617617617611 	299.9999999999694 	8.807555600811227e-13 	101324.999999993
0.5142642642642637 	299.9999999999893 	2.199629984873735e-12 	101324.999999993
0.5167667667667663 	299.9999999999795 	1.579482680528834e-12 	101324.9999999928
0.5192692692692688 	299.9999999999459 	3.56820840045988e-12 	101324.9999999929
0.5217717717717714 	299.9999999999563 	2.46441594873552e-12 	101324.9999999931
0.5242742742742736 	299.9999999999558 	2.649100267057519e-12 	101324.9999999931
0.5267767767767763 	299.9999999999692 	2.075926404037785e-12 	101324.9999999933
0.5292792792792789 	299.9999999999549 	1.903991902819489e-12 	101324.9999999933
0.5317817817817813 	299.9999999999369 	8.062088255570153e-13 	101324.9999999933
0.5342842842842837 	300.0000000000137 	1.46570035487963e-12 	101324.9999999936
0.5367867867867864 	300.0000000000025 	8.054196365222543e-13 	101324.9999999938
0.5392892892892888 	299.9999999999709 	1.094822134093709e-12 	101324.9999999939
0.5417917917917912 	300.0000000000041 	6.448935112640166e-13 	101324.9999999939
0.5442942942942938 	299.9999999999884 	1.587716345533081e-12 	101324.9999999937
0.5467967967967964 	299.9999999999678 	1.436169658611049e-12 	101324.9999999935
0.5492992992992988 	299.9999999999595 	1.978801508930489e-12 	101324.9999999935
0.5518018018018012 	299.9999999999535 	1.027003904947748e-12 	101324.9999999934
0.5543043043043039 	300.0000000000158 	1.405893545740609e-12 	101324.9999999935
0.5568068068068063 	299.9999999999931 	1.480592250455072e-12 	101324.9999999936
0.5593093093093087 	299.9999999999314 	2.684076692456636e-12 	101324.9999999936
0.5618118118118114 	299.9999999999745 	1.488834019535934e-12 	101324.9999999935
0.5643143143143137 	299.9999999999607 	2.362635312965147e-12 	101324.9999999934
0.5668168168168163 	299.9999999999947 	1.293005359094715e-12 	101324.9999999935
0.5693193193193188 	300.0000000000241 	1.775268220125711e-12 	101324.9999999934
0.5718218218218213 	300.0000000000199 	1.810144975721279e-12 	101324.9999999933
0.5743243243243239 	300.0000000000069 	1.390311271471106e-12 	101324.9999999932
0.5768268268268262 	300.0000000000055 	2.433052376387079e-12 	101324.9999999933
0.5793293293293288 	299.9999999999649 	1.315221936804766e-12 	101324.9999999933
0.5818318318318314 	299.9999999999421 	3.299370913720869e-12 	101324.9999999933
0.5843343343343338 	299.9999999999846 	1.919282483900841e-12 	101324.9999999934
0.5868368368368363 	299.9999999999808 	2.942752832186248e-12 	101324.9999999936
0.5893393393393387 	299.9999999999613 	1.099075164554916e-12 	101324.9999999936
0.5918418418418413 	299.9999999999578 	1.835701828046717e-12 	101324.9999999936
0.5943443443443439 	300.0000000000088 	1.031656265806171e-12 	101324.9999999936
0.5968468468468463 	300.0000000000115 	2.23929552032744e-12 	101324.9999999934
0.5993493493493487 	300.0000000000293 	1.34726693723172e-12 	101324.9999999931
0.6018518518518514 	299.9999999999873 	1.774505873618925e-12 	101324.999999993
0.6043543543543537 	299.9999999999966 	7.413776863710594e-13 	101324.999999993
0.6068568568568564 	299.9999999999876 	1.224616770320539e-12 	101324.9999999932
0.6093593593593587 	299.9999999999521 	9.445016999967931e-13 	101324.9999999934
0.6118618618618614 	299.9999999999459 	1.154112412650898e-12 	101324.9999999935
0.6143643643643638 	300.0000000000097 	1.041270743639962e-12 	101324.9999999936
0.6168668668668662 	299.999999999988 	2.144650469232659e-12 	101324.9999999938
0.6193693693693688 	299.9999999999708 	1.313957063473698e-12 	101324.9999999941
0.6218718718718714 	299.9999999999789 	2.880448853156073e-12 	101324.9999999939
0.6243743743743737 	299.9999999999557 	1.272900183411863e-12 	101324.9999999938
0.6268768768768762 	299.9999999999453 	2.309896546135852e-12 	101324.9999999936
0.629379379379379 	299.9999999999651 	1.681817043157166e-12 	101324.9999999937
0.6318818818818812 	299.9999999999813 	2.878140126826399e-12 	101324.9999999936
0.6343843843843838 	300.0000000000114 	2.98429782031401e-12 	101324.9999999935
0.6368868868868864 	299.9999999999876 	2.796268829595155e-12 	101324.9999999933
0.6393893893893888 	299.999999999949 	3.507090640554571e-12 	101324.9999999932
0.6418918918918912 	300.0000000000087 	1.785565944845347e-12 	101324.9999999931
0.6443943943943939 	299.999999999996 	4.365910420745042e-12 	101324.9999999932
0.6468968968968963 	299.9999999999904 	2.177211155313507e-12 	101324.9999999933
0.6493993993993988 	299.9999999999813 	4.397886149619178e-12 	101324.9999999933
0.6519019019019012 	299.9999999999793 	2.757439593910317e-12 	101324.9999999932
0.6544044044044038 	299.9999999999326 	6.541548959643641e-12 	101324.9999999925
0.6569069069069065 	299.999999999966 	7.852762172463376e-12 	101324.9999999911
0.6594094094094087 	299.9999999999667 	1.731989968676111e-11 	101324.9999999879
0.6619119119119113 	299.9999999999569 	3.347361690255614e-11 	101324.9999999811
0.664414414414414 	299.9999999999792 	7.275096107717051e-11 	101324.9999999664
0.6669169169169162 	299.9999999999634 	1.518929239187274e-10 	101324.9999999353
0.6694194194194188 	299.9999999998846 	3.192818859257708e-10 	101324.9999998702
0.6719219219219214 	299.9999999997279 	6.618579461804279e-10 	101324.9999997355
0.674424424424424 	299.9999999995295 	1.366068471749161e-09 	101324.9999994593
0.6769269269269262 	299.9999999990154 	2.795052304375977e-09 	101324.9999988978
0.679429429429429 	299.99999999812 	5.674099552862177e-09 	101324.9999977663
0.6819319319319311 	299.9999999961905 	1.141753536073815e-08 	101324.9999955062
0.6844344344344341 	299.9999999924174 	2.277447475404217e-08 	101324.9999910339
0.686936936936936 	299.9999999850002 	4.501802207509563e-08 	101324.9999822656
0.6894394394394392 	299.9999999705933 	8.817848105807788e-08 	101324.9999652373
0.6919419419419413 	299.9999999428892 	1.711129672888204e-07 	101324.9999324861
0.694444444444444 	299.9999998900988 	3.289142799306543e-07 	101324.9998701118
0.6969469469469463 	299.9999997906185 	6.261605483355925e-07 	101324.9997525088
0.6994494494494489 	299.9999996049735 	1.180356623300894e-06 	101324.9995330385
0.7019519519519515 	299.9999992621935 	2.202837232473913e-06 	101324.9991277331
0.7044544544544538 	299.9999986358085 	4.069168569961616e-06 	101324.9983872128
0.7069569569569564 	299.9999975038996 	7.438613546006583e-06 	101324.9970489789
0.7094594594594589 	299.9999954811123 	1.345379025903923e-05 	101324.994657571
0.7119619619619615 	299.9999919077467 	2.406923004046475e-05 	101324.9904330226
0.7144644644644638 	299.9999856693533 	4.258307621345967e-05 	101324.9830576781
0.7169669669669665 	299.9999749092858 	7.448269888199721e-05 	101324.9703366871
0.7194694694694688 	299.999956580253 	0.0001287646051034906 	101324.9486672739
0.7219719719719715 	299.9999257558546 	0.0002199540121975961 	101324.9122254253
0.7244744744744737 	299.9998745992248 	0.0003711287998551093 	101324.8517460737
0.7269769769769764 	299.9997908511854 	0.0006183417264235533 	101324.7527360892
0.7294794794794791 	299.999655672773 	0.001016920386866781 	101324.592923569
0.7319819819819813 	299.9994406543364 	0.001650181503793427 	101324.3387221203
0.7344844844844839 	299.9991038070269 	0.002641082000913843 	101323.9404922403
0.7369869869869864 	299.998584401151 	0.004167179837252562 	101323.3264395713
0.739489489489489 	299.9977966396953 	0.006478905634446266 	101322.3951374626
0.7419919919919914 	299.9966223946481 	0.009920446548874882 	101321.0069422651
0.7444944944944939 	299.9949036189568 	0.01495141113321113 	101318.9750284777
0.7469969969969963 	299.9924356129458 	0.02216580539715962 	101316.057438814
0.7494994994994989 	299.9889630618242 	0.03230272252262984 	101311.9524175526
0.7520020020020015 	299.9841816125543 	0.04624071185416413 	101306.3003037705
0.7545045045045039 	299.9777485813488 	0.06496547407207243 	101298.696232194
0.7570070070070062 	299.9693069214237 	0.08949906922485973 	101288.7185214914
0.7595095095095092 	299.9585264664664 	0.1207792799440957 	101275.9774869901
0.7620120120120112 	299.945165255667 	0.1594814187702525 	101260.1879683413
0.7645145145145138 	299.9291509972022 	0.2057829496028415 	101241.2655934744
0.7670170170170165 	299.9106781393044 	0.2590846604967679 	101219.4413596592
0.7695195195195191 	299.8903095154567 	0.3177237822195169 	101195.3814319205
0.7720220220220213 	299.8690575819851 	0.3787659918917002 	101170.2826246942
0.7745245245245239 	299.8483820686553 	0.4380502700001433 	101145.8690432132
0.7770270270270263 	299.8300264145998 	0.4906505781241969 	101124.1985070036
0.779529529529529 	299.8157103486369 	0.53172019453285 	101107.299641457
0.7820320320320313 	299.8067683133669 	0.5575019719655043 	101096.7456067203
0.784534534534534 	299.8038219671452 	0.5662562258214455 	101093.26760288
0.7870370370370364 	299.8065569630681 	0.5588872161261307 	101096.4947497029
0.7895395395395389 	299.8136704922427 	0.5390927376153981 	101104.8931627282
0.7920420420420413 	299.8230309029542 	0.5129401343806942 	101115.9429690098
0.794544544544544 	299.8320228349846 	0.4877797776061898 	101126.5579217936
0.7970470470470463 	299.8381928931883 	0.4704098921102235 	101133.8417562916
0.799549549549549 	299.840065499441 	0.464910715374293 	101136.0529602612
0.8020520520520515 	299.8376815001906 	0.4712168886962309 	101133.2389643647
0.8045545545545539 	299.8325393449221 	0.4852184301796207 	101127.1665943847
0.8070570570570563 	299.8270204574624 	0.5003317187854367 	101120.6512369967
0.8095595595595589 	299.8234958915273 	0.5100713267333596 	101116.4907623981
0.8120620620620614 	299.8232970205152 	0.5107975793147154 	101116.2553683997
0.8145645645645638 	299.8261205115132 	0.5032791240592933 	101119.5885246241
0.8170670670670666 	299.8302589347512 	0.4921221460978996 	101124.4751179346
0.8195695695695689 	299.8334940632175 	0.4833276325927504 	101128.294240258
0.8220720720720714 	299.8342596693748 	0.4811065027742038 	101129.1984048067
0.8245745745745739 	299.8325091346277 	0.485627593261359 	101127.1319825843
0.8270770770770765 	299.829662612457 	0.4931382743597741 	101123.7705817341
0.8295795795795788 	299.8276709503056 	0.4984512958599976 	101121.4193230718
0.8320820820820815 	299.827768925909 	0.4982858885635004 	101121.5347099215
0.834584584584584 	299.8296885340393 	0.4932983378837609 	101123.8009518666
0.8370870870870865 	299.8319438406883 	0.487363893501962 	101126.4639728842
0.8395895895895891 	299.8329540812308 	0.4846240170299275 	101127.6568573543
0.8420920920920915 	299.8322060837843 	0.4864458075347873 	101126.773973398
0.844594594594594 	299.8305802074154 	0.4905891553879913 	101124.8540140414
0.8470970970970964 	299.8295573611974 	0.4932366846076754 	101123.6462036612
0.8495995995995991 	299.8299783311828 	0.4922033719881443 	101124.1430260342
0.8521021021021015 	299.8313820325524 	0.48862453147605 	101125.8006017836
0.8546046046046039 	299.8325085699025 	0.4856984754443583 	101127.1305181015
0.8571071071071066 	299.8324756469523 	0.4856817573015165 	101127.0918981141
0.8596096096096089 	299.8315578972555 	0.4879204390571734 	101126.0085757654
0.8621121121121116 	299.8308333791554 	0.4897239847342189 	101125.1526419326
0.8646146146146139 	299.8310737712872 	0.4891398110751556 	101125.4361925402
0.8671171171171166 	299.8320062834072 	0.4868083068767889 	101126.5375553335
0.8696196196196189 	299.8326856472137 	0.4850623082330837 	101127.339663984
0.8721221221221216 	299.8325371223805 	0.4853417159973452 	101127.164332125
0.874624624624624 	299.8319370798104 	0.4867554369080568 	101126.4559578627
0.8771271271271264 	299.8317119474073 	0.4872901776069528 	101126.1898544803
0.879629629629629 	299.8321700045539 	0.4861683126946581 	101126.7304513972
0.8821321321321317 	299.8328000659793 	0.4845986133094466 	101127.4747094895
0.8846346346346339 	299.8329527851195 	0.4841537903983896 	101127.6550263731
0.8871371371371364 	299.8326276199675 	0.4848632983288714 	101127.2711207974
0.8896396396396391 	299.8324075531006 	0.4853526700095091 	101127.011138898
0.8921421421421414 	299.8326708997195 	0.484706224128924 	101127.3218220624
0.8946446446446441 	299.833133191856 	0.4835684325654487 	101127.8678708431
0.8971471471471464 	299.8332896013846 	0.4831276014485171 	101128.0526332
0.8996496496496489 	299.8331043619745 	0.4834915278226657 	101127.8338086183
0.9021521521521517 	299.833005895983 	0.4836771439559109 	101127.7174823645
0.9046546546546541 	299.8332462701782 	0.483085632322943 	101128.001263521
0.9071571571571564 	299.8335706594066 	0.4822828972209258 	101128.3842355877
0.9096596596596589 	299.8336397336736 	0.482050233415393 	101128.4659092115
0.9121621621621616 	299.8335298151089 	0.482235047380302 	101128.3361120682
0.9146646646646639 	299.8335695086888 	0.4820983998604134 	101128.3827340549
0.9171671671671666 	299.8338168323133 	0.4814911882502738 	101128.6748678709
0.9196696696696689 	299.8340063374491 	0.4809977111843153 	101128.8987357651
0.9221721721721714 	299.8340001755807 	0.4809377540144466 	101128.8911647846
0.9246746746746741 	299.8339868694953 	0.4809060314075396 	101128.8755752599
0.9271771771771765 	299.8341388350303 	0.4805168841879063 	101129.0550961282
0.9296796796796791 	299.8343352029478 	0.48002090929649 	101129.2867632453
0.9321821821821816 	299.8344000670181 	0.4798031365398503 	101129.3633609819
0.9346846846846838 	299.8344033567716 	0.4797258421914347 	101129.3673512342
0.9371871871871866 	299.8345084768737 	0.4794381007704924 	101129.4913116423
0.9396896896896891 	299.8346785242637 	0.4790059690539475 	101129.6920830681
0.9421921921921914 	299.8347693418824 	0.4787346048223449 	101129.7993436583
0.9446946946946939 	299.8347990150388 	0.4785965838110326 	101129.8343186129
0.9471971971971965 	299.8348920262014 	0.4783323934756729 	101129.9441725751
0.9496996996996991 	299.8350381355053 	0.4779543825374509 	101130.1167003294
0.9522022022022016 	299.8351310161539 	0.4776810722165361 	101130.2262292482
0.9547047047047038 	299.8351802598918 	0.4774999473739832 	101130.2844827307
0.9572072072072064 	299.8352764018191 	0.4772281891540819 	101130.3979749882
0.9597097097097093 	299.8354053654629 	0.4768872552926092 	101130.550117874
0.9622122122122114 	299.8354916136693 	0.4766282422903708 	101130.6520063896
0.964714714714714 	299.8355556982883 	0.4764166046938869 	101130.727733221
0.9672172172172167 	299.8356587442173 	0.4761310060698885 	101130.8492259872
0.969719719719719 	299.8357731566218 	0.4758196562321145 	101130.9843600464
0.9722222222222214 	299.8358527797342 	0.4755744931702499 	101131.0784523989
0.9747247247247239 	299.8359306931997 	0.4753361491809481 	101131.1702477804
0.9772272272272267 	299.836037698882 	0.4750422063450835 	101131.2966170723
0.9797297297297292 	299.836138067456 	0.4747580186724719 	101131.4152701506
0.9822322322322313 	299.8362161618175 	0.4745169057825193 	101131.5073299207
0.9847347347347344 	299.8363067745231 	0.4742546199530819 	101131.6142258729
0.9872372372372363 	299.8364114004283 	0.4739647939692976 	101131.7379095674
0.9897397397397389 	299.8365004239165 	0.4737026452486397 	101131.8429145644
0.9922422422422417 	299.8365837167199 	0.4734525577700966 	101131.9411856941
0.9947447447447441 	299.8366822289403 	0.4731753780123978 	101132.0575671057
0.9972472472472468 	299.8367786874707 	0.4729006533542044 	101132.171372233
0.999749749749749 	299.8368632426379 	0.4726472767115536 	101132.2712347647
1.002252252252252 	299.8369551788376 	0.4723820085651286 	101132.3798857182
1.004754754754754 	299.8370532113667 	0.4721058271820858 	101132.49541991
1.007257257257256 	299.8371416723657 	0.4718454859415198 	101132.5998455586
1.009759759759759 	299.8372302022691 	0.4715857280796965 	101132.7045872301
1.012262262262261 	299.8373265328521 	0.4713132340783538 	101132.8181308422
1.014764764764764 	299.8374179609089 	0.4710482401025124 	101132.9259460587
1.017267267267267 	299.8375058742416 	0.4707893712519325 	101133.0299341068
1.019769769769769 	299.8375999640216 	0.470520970025406 	101133.140966117
1.022272272272272 	299.8376926519508 	0.4702544114452721 	101133.2502650258
1.024774774774774 	299.837781021849 	0.4699948397502366 	101133.3547769988
1.027277277277277 	299.8378735151667 	0.469729313473836 	101133.4639461712
1.029779779779779 	299.8379664099382 	0.469462844976181 	101133.5734624351
1.032282282282282 	299.83805551069 	0.4692022145553967 	101133.6787229473
1.034784784784784 	299.8381470605434 	0.4689383550134867 	101133.7868382089
1.037287287287286 	299.8382395776328 	0.4686729776027769 	101133.8959873303
1.039789789789789 	299.8383291466849 	0.4684119083218724 	101134.0017523942
1.042292292292291 	299.8384202159646 	0.4681488665232728 	101134.1093287579
1.044794794794794 	299.8385123108544 	0.4678845891430576 	101134.2179494974
1.047297297297296 	299.8386021621415 	0.4676236357537586 	101134.3239972835
1.049799799799799 	299.8386929707899 	0.4673612256644845 	101134.4313369624
1.052302302302302 	299.8387846358469 	0.467097823725313 	101134.539407169
1.054804804804804 	299.8388745915985 	0.4668369134009799 	101134.6455359096
1.057307307307306 	299.8389651877032 	0.4665750019813661 	101134.7527345621
1.059809809809809 	299.8390563787527 	0.4663126465949271 	101134.8602718569
1.062312312312312 	299.8391463930846 	0.4660521058810319 	101134.9664044025
1.064814814814814 	299.8392369950295 	0.465790742878 	101135.0734939102
1.067317317317317 	299.8393276552908 	0.4655293749167626 	101135.1805296065
1.069819819819819 	299.8394176095912 	0.4652691781029779 	101135.2866423425
1.072322322322321 	299.8395081754062 	0.4650082905194791 	101135.3935980956
1.074824824824824 	299.8395984143035 	0.4647477946307845 	101135.5001945845
1.077327327327327 	299.8396883909801 	0.4644879685586393 	101135.6063147108
1.079829829829829 	299.8397788514002 	0.4642277744811099 	101135.7130576579
1.082332332332332 	299.8398686906153 	0.4639683041383001 	101135.8192549592
1.084834834834834 	299.8399586944735 	0.4637089597172228 	101135.9253700469
1.087337337337337 	299.8400489559348 	0.463449194830292 	101136.0318172333
1.089839839839839 	299.840138512223 	0.4631901904850729 	101136.1377419616
1.092342342342342 	299.8402284296839 	0.4629314614692605 	101136.2438558362
1.094844844844844 	299.840318389539 	0.4626727406133255 	101136.3499722937
1.097347347347347 	299.8404079175336 	0.4624143301110754 	101136.4557306872
1.099849849849849 	299.8404975823609 	0.4621559242378549 	101136.5617191392
1.102352352352352 	299.8405873105431 	0.4618979479712557 	101136.6674745182
1.104854854854854 	299.8406769204652 	0.4616402667224133 	101136.7731347314
1.107357357357357 	299.8407663590315 	0.4613825872206151 	101136.8789089806
1.109859859859859 	299.8408557614754 	0.4611253041022004 	101136.9844218769
1.112362362362362 	299.8409453148795 	0.4608682403874834 	101137.0900103044
1.114864864864865 	299.841034657092 	0.4606113196143 	101137.1955100178
1.117367367367367 	299.8411238362908 	0.4603546257922281 	101137.3008649759
1.119869869869869 	299.8412131939571 	0.4600982578978068 	101137.4062773282
1.122372372372372 	299.8413023737212 	0.4598423045860777 	101137.5115138465
1.124874874874874 	299.8413914197127 	0.4595864149460706 	101137.6167565151
1.127377377377377 	299.8414806114546 	0.4593306030414786 	101137.7219386046
1.129879879879879 	299.8415697036718 	0.4590750336459657 	101137.8270053827
1.132382382382382 	299.8416586291236 	0.4588198586593559 	101137.9320781617
1.134884884884884 	299.8417474481756 	0.4585651233888578 	101138.0370176521
1.137387387387387 	299.8418363511832 	0.458310424719487 	101138.1419381548
1.139889889889889 	299.84192524196 	0.4580559236100016 	101138.2467833772
1.142392392392392 	299.8420140316265 	0.4578018252238046 	101138.3515499689
1.144894894894894 	299.8421027819005 	0.4575480371655374 	101138.4562980888
1.147397397397397 	299.8421914460282 	0.4572945551160786 	101138.5609537209
1.149899899899899 	299.842280083436 	0.4570411689223789 	101138.6655866335
1.152402402402402 	299.8423686101426 	0.4567881440950986 	101138.7701317515
1.154904904904904 	299.8424571954589 	0.4565356851510433 	101138.8746151835
1.157407407407407 	299.8425457217078 	0.4562834869183298 	101138.9790413913
1.159909909909909 	299.8426340812527 	0.4560314012947177 	101139.0833996146
1.162412412412412 	299.8427224639656 	0.4557795340857134 	101139.1877275303
1.164914914914914 	299.8428107851424 	0.455528055648407 	101139.2919826751
1.167417417417417 	299.8428990770487 	0.4552770473339438 	101139.3961912655
1.169919919919919 	299.8429872587822 	0.4550265587700589 	101139.5003262424
1.172422422422422 	299.843075466956 	0.4547763406839476 	101139.6044089765
1.174924924924925 	299.8431637213877 	0.4545263155164156 	101139.7084357681
1.177427427427427 	299.8432518727341 	0.454276727760345 	101139.8124060204
1.179929929929929 	299.8433398808963 	0.4540274688900735 	101139.9163310226
1.182432432432432 	299.8434278505413 	0.4537786963322694 	101140.0201963789
1.184934934934934 	299.8435158607866 	0.4535305709391976 	101140.1240130502
1.187437437437437 	299.8436038968914 	0.4532826660321705 	101140.2277687141
1.189939939939939 	299.843691730392 	0.4530350107579508 	101140.3314832338
1.192442442442442 	299.8437793800952 	0.4527879167103862 	101140.4351532272
1.194944944944944 	299.8438672859466 	0.4525413003583734 	101140.5387842668
1.197447447447447 	299.8439552420191 	0.4522952425067348 	101140.642362107
1.199949949949949 	299.8440431139932 	0.452049863311076 	101140.7458807394
1.202452452452452 	299.8441307477211 	0.4518047698272333 	101140.8493426254
1.204954954954955 	299.8442182440677 	0.4515600899855799 	101140.9527607919
1.207457457457457 	299.8443058921419 	0.4513161608881334 	101141.0561497734
1.20995995995996 	299.8443936397229 	0.4510728580286456 	101141.1595124343
1.212462462462462 	299.8444813458065 	0.4508294964122074 	101141.2628483316
1.214964964964964 	299.8445691007439 	0.4505879787601761 	101141.3661467584
1.217467467467467 	299.8446567175789 	0.4503444026735638 	101141.4694009512
1.219969969969969 	299.8447440863081 	0.4501068909061628 	101141.5726139194
1.222472472472472 	299.8448316123066 	0.4498547306647877 	101141.6757866044
1.224974974974975 	299.8449192331597 	0.449643427972455 	101141.7789661969
1.227477477477477 	299.8450068564916 	0.4493152561970988 	101141.8820538203
1.229979979979979 	299.8450947327024 	0.4493067113348243 	101141.9854357554
1.232482482482482 	299.8451819395129 	0.4480015271978817 	101142.0876978527
1.234984984984984 	299.8452705421008 	0.4495339232581331 	101142.1927908426
1.237487487487487 	299.8453594612914 	0.4467719355157374 	101142.2944624361
1.239989989989989 	299.8454403842431 	0.4488534658179796 	101142.3946127261
1.242492492492492 	299.845539102235 	0.4487288655181643 	101142.502717822
1.244994994994994 	299.8443035409762 	0.4450848786052174 	101142.5962503606
1.247497497497497 	299.2980768914293 	0.4486230727055498 	101142.7024493173
1.249999999999999 	302.7206960656305 	0.4471194849207353 	101142.8073602392
