-1.25 	300 	0.07300477039275502 	101354.3892626146
-1.247497497497497 	300.0286039110346 	0.08138489070962708 	101359.9657430349
-1.244994994994995 	300.0333358391704 	0.09649104082007162 	101364.4087492074
-1.242492492492492 	300.0366413598387 	0.1065881545151896 	101368.3208859397
-1.23998998998999 	300.0392824198244 	0.1134195862925522 	101371.4466074033
-1.237487487487487 	300.0411428153151 	0.1189434203892086 	101373.6466398412
-1.234984984984985 	300.0422192918317 	0.1220907952182268 	101374.9197887608
-1.232482482482482 	300.0426070417037 	0.1231530312557287 	101375.3783686372
-1.22997997997998 	300.0422261219928 	0.1220094457606414 	101374.9278981188
-1.227477477477477 	300.0410098511977 	0.1185324433778729 	101373.4896470544
-1.224974974974975 	300.0390086356654 	0.1127627106804767 	101371.1231524838
-1.222472472472472 	300.0362777118393 	0.104856978420297 	101367.8937399158
-1.21996996996997 	300.0328580710496 	0.09494983448458486 	101363.8499813973
-1.217467467467467 	300.0288313756907 	0.08332811445934603 	101359.0884814334
-1.214964964964965 	300.0243181176203 	0.0702770977941318 	101353.7518001013
-1.212462462462462 	300.019391843523 	0.05601959661183521 	101347.92696408
-1.20995995995996 	300.014118265705 	0.0407876501585998 	101341.6917410304
-1.207457457457457 	300.0086045402865 	0.02482334432949874 	101335.1728651469
-1.204954954954955 	300.0029330102172 	0.008445604314944209 	101328.4677076635
-1.202452452452452 	299.9971836196921 	0.008630629937316083 	101321.6708105276
-1.19994994994995 	299.9914744205307 	0.02467553789813987 	101314.9217642759
-1.197447447447447 	299.9859222435901 	0.04073455244970339 	101308.358615621
-1.194944944944945 	299.9806098389378 	0.05611647127480462 	101302.079178843
-1.192442442442442 	299.9756097060044 	0.07055096024975652 	101296.1691279132
-1.18993993993994 	299.9710562392451 	0.08368483165820226 	101290.787186075
-1.187437437437437 	299.9670776816939 	0.09522094547890633 	101286.0849336452
-1.184934934934935 	299.9637304080712 	0.1048882837560902 	101282.1288866933
-1.182432432432432 	299.9610542341241 	0.1125865819796422 	101278.9660531463
-1.17992992992993 	299.9590912624712 	0.1182489913896764 	101276.6461428366
-1.177427427427427 	299.9578503643932 	0.1218181874921469 	101275.1795353012
-1.174924924924925 	299.9573737366344 	0.1231961799869766 	101274.6162303725
-1.172422422422422 	299.9577159073182 	0.1222162020275666 	101275.0205620005
-1.16991991991992 	299.9588715627201 	0.1188675295761211 	101276.3862109628
-1.167417417417417 	299.960808251301 	0.1132452328096911 	101278.6749254419
-1.164914914914915 	299.9634917235624 	0.1055414710299551 	101281.8462221234
-1.162412412412412 	299.966831308755 	0.09593507553589266 	101285.7930557705
-1.15990990990991 	299.9707456291911 	0.08457371066471503 	101290.4192760224
-1.157407407407407 	299.9751746989327 	0.07172295739036104 	101295.6540524152
-1.154904904904904 	299.9800522278635 	0.05756706758024432 	101301.4191292323
-1.152402402402403 	299.98530716279 	0.04238173785082598 	101307.63053122
-1.1498998998999 	299.9908373460046 	0.02650217436470291 	101314.1676108011
-1.147397397397397 	299.9964790702509 	0.01016017071899696 	101320.8368606251
-1.144894894894895 	300.002142823622 	0.008667281487803156 	101327.5324648095
-1.142392392392392 	300.0078019269799 	0.02263920633546567 	101334.222917562
-1.13988988988989 	300.0133698872285 	0.03872030168554325 	101340.8059099023
-1.137387387387387 	300.0187268485091 	0.05417284282896345 	101347.1397565556
-1.134884884884885 	300.0237394658997 	0.06864357717804676 	101353.0667330092
-1.132382382382382 	300.0282926534163 	0.08181278878326745 	101358.4506949932
-1.12987987987988 	300.0323083651282 	0.09342565229268179 	101363.1993096793
-1.127377377377377 	300.0357335690562 	0.1033512994398394 	101367.2497594421
-1.124874874874875 	300.038523969858 	0.1114227765158639 	101370.5496363096
-1.122372372372372 	300.0406284011344 	0.1174860595723739 	101373.0383695315
-1.11986986986987 	300.0419887389864 	0.1214033724349991 	101374.6471817619
-1.117367367367367 	300.0425601458922 	0.1230262619142915 	101375.3229934127
-1.114864864864865 	300.0423174055666 	0.1223122453574311 	101375.0359402473
-1.112362362362362 	300.0412652209098 	0.1192733259930268 	101373.7917244588
-1.10985985985986 	300.0394446134172 	0.1140030163239106 	101371.6388036638
-1.107357357357357 	300.0369031756949 	0.1066492156290574 	101368.6334537851
-1.104854854854855 	300.0336819525234 	0.09733805628655981 	101364.8242931194
-1.102352352352353 	300.0298373175746 	0.08623959369870436 	101360.2780364908
-1.09984984984985 	300.0254393503702 	0.07353051285331703 	101355.0776444431
-1.097347347347347 	300.0205750866132 	0.05946676868448593 	101349.3260729863
-1.094844844844845 	300.0153538730378 	0.04436171127578963 	101343.1527046474
-1.092342342342342 	300.0098751444507 	0.02850330381677917 	101336.6751357336
-1.08983983983984 	300.0042310210248 	0.01220316877447216 	101330.0023071909
-1.087337337337337 	299.9985150475717 	0.0087310940430111 	101323.2448576896
-1.084834834834835 	299.9927945934194 	0.02090865187476128 	101316.482417643
-1.082332332332332 	299.9871686167103 	0.03715701722226336 	101309.831975125
-1.07982982982983 	299.981770428304 	0.05274643110371921 	101303.45108307
-1.077327327327327 	299.9767145993929 	0.0673268744834902 	101297.4751169229
-1.074824824824825 	299.9721096261528 	0.08063414065972135 	101292.032269095
-1.072322322322323 	299.9680348303247 	0.09245923211772206 	101287.2162331205
-1.06981981981982 	299.9645364315949 	0.1025688561652429 	101283.0815549343
-1.067317317317317 	299.9616728812293 	0.1108093916549787 	101279.6972681777
-1.064814814814815 	299.9595135099008 	0.1170319122797038 	101277.1452263899
-1.062312312312312 	299.9581100443029 	0.1210801999291059 	101275.4864924111
-1.05980980980981 	299.9575088362015 	0.1228476588208242 	101274.7759498424
-1.057307307307307 	299.9577165133491 	0.1222643967509152 	101275.0213555899
-1.054804804804805 	299.9587013166616 	0.1193660519681443 	101276.1851025255
-1.052302302302302 	299.9604477605903 	0.1142868837755514 	101278.248964828
-1.0497997997998 	299.9629311666905 	0.1071584183766229 	101281.1838230761
-1.047297297297297 	299.9660859864125 	0.09805967804922353 	101284.9122607857
-1.044794794794795 	299.9698604500006 	0.08711429999017535 	101289.373155363
-1.042292292292292 	299.9741828142604 	0.07458190882736002 	101294.4817761535
-1.03978978978979 	299.9789588655414 	0.06073387998060108 	101300.1268404445
-1.037287287287287 	299.9841204896093 	0.04587236860590993 	101306.227907625
-1.034784784784785 	299.9895684420554 	0.03021548468762254 	101312.6677045635
-1.032282282282283 	299.995162391435 	0.01397329945660269 	101319.2804000114
-1.02977977977978 	300.0008149131277 	0.008387426934423991 	101325.9626603127
-1.027277277277277 	300.0064787684375 	0.01882126360446018 	101332.6586283175
-1.024774774774775 	300.0120560132746 	0.03492313338064412 	101339.2525415484
-1.022272272272272 	300.017415077971 	0.05041228203400289 	101345.5887916885
-1.01976976976977 	300.0224519084927 	0.06495966959352048 	101351.5443204123
-1.017267267267267 	300.027092014322 	0.0783547787429852 	101357.0310086935
-1.014764764764765 	300.0312564741594 	0.09035338407683598 	101361.9554455095
-1.012262262262262 	300.0348618345099 	0.1007854892048446 	101366.218915996
-1.00975975975976 	300.0378360194148 	0.1094081531972179 	101369.7361085047
-1.007257257257257 	300.0401100522637 	0.1159864665061463 	101372.4253944207
-1.004754754754755 	300.0416340268419 	0.1203966044757709 	101374.2277235165
-1.002252252252252 	300.0423790725971 	0.1225150089045349 	101375.1088771655
-0.9997497497497498 	300.0423266830833 	0.122360141893014 	101375.0469397512
-0.9972472472472473 	300.0414861355121 	0.1199471423672521 	101374.0529904051
-0.9947447447447449 	300.0398873656574 	0.1152790485099927 	101372.1624158671
-0.9922422422422421 	300.0375455463144 	0.1084755159438993 	101369.3931253416
-0.9897397397397399 	300.034493669161 	0.0996438116701249 	101365.7841863766
-0.9872372372372376 	300.0307912409785 	0.08895023857288316 	101361.4060785482
-0.9847347347347346 	300.0265118750335 	0.07662651237037583 	101356.3458779063
-0.9822322322322323 	300.0217514511045 	0.06287691543789642 	101350.7170530321
-0.9797297297297296 	300.0166087011156 	0.04798089413093195 	101344.6363933951
-0.9772272272272275 	300.0111572605949 	0.03222681300395789 	101338.1910051235
-0.9747247247247248 	300.0055073518806 	0.01590994566509277 	101331.5112912467
-0.9722222222222224 	299.9997808435115 	0.008052085028432668 	101324.7413032786
-0.9697197197197196 	299.9940634371396 	0.01725277850359421 	101317.9824089786
-0.9672172172172175 	299.9884524386316 	0.03349111912872719 	101311.3495983359
-0.9647147147147147 	299.9830414654152 	0.04911918953123835 	101304.9535066684
-0.9622122122122124 	299.9779157164181 	0.06389288173460084 	101298.8948641878
-0.9597097097097099 	299.9731895825307 	0.07753856313074016 	101293.3087533465
-0.9572072072072073 	299.9689623228023 	0.08980787755633748 	101288.3124902744
-0.9547047047047047 	299.9653037185147 	0.1003548589320599 	101283.988443196
-0.9522022022022023 	299.9622964222609 	0.1089937231639593 	101280.4342232177
-0.9496996996996998 	299.9599998807142 	0.1156223905314662 	101277.7200989008
-0.9471971971971973 	299.9584536246533 	0.1200845222451233 	101275.8926055801
-0.9446946946946947 	299.9576955894589 	0.1223398286449677 	101274.9967102991
-0.9421921921921923 	299.9577265209722 	0.1222709039998578 	101275.0332545533
-0.93968968968969 	299.9585258649714 	0.1198802054345499 	101275.977808104
-0.9371871871871872 	299.9601036166969 	0.1153217546135263 	101277.8423227365
-0.9346846846846848 	299.9624242143623 	0.1086480350809262 	101280.5847665517
-0.9321821821821823 	299.9654233862743 	0.09999678303257419 	101284.1292247379
-0.9296796796796799 	299.9690445246751 	0.08949324571908025 	101288.4088955359
-0.9271771771771771 	299.9732235398803 	0.07734273136956471 	101293.3480248218
-0.9246746746746748 	299.9778850196896 	0.0638305226721001 	101298.8576309244
-0.9221721721721724 	299.9829788707142 	0.04917994448219981 	101304.8785422775
-0.9196696696696698 	299.9883748052905 	0.03366572439515154 	101311.2567721071
-0.9171671671671672 	299.9939363012963 	0.01754515900305173 	101317.8310558264
-0.9146646646646649 	299.9995546726711 	0.007234484287206333 	101324.4728473763
-0.9121621621621623 	300.0051694202789 	0.01498413085179366 	101331.1107000601
-0.9096596596596597 	300.0107118829321 	0.03102726193822249 	101337.6634280169
-0.9071571571571573 	300.0160842900684 	0.04655341071199154 	101344.0153581269
-0.9046546546546547 	300.021186908165 	0.06128141443004109 	101350.0486218453
-0.9021521521521524 	300.0259258681638 	0.07498990855920162 	101355.6521193042
-0.8996496496496498 	300.0302080177412 	0.08733811741718371 	101360.7156796794
-0.8971471471471473 	300.0339486518535 	0.09817082134826771 	101365.1390902905
-0.894644644644645 	300.0370755956329 	0.1072056554950988 	101368.8368819576
-0.892142142142142 	300.0395234842625 	0.1142558222051285 	101371.7317641499
-0.8896396396396397 	300.0412362609849 	0.1192126125767831 	101373.7573485288
-0.8871371371371374 	300.0421762280918 	0.1219031558277592 	101374.8690227194
-0.8846346346346349 	300.0423229263535 	0.1223400425218165 	101375.042542688
-0.8821321321321324 	300.041679674248 	0.120481412499233 	101374.2818760592
-0.8796296296296297 	300.0402663647192 	0.116368997286739 	101372.6106346832
-0.8771271271271271 	300.0381071717553 	0.1101301126083051 	101370.057308464
-0.8746246246246248 	300.0352359326442 	0.1018241371420958 	101366.6619643757
-0.8721221221221224 	300.0317055005921 	0.0916295556200518 	101362.48722589
-0.8696196196196196 	300.0275770752484 	0.07970078353845474 	101357.6054550844
-0.8671171171171175 	300.022929730046 	0.06624896768205649 	101352.1102973568
-0.8646146146146148 	300.0178564693955 	0.05158918619335501 	101346.1117452584
-0.8621121121121121 	300.012457256029 	0.03597522741352968 	101339.7280408884
-0.8596096096096097 	300.0068462434839 	0.01976757987398457 	101333.0942406197
-0.857107107107107 	300.0011435496644 	0.006444194218660752 	101326.352318593
-0.8546046046046049 	299.9954240535224 	0.01332163664083799 	101319.5908882307
-0.8521021021021022 	299.9897704371727 	0.0296367832773127 	101312.9076311102
-0.8495995995995997 	299.9842844172875 	0.04548168761067718 	101306.4227683777
-0.8470970970970974 	299.9790768786324 	0.06052268139389461 	101300.2673882209
-0.8445945945945946 	299.9742573777222 	0.07445109982621385 	101294.5708531346
-0.8420920920920922 	299.9699182357282 	0.08702830906789395 	101289.4423249651
-0.8395895895895897 	299.9661361488382 	0.09791478974348231 	101284.9723022906
-0.8370870870870872 	299.9629921165709 	0.106991248486889 	101281.2564800794
-0.8345845845845846 	299.9605461580898 	0.114064049820102 	101278.3657558985
-0.8320820820820823 	299.9588444242201 	0.1189833591613327 	101276.3545025779
-0.8295795795795798 	299.9579140219942 	0.1217048007110461 	101275.2548990412
-0.8270770770770772 	299.9577639229049 	0.1221146643024437 	101275.077493669
-0.8245745745745746 	299.9583899550788 	0.1202712869462233 	101275.8172584494
-0.8220720720720721 	299.959790168321 	0.1162265310320522 	101277.4719568562
-0.8195695695695699 	299.9619304259784 	0.1100544831636209 	101280.0012428468
-0.817067067067067 	299.9647692566616 	0.1018596208321983 	101283.3561998419
-0.8145645645645651 	299.9682528756006 	0.09175572614912131 	101287.4733007899
-0.8120620620620621 	299.9723166024713 	0.07998363400491711 	101292.2761490069
-0.8095595595595597 	299.9768782350596 	0.06678842207695017 	101297.6677021454
-0.8070570570570572 	299.9818565688839 	0.05245607100440906 	101303.5519989071
-0.8045545545545546 	299.9871302281846 	0.03723424755683913 	101309.7856475886
-0.8020520520520523 	299.9926000743607 	0.02137796360941426 	101316.25150385
-0.7995495495495494 	299.9981688071803 	0.005243806479631762 	101322.8345506825
-0.7970470470470474 	300.0037683967228 	0.01099599850614903 	101329.4544029549
-0.7945445445445446 	300.0093296343883 	0.02701870484454896 	101336.0292312346
-0.7920420420420423 	300.0147435312367 	0.0426583827814061 	101342.4301570268
-0.7895395395395397 	300.0199038874784 	0.05758472133933412 	101348.5316142605
-0.7870370370370371 	300.0247240449875 	0.07151967451673436 	101354.2310641037
-0.7845345345345348 	300.0291189559182 	0.08420162018821592 	101359.4279115265
-0.7820320320320323 	300.0329999416834 	0.09541539703753657 	101364.0172397061
-0.7795295295295296 	300.0362806109224 	0.1048752027029678 	101367.8968015894
-0.7770270270270272 	300.038883588586 	0.112405614410294 	101370.9750551299
-0.7745245245245247 	300.0407628310037 	0.1178555370631977 	101373.1974979465
-0.7720220220220222 	300.0418912695522 	0.1210934058489809 	101374.5320597416
-0.7695195195195199 	300.0422455999454 	0.1221115682523127 	101374.9511324205
-0.767017017017017 	300.041816710732 	0.1208678974444773 	101374.4439536673
-0.7645145145145147 	300.0406115634355 	0.1173809899978406 	101373.0188712545
-0.7620120120120122 	300.0386460949148 	0.1116946343593149 	101370.6946463093
-0.7595095095095097 	300.0359524025903 	0.1038872604698763 	101367.5092560257
-0.7570070070070072 	300.0325730910117 	0.09410154423644107 	101363.5131755017
-0.7545045045045048 	300.0285539182825 	0.08248973208034915 	101358.7605864268
-0.7520020020020022 	300.023975480828 	0.06927957198019005 	101353.3468501313
-0.7494994994994997 	300.0189486230018 	0.05475100545767751 	101347.403106988
-0.7469969969969972 	300.0135944979895 	0.0392760166486655 	101341.0726684992
-0.7444944944944945 	300.0080423069712 	0.02323581775144017 	101334.5083264356
-0.7419919919919924 	300.0024038671428 	0.006910197594812634 	101327.8423290272
-0.7394894894894897 	299.9967327112841 	0.01072579642854095 	101321.1379557628
-0.7369869869869872 	299.9910731268484 	0.02587744768681724 	101314.447569544
-0.7344844844844846 	299.9855164133471 	0.04192602754648306 	101307.8790995949
-0.7319819819819822 	299.9801976197405 	0.05727974157651029 	101301.5921293828
-0.7294794794794797 	299.975263700866 	0.07152858742383916 	101295.7603346118
-0.7269769769769773 	299.9708323496651 	0.08433853074413049 	101290.5227577953
-0.7244744744744747 	299.9669741308848 	0.09549944957448971 	101285.9627238477
-0.721971971971972 	299.9637277393935 	0.1048893459458165 	101282.1259257713
-0.7194694694694695 	299.961126665867 	0.1124036882192194 	101279.0518527251
-0.7169669669669674 	299.9592185311109 	0.1179029867770459 	101276.7967051257
-0.7144644644644647 	299.9580671040238 	0.1212102819429399 	101275.4358498634
-0.711961961961962 	299.9577312183769 	0.1221681526288219 	101275.0388812881
-0.7094594594594597 	299.9582320491642 	0.1207232084507897 	101275.6307094309
-0.7069569569569573 	299.9595345178632 	0.1169729336776039 	101277.1698745312
-0.7044544544544545 	299.9615599485214 	0.111132263471452 	101279.5634650969
-0.7019519519519523 	299.9642199785792 	0.1034435597850672 	101282.7071068672
-0.6994494494494495 	299.9674507387239 	0.0940869757206991 	101286.5253354516
-0.6969469469469471 	299.9712268191535 	0.08314134708878856 	101290.9881929241
-0.6944444444444446 	299.975545831958 	0.07062556337223647 	101296.0929111307
-0.6919419419419421 	299.9803946226758 	0.05659394768916515 	101301.8240056002
-0.6894394394394396 	299.9857076784507 	0.04124576288720198 	101308.1041411447
-0.6869369369369374 	299.9913458297033 	0.0249810602605648 	101314.7688600549
-0.6844344344344344 	299.9971105682671 	0.008357565820937784 	101321.5835620853
-0.6819319319319321 	300.0027907498421 	0.01010682760454498 	101328.2986550599
-0.6794294294294296 	300.0082230439733 	0.02374454820596156 	101334.7209916553
-0.6769269269269272 	300.0133368000832 	0.03856572846643834 	101340.7670134034
-0.6744244244244245 	300.0181536711346 	0.05254470555497861 	101346.4622570952
-0.6719219219219222 	300.0227410553749 	0.06585154681439542 	101351.8863682586
-0.6694194194194195 	300.0271458244716 	0.07860190908420163 	101357.0947660494
-0.6669169169169172 	300.0313410874224 	0.09070986984576754 	101362.0556091715
-0.6644144144144146 	300.0352056548006 	0.1018289336183653 	101366.6255865469
-0.661911911911912 	300.0385386714913 	0.1113907932881656 	101370.5671420942
-0.6594094094094097 	300.0410998945018 	0.1187175393577615 	101373.5960922446
-0.656906906906907 	300.0426619322777 	0.1231689178979421 	101375.4434763334
-0.6544044044044046 	300.0430611086339 	0.1242855325671529 	101375.9155845071
-0.6519019019019021 	300.0422350244039 	0.1218957913267327 	101374.9387069384
-0.6493993993993996 	300.0402407602759 	0.1161662037993659 	101372.5804856976
-0.6468968968968971 	300.037250099313 	0.1075857970324676 	101369.0439195444
-0.6443943943943946 	300.0335216822948 	0.09688913791942649 	101364.6349635784
-0.6418918918918921 	300.0293590647041 	0.08493743522690481 	101359.7126830679
-0.6393893893893897 	300.0250631950983 	0.07258545449568773 	101354.632987064
-0.6368868868868871 	300.0208905750653 	0.06056618475872734 	101349.6991841879
-0.6343843843843846 	300.0170288995707 	0.04942271025867469 	101345.1331878327
-0.6318818818818821 	300.0135943432854 	0.03949566498387262 	101341.0723243327
-0.6293793793793795 	300.0106413324541 	0.03094780404863865 	101337.580902585
-0.6268768768768773 	300.0081764208908 	0.0238029830326148 	101334.6666303174
-0.6243743743743745 	300.0061726566316 	0.01798714791365733 	101332.2975350565
-0.6218718718718721 	300.0045822576897 	0.01336548252367184 	101330.4172152859
-0.6193693693693696 	300.0033473076019 	0.0097728364192046 	101328.9572804224
-0.6168668668668671 	300.0024078190118 	0.00703654366693344 	101327.8466077018
-0.6143643643643645 	300.0017065786438 	0.004991864126676291 	101327.0175740088
-0.6118618618618621 	300.0011924398467 	0.003491147171911639 	101326.4097407218
-0.6093593593593596 	300.0008218082365 	0.002408197486400793 	101325.9715677151
-0.6068568568568571 	300.0005588902422 	0.001639204309485533 	101325.66073775
-0.6043543543543546 	300.0003752209493 	0.001101473057171444 	101325.4435982626
-0.6018518518518521 	300.0002487831169 	0.0007309428135110878 	101325.2941195463
-0.5993493493493496 	300.0001629612719 	0.0004792017269944256 	101325.1926583119
-0.5968468468468471 	300.0001054929594 	0.0003104736400504662 	101325.1247174299
-0.5943443443443446 	300.0000675109798 	0.0001988560697104263 	101325.0798138569
-0.591841841841842 	300.0000427232399 	0.0001259471858673199 	101325.0505090023
-0.5893393393393397 	300.0000267431702 	7.890298996414379e-05 	101325.0316168303
-0.5868368368368371 	300.0000165628181 	4.890648254088151e-05 	101325.0195812039
-0.5843343343343346 	300.0000101515685 	2.999946950178453e-05 	101325.0120015664
-0.5818318318318321 	300.0000061590131 	1.821524571280362e-05 	101325.0072813865
-0.5793293293293297 	300.000003699612 	1.095030136820746e-05 	101325.0043738382
-0.5768268268268271 	300.0000022007405 	6.5189338348453e-06 	101325.0026017999
-0.5743243243243245 	300.0000012966918 	3.843906734587057e-06 	101325.0015329681
-0.5718218218218221 	300.0000007568848 	2.245411994757645e-06 	101325.0008947914
-0.5693193193193196 	300.0000004377898 	1.299645111408592e-06 	101325.000517508
-0.5668168168168171 	300.0000002508839 	7.454756679294624e-07 	101325.0002966145
-0.5643143143143147 	300.0000001424814 	4.238310720563267e-07 	101325.0001685067
-0.5618118118118121 	300.0000000802903 	2.388770134042195e-07 	101325.0000948981
-0.5593093093093094 	300.0000000448633 	1.334867317056889e-07 	101325.0000529874
-0.5568068068068072 	300.0000000248384 	7.397080031265688e-08 	101325.0000293373
-0.5543043043043046 	300.0000000136457 	4.06522740324636e-08 	101325.000016108
-0.551801801801802 	300.0000000073758 	2.216203934247124e-08 	101325.0000087712
-0.5492992992992995 	300.0000000040066 	1.198494340202162e-08 	101325.0000047365
-0.5467967967967969 	300.0000000021641 	6.432968265491901e-09 	101325.0000025361
-0.5442942942942947 	300.0000000011548 	3.425746548135222e-09 	101325.0000013456
-0.5417917917917919 	300.0000000005635 	1.813088141563155e-09 	101325.0000007068
-0.5392892892892895 	300.0000000002433 	9.504798694496195e-10 	101325.0000003668
-0.536786786786787 	300.0000000001162 	4.979873616073368e-10 	101325.0000001871
-0.5342842842842846 	300.0000000000408 	2.56424809772662e-10 	101325.0000000928
-0.531781781781782 	299.9999999999725 	1.353185785048242e-10 	101325.0000000435
-0.5292792792792794 	299.9999999999454 	6.688256555288799e-11 	101325.0000000181
-0.526776776776777 	299.9999999999195 	3.830748848151812e-11 	101325.0000000052
-0.5242742742742745 	299.9999999999814 	1.601555586994168e-11 	101324.9999999985
-0.521771771771772 	300.0000000000188 	1.469466355783379e-11 	101324.9999999953
-0.5192692692692695 	299.999999999961 	4.251034996051322e-12 	101324.9999999936
-0.516766766766767 	300.0000000000065 	9.021671782969061e-12 	101324.9999999929
-0.5142642642642645 	299.9999999999715 	2.898399137099829e-12 	101324.9999999926
-0.511761761761762 	299.9999999999491 	6.814124685107578e-12 	101324.9999999924
-0.5092592592592596 	299.9999999999707 	2.518193596869503e-12 	101324.9999999924
-0.506756756756757 	299.9999999999349 	5.442123084805236e-12 	101324.9999999922
-0.5042542542542544 	299.999999999992 	2.505747063779068e-12 	101324.9999999922
-0.5017517517517521 	300.0000000000293 	3.969955982486775e-12 	101324.9999999919
-0.4992492492492494 	300.0000000000346 	1.547833461902096e-12 	101324.9999999916
-0.496746746746747 	299.9999999999837 	3.723859837167318e-12 	101324.9999999916
-0.4942442442442445 	299.99999999994 	1.22542308886598e-12 	101324.9999999915
-0.4917417417417421 	299.9999999999379 	3.634771834947434e-12 	101324.9999999914
-0.4892392392392395 	299.9999999999557 	1.722289748228328e-12 	101324.9999999912
-0.486736736736737 	299.9999999999576 	4.911708750785e-12 	101324.9999999911
-0.4842342342342345 	299.9999999999208 	2.334540444810429e-12 	101324.9999999913
-0.481731731731732 	300.0000000000339 	5.185939183269161e-12 	101324.9999999913
-0.4792292292292296 	300.0000000000206 	2.319555275121722e-12 	101324.9999999912
-0.4767267267267268 	299.9999999999529 	6.220519152036953e-12 	101324.9999999914
-0.4742242242242246 	299.9999999999953 	1.845324708270581e-12 	101324.9999999917
-0.471721721721722 	299.9999999999533 	4.397979254631568e-12 	101324.9999999916
-0.4692192192192195 	299.999999999977 	1.482977662325114e-12 	101324.9999999916
-0.4667167167167169 	299.9999999999098 	4.076962056622963e-12 	101324.9999999913
-0.4642142142142145 	299.9999999999934 	1.304072671505704e-12 	101324.9999999911
-0.461711711711712 	300.0000000000153 	3.591126024700228e-12 	101324.9999999911
-0.4592092092092094 	300.0000000000084 	1.861712940984197e-12 	101324.9999999912
-0.456706706706707 	300.00000000005 	4.447917644288968e-12 	101324.9999999914
-0.4542042042042045 	299.9999999999386 	3.527214177316397e-12 	101324.9999999915
-0.451701701701702 	299.9999999999509 	5.343647642301256e-12 	101324.9999999913
-0.4491991991991995 	299.9999999999574 	3.746658528725472e-12 	101324.9999999913
-0.4466966966966969 	299.999999999955 	5.151349214504173e-12 	101324.9999999915
-0.4441941941941945 	299.9999999999949 	2.195626898260651e-12 	101324.9999999913
-0.441691691691692 	299.9999999999563 	4.66417293200381e-12 	101324.9999999912
-0.4391891891891895 	299.9999999999887 	1.262014204364621e-12 	101324.9999999911
-0.436686686686687 	299.9999999999692 	4.718691820040482e-12 	101324.9999999912
-0.4341841841841846 	299.9999999999982 	2.313574796369682e-12 	101324.9999999912
-0.431681681681682 	299.999999999945 	4.5008523516012e-12 	101324.9999999911
-0.4291791791791794 	299.9999999999291 	9.104442232695922e-13 	101324.9999999911
-0.426676676676677 	299.9999999999062 	4.018081421838341e-12 	101324.9999999911
-0.4241741741741744 	299.9999999999654 	1.089743191815189e-12 	101324.9999999913
-0.421671671671672 	300.0000000000041 	3.617059174942176e-12 	101324.9999999911
-0.4191691691691694 	300.000000000053 	1.935265591389103e-12 	101324.9999999909
-0.4166666666666669 	300.0000000000613 	4.026721851281871e-12 	101324.9999999909
-0.4141641641641645 	299.9999999999384 	2.692175778674588e-12 	101324.9999999909
-0.411661661661662 	300.0000000000034 	3.438837753740752e-12 	101324.9999999909
-0.4091591591591594 	300.0000000000036 	2.641837609456565e-12 	101324.9999999911
-0.406656656656657 	299.9999999999424 	3.307638869260416e-12 	101324.9999999913
-0.4041541541541545 	300.0000000000128 	1.049138350498907e-12 	101324.9999999913
-0.401651651651652 	299.9999999999229 	3.028219170668787e-12 	101324.9999999912
-0.3991491491491494 	299.9999999999983 	2.078422675863031e-12 	101324.9999999912
-0.396646646646647 	299.9999999999553 	3.596026822331988e-12 	101324.9999999911
-0.3941441441441444 	299.9999999999836 	2.518770503923596e-12 	101324.9999999909
-0.3916416416416419 	299.9999999999343 	3.556632422377278e-12 	101324.9999999909
-0.3891391391391395 	299.9999999999542 	1.644460957105239e-12 	101324.9999999909
-0.3866366366366368 	299.9999999999564 	2.108432251462739e-12 	101324.9999999907
-0.3841341341341344 	299.9999999999939 	9.032775984243666e-13 	101324.9999999907
-0.381631631631632 	299.9999999999486 	1.890083926048318e-12 	101324.9999999908
-0.3791291291291294 	300.0000000000001 	1.343060925881331e-12 	101324.9999999911
-0.3766266266266269 	300.0000000000194 	1.322774393318727e-12 	101324.9999999912
-0.3741241241241244 	300.0000000000248 	2.923007682172309e-12 	101324.9999999913
-0.371621621621622 	300.0000000000167 	1.15989459774398e-12 	101324.9999999914
-0.3691191191191194 	300.0000000000126 	4.178291924116835e-12 	101324.9999999916
-0.366616616616617 	300.0000000000114 	9.778408422983601e-13 	101324.9999999917
-0.3641141141141143 	299.999999999965 	3.53792372754559e-12 	101324.9999999915
-0.3616116116116119 	299.999999999948 	1.298647912870658e-12 	101324.9999999915
-0.3591091091091095 	299.9999999999851 	2.793752131592456e-12 	101324.9999999915
-0.356606606606607 	299.9999999999719 	2.075934748973708e-12 	101324.9999999915
-0.3541041041041044 	299.9999999999895 	1.8512966630704e-12 	101324.9999999914
-0.3516016016016019 	300.0000000000097 	2.671592153585071e-12 	101324.9999999914
-0.3490990990990994 	299.9999999999922 	1.184355472604622e-12 	101324.9999999911
-0.346596596596597 	300.0000000000395 	3.85881963133115e-12 	101324.9999999908
-0.3440940940940944 	300.0000000000467 	1.522539674165536e-12 	101324.9999999906
-0.3415915915915919 	300.0000000000193 	4.264544681035677e-12 	101324.9999999907
-0.3390890890890895 	299.999999999975 	2.133194615586909e-12 	101324.9999999905
-0.3365865865865869 	300.0000000000136 	3.526449962359417e-12 	101324.9999999907
-0.3340840840840844 	299.9999999999996 	2.373996398217376e-12 	101324.9999999911
-0.3315815815815819 	300.0000000000206 	2.956092400716549e-12 	101324.9999999911
-0.3290790790790794 	300.0000000000213 	1.911344718332132e-12 	101324.9999999911
-0.3265765765765769 	299.9999999999307 	2.87725427092037e-12 	101324.9999999914
-0.3240740740740744 	299.9999999999949 	1.697857479929362e-12 	101324.9999999917
-0.3215715715715718 	300.0000000000064 	3.63513166064896e-12 	101324.9999999919
-0.3190690690690695 	299.9999999999365 	1.766181887234277e-12 	101324.9999999919
-0.3165665665665668 	299.9999999999882 	4.255126393907704e-12 	101324.9999999919
-0.3140640640640644 	300.000000000004 	1.916141089502299e-12 	101324.9999999919
-0.311561561561562 	299.9999999999309 	5.595064874261128e-12 	101324.9999999919
-0.3090590590590593 	299.9999999999918 	1.04561197603544e-12 	101324.999999992
-0.3065565565565568 	300.0000000000038 	6.218125127166877e-12 	101324.9999999923
-0.3040540540540545 	300.000000000003 	1.593454180244832e-12 	101324.9999999925
-0.3015515515515518 	300.0000000000351 	5.749421142441909e-12 	101324.9999999923
-0.2990490490490494 	299.9999999999515 	2.232113167291556e-12 	101324.9999999922
-0.2965465465465469 	299.9999999999846 	5.100644484594025e-12 	101324.9999999919
-0.2940440440440444 	299.9999999999943 	4.099187740331231e-12 	101324.9999999919
-0.2915415415415418 	300.0000000000056 	4.766349732798635e-12 	101324.999999992
-0.2890390390390395 	300.0000000000063 	5.325632549427663e-12 	101324.999999992
-0.2865365365365368 	299.9999999999837 	3.517280053611355e-12 	101324.9999999921
-0.2840340340340343 	300.0000000000002 	5.129512254604368e-12 	101324.9999999923
-0.2815315315315318 	299.9999999999281 	2.678428354209644e-12 	101324.9999999922
-0.2790290290290295 	299.9999999999612 	4.847653312414128e-12 	101324.9999999923
-0.2765265265265269 	300.0000000000043 	3.488844824414081e-12 	101324.9999999925
-0.2740240240240244 	300.0000000000264 	4.499387049889961e-12 	101324.9999999925
-0.2715215215215219 	300.0000000000122 	4.641975583821429e-12 	101324.9999999925
-0.2690190190190194 	299.9999999999467 	4.271970230533157e-12 	101324.9999999927
-0.2665165165165169 	300.0000000000004 	4.640335493864835e-12 	101324.9999999927
-0.2640140140140144 	299.9999999999719 	3.022660552156957e-12 	101324.9999999925
-0.2615115115115119 	300.0000000000017 	4.479675400829199e-12 	101324.9999999924
-0.2590090090090094 	299.9999999999342 	2.082384838781382e-12 	101324.9999999924
-0.2565065065065068 	299.9999999999933 	2.82850510341409e-12 	101324.9999999925
-0.2540040040040044 	299.9999999999957 	3.221931416248445e-12 	101324.9999999923
-0.2515015015015019 	300.0000000000363 	2.654829669589671e-12 	101324.9999999921
-0.2489989989989994 	300.0000000000408 	4.4628341984766e-12 	101324.999999992
-0.2464964964964968 	299.99999999999 	1.477954719904989e-12 	101324.9999999919
-0.2439939939939944 	299.9999999999944 	5.052698933470343e-12 	101324.999999992
-0.2414914914914919 	299.9999999999663 	1.1259897197819e-12 	101324.9999999921
-0.2389889889889893 	300.0000000000027 	5.810663352817647e-12 	101324.999999992
-0.2364864864864869 	300.000000000023 	2.062623738741281e-12 	101324.9999999919
-0.2339839839839843 	299.9999999999344 	6.375057152845046e-12 	101324.9999999919
-0.2314814814814819 	299.9999999999828 	2.374403246908675e-12 	101324.9999999916
-0.2289789789789792 	299.9999999999208 	5.539652705130545e-12 	101324.9999999915
-0.2264764764764769 	299.9999999999483 	2.570117814993476e-12 	101324.9999999914
-0.2239739739739743 	299.9999999999615 	4.094697722627468e-12 	101324.9999999913
-0.2214714714714718 	299.999999999939 	3.099017466226378e-12 	101324.9999999914
-0.2189689689689693 	299.99999999997 	2.10671294520201e-12 	101324.9999999915
-0.2164664664664669 	299.9999999999835 	3.291501968591905e-12 	101324.9999999915
-0.2139639639639643 	299.9999999999347 	1.613077644680313e-12 	101324.9999999915
-0.2114614614614618 	299.999999999973 	2.655950090248533e-12 	101324.9999999916
-0.2089589589589593 	299.9999999999918 	2.299704545930433e-12 	101324.999999992
-0.2064564564564568 	299.9999999999905 	1.717550141419372e-12 	101324.999999992
-0.2039539539539543 	299.9999999999155 	2.543109040872589e-12 	101324.999999992
-0.2014514514514518 	299.9999999999467 	1.126647243746184e-12 	101324.9999999919
-0.1989489489489494 	299.9999999999707 	2.199717892708167e-12 	101324.9999999918
-0.1964464464464468 	299.9999999999915 	1.675898565942294e-12 	101324.9999999917
-0.1939439439439443 	299.9999999999893 	2.252591731732774e-12 	101324.9999999915
-0.1914414414414418 	299.9999999999236 	5.216977134107059e-13 	101324.9999999913
-0.1889389389389393 	300.0000000000056 	2.099522222990088e-12 	101324.9999999913
-0.1864364364364368 	300.0000000000376 	2.007196422593373e-12 	101324.9999999915
-0.1839339339339343 	299.999999999973 	3.331176078120695e-12 	101324.9999999914
-0.1814314314314318 	299.9999999999956 	2.793679581908929e-12 	101324.9999999919
-0.1789289289289293 	299.9999999999011 	4.252373564208832e-12 	101324.999999992
-0.1764264264264268 	299.9999999999816 	2.964043598330617e-12 	101324.9999999921
-0.1739239239239243 	299.9999999999062 	5.262601904319646e-12 	101324.9999999922
-0.1714214214214218 	299.9999999999895 	2.294149110676179e-12 	101324.9999999921
-0.1689189189189193 	299.9999999999545 	6.944739419342332e-12 	101324.9999999922
-0.1664164164164168 	300.0000000000072 	1.31943578534415e-12 	101324.9999999922
-0.1639139139139143 	299.9999999999848 	7.69118811594058e-12 	101324.9999999923
-0.1614114114114118 	300.0000000000251 	1.603782184890814e-12 	101324.9999999923
-0.1589089089089093 	299.9999999999993 	9.75088075684726e-12 	101324.9999999924
-0.1564064064064068 	299.9999999999808 	1.927259048673948e-12 	101324.9999999922
-0.1539039039039043 	299.9999999999909 	9.671439077070868e-12 	101324.9999999921
-0.1514014014014018 	300.0000000000227 	2.152786448592697e-12 	101324.9999999916
-0.1488988988988993 	299.9999999999837 	8.374003649830315e-12 	101324.9999999916
-0.1463963963963968 	299.9999999999994 	1.857460139561556e-12 	101324.9999999918
-0.1438938938938943 	299.9999999999559 	6.469620700700996e-12 	101324.9999999918
-0.1413913913913918 	299.9999999999309 	8.165988585670313e-13 	101324.9999999918
-0.1388888888888893 	299.9999999999825 	4.908484326058078e-12 	101324.9999999917
-0.1363863863863868 	299.9999999998934 	1.242320392947662e-12 	101324.9999999917
-0.1338838838838843 	299.9999999999213 	3.750119616275642e-12 	101324.9999999915
-0.1313813813813818 	299.9999999999977 	1.541311211485176e-12 	101324.9999999918
-0.1288788788788793 	299.999999999964 	4.323846332563388e-12 	101324.9999999917
-0.1263763763763768 	299.9999999999691 	2.282550986604386e-12 	101324.9999999917
-0.1238738738738743 	299.9999999999349 	4.987056887493189e-12 	101324.9999999919
-0.1213713713713717 	299.9999999999849 	1.629519660829863e-12 	101324.9999999917
-0.1188688688688693 	300.0000000000049 	5.880570797687415e-12 	101324.9999999916
-0.1163663663663668 	299.9999999999133 	8.580281786906773e-13 	101324.9999999916
-0.1138638638638643 	299.9999999999908 	5.022206036990706e-12 	101324.9999999914
-0.1113613613613618 	299.9999999999824 	1.305110520857659e-12 	101324.9999999913
-0.1088588588588592 	299.9999999999755 	4.586024472585852e-12 	101324.9999999911
-0.1063563563563568 	299.9999999999551 	1.782356376058496e-12 	101324.9999999911
-0.1038538538538543 	299.9999999999724 	3.495283427598627e-12 	101324.9999999912
-0.1013513513513517 	300.0000000000116 	1.015479082362071e-12 	101324.9999999913
-0.09884884884884926 	299.9999999999449 	2.722720476882291e-12 	101324.9999999913
-0.09634634634634676 	299.999999999897 	1.60700201268845e-13 	101324.9999999913
-0.09384384384384425 	299.9999999999316 	2.082938814357737e-12 	101324.9999999913
-0.09134134134134177 	300.0000000000205 	9.49281097085769e-13 	101324.9999999914
-0.08883883883883925 	300.0000000000069 	2.987543320509478e-12 	101324.9999999913
-0.08633633633633674 	299.9999999999577 	3.007949883677636e-12 	101324.9999999912
-0.08383383383383426 	300.000000000006 	3.902806001043988e-12 	101324.9999999911
-0.08133133133133173 	299.9999999999704 	4.216777993649846e-12 	101324.9999999913
-0.07882882882882926 	299.9999999998917 	3.476617191502938e-12 	101324.9999999917
-0.07632632632632676 	299.9999999999607 	3.65264087332341e-12 	101324.999999992
-0.07382382382382424 	299.999999999902 	3.541380870258665e-12 	101324.9999999918
-0.07132132132132173 	300.0000000000114 	3.542266160857995e-12 	101324.9999999916
-0.06881881881881925 	299.9999999999644 	3.638553724752113e-12 	101324.9999999917
-0.06631631631631671 	299.9999999999014 	3.676748492162068e-12 	101324.9999999917
-0.06381381381381425 	299.9999999999552 	3.710823709063587e-12 	101324.9999999916
-0.06131131131131173 	299.9999999999574 	3.609438636956544e-12 	101324.9999999915
-0.05880880880880923 	299.9999999999231 	3.228527259681302e-12 	101324.9999999917
-0.05630630630630672 	299.9999999999662 	2.778636225163511e-12 	101324.9999999916
-0.05380380380380424 	300.0000000000136 	3.220321010363176e-12 	101324.9999999918
-0.05130130130130173 	300.0000000000132 	3.497386107081211e-12 	101324.9999999917
-0.04879879879879922 	299.9999999999472 	3.373197069537873e-12 	101324.9999999922
-0.04629629629629672 	299.9999999999364 	2.309565230361912e-12 	101324.9999999921
-0.04379379379379422 	299.9999999999235 	1.908789643505019e-12 	101324.9999999923
-0.04129129129129173 	299.9999999999794 	1.161436656951971e-12 	101324.9999999921
-0.03878878878878922 	299.9999999999806 	1.660914038097861e-12 	101324.999999992
-0.03628628628628671 	299.9999999999803 	1.290368980543145e-12 	101324.9999999919
-0.03378378378378422 	299.9999999999337 	1.477396067191469e-12 	101324.999999992
-0.03128128128128172 	299.9999999999707 	5.912311352488133e-13 	101324.9999999919
-0.02877877877877922 	299.9999999999687 	1.145693871609883e-12 	101324.9999999918
-0.0262762762762767 	299.9999999999038 	1.045321533156324e-12 	101324.9999999917
-0.02377377377377422 	300.0000000000209 	1.930973667884295e-12 	101324.9999999917
-0.0212712712712717 	299.9999999999095 	2.091632915446264e-12 	101324.9999999917
-0.01876876876876921 	299.9999999999715 	1.33960575835308e-12 	101324.9999999916
-0.01626626626626671 	300.0000000000106 	1.324729753307389e-12 	101324.9999999919
-0.0137637637637642 	299.9999999999667 	9.652235785241833e-13 	101324.9999999917
-0.0112612612612617 	300.0000000000138 	1.247332228643466e-12 	101324.9999999917
-0.008758758758759198 	299.9999999999965 	7.292074995458167e-13 	101324.9999999916
-0.006256256256256697 	299.9999999998922 	1.134649434447707e-12 	101324.9999999918
-0.003753753753754195 	299.9999999999551 	6.540416805602303e-14 	101324.9999999917
-0.001251251251251693 	299.9999999999281 	8.414593798078571e-13 	101324.9999999917
0.00125125125125081 	299.9999999999562 	2.689055703999495e-13 	101324.9999999915
0.003753753753753312 	299.9999999999653 	1.705943400336045e-13 	101324.9999999915
0.006256256256255817 	299.9999999998912 	1.16198526846068e-12 	101324.9999999915
0.008758758758758317 	299.9999999999895 	1.336364535517701e-12 	101324.9999999917
0.01126126126126082 	300.0000000000087 	1.525309635674116e-12 	101324.9999999917
0.01376376376376332 	299.9999999999713 	1.198516689708017e-12 	101324.9999999917
0.01626626626626582 	300.0000000000069 	1.29594219708487e-12 	101324.9999999918
0.01876876876876833 	299.9999999999587 	9.303707063855146e-13 	101324.9999999918
0.02127127127127083 	299.9999999999703 	6.139334060702123e-13 	101324.9999999918
0.02377377377377332 	299.9999999999952 	2.737447194875292e-13 	101324.9999999918
0.02627627627627583 	299.999999999909 	4.48074890557941e-13 	101324.9999999918
0.02877877877877833 	300.0000000000062 	1.046202820999924e-12 	101324.9999999917
0.03128128128128083 	299.9999999999482 	7.354658174417743e-13 	101324.9999999917
0.03378378378378333 	299.9999999999069 	1.59308903213952e-12 	101324.9999999917
0.03628628628628584 	299.9999999999736 	1.330612846168865e-12 	101324.9999999918
0.03878878878878834 	299.9999999999795 	1.254091562915597e-12 	101324.9999999918
0.04129129129129084 	299.9999999999789 	1.615870076497468e-12 	101324.9999999918
0.04379379379379333 	299.9999999999433 	1.876131496346259e-12 	101324.9999999915
0.04629629629629585 	299.9999999998945 	1.877009682657514e-12 	101324.9999999916
0.04879879879879834 	299.9999999999525 	2.229847216164456e-12 	101324.9999999913
0.05130130130130085 	300.0000000000122 	2.318934171748951e-12 	101324.9999999914
0.05380380380380335 	300.0000000000153 	1.964964726868479e-12 	101324.9999999914
0.05630630630630584 	299.9999999999878 	2.090258472703195e-12 	101324.9999999914
0.05880880880880836 	299.9999999999249 	2.014645084617648e-12 	101324.9999999913
0.06131131131131085 	299.999999999976 	2.315152036392421e-12 	101324.9999999914
0.06381381381381336 	299.9999999999681 	2.481327577972192e-12 	101324.9999999914
0.06631631631631586 	299.9999999998981 	2.898087943449262e-12 	101324.9999999914
0.06881881881881835 	299.9999999999504 	3.251605854408023e-12 	101324.9999999914
0.07132132132132088 	299.999999999984 	2.988747710711756e-12 	101324.9999999915
0.07382382382382337 	299.9999999999092 	2.557487741230128e-12 	101324.9999999913
0.07632632632632587 	299.9999999999706 	2.683476954033161e-12 	101324.9999999913
0.07882882882882837 	299.9999999999415 	2.820961329460479e-12 	101324.9999999913
0.08133133133133086 	299.9999999999877 	2.696138000001063e-12 	101324.9999999914
0.08383383383383337 	299.9999999999871 	2.260973446647627e-12 	101324.9999999914
0.08633633633633589 	299.9999999999119 	1.938471088986493e-12 	101324.9999999916
0.08883883883883838 	300.0000000000069 	2.372435481538463e-12 	101324.9999999918
0.09134134134134086 	299.9999999999846 	1.286158957372099e-12 	101324.9999999918
0.09384384384384339 	299.9999999999022 	1.665908970612257e-12 	101324.9999999915
0.09634634634634588 	299.9999999999696 	1.681627857480526e-12 	101324.9999999917
0.09884884884884838 	299.999999999974 	2.359007176487363e-12 	101324.9999999917
0.1013513513513509 	300.0000000000213 	2.779298522388305e-12 	101324.9999999914
0.1038538538538534 	299.9999999999538 	3.162282509497186e-12 	101324.9999999916
0.1063563563563559 	300.000000000013 	3.81285440477757e-12 	101324.9999999914
0.1088588588588584 	300.0000000000238 	3.217618929823728e-12 	101324.9999999915
0.1113613613613609 	299.9999999999259 	3.059806180396783e-12 	101324.9999999915
0.1138638638638634 	299.9999999999459 	3.638114523371198e-12 	101324.9999999916
0.1163663663663659 	299.9999999999454 	3.577946361339653e-12 	101324.9999999915
0.1188688688688684 	299.9999999999717 	3.589408109926628e-12 	101324.9999999914
0.1213713713713709 	299.9999999999949 	2.929457187834199e-12 	101324.9999999914
0.1238738738738734 	299.9999999999272 	2.993912801581774e-12 	101324.9999999911
0.1263763763763759 	299.9999999999841 	2.577117672647517e-12 	101324.9999999913
0.1288788788788784 	299.9999999999856 	1.69497949507365e-12 	101324.9999999907
0.1313813813813809 	299.9999999999839 	1.960003265732209e-12 	101324.9999999907
0.1338838838838834 	299.9999999999765 	2.286085865229545e-12 	101324.9999999907
0.1363863863863859 	300.0000000000278 	2.129383844140962e-12 	101324.9999999906
0.1388888888888884 	300.0000000000427 	2.453727526349389e-12 	101324.9999999904
0.1413913913913909 	299.9999999999994 	2.524692816609018e-12 	101324.9999999904
0.1438938938938934 	299.9999999999904 	2.867146179220354e-12 	101324.9999999905
0.1463963963963959 	299.9999999999627 	1.830072368443028e-12 	101324.9999999909
0.1488988988988985 	299.9999999999176 	2.916725702430507e-12 	101324.9999999908
0.1514014014014009 	299.9999999999695 	1.724960056789915e-12 	101324.999999991
0.1539039039039035 	299.9999999999619 	3.460119054520989e-12 	101324.999999991
0.1564064064064059 	299.9999999999404 	9.752891945605402e-13 	101324.9999999913
0.1589089089089084 	299.9999999999801 	3.908626464813127e-12 	101324.9999999914
0.1614114114114109 	299.9999999999756 	1.169143134380204e-12 	101324.9999999915
0.1639139139139134 	299.9999999999141 	2.923247300458071e-12 	101324.9999999916
0.166416416416416 	300.0000000000021 	2.333863268483433e-12 	101324.9999999914
0.1689189189189185 	300.0000000000258 	2.500212250960153e-12 	101324.9999999917
0.1714214214214209 	299.9999999999952 	3.232972423202357e-12 	101324.9999999914
0.1739239239239235 	299.9999999999871 	1.791755371738418e-12 	101324.9999999913
0.1764264264264259 	299.9999999999674 	4.0079072501296e-12 	101324.9999999914
0.1789289289289284 	300.0000000000041 	1.53613165262941e-12 	101324.9999999913
0.181431431431431 	299.9999999999643 	3.908261666094816e-12 	101324.9999999914
0.1839339339339334 	299.9999999999677 	1.512986905307744e-12 	101324.9999999913
0.186436436436436 	299.9999999999293 	2.299806088867974e-12 	101324.9999999915
0.1889389389389385 	299.9999999999843 	1.553813393538465e-12 	101324.9999999916
0.191441441441441 	299.9999999999798 	1.207022114004766e-12 	101324.9999999919
0.1939439439439434 	299.9999999999272 	2.483877230064414e-12 	101324.9999999919
0.196446446446446 	299.999999999948 	8.874343561808467e-13 	101324.9999999922
0.1989489489489485 	299.9999999999709 	3.355378357301693e-12 	101324.999999992
0.2014514514514509 	299.9999999999836 	1.721608255269965e-12 	101324.9999999918
0.2039539539539535 	299.9999999999941 	3.333029192470209e-12 	101324.9999999918
0.2064564564564559 	299.9999999999607 	2.592404177636855e-12 	101324.9999999918
0.2089589589589585 	299.9999999999823 	3.540688856398285e-12 	101324.9999999918
0.211461461461461 	299.9999999999362 	3.201648195550515e-12 	101324.9999999919
0.2139639639639635 	299.9999999999812 	2.626525827734704e-12 	101324.9999999917
0.2164664664664659 	299.9999999999964 	3.777066354734101e-12 	101324.9999999915
0.2189689689689684 	299.999999999997 	1.337842240996831e-12 	101324.9999999917
0.221471471471471 	299.9999999999947 	3.347824943617337e-12 	101324.9999999914
0.2239739739739735 	299.999999999956 	1.012519494304819e-12 	101324.9999999912
0.226476476476476 	299.9999999999816 	2.716974404201878e-12 	101324.9999999915
0.2289789789789785 	299.9999999999953 	1.813130428783483e-12 	101324.9999999916
0.231481481481481 	299.9999999999874 	1.780773646602182e-12 	101324.9999999916
0.2339839839839835 	299.999999999988 	2.446723859898746e-12 	101324.9999999914
0.236486486486486 	300.0000000000205 	1.769944966027446e-12 	101324.9999999913
0.2389889889889885 	300.0000000000009 	3.332295814866557e-12 	101324.9999999913
0.241491491491491 	299.9999999999274 	1.18194130370008e-12 	101324.9999999914
0.2439939939939935 	299.9999999999793 	4.342957949365355e-12 	101324.9999999912
0.246496496496496 	299.9999999999916 	2.128062096170808e-12 	101324.9999999912
0.2489989989989985 	300.0000000000333 	3.407952397475085e-12 	101324.9999999913
0.251501501501501 	300.0000000000276 	2.513094800526241e-12 	101324.9999999914
0.2540040040040035 	299.9999999999883 	2.320035629334308e-12 	101324.9999999916
0.256506506506506 	300.0000000000241 	3.08697811925466e-12 	101324.9999999914
0.2590090090090086 	299.999999999913 	1.470534802184606e-12 	101324.9999999915
0.261511511511511 	299.9999999999974 	3.80830547451952e-12 	101324.9999999918
0.2640140140140135 	299.9999999999901 	9.422412689225045e-13 	101324.9999999917
0.2665165165165161 	299.9999999999349 	2.549348273600458e-12 	101324.9999999916
0.2690190190190185 	300.0000000000024 	9.752589942577504e-13 	101324.9999999918
0.271521521521521 	300.0000000000076 	9.321821507309779e-13 	101324.9999999916
0.2740240240240235 	300.0000000000147 	1.018966614111342e-12 	101324.9999999916
0.276526526526526 	300.0000000000071 	5.996815734315937e-13 	101324.9999999916
0.2790290290290286 	299.9999999999436 	1.613386974052409e-12 	101324.9999999914
0.281531531531531 	299.9999999999338 	4.235926602993714e-13 	101324.999999991
0.2840340340340335 	299.9999999999798 	2.062291336510385e-12 	101324.9999999909
0.2865365365365361 	299.9999999999603 	6.19248548896462e-13 	101324.9999999909
0.2890390390390385 	299.9999999999981 	1.356029641713389e-12 	101324.9999999909
0.291541541541541 	299.9999999999974 	9.366206620552142e-13 	101324.9999999909
0.2940440440440436 	299.9999999999906 	2.627732932187359e-13 	101324.999999991
0.296546546546546 	299.9999999999898 	1.892374003676855e-12 	101324.9999999908
0.2990490490490486 	299.9999999999387 	1.41311810563244e-12 	101324.9999999908
0.3015515515515511 	300.0000000000337 	3.691370048563904e-12 	101324.9999999908
0.3040540540540535 	299.9999999999953 	2.752851522749956e-12 	101324.9999999906
0.3065565565565562 	299.9999999999957 	3.992674543611857e-12 	101324.9999999906
0.3090590590590585 	299.9999999999887 	2.462778440799951e-12 	101324.9999999907
0.3115615615615611 	299.999999999945 	2.959945851311928e-12 	101324.9999999909
0.3140640640640635 	300.0000000000041 	1.512713507399917e-12 	101324.9999999911
0.316566566566566 	299.9999999999923 	2.204191123562021e-12 	101324.9999999913
0.3190690690690687 	299.9999999999575 	6.618074812318599e-13 	101324.9999999913
0.3215715715715711 	300.0000000000118 	2.599663165118118e-12 	101324.9999999912
0.3240740740740735 	299.9999999999959 	7.417454933430113e-13 	101324.9999999913
0.326576576576576 	299.9999999999076 	1.915436126100265e-12 	101324.999999991
0.3290790790790786 	300.0000000000057 	4.394266164736922e-13 	101324.9999999911
0.3315815815815811 	300.0000000000247 	1.042252673990393e-12 	101324.999999991
0.3340840840840836 	299.9999999999857 	6.572998469261355e-13 	101324.9999999907
0.3365865865865861 	300.0000000000496 	1.131610915678327e-12 	101324.9999999907
0.3390890890890886 	300.0000000000435 	5.079339289527852e-13 	101324.9999999907
0.3415915915915911 	300.0000000000023 	1.476004476524494e-12 	101324.9999999903
0.3440940940940935 	299.9999999999556 	4.488408664278845e-13 	101324.9999999905
0.3465965965965962 	300.0000000000318 	1.818941298366989e-12 	101324.9999999907
0.3490990990990985 	300.0000000000229 	9.955036382569786e-14 	101324.9999999909
0.3516016016016011 	299.9999999999857 	5.284508712154634e-13 	101324.9999999911
0.3541041041041035 	300.0000000000086 	4.42737519592785e-13 	101324.9999999914
0.3566066066066061 	299.99999999996 	8.848113552380177e-13 	101324.9999999917
0.3591091091091085 	299.9999999999253 	1.049333345230297e-12 	101324.9999999916
0.3616116116116112 	299.9999999999407 	1.53400058269893e-12 	101324.9999999913
0.3641141141141137 	299.9999999999353 	2.164563599742161e-12 	101324.9999999911
0.3666166166166161 	299.99999999993 	2.220845664704084e-12 	101324.9999999911
0.3691191191191185 	300.0000000000398 	3.478557336443461e-12 	101324.9999999909
0.371621621621621 	300.000000000016 	1.877171787811703e-12 	101324.9999999907
0.3741241241241237 	300.0000000000488 	2.439003133661008e-12 	101324.9999999906
0.3766266266266261 	300.0000000000242 	1.41951633604261e-12 	101324.9999999905
0.3791291291291286 	299.9999999999799 	1.748192462839788e-12 	101324.9999999903
0.3816316316316311 	299.9999999999215 	8.819421452598792e-13 	101324.9999999904
0.3841341341341336 	300.000000000007 	2.554376164804537e-12 	101324.9999999905
0.3866366366366362 	299.9999999999965 	8.324660678815584e-13 	101324.9999999908
0.3891391391391387 	299.9999999999562 	2.350936638133876e-12 	101324.9999999909
0.391641641641641 	299.9999999999953 	1.374490253979061e-12 	101324.9999999908
0.3941441441441436 	300.0000000000069 	1.930390440572723e-12 	101324.9999999907
0.3966466466466462 	299.9999999999996 	1.442766331561528e-13 	101324.9999999907
0.3991491491491486 	299.9999999999545 	7.927487288622113e-13 	101324.9999999909
0.4016516516516512 	299.9999999999272 	6.736542189319919e-13 	101324.9999999907
0.4041541541541536 	299.9999999999557 	1.707785937108163e-12 	101324.9999999909
0.4066566566566561 	299.9999999999543 	3.739545745452538e-13 	101324.9999999909
0.4091591591591587 	299.9999999999943 	1.549569348217483e-12 	101324.9999999912
0.4116616616616612 	300.000000000006 	2.432545712182281e-13 	101324.9999999913
0.4141641641641635 	300.0000000000388 	1.069506516782174e-12 	101324.9999999917
0.4166666666666662 	299.9999999999944 	1.291246058723722e-12 	101324.9999999915
0.4191691691691687 	299.9999999999436 	7.140924874419179e-13 	101324.9999999912
0.421671671671671 	300.0000000000068 	2.434097179311665e-12 	101324.999999991
0.4241741741741737 	299.9999999999767 	1.71957497090693e-12 	101324.9999999908
0.4266766766766761 	299.9999999999558 	3.321367573191623e-12 	101324.9999999906
0.4291791791791785 	300.0000000000171 	2.323126164097391e-12 	101324.9999999907
0.4316816816816812 	300.0000000000089 	3.445625700940393e-12 	101324.9999999908
0.4341841841841836 	299.9999999999826 	2.44541154148544e-12 	101324.9999999907
0.4366866866866862 	299.9999999999263 	1.871127352170326e-12 	101324.9999999906
0.4391891891891885 	299.9999999999906 	2.286101833161805e-12 	101324.9999999907
0.4416916916916913 	299.9999999999834 	9.145363850225882e-13 	101324.9999999906
0.4441941941941936 	299.9999999999898 	2.474422220846483e-12 	101324.9999999906
0.4466966966966961 	299.9999999999279 	1.086613537666033e-12 	101324.9999999908
0.4491991991991987 	299.9999999999797 	1.240529959359154e-12 	101324.9999999909
0.4517017017017012 	299.9999999999791 	9.883375174859434e-13 	101324.9999999912
0.4542042042042035 	299.9999999999826 	7.114989125397659e-13 	101324.9999999912
0.4567067067067062 	299.9999999999919 	8.442429939099426e-13 	101324.9999999911
0.4592092092092087 	299.999999999933 	7.544626827979394e-13 	101324.9999999909
0.4617117117117112 	300.0000000000145 	7.85822923812829e-13 	101324.9999999909
0.4642142142142137 	299.9999999999659 	6.477337468593614e-13 	101324.9999999907
0.4667167167167162 	299.9999999999891 	3.627094321453428e-13 	101324.9999999907
0.4692192192192187 	299.9999999999583 	4.700471503405754e-13 	101324.9999999904
0.4717217217217212 	300.0000000000101 	2.660394111553877e-13 	101324.9999999905
0.4742242242242236 	299.9999999999601 	5.867812520536788e-13 	101324.9999999907
0.4767267267267262 	299.9999999999768 	6.607340239213401e-13 	101324.9999999907
0.4792292292292287 	300.0000000000128 	7.996148936997424e-13 	101324.9999999907
0.4817317317317312 	300.0000000000284 	6.682281318618113e-13 	101324.9999999909
0.4842342342342336 	299.9999999999847 	6.623485175860053e-13 	101324.9999999909
0.4867367367367362 	299.9999999999555 	1.25340078989638e-12 	101324.9999999911
0.4892392392392387 	300.0000000000247 	4.3939522126024e-13 	101324.9999999911
0.4917417417417412 	300.0000000000019 	1.640603326425054e-12 	101324.9999999909
0.4942442442442437 	299.9999999999161 	9.388031059127542e-13 	101324.9999999907
0.4967467467467462 	299.9999999999375 	1.953401075838467e-12 	101324.9999999909
0.4992492492492487 	299.9999999999278 	4.32575493082073e-13 	101324.999999991
0.5017517517517511 	299.9999999999588 	5.793240276063096e-13 	101324.999999991
0.5042542542542537 	299.9999999999658 	1.591882212723646e-13 	101324.9999999911
0.5067567567567562 	299.9999999999478 	1.99271582361788e-13 	101324.999999991
0.5092592592592589 	299.9999999999716 	6.989038557454701e-13 	101324.9999999911
0.5117617617617611 	299.9999999999624 	1.399332746134545e-12 	101324.9999999912
0.5142642642642637 	299.9999999999848 	1.441102869548729e-12 	101324.9999999913
0.5167667667667663 	299.9999999999729 	2.795528396822506e-12 	101324.9999999911
0.5192692692692688 	299.9999999999322 	2.853191845363361e-12 	101324.9999999913
0.5217717717717714 	299.9999999999457 	3.189633672266158e-12 	101324.9999999914
0.5242742742742736 	299.999999999948 	2.934908410437438e-12 	101324.9999999914
0.5267767767767763 	299.9999999999621 	2.316812455697154e-12 	101324.9999999912
0.5292792792792789 	299.9999999999458 	2.290499544336858e-12 	101324.999999991
0.5317817817817813 	299.9999999999146 	1.567335582659696e-12 	101324.999999991
0.5342842842842837 	300.0000000000136 	9.74944508957448e-13 	101324.9999999908
0.5367867867867864 	300.0000000000023 	2.190958704490431e-12 	101324.9999999909
0.5392892892892888 	299.9999999999617 	1.41209461741396e-12 	101324.9999999912
0.5417917917917912 	300.0000000000031 	2.159876120171137e-12 	101324.9999999913
0.5442942942942938 	299.9999999999798 	9.392297473907869e-13 	101324.9999999915
0.5467967967967964 	299.9999999999559 	1.416921965734348e-12 	101324.9999999914
0.5492992992992988 	299.9999999999459 	5.670507734869487e-13 	101324.9999999914
0.5518018018018012 	299.9999999999409 	1.293005547904767e-12 	101324.9999999913
0.5543043043043039 	300.0000000000176 	9.654277752172167e-13 	101324.9999999913
0.5568068068068063 	299.9999999999918 	1.508785236188349e-12 	101324.9999999913
0.5593093093093087 	299.9999999999151 	7.707608665796906e-13 	101324.9999999911
0.5618118118118114 	299.9999999999657 	1.517519407890242e-12 	101324.999999991
0.5643143143143137 	299.9999999999511 	7.981682773705593e-13 	101324.9999999911
0.5668168168168163 	299.9999999999889 	1.919523645595332e-12 	101324.9999999912
0.5693193193193188 	300.0000000000261 	2.134928018676542e-12 	101324.9999999911
0.5718218218218213 	300.0000000000215 	1.61997566195982e-12 	101324.9999999911
0.5743243243243239 	300.0000000000059 	2.677315785007217e-12 	101324.999999991
0.5768268268268262 	300.0000000000022 	1.570655584649698e-12 	101324.9999999908
0.5793293293293288 	299.9999999999544 	3.191990732060803e-12 	101324.9999999908
0.5818318318318314 	299.9999999999293 	2.523875712064559e-12 	101324.9999999909
0.5843343343343338 	299.9999999999819 	3.188522172638762e-12 	101324.999999991
0.5868368368368363 	299.999999999976 	2.774098860397048e-12 	101324.9999999909
0.5893393393393387 	299.9999999999486 	2.264323693832655e-12 	101324.9999999909
0.5918418418418413 	299.9999999999439 	1.81878522435762e-12 	101324.9999999908
0.5943443443443439 	300.0000000000099 	1.798095318646612e-12 	101324.9999999907
0.5968468468468463 	300.0000000000135 	1.446109345905031e-12 	101324.9999999905
0.5993493493493487 	300.0000000000359 	9.329318433828403e-13 	101324.9999999906
0.6018518518518514 	299.9999999999831 	1.550785734983662e-12 	101324.9999999908
0.6043543543543537 	299.9999999999922 	7.265767570583428e-13 	101324.9999999912
0.6068568568568564 	299.9999999999811 	1.571505117476866e-12 	101324.9999999913
0.6093593593593587 	299.999999999936 	5.244992238256287e-13 	101324.9999999911
0.6118618618618614 	299.9999999999312 	1.269537256419235e-12 	101324.9999999913
0.6143643643643638 	300.0000000000147 	1.788403893301819e-12 	101324.9999999914
0.6168668668668662 	299.9999999999858 	1.079043498414881e-12 	101324.9999999916
0.6193693693693688 	299.9999999999596 	2.026091518126009e-12 	101324.9999999919
0.6218718718718714 	299.9999999999669 	1.14259290683081e-12 	101324.999999992
0.6243743743743737 	299.9999999999397 	1.405975793223648e-12 	101324.9999999919
0.6268768768768762 	299.9999999999331 	5.703892443556616e-13 	101324.9999999917
0.629379379379379 	299.9999999999555 	9.898634273636136e-13 	101324.9999999918
0.6318818818818812 	299.9999999999777 	7.276420613531758e-13 	101324.9999999916
0.6343843843843838 	300.0000000000138 	8.942553571085499e-13 	101324.9999999917
0.6368868868868864 	299.999999999982 	1.879327584106622e-12 	101324.9999999916
0.6393893893893888 	299.9999999999301 	1.931331292651062e-12 	101324.9999999915
0.6418918918918912 	300.0000000000078 	3.404903084858764e-12 	101324.9999999913
0.6443943943943939 	299.9999999999947 	3.654182655187842e-12 	101324.9999999914
0.6468968968968963 	299.9999999999869 	3.421765245282206e-12 	101324.9999999914
0.6493993993993988 	299.9999999999763 	3.177329124350003e-12 	101324.9999999915
0.6519019019019012 	299.9999999999744 	2.493553890639038e-12 	101324.9999999914
0.6544044044044038 	299.9999999999126 	2.672909059024131e-12 	101324.9999999913
0.6569069069069065 	299.9999999999593 	2.183928263926939e-12 	101324.9999999914
0.6594094094094087 	299.9999999999648 	2.171028588766457e-12 	101324.9999999915
0.6619119119119113 	299.9999999999558 	1.483017931653226e-12 	101324.9999999916
0.664414414414414 	299.9999999999969 	1.548477202462887e-12 	101324.9999999917
0.6669169169169162 	300.0000000000185 	8.848301563485954e-13 	101324.9999999918
0.6694194194194188 	299.9999999999889 	2.010155700514505e-12 	101324.999999992
0.6719219219219214 	299.9999999999299 	8.882731889217906e-13 	101324.9999999921
0.674424424424424 	299.9999999999753 	1.565321595340762e-12 	101324.9999999924
0.6769269269269262 	299.9999999999256 	2.907681550550095e-13 	101324.9999999924
0.679429429429429 	300.0000000000058 	9.704726143591323e-13 	101324.9999999923
0.6819319319319311 	299.9999999999827 	9.109058902285615e-13 	101324.9999999923
0.6844344344344341 	299.9999999999946 	1.05691565974551e-12 	101324.9999999924
0.686936936936936 	299.9999999999898 	7.04191991945798e-13 	101324.9999999924
0.6894394394394392 	299.9999999999849 	4.116058664860607e-13 	101324.9999999923
0.6919419419419413 	299.9999999999894 	1.116080965410209e-13 	101324.9999999922
0.694444444444444 	299.9999999999506 	1.938926899201791e-13 	101324.9999999921
0.6969469469469463 	299.9999999999384 	6.999915489685438e-13 	101324.9999999922
0.6994494494494489 	299.999999999927 	9.364155074056394e-13 	101324.9999999922
0.7019519519519515 	299.9999999999886 	1.143853336436871e-12 	101324.9999999924
0.7044544544544538 	299.9999999999615 	1.986033522562449e-12 	101324.9999999924
0.7069569569569564 	299.9999999999974 	1.751899785150423e-12 	101324.9999999928
0.7094594594594589 	299.9999999999692 	2.027782823775071e-12 	101324.9999999929
0.7119619619619615 	299.9999999999221 	1.037342332800568e-12 	101324.999999993
0.7144644644644638 	299.9999999999552 	2.25635639683207e-12 	101324.9999999932
0.7169669669669665 	299.9999999999279 	1.452199584990196e-12 	101324.9999999933
0.7194694694694688 	299.9999999999933 	2.286887879490901e-12 	101324.9999999933
0.7219719719719715 	299.9999999999878 	1.097642048900406e-12 	101324.9999999932
0.7244744744744737 	299.9999999999978 	1.285407561147727e-12 	101324.9999999932
0.7269769769769764 	299.9999999999908 	1.35917692349198e-12 	101324.9999999931
0.7294794794794791 	299.9999999999861 	9.008397353447218e-13 	101324.9999999929
0.7319819819819813 	299.9999999999813 	1.597255943696765e-12 	101324.9999999927
0.7344844844844839 	299.999999999932 	6.518766447760688e-13 	101324.9999999925
0.7369869869869864 	299.9999999999566 	1.833651711438275e-12 	101324.9999999925
0.739489489489489 	299.9999999999473 	1.472252808985449e-12 	101324.9999999925
0.7419919919919914 	299.9999999999398 	1.250424443784583e-12 	101324.9999999925
0.7444944944944939 	299.9999999999783 	2.297409303669886e-12 	101324.9999999928
0.7469969969969963 	299.9999999999729 	1.571866416658561e-12 	101324.9999999931
0.7494994994994989 	299.9999999999507 	3.238005745023081e-12 	101324.9999999932
0.7520020020020015 	299.9999999999757 	1.856909345901727e-12 	101324.9999999932
0.7545045045045039 	299.9999999999727 	2.772593074798684e-12 	101324.9999999933
0.7570070070070062 	299.9999999999487 	8.996108886928112e-13 	101324.9999999932
0.7595095095095092 	299.9999999999382 	2.411562578140877e-12 	101324.999999993
0.7620120120120112 	300.0000000000042 	1.439386563259734e-12 	101324.999999993
0.7645145145145138 	299.9999999999895 	1.495147868635674e-12 	101324.999999993
0.7670170170170165 	299.9999999999414 	1.801908318320287e-12 	101324.999999993
0.7695195195195191 	299.9999999999323 	1.197779284627952e-12 	101324.9999999931
0.7720220220220213 	299.9999999999396 	2.90288445854045e-12 	101324.999999993
0.7745245245245239 	299.9999999999441 	1.7006775245452e-12 	101324.999999993
0.7770270270270263 	299.9999999999731 	3.040448548360473e-12 	101324.999999993
0.779529529529529 	299.9999999999815 	2.049506410610922e-12 	101324.9999999931
0.7820320320320313 	299.999999999976 	2.87850311748459e-12 	101324.9999999931
0.784534534534534 	299.9999999999976 	2.9033130076742e-12 	101324.9999999933
0.7870370370370364 	299.9999999999935 	2.874766739428941e-12 	101324.9999999935
0.7895395395395389 	299.9999999999815 	3.553024508065645e-12 	101324.9999999935
0.7920420420420413 	299.9999999999737 	2.295307205713513e-12 	101324.9999999933
0.794544544544544 	299.9999999999748 	3.778246300176516e-12 	101324.9999999932
0.7970470470470463 	300.000000000002 	1.957322691256587e-12 	101324.9999999931
0.799549549549549 	299.9999999999862 	3.880662894971332e-12 	101324.9999999931
0.8020520520520515 	299.9999999999927 	1.747979624038708e-12 	101324.9999999932
0.8045545545545539 	299.9999999999526 	3.77732189500033e-12 	101324.9999999932
0.8070570570570563 	299.9999999999814 	2.849155003101085e-12 	101324.9999999933
0.8095595595595589 	299.999999999959 	3.255747577641045e-12 	101324.9999999931
0.8120620620620614 	299.999999999942 	2.932712571157704e-12 	101324.9999999931
0.8145645645645638 	299.9999999999986 	2.722490289710816e-12 	101324.9999999931
0.8170670670670666 	299.9999999999943 	3.01542841700249e-12 	101324.9999999932
0.8195695695695689 	299.9999999999775 	1.560258025208952e-12 	101324.9999999931
0.8220720720720714 	299.9999999999487 	2.825000295530851e-12 	101324.9999999932
0.8245745745745739 	299.9999999999951 	1.042122712883804e-12 	101324.9999999932
0.8270770770770765 	299.9999999999736 	2.10839600556115e-12 	101324.9999999931
0.8295795795795788 	299.9999999999562 	1.185230666202855e-12 	101324.999999993
0.8320820820820815 	300.0000000000161 	2.039573827859315e-12 	101324.999999993
0.834584584584584 	300.0000000000078 	1.505984121073477e-12 	101324.999999993
0.8370870870870865 	299.9999999999723 	1.373646559493005e-12 	101324.9999999931
0.8395895895895891 	299.9999999999332 	2.182641684498768e-12 	101324.9999999933
0.8420920920920915 	299.9999999999474 	1.64743963668065e-12 	101324.9999999934
0.844594594594594 	299.9999999999429 	2.00274737713094e-12 	101324.9999999935
0.8470970970970964 	299.9999999999517 	1.56438505537317e-12 	101324.9999999935
0.8495995995995991 	299.9999999999861 	1.386336328441528e-12 	101324.9999999935
0.8521021021021015 	299.9999999999812 	2.128401276229192e-12 	101324.9999999933
0.8546046046046039 	299.999999999981 	2.312859534618268e-12 	101324.999999993
0.8571071071071066 	299.9999999999955 	3.57574913889837e-12 	101324.999999993
0.8596096096096089 	299.9999999999604 	1.752672445037797e-12 	101324.999999993
0.8621121121121116 	299.9999999999356 	3.269864038695466e-12 	101324.9999999928
0.8646146146146139 	299.9999999999948 	1.089467049773188e-12 	101324.9999999927
0.8671171171171166 	299.9999999999744 	1.985957241918345e-12 	101324.9999999927
0.8696196196196189 	299.9999999999494 	1.655840659917334e-12 	101324.9999999928
0.8721221221221216 	299.9999999999807 	2.600198136107554e-12 	101324.999999993
0.874624624624624 	299.9999999999972 	2.484347040598912e-12 	101324.9999999931
0.8771271271271264 	299.9999999999959 	2.318921619587765e-12 	101324.9999999931
0.879629629629629 	300.000000000005 	3.177905104255495e-12 	101324.9999999931
0.8821321321321317 	299.9999999999852 	2.056040133510026e-12 	101324.9999999932
0.8846346346346339 	299.9999999999315 	3.887249826362642e-12 	101324.9999999933
0.8871371371371364 	299.9999999999612 	2.580065321250526e-12 	101324.9999999934
0.8896396396396391 	299.9999999999701 	4.454954673509158e-12 	101324.9999999932
0.8921421421421414 	299.9999999999726 	3.850594517374013e-12 	101324.999999993
0.8946446446446441 	299.9999999999851 	4.591288620723059e-12 	101324.9999999928
0.8971471471471464 	300.0000000000047 	4.259386054659733e-12 	101324.9999999926
0.8996496496496489 	299.9999999999823 	4.265887191173928e-12 	101324.9999999928
0.9021521521521517 	299.9999999999696 	5.118624487317199e-12 	101324.999999993
0.9046546546546541 	299.9999999999966 	3.881273862271851e-12 	101324.999999993
0.9071571571571564 	299.9999999999595 	3.928661669014095e-12 	101324.999999993
0.9096596596596589 	299.9999999999544 	3.747000354714086e-12 	101324.9999999931
0.9121621621621616 	299.9999999999994 	3.781442513551023e-12 	101324.9999999932
0.9146646646646639 	299.9999999999761 	3.660666495949947e-12 	101324.999999993
0.9171671671671666 	299.9999999999565 	3.502155240628035e-12 	101324.9999999929
0.9196696696696689 	300.0000000000026 	4.029535396296946e-12 	101324.9999999928
0.9221721721721714 	299.999999999994 	2.569182261471314e-12 	101324.9999999929
0.9246746746746741 	299.9999999999478 	4.377003524774089e-12 	101324.9999999929
0.9271771771771765 	299.9999999999576 	2.710730805797062e-12 	101324.9999999927
0.9296796796796791 	299.9999999999907 	4.117203797425928e-12 	101324.9999999926
0.9321821821821816 	299.9999999999712 	3.043531018867747e-12 	101324.9999999929
0.9346846846846838 	299.9999999999565 	4.000531313923399e-12 	101324.9999999933
0.9371871871871866 	300.0000000000064 	3.547487104680963e-12 	101324.9999999937
0.9396896896896891 	300.0000000000043 	3.377249024144013e-12 	101324.9999999939
0.9421921921921914 	300.0000000000016 	3.767860385388696e-12 	101324.9999999939
0.9446946946946939 	299.9999999999737 	3.314168837605018e-12 	101324.999999994
0.9471971971971965 	299.9999999999375 	5.113347613472447e-12 	101324.999999994
0.9496996996996991 	299.9999999999663 	3.305318109299934e-12 	101324.9999999939
0.9522022022022016 	299.9999999999781 	4.691117500020894e-12 	101324.9999999937
0.9547047047047038 	299.9999999999802 	4.204604623430712e-12 	101324.9999999936
0.9572072072072064 	299.9999999999634 	5.257877428344116e-12 	101324.9999999936
0.9597097097097093 	299.9999999999663 	5.286866654850956e-12 	101324.9999999934
0.9622122122122114 	299.9999999999654 	5.46430003058046e-12 	101324.9999999932
0.964714714714714 	299.9999999999583 	6.744242780644427e-12 	101324.9999999932
0.9672172172172167 	299.9999999999601 	6.22485609679022e-12 	101324.9999999934
0.969719719719719 	299.999999999986 	6.65823588929395e-12 	101324.9999999935
0.9722222222222214 	299.9999999999784 	6.064281770987136e-12 	101324.9999999933
0.9747247247247239 	299.9999999999726 	6.075296704787526e-12 	101324.999999993
0.9772272272272267 	299.9999999999998 	5.660649823044516e-12 	101324.999999993
0.9797297297297292 	299.9999999999843 	4.74937905704808e-12 	101324.999999993
0.9822322322322313 	299.9999999999851 	5.272912003294128e-12 	101324.9999999932
0.9847347347347344 	299.9999999999838 	4.462055464456118e-12 	101324.9999999932
0.9872372372372363 	299.9999999999496 	6.679709395137698e-12 	101324.9999999931
0.9897397397397389 	299.9999999999721 	4.6756600353623e-12 	101324.9999999928
0.9922422422422417 	299.9999999999574 	6.140063823887631e-12 	101324.9999999927
0.9947447447447441 	299.9999999999579 	5.295568056233756e-12 	101324.9999999926
0.9972472472472468 	299.9999999999619 	6.169596684111077e-12 	101324.9999999927
0.999749749749749 	299.9999999999668 	5.883688111059755e-12 	101324.9999999928
1.002252252252252 	299.9999999999852 	6.462070902460293e-12 	101324.9999999927
1.004754754754754 	299.9999999999933 	6.869886946613635e-12 	101324.9999999927
1.007257257257256 	299.999999999978 	6.587271374886662e-12 	101324.9999999925
1.009759759759759 	299.9999999999637 	8.229023490583292e-12 	101324.9999999922
1.012262262262261 	299.9999999999563 	6.260250442142701e-12 	101324.9999999921
1.014764764764764 	299.9999999999393 	7.479403069756895e-12 	101324.9999999922
1.017267267267267 	299.9999999999339 	6.938381290264852e-12 	101324.9999999924
1.019769769769769 	299.9999999999739 	8.213209858020765e-12 	101324.9999999926
1.022272272272272 	299.9999999999843 	7.890642784804001e-12 	101324.9999999926
1.024774774774774 	299.9999999999854 	7.788834346898448e-12 	101324.9999999927
1.027277277277277 	299.9999999999807 	8.306097533894525e-12 	101324.9999999928
1.029779779779779 	300.0000000000023 	7.795785156951677e-12 	101324.9999999928
1.032282282282282 	300.0000000000035 	8.49522571554295e-12 	101324.9999999928
1.034784784784784 	299.9999999999964 	7.957423656814252e-12 	101324.9999999927
1.037287287287286 	299.9999999999726 	7.844326533717519e-12 	101324.9999999927
1.039789789789789 	299.9999999999754 	6.938769782059884e-12 	101324.9999999928
1.042292292292291 	300.0000000000012 	5.732348331067572e-12 	101324.9999999931
1.044794794794794 	300.0000000000161 	4.874188607887666e-12 	101324.9999999934
1.047297297297296 	300.0000000000317 	3.565659803064057e-12 	101324.9999999936
1.049799799799799 	299.9999999999933 	5.107771435367144e-12 	101324.9999999936
1.052302302302302 	299.9999999999557 	4.033329894327513e-12 	101324.9999999934
1.054804804804804 	299.9999999999383 	5.718465631104582e-12 	101324.9999999933
1.057307307307306 	299.9999999999349 	5.243528388759637e-12 	101324.9999999934
1.059809809809809 	299.9999999999679 	6.576274280700501e-12 	101324.9999999935
1.062312312312312 	299.9999999999648 	6.740982841982467e-12 	101324.9999999935
1.064814814814814 	299.999999999961 	7.900071503476651e-12 	101324.9999999935
1.067317317317317 	299.9999999999385 	8.141586784912974e-12 	101324.9999999934
1.069819819819819 	299.9999999999357 	8.231714330175715e-12 	101324.9999999934
1.072322322322321 	299.9999999999906 	9.451044146160451e-12 	101324.9999999933
1.074824824824824 	300.000000000009 	7.798961085655657e-12 	101324.9999999935
1.077327327327327 	300.0000000000235 	8.679318357311314e-12 	101324.9999999935
1.079829829829829 	300.0000000000323 	7.668240111348367e-12 	101324.9999999935
1.082332332332332 	299.9999999999968 	7.934977451660482e-12 	101324.9999999936
1.084834834834834 	299.9999999999747 	7.297889516692694e-12 	101324.9999999937
1.087337337337337 	299.9999999999509 	7.340316817890486e-12 	101324.9999999938
1.089839839839839 	299.9999999999386 	8.960776339325827e-12 	101324.9999999937
1.092342342342342 	299.9999999999686 	8.079617166003171e-12 	101324.9999999935
1.094844844844844 	299.9999999999669 	8.591497046194822e-12 	101324.9999999933
1.097347347347347 	299.9999999999429 	6.950186075631314e-12 	101324.9999999933
1.099849849849849 	299.9999999999334 	9.018458816687267e-12 	101324.9999999936
1.102352352352352 	299.9999999999602 	7.144003755749794e-12 	101324.9999999937
1.104854854854854 	299.9999999999779 	8.828433591601264e-12 	101324.9999999938
1.107357357357357 	299.9999999999632 	7.53617265072887e-12 	101324.9999999938
1.109859859859859 	299.9999999999568 	8.828583609892715e-12 	101324.9999999939
1.112362362362362 	300.0000000000142 	7.689823309719213e-12 	101324.9999999939
1.114864864864865 	300.0000000000153 	7.710250195022655e-12 	101324.9999999939
1.117367367367367 	299.9999999999663 	8.523492311772247e-12 	101324.999999994
1.119869869869869 	299.9999999999321 	7.700333539103721e-12 	101324.9999999942
1.122372372372372 	299.9999999999628 	8.862763772434967e-12 	101324.9999999942
1.124874874874874 	299.9999999999594 	8.291815529193668e-12 	101324.9999999942
1.127377377377377 	299.9999999999683 	9.410328559978054e-12 	101324.999999994
1.129879879879879 	300.000000000014 	8.769969194724938e-12 	101324.9999999939
1.132382382382382 	300.0000000000293 	8.659144383233268e-12 	101324.9999999939
1.134884884884884 	300.000000000005 	7.891168597206143e-12 	101324.999999994
1.137387387387387 	300.0000000000061 	7.650044571199346e-12 	101324.9999999942
1.139889889889889 	299.9999999999658 	8.583484269209219e-12 	101324.9999999942
1.142392392392392 	299.9999999999621 	7.652717210841299e-12 	101324.9999999941
1.144894894894894 	300.0000000000134 	8.693394784208049e-12 	101324.9999999941
1.147397397397397 	299.9999999999991 	7.691954113306979e-12 	101324.999999994
1.149899899899899 	299.999999999949 	8.272948165526262e-12 	101324.9999999939
1.152402402402402 	299.9999999999363 	7.728618004916438e-12 	101324.999999994
1.154904904904904 	299.9999999999673 	8.725522550298852e-12 	101324.9999999941
1.157407407407407 	299.9999999999683 	8.581928593752375e-12 	101324.9999999941
1.159909909909909 	299.9999999999443 	8.913934660821084e-12 	101324.9999999942
1.162412412412412 	299.9999999999381 	9.732328985282543e-12 	101324.9999999942
1.164914914914914 	299.9999999999621 	8.43609746020126e-12 	101324.9999999941
1.167417417417417 	299.9999999999714 	9.376241034450385e-12 	101324.9999999941
1.169919919919919 	300.0000000000114 	8.290179928714271e-12 	101324.9999999941
1.172422422422422 	300.0000000000315 	8.730982453065666e-12 	101324.9999999941
1.174924924924925 	299.9999999999887 	7.617582046949815e-12 	101324.9999999942
1.177427427427427 	299.999999999963 	8.323295109681521e-12 	101324.9999999942
1.179929929929929 	300.0000000000058 	9.275180689485631e-12 	101324.9999999942
1.182432432432432 	300.0000000000322 	8.374777228906979e-12 	101324.9999999941
1.184934934934934 	300.0000000000019 	9.118529321465389e-12 	101324.9999999939
1.187437437437437 	299.9999999999685 	8.281678319537242e-12 	101324.9999999939
1.189939939939939 	299.9999999999585 	9.196103463042447e-12 	101324.9999999939
1.192442442442442 	299.9999999999354 	8.497871041062918e-12 	101324.9999999939
1.194944944944944 	299.9999999999442 	9.168360509340187e-12 	101324.9999999939
1.197447447447447 	299.9999999999948 	8.318077304431812e-12 	101324.999999994
1.199949949949949 	300.000000000006 	8.098352419417075e-12 	101324.9999999942
1.202452452452452 	299.9999999999569 	8.652775903557229e-12 	101324.9999999944
1.204954954954955 	299.9999999999548 	7.664358718572646e-12 	101324.9999999946
1.207457457457457 	299.9999999999823 	8.308133252305641e-12 	101324.9999999947
1.20995995995996 	299.9999999999754 	7.301540623267973e-12 	101324.9999999946
1.212462462462462 	299.9999999999852 	7.88830473357576e-12 	101324.9999999946
1.214964964964964 	299.9999999999885 	6.789511887630125e-12 	101324.9999999947
1.217467467467467 	299.9999999999866 	7.347329404962438e-12 	101324.9999999948
1.219969969969969 	299.9999999999743 	6.719934122504321e-12 	101324.9999999948
1.222472472472472 	300.0000000000125 	6.966776871975371e-12 	101324.9999999946
1.224974974974975 	300.0000000000332 	7.150455924518458e-12 	101324.9999999946
1.227477477477477 	299.9999999999921 	5.890711678958149e-12 	101324.9999999947
1.229979979979979 	299.9999999999791 	6.872119418666818e-12 	101324.9999999948
1.232482482482482 	299.9999999999562 	6.217381001138772e-12 	101324.9999999948
1.234984984984984 	299.9999999999542 	7.69663113177557e-12 	101324.9999999948
1.237487487487487 	299.9999999999748 	7.286811722070624e-12 	101324.9999999948
1.239989989989989 	299.9999999999798 	8.19235500275188e-12 	101324.9999999948
1.242492492492492 	300.0000000000056 	8.518727010190357e-12 	101324.9999999948
1.244994994994994 	299.9999999999812 	7.32200424878119e-12 	101324.9999999948
1.247497497497497 	299.9999999999832 	8.143456032061752e-12 	101324.9999999948
1.249999999999999 	300 	7.63055989447072e-12 	101324.9999999947
