-1.25 	250.8856374635656 	0.117670066146658 	101275.8856374636
-1.247497497497497 	301.4081089651887 	0.1196031811238326 	101276.0083069161
-1.244994994994995 	299.9783698965864 	0.1205944009768468 	101276.1627959175
-1.242492492492492 	299.9590209688479 	0.1191621037516868 	101276.3057878035
-1.23998998998999 	299.9589374580939 	0.1188747776244445 	101276.4649744456
-1.237487487487487 	299.9590795612731 	0.1186253536461841 	101276.6324786839
-1.234984984984985 	299.9592289397056 	0.1180680039766635 	101276.8088375794
-1.232482482482482 	299.9593857689253 	0.1176870717223385 	101276.9942010705
-1.22997997997998 	299.959550147548 	0.117182493853807 	101277.188468702
-1.227477477477477 	299.9597220649728 	0.1166940586413356 	101277.3916520996
-1.224974974974975 	299.9599011246328 	0.1161692085254827 	101277.6032744192
-1.222472472472472 	299.9600873173125 	0.1156247405215224 	101277.8233266436
-1.21996996996997 	299.9602810536737 	0.1150688910148664 	101278.0522956161
-1.217467467467467 	299.9604821799784 	0.1144900184516597 	101278.2899986881
-1.214964964964965 	299.960690546965 	0.1138862714339636 	101278.5362588806
-1.212462462462462 	299.9609063451985 	0.1132597226755174 	101278.791301428
-1.20995995995996 	299.9611294733662 	0.1126117108715701 	101279.0550065735
-1.207457457457457 	299.9613598660774 	0.1119460037628725 	101279.3272977385
-1.204954954954955 	299.9615974678926 	0.1112591724734915 	101279.6081093868
-1.202452452452452 	299.9618418022812 	0.1105520311840678 	101279.8968788625
-1.19994994994995 	299.962092871408 	0.1098234988580954 	101280.1936078276
-1.197447447447447 	299.9623509325406 	0.1090749928714316 	101280.4986001717
-1.194944944944945 	299.9626158880867 	0.1083070646186451 	101280.8117414719
-1.192442442442442 	299.9628877394871 	0.1075184297693142 	101281.1330332865
-1.18993993993994 	299.9631665376704 	0.1067118155030813 	101281.4625360993
-1.187437437437437 	299.9634523925432 	0.1058839286073014 	101281.8003791176
-1.184934934934935 	299.9637453084709 	0.1050357338805224 	101282.1465673676
-1.182432432432432 	299.9640450380306 	0.1041667144041986 	101282.5008091948
-1.17992992992993 	299.9643511921186 	0.1032782880545802 	101282.862644635
-1.177427427427427 	299.9646634463711 	0.1023760621177787 	101283.231690623
-1.174924924924925 	299.9649821548416 	0.1014541522698775 	101283.6083656892
-1.172422422422422 	299.9653072905181 	0.1005120574598925 	101283.9926385185
-1.16991991991992 	299.9656385702343 	0.09954775193588628 	101284.3841732454
-1.167417417417417 	299.9659762480837 	0.09856490155083431 	101284.7832684817
-1.164914914914915 	299.9663203044003 	0.09757153173225952 	101285.1899029627
-1.162412412412412 	299.9666708728003 	0.09655894950894758 	101285.6042373905
-1.15990990990991 	299.9670282779803 	0.09552597567918189 	101286.026656658
-1.157407407407407 	299.9673915400916 	0.09447141698922742 	101286.4559989226
-1.154904904904904 	299.9677602236173 	0.09339962893281464 	101286.8917449599
-1.152402402402403 	299.9681349945585 	0.09231823330511288 	101287.3346828471
-1.1498998998999 	299.9685155354341 	0.09121886079884133 	101287.7844412178
-1.147397397397397 	299.9689015002905 	0.09010046537031322 	101288.240617017
-1.144894894894895 	299.9692933111097 	0.08896197963844552 	101288.7037104021
-1.142392392392392 	299.9696904292594 	0.08780651377284283 	101289.1730801811
-1.13988988988989 	299.9700930396301 	0.08664049765540276 	101289.6489397592
-1.137387387387387 	299.9705023720385 	0.08545847650979015 	101290.1327386512
-1.134884884884885 	299.9709175477485 	0.0842594099009763 	101290.6234377747
-1.132382382382382 	299.9713370525066 	0.08304353631130165 	101291.1192500932
-1.12987987987988 	299.9717616244242 	0.0818117980269514 	101291.6210518423
-1.127377377377377 	299.9721919251081 	0.0805661580549796 	101292.1296271257
-1.124874874874875 	299.9726272892491 	0.07930641587655318 	101292.6441907124
-1.122372372372372 	299.9730672619731 	0.07803265658695811 	101293.164206829
-1.11986986986987 	299.9735117099044 	0.07674126386796351 	101293.6895170767
-1.117367367367367 	299.973961098282 	0.07543529460747841 	101294.2206694406
-1.114864864864865 	299.9744160193162 	0.07411842402719608 	101294.758364291
-1.112362362362362 	299.9748758821402 	0.0727886384163967 	101295.3019036366
-1.10985985985986 	299.9753399575551 	0.07144621200632061 	101295.8504251114
-1.107357357357357 	299.9758084547715 	0.07008868056252324 	101296.4041756235
-1.104854854854855 	299.9762817670831 	0.0687160743065954 	101296.9636191732
-1.102352352352353 	299.9767597670534 	0.06733186486310304 	101297.5286042853
-1.09984984984985 	299.977240995271 	0.06593889581652955 	101298.0974082978
-1.097347347347347 	299.9777254802136 	0.06453400007634237 	101298.6700661922
-1.094844844844845 	299.9782160153254 	0.06311070907648135 	101299.2498760941
-1.092342342342342 	299.9787120135413 	0.06167531029798799 	101299.8361431199
-1.08983983983984 	299.9792090474398 	0.06023372132433327 	101300.423637177
-1.087337337337337 	299.9797078431429 	0.05878629813103357 	101301.0132184979
-1.084834834834835 	299.9802126665866 	0.05732662467817801 	101301.6099279607
-1.082332332332332 	299.9807242077715 	0.05584614111901468 	101302.2145774562
-1.07982982982983 	299.9812390296179 	0.05435585690304814 	101302.8231056861
-1.077327327327327 	299.9817541646339 	0.05286122445822594 	101303.4320096571
-1.074824824824825 	299.9822702874075 	0.05136103875737207 	101304.0420852534
-1.072322322322323 	299.9827918038826 	0.04985287974238629 	101304.658535784
-1.06981981981982 	299.9833195740426 	0.04832689173872599 	101305.2823780183
-1.067317317317317 	299.9838508142706 	0.04678867501761657 	101305.9103276917
-1.064814814814815 	299.9843830158259 	0.04524362489249584 	101306.5394216123
-1.062312312312312 	299.9849160130394 	0.04369692385184016 	101307.1694587792
-1.05980980980981 	299.9854507088702 	0.0421501535391762 	101307.8014995515
-1.057307307307307 	299.9859893271001 	0.04059188546518273 	101308.4381728344
-1.054804804804805 	299.9865322763578 	0.03902041865118433 	101309.0799715531
-1.052302302302302 	299.9870788867865 	0.03743502213829396 	101309.7261119721
-1.0497997997998 	299.9876286089341 	0.03584082202501028 	101310.3759409477
-1.047297297297297 	299.988180142869 	0.03424577727268403 	101311.0279107112
-1.044794794794795 	299.9887315126114 	0.03264933129010342 	101311.6796756832
-1.042292292292292 	299.989282582577 	0.03105307172159692 	101312.3310775326
-1.03978978978979 	299.989834869413 	0.02945157762895904 	101312.9839217861
-1.037287287287287 	299.9903906752907 	0.0278388642590385 	101313.6409421293
-1.034784784784785 	299.9909518272258 	0.02621425164177092 	101314.3043003804
-1.032282282282283 	299.9915169807384 	0.02457951742260297 	101314.9723988671
-1.02977977977978 	299.9920827105835 	0.02294187365509677 	101315.64117625
-1.027277277277277 	299.9926474235984 	0.02130506648449355 	101316.3087406493
-1.024774774774775 	299.9932116161698 	0.01966965061831873 	101316.975676934
-1.022272272272272 	299.993776247755 	0.01803338902553742 	101317.643124139
-1.01976976976977 	299.9943426103366 	0.0163932386631142 	101318.3126207788
-1.017267267267267 	299.9949111440658 	0.01474750585814835 	101318.9846999753
-1.014764764764765 	299.9954817120931 	0.01309333366247396 	101319.6592048629
-1.012262262262262 	299.9960538805726 	0.01143516493186274 	101320.3356196594
-1.00975975975976 	299.9966261877227 	0.009778123063832623 	101321.0122129528
-1.007257257257257 	299.9971969504875 	0.008124126877856472 	101321.6869925448
-1.004754754754755 	299.997767060279 	0.006473096751485644 	101322.3610075208
-1.002252252252252 	299.9983378650672 	0.004818887876347096 	101323.035843909
-0.9997497497497498 	299.9989107558919 	0.003157773597006763 	101323.7131413475
-0.9972472472472473 	299.9994873277691 	0.001488415034334525 	101324.3947878547
-0.9947447447447449 	300.000066725118 	0.0008418669847247126 	101325.0797746811
-0.9922422422422421 	300.0006456850926 	0.001864128396411018 	101325.764242259
-0.9897397397397399 	300.0012223578914 	0.003534650144493927 	101326.4459990741
-0.9872372372372376 	300.0017968543186 	0.005199063818751295 	101327.1251770694
-0.9847347347347346 	300.0023697137268 	0.006858734211330833 	101327.8024229724
-0.9822322322322323 	300.0029413953094 	0.008514964164366493 	101328.4782873999
-0.9797297297297296 	300.0035121957903 	0.01016860196848606 	101329.1531166812
-0.9772272272272275 	300.0040822606948 	0.01182005236218691 	101329.8270707986
-0.9747247247247248 	300.0046516147522 	0.01346938987813581 	101330.5001750517
-0.9722222222222224 	300.0052201981752 	0.01511647813106315 	101331.1723696784
-0.9697197197197196 	300.0057879074976 	0.01676106033015799 	101331.8435469615
-0.9672172172172175 	300.0063546314299 	0.01840282013956043 	101332.5135762479
-0.9647147147147147 	300.0069202661543 	0.02004142092256153 	101333.1823193539
-0.9622122122122124 	300.0074847086687 	0.02167652514583785 	101333.8496383008
-0.9597097097097099 	300.0080478438525 	0.02330780016167376 	101334.5153975511
-0.9572072072072073 	300.0086095428737 	0.02493491824736487 	101335.1794634383
-0.9547047047047047 	300.0091696779991 	0.02655755539763116 	101335.8417036648
-0.9522022022022023 	300.009728138143 	0.02817539319802124 	101336.5019882058
-0.9496996996996998 	300.0102848321445 	0.02978812123776427 	101337.160190336
-0.9471971971971973 	300.0108396746174 	0.03139543518790956 	101337.8161861659
-0.9446946946946947 	300.0113925676636 	0.03299703345623362 	101338.4698528773
-0.9421921921921923 	300.0119433951414 	0.03459261507004171 	101339.1210673489
-0.93968968968969 	300.0124920316431 	0.03618187880785526 	101339.7697065167
-0.9371871871871872 	300.0130383597294 	0.03776452610134495 	101340.4156486062
-0.9346846846846848 	300.013582280642 	0.03934026338889222 	101341.0587736557
-0.9321821821821823 	300.0141237118464 	0.04090880036229318 	101341.6989632592
-0.9296796796796799 	300.0146625752166 	0.04246984886763933 	101342.3360999532
-0.9271771771771771 	300.0151987828509 	0.04402312193642867 	101342.970066494
-0.9246746746746748 	300.0157322307637 	0.04556833203879247 	101343.6007455039
-0.9221721721721724 	300.0162628027064 	0.04710519211312818 	101344.2280196947
-0.9196696696696698 	300.016790380233 	0.04863341782276072 	101344.8517727336
-0.9171671671671672 	300.0173148537501 	0.05015272863886304 	101345.471890237
-0.9146646646646649 	300.0178361267413 	0.05166284812162418 	101346.0882595001
-0.9121621621621623 	300.0183541138463 	0.05316350111984314 	101346.700768135
-0.9096596596596597 	300.0188687361781 	0.054654411152408 	101347.3093033281
-0.9071571571571573 	300.0193799153984 	0.05613530216422539 	101347.913752224
-0.9046546546546547 	300.0198875691001 	0.05760590068508097 	101348.5140029296
-0.9021521521521524 	300.0203916079928 	0.05906593665661825 	101349.1099452959
-0.8996496496496498 	300.0208919365101 	0.0605151437588389 	101349.7014705848
-0.8971471471471473 	300.0213884551745 	0.06195325816419112 	101350.2884709181
-0.894644644644645 	300.0218810642614 	0.0633800183373352 	101350.8708395924
-0.892142142142142 	300.0223696664833 	0.06479516615288933 	101351.4484712106
-0.8896396396396397 	300.022854166973 	0.06619844499881523 	101352.0212610142
-0.8871371371371374 	300.0233344730176 	0.06758959727872763 	101352.5891040007
-0.8846346346346349 	300.0238104932707 	0.06896836353886324 	101353.1518940802
-0.8821321321321324 	300.0242821370524 	0.07033448248459799 	101353.7095243093
-0.8796296296296297 	300.0247493155841 	0.07168769439432243 	101354.2618885747
-0.8771271271271271 	300.0252119419988 	0.07302774392185052 	101354.8088825751
-0.8746246246246248 	300.025669931044 	0.07435437897827617 	101355.3504033669
-0.8721221221221224 	300.0261231979831 	0.07566734965444448 	101355.8863489556
-0.8696196196196196 	300.0265716585324 	0.07696640831074048 	101356.4166180728
-0.8671171171171175 	300.0270152291866 	0.07825130961246254 	101356.9411103542
-0.8646146146146148 	300.0274538276132 	0.0795218134339449 	101357.4597276201
-0.8621121121121121 	300.0278873740695 	0.08077768610752689 	101357.9723744925
-0.8596096096096097 	300.0283157898462 	0.08201869798160849 	101358.4789573192
-0.857107107107107 	300.0287389967148 	0.08324462218188311 	101358.9793833793
-0.8546046046046049 	300.0291569174159 	0.08445523338320125 	101359.4735606909
-0.8521021021021022 	300.0295694744952 	0.08565030696762602 	101359.9613975837
-0.8495995995995997 	300.0299765914249 	0.08682962163249736 	101360.4428034102
-0.8470970970970974 	300.0303781937612 	0.08799296132250577 	101360.9176899819
-0.8445945945945946 	300.0307742088919 	0.0891401145632299 	101361.3859712648
-0.8420920920920922 	300.031164565168 	0.09027087375380566 	101361.847562346
-0.8395895895895897 	300.0315491914693 	0.09138503383350757 	101362.3023793599
-0.8370870870870872 	300.0319280175499 	0.09248239072721205 	101362.750338957
-0.8345845845845846 	300.0323009728805 	0.09356274156258071 	101363.1913576985
-0.8320820820820823 	300.0326679878851 	0.09462588610762993 	101363.6253533359
-0.8295795795795798 	300.0330289953126 	0.0956716287658534 	101364.0522460763
-0.8270770770770772 	300.033383929168 	0.09669977830762475 	101364.4719579638
-0.8245745745745746 	300.0337327249493 	0.09771014681917022 	101364.8844125903
-0.8220720720720721 	300.0340753198309 	0.09870255083912378 	101365.2895356532
-0.8195695695695699 	300.0344116521011 	0.09967681033468795 	101365.6872540665
-0.817067067067067 	300.0347416599168 	0.1006327463868146 	101366.0774946843
-0.8145645645645651 	300.0350652820186 	0.101570182773131 	101366.4601850563
-0.8120620620620621 	300.0353824588337 	0.1024889471239974 	101366.8352544479
-0.8095595595595597 	300.0356931313232 	0.103388869093251 	101367.2026332037
-0.8070570570570572 	300.0359972414707 	0.1042697811248348 	101367.5622527126
-0.8045545545545546 	300.0362947336494 	0.1051315212020545 	101367.9140469003
-0.8020520520520523 	300.0365855539484 	0.1059739330428535 	101368.2579520829
-0.7995495495495494 	300.0368696489446 	0.1067968637939699 	101368.5939049638
-0.7970470470470474 	300.0371469656656 	0.1076001631559244 	101368.9218429647
-0.7945445445445446 	300.0374174537919 	0.1083836857905653 	101369.2417064699
-0.7920420420420423 	300.0376810647832 	0.1091472898432954 	101369.5534379748
-0.7895395395395397 	300.0379377496245 	0.1098908329837006 	101369.8569795682
-0.7870370370370371 	300.0381874605533 	0.1106141762926287 	101370.1522746142
-0.7845345345345348 	300.0384301530652 	0.1113171888348387 	101370.4392704665
-0.7820320320320323 	300.0386657835953 	0.1119997413138108 	101370.717915564
-0.7795295295295296 	300.0388943070701 	0.1126617029132932 	101370.9881566123
-0.7770270270270272 	300.0391156808062 	0.1133029500208523 	101371.2499430176
-0.7745245245245247 	300.0393298664508 	0.1139233697237133 	101371.5032292359
-0.7720220220220222 	300.0395368240648 	0.1145228486947366 	101371.7479681968
-0.7695195195195199 	300.0397365114022 	0.115101270688012 	101371.9841098865
-0.767017017017017 	300.0399288918049 	0.115658531342296 	101372.2116107996
-0.7645145145145147 	300.0401139342247 	0.1161945379791691 	101372.4304342847
-0.7620120120120122 	300.0402916032915 	0.1167091884628987 	101372.6405383926
-0.7595095095095097 	300.0404618605153 	0.1172023751363476 	101372.8418777173
-0.7570070070070072 	300.0406246776382 	0.1176740109160318 	101373.0344186733
-0.7545045045045048 	300.0407800320145 	0.1181240203712102 	101373.2181344552
-0.7520020020020022 	300.0409278904568 	0.1185523093765445 	101373.3929858992
-0.7494994994994997 	300.0410682171039 	0.1189587825885664 	101373.5589301602
-0.7469969969969972 	300.0412009920019 	0.1193433810962868 	101373.7159439793
-0.7444944944944945 	300.0413262008713 	0.119706057180114 	101373.8640105134
-0.7419919919919924 	300.0414438111317 	0.1200467255597656 	101374.0030912086
-0.7394894894894897 	300.0415537877239 	0.1203652968286713 	101374.1331444668
-0.7369869869869872 	300.0416561224529 	0.1206617357273469 	101374.2541602285
-0.7344844844844846 	300.041750812632 	0.1209360160209259 	101374.3661355611
-0.7319819819819822 	300.0418378257746 	0.1211880507210233 	101374.4690319545
-0.7294794794794797 	300.0419171244616 	0.121417751427769 	101374.5628056541
-0.7269769769769773 	300.0419887121989 	0.1216251175495712 	101374.6474606043
-0.7244744744744747 	300.0420526022858 	0.1218101664323219 	101374.7230121923
-0.721971971971972 	300.042108761152 	0.1219728178305618 	101374.7894205346
-0.7194694694694695 	300.0421571432169 	0.1221129702545194 	101374.8466315832
-0.7169669669669674 	300.0421977624041 	0.1222306488392029 	101374.894662461
-0.7144644644644647 	300.0422306574753 	0.122325923574757 	101374.9335590845
-0.711961961961962 	300.0422557992914 	0.1223987194982445 	101374.9632869134
-0.7094594594594597 	300.0422731226058 	0.1224488962723454 	101374.9837685853
-0.7069569569569573 	300.0422826429997 	0.1224764933389544 	101374.9950219092
-0.7044544544544545 	300.042284436242 	0.1224816717180871 	101374.9971360908
-0.7019519519519523 	300.0422784910104 	0.1224644018025947 	101374.9900989407
-0.6994494494494495 	300.0422647092315 	0.1224244732494831 	101374.9737954274
-0.6969469469469471 	300.0422430834379 	0.1223618762343784 	101374.9482157657
-0.6944444444444446 	300.0422137351109 	0.122276877560073 	101374.9135035396
-0.6919419419419421 	300.0421767155348 	0.122169579816796 	101374.8697188452
-0.6894394394394396 	300.0421319002641 	0.1220397110315874 	101374.8167143538
-0.6869369369369374 	300.0420792007388 	0.1218870970424153 	101374.7543852069
-0.6844344344344344 	300.0420187533967 	0.1217120581503079 	101374.682893474
-0.6819319319319321 	300.0419507281889 	0.1215149660363198 	101374.6024407303
-0.6794294294294296 	300.0418750384302 	0.1212956165469492 	101374.5129245177
-0.6769269269269272 	300.0417914676712 	0.1210535416294186 	101374.4140888593
-0.6744244244244245 	300.0417000620635 	0.120788877883599 	101374.3059879442
-0.6719219219219222 	300.0416011294725 	0.1205023295667251 	101374.1889853721
-0.6694194194194195 	300.0414947742138 	0.1201941164967206 	101374.0632037615
-0.6669169169169172 	300.0413807016815 	0.1198635721551151 	101373.9282947968
-0.6644144144144146 	300.04125868394 	0.1195102175370556 	101373.7839898214
-0.661911911911912 	300.0411290022387 	0.11913473272231 	101373.6306221923
-0.6594094094094097 	300.04099210705 	0.1187381450535589 	101373.4687250465
-0.656906906906907 	300.0408479309996 	0.1183202768418924 	101373.2982186025
-0.6544044044044046 	300.0406959384308 	0.1178799119636477 	101373.1184690606
-0.6519019019019021 	300.0405359572973 	0.1174167152808011 	101372.9292730047
-0.6493993993993996 	300.040368575139 	0.1169320873880013 	101372.7313248988
-0.6468968968968971 	300.0401943890005 	0.11642739170654 	101372.5253300472
-0.6443943943943946 	300.0400131089607 	0.1159019166251168 	101372.3109448536
-0.6418918918918921 	300.0398238941893 	0.1153537276332228 	101372.0871749894
-0.6393893893893897 	300.0396266000683 	0.1147825752952107 	101371.8538505083
-0.6368868868868871 	300.039422178886 	0.1141907512452766 	101371.6120983833
-0.6343843843843846 	300.0392114990215 	0.1135802664153547 	101371.3629453239
-0.6318818818818821 	300.0389940948131 	0.1129499640396666 	101371.1058404245
-0.6293793793793795 	300.0387686689905 	0.1122967972210878 	101370.839249853
-0.6268768768768773 	300.03853487891 	0.1116200662884267 	101370.5627689773
-0.6243743743743745 	300.0382939974679 	0.1109230046669025 	101370.2779610329
-0.6218718718718721 	300.0380475753784 	0.1102090891459194 	101369.9865639251
-0.6193693693693696 	300.0377953106325 	0.1094774389378668 	101369.6881848565
-0.6168668668668671 	300.0375351988987 	0.1087234510146182 	101369.3805621694
-0.6143643643643645 	300.037266141111 	0.1079445613382805 	101369.0623795145
-0.6118618618618621 	300.0369894996454 	0.107144167996626 	101368.7352313728
-0.6093593593593596 	300.0367077682503 	0.1063283254124469 	101368.4020660504
-0.6068568568568571 	300.0364216207813 	0.1054985571140824 	101368.0636786399
-0.6043543543543546 	300.0361288565342 	0.1046494158403906 	101367.7174654993
-0.6018518518518521 	300.0358267914835 	0.1037744203380243 	101367.3602535889
-0.5993493493493496 	300.035515545597 	0.102874055543642 	101366.9921872912
-0.5968468468468471 	300.035198350842 	0.1019563809303527 	101366.6170893134
-0.5943443443443446 	300.0348781979277 	0.1010287003308282 	101366.2384947189
-0.591841841841842 	300.0345543790411 	0.1000891055602682 	101365.8555640473
-0.5893393393393397 	300.0342228972379 	0.09912763735141084 	101365.4635701165
-0.5868368368368371 	300.033880641596 	0.09813670976176947 	101365.0588364874
-0.5843343343343346 	300.0335290204576 	0.09712005720847462 	101364.6430317349
-0.5818318318318321 	300.0331730226571 	0.09609024127760418 	101364.2220558154
-0.5793293293293297 	300.0328163336423 	0.09505638664918266 	101363.8002642126
-0.5768268268268271 	300.0324573683599 	0.0940143251324726 	101363.3757790239
-0.5743243243243245 	300.0320904170543 	0.09294961988400922 	101362.9418478697
-0.5718218218218221 	300.0317111024571 	0.09185137774173464 	101362.4932978456
-0.5693193193193196 	300.0313209682718 	0.09072375673035593 	101362.0319583665
-0.5668168168168171 	300.0309266090215 	0.08958362254143519 	101361.5656289366
-0.5643143143143147 	300.0305338428875 	0.08844569142458325 	101361.101186302
-0.5618118118118121 	300.0301421905251 	0.08730853725005283 	101360.6380588284
-0.5593093093093094 	300.0297448354312 	0.08615460934944576 	101360.1681842707
-0.5568068068068072 	300.0293343751968 	0.08496502476689378 	101359.6828119959
-0.5543043043043046 	300.0289094736075 	0.08373659821168808 	101359.1803673042
-0.551801801801802 	300.0284765865257 	0.08248616908724123 	101358.6684878597
-0.5492992992992995 	300.0280450521144 	0.08123787032771811 	101358.1582143176
-0.5467967967967969 	300.027619468982 	0.08000345009716703 	101357.6549792293
-0.5442942942942947 	300.0271956269753 	0.07877179379238937 	101357.1537990463
-0.5417917917917919 	300.0267633995137 	0.07751650109736599 	101356.6426986687
-0.5392892892892895 	300.0263144680038 	0.07621602104249725 	101356.1118460883
-0.536786786786787 	300.0258489725834 	0.07487096209491692 	101355.5614135127
-0.5342842842842846 	300.0253759726558 	0.07350522655285709 	101355.0021173217
-0.531781781781782 	300.0249072436659 	0.07214973456035956 	101354.4478794712
-0.5292792792792794 	300.0244488823726 	0.07082039987827368 	101353.9059027501
-0.526776776776777 	300.0239967449445 	0.0695061304057485 	101353.3712808979
-0.5242742742742745 	300.0235389155458 	0.06817534636578325 	101352.8299220017
-0.521771771771772 	300.0230635139177 	0.06679664748068614 	101352.2677823766
-0.5192692692692695 	300.0225666503444 	0.06535989797102015 	101351.6802702646
-0.516766766766767 	300.022055348134 	0.06388396574025079 	101351.0756962204
-0.5142642642642645 	300.0215435629356 	0.06240613525550932 	101350.4705632598
-0.511761761761762 	300.0210438342398 	0.0609598776350406 	101349.8796934829
-0.5092592592592596 	300.0205597376297 	0.05955467353952262 	101349.3073069785
-0.506756756756757 	300.0200835995024 	0.05816982151547525 	101348.7443241768
-0.5042542542542544 	300.019600623949 	0.05676546474873784 	101348.1732487628
-0.5017517517517521 	300.0190969455583 	0.05530427430258093 	101347.5776908388
-0.4992492492492494 	300.0185671755489 	0.05377182958422783 	101346.9512866678
-0.496746746746747 	300.018017492866 	0.05218499163690465 	101346.3013494879
-0.4942442442442445 	300.0174627881503 	0.05058421250026775 	101345.6454888033
-0.4917417417417421 	300.0169194674717 	0.04901408656637456 	101345.0031000526
-0.4892392392392395 	300.0163976329434 	0.04750211589607805 	101344.3861207433
-0.486736736736737 	300.0158963949706 	0.04604584748192255 	101343.7934910755
-0.4842342342342345 	300.0154042491268 	0.04461376280132518 	101343.2116032046
-0.481731731731732 	300.0149039985992 	0.04315866771772012 	101342.6201233385
-0.4792292292292296 	300.014379866091 	0.04163722318779659 	101342.0004018379
-0.4767267267267268 	300.0138238485099 	0.04002747055065212 	101341.3429836745
-0.4742242242242246 	300.0132389201054 	0.03833769998054246 	101340.6513930312
-0.471721721721722 	300.0126380376639 	0.03660375706764138 	101339.9409547845
-0.4692192192192195 	300.0120395312546 	0.03487639075713068 	101339.233341882
-0.4667167167167169 	300.0114607812964 	0.03320384634041754 	101338.5491001885
-0.4642142142142145 	300.0109125674778 	0.03161615470807707 	101337.9009677308
-0.461711711711712 	300.0103958620766 	0.03011608735347985 	101337.290086833
-0.4592092092092094 	300.0099017515155 	0.02867880386655363 	101336.7059127167
-0.456706706706707 	300.0094141438131 	0.02725924496496646 	101336.1294164871
-0.4542042042042045 	300.0089140893213 	0.0258041742342168 	101335.5381945796
-0.451701701701702 	300.0083843917311 	0.02426517431778833 	101334.9119189629
-0.4491991991991995 	300.0078134473354 	0.02260953529667209 	101334.2368766268
-0.4466966966966969 	300.0071976241105 	0.02082702786290707 	101333.508780156
-0.4441941941941945 	300.0065418809681 	0.0189316958282869 	101332.733498607
-0.441691691691692 	300.0058586998009 	0.01695887090428116 	101331.9257939362
-0.4391891891891895 	300.0051657125933 	0.01495849924027575 	101331.1065140477
-0.436686686686687 	300.0044826222985 	0.01298651228519215 	101330.2989529499
-0.4341841841841846 	300.0038281651579 	0.01109639391284133 	101329.5252591606
-0.431681681681682 	300.0032179258609 	0.009332938922637538 	101328.8038541354
-0.4291791791791794 	300.0026632480664 	0.007728943022969951 	101328.1481445194
-0.426676676676677 	300.0021709663952 	0.006304322199348641 	101327.5662063153
-0.4241741741741744 	300.0017437097723 	0.005066917321008405 	101327.0611438648
-0.421671671671672 	300.001380565178 	0.004014356398846084 	101326.6318749411
-0.4191691691691694 	300.0010779162657 	0.003136437733864995 	101326.2741220912
-0.4166666666666669 	300.0008303092113 	0.002417608648959392 	101325.9814363619
-0.4141641641641645 	300.0006312444127 	0.001839243058055138 	101325.7461332615
-0.411661661661662 	300.0004738359115 	0.001381544480643676 	101325.5600714035
-0.4091591591591594 	300.0003513120394 	0.001025002183060516 	101325.4152458063
-0.406656656656657 	300.0002573635327 	0.0007514027483324713 	101325.3041979482
-0.4041541541541545 	300.0001863531961 	0.0005444462578502547 	101325.2202637176
-0.401651651651652 	300.0001334137282 	0.0003900408891021048 	101325.1576900012
-0.3991491491491494 	300.0000944649642 	0.0002763563640979165 	101325.1116532475
-0.396646646646647 	300.0000661714863 	0.0001937124130187703 	101325.0782112273
-0.3941441441441444 	300.0000458690548 	0.0001343667741628366 	101325.0542144821
-0.3916416416416419 	300.0000314722569 	9.225385629305164e-05 	101325.0371981829
-0.3891391391391395 	300.0000213797757 	6.271063248783727e-05 	101325.0252693604
-0.3866366366366368 	300.0000143828265 	4.221457236982685e-05 	101325.0169993911
-0.3841341341341344 	300.0000095840513 	2.814773565877676e-05 	101325.0113275097
-0.381631631631632 	300.0000063270442 	1.859409837538479e-05 	101325.007478045
-0.3791291291291294 	300.0000041390535 	1.217148262791059e-05 	101325.0048919318
-0.3766266266266269 	300.0000026836195 	7.896426662502241e-06 	101325.0031717092
-0.3741241241241244 	300.0000017248029 	5.078258364897531e-06 	101325.0020384738
-0.371621621621622 	300.0000010990705 	3.237951254603272e-06 	101325.0012989425
-0.3691191191191194 	300.0000006944784 	2.047242697815571e-06 	101325.0008207649
-0.366616616616617 	300.0000004352216 	1.283742940616223e-06 	101325.0005143504
-0.3641141141141143 	300.0000002704744 	7.984819083342665e-07 	101325.000319724
-0.3616116116116119 	300.0000001667736 	4.927058571198664e-07 	101325.0001971648
-0.3591091091091095 	300.000000102071 	3.016571249385909e-07 	101325.0001206364
-0.356606606606607 	300.0000000619397 	1.832702340362904e-07 	101325.0000732446
-0.3541041041041044 	300.0000000373458 	1.105060388915498e-07 	101325.0000441342
-0.3516016016016019 	300.0000000223481 	6.613823230051151e-08 	101325.0000263949
-0.3490990990990994 	300.0000000132623 	3.929523882617203e-08 	101325.000015669
-0.346596596596597 	300.0000000078838 	2.318215026800308e-08 	101325.0000092335
-0.3440940940940944 	300.0000000046497 	1.357801421119932e-08 	101325.0000054007
-0.3415915915915919 	300.0000000026781 	7.900787060456724e-09 	101325.0000031352
-0.3390890890890895 	300.0000000015103 	4.563344664563472e-09 	101325.0000018057
-0.3365865865865869 	300.0000000009019 	2.620862811982197e-09 	101325.0000010309
-0.3340840840840844 	300.0000000005141 	1.493761306343707e-09 	101325.0000005826
-0.3315815815815819 	300.0000000003141 	8.486156035795087e-10 	101325.000000325
-0.3290790790790794 	300.0000000001871 	4.782297775790006e-10 	101325.0000001778
-0.3265765765765769 	299.9999999999995 	2.70606016184699e-10 	101325.0000000946
-0.3240740740740744 	300.0000000000387 	1.499503748197559e-10 	101325.0000000475
-0.3215715715715718 	300.0000000000323 	8.656721864059918e-11 	101325.0000000215
-0.3190690690690695 	299.9999999999336 	4.654339478551175e-11 	101325.0000000068
-0.3165665665665668 	299.9999999999978 	2.846407865925025e-11 	101324.9999999989
-0.3140640640640644 	300.0000000000119 	1.318561932352099e-11 	101324.9999999945
-0.311561561561562 	299.99999999991 	1.060487643011952e-11 	101324.9999999923
-0.3090590590590593 	299.9999999999908 	1.708082461512344e-12 	101324.9999999911
-0.3065565565565568 	300.0000000000035 	5.833737425032525e-12 	101324.9999999904
-0.3040540540540545 	300.0000000000065 	2.744201720136123e-12 	101324.9999999901
-0.3015515515515518 	300.0000000000434 	5.837649844492193e-12 	101324.9999999901
-0.2990490490490494 	299.9999999999377 	1.396180982152288e-12 	101324.9999999899
-0.2965465465465469 	299.9999999999895 	5.010842735128998e-12 	101324.99999999
-0.2940440440440444 	300.0000000000084 	3.422356383744566e-12 	101324.9999999901
-0.2915415415415418 	300.0000000000039 	5.16091927040243e-12 	101324.99999999
-0.2890390390390395 	300.0000000000038 	4.94023442629386e-12 	101324.99999999
-0.2865365365365368 	299.9999999999848 	4.856721824154805e-12 	101324.9999999901
-0.2840340340340343 	299.9999999999918 	6.609841928303943e-12 	101324.9999999903
-0.2815315315315318 	299.9999999999196 	4.400540870033457e-12 	101324.9999999899
-0.2790290290290295 	299.9999999999402 	6.175684411022102e-12 	101324.99999999
-0.2765265265265269 	300.0000000000091 	4.965056251276234e-12 	101324.9999999902
-0.2740240240240244 	300.0000000000386 	5.528578504776471e-12 	101324.9999999902
-0.2715215215215219 	300.0000000000124 	4.996745772836335e-12 	101324.9999999904
-0.2690190190190194 	299.9999999999322 	4.275638925192086e-12 	101324.9999999904
-0.2665165165165169 	299.9999999999987 	4.870523844278931e-12 	101324.9999999904
-0.2640140140140144 	299.999999999952 	3.311541350137796e-12 	101324.9999999906
-0.2615115115115119 	300.0000000000014 	4.599056869541016e-12 	101324.9999999904
-0.2590090090090094 	299.9999999999137 	2.938668529640241e-12 	101324.99999999
-0.2565065065065068 	299.9999999999961 	3.70660231224708e-12 	101324.9999999899
-0.2540040040040044 	300.0000000000002 	4.276361910964928e-12 	101324.9999999901
-0.2515015015015019 	300.0000000000531 	3.479557820733142e-12 	101324.9999999897
-0.2489989989989994 	300.0000000000621 	5.974298943425335e-12 	101324.9999999895
-0.2464964964964968 	299.9999999999927 	2.473576463756394e-12 	101324.9999999895
-0.2439939939939944 	299.9999999999975 	7.059120433583194e-12 	101324.9999999894
-0.2414914914914919 	299.999999999967 	2.662643911153988e-12 	101324.9999999892
-0.2389889889889893 	300.0000000000088 	7.411292599637577e-12 	101324.9999999896
-0.2364864864864869 	300.0000000000327 	3.050980349400074e-12 	101324.9999999897
-0.2339839839839843 	299.9999999999044 	7.979434112788748e-12 	101324.9999999895
-0.2314814814814819 	299.999999999984 	3.71181134754618e-12 	101324.9999999895
-0.2289789789789792 	299.9999999999009 	7.707892038229519e-12 	101324.9999999895
-0.2264764764764769 	299.9999999999342 	4.551637320295766e-12 	101324.9999999897
-0.2239739739739743 	299.9999999999482 	5.757154489483227e-12 	101324.9999999899
-0.2214714714714718 	299.9999999999214 	4.113220156347053e-12 	101324.9999999897
-0.2189689689689693 	299.99999999996 	4.149909373025644e-12 	101324.9999999892
-0.2164664664664669 	299.9999999999754 	5.187540736111806e-12 	101324.9999999892
-0.2139639639639643 	299.9999999999081 	3.556382817173147e-12 	101324.9999999892
-0.2114614614614618 	299.9999999999704 	4.439940066668387e-12 	101324.9999999892
-0.2089589589589593 	299.9999999999881 	5.304840583747242e-12 	101324.9999999893
-0.2064564564564568 	299.9999999999863 	5.053554763106186e-12 	101324.9999999895
-0.2039539539539543 	299.9999999998855 	5.797590575287478e-12 	101324.9999999892
-0.2014514514514518 	299.9999999999333 	2.729886870425281e-12 	101324.9999999894
-0.1989489489489494 	299.9999999999649 	5.451490963454666e-12 	101324.9999999893
-0.1964464464464468 	299.9999999999866 	1.337436530028145e-12 	101324.9999999894
-0.1939439439439443 	299.9999999999832 	4.145458318992702e-12 	101324.9999999892
-0.1914414414414418 	299.9999999998917 	8.537658398543821e-13 	101324.9999999893
-0.1889389389389393 	300.0000000000084 	2.25804807278904e-12 	101324.9999999891
-0.1864364364364368 	300.0000000000596 	5.809244863631296e-13 	101324.9999999894
-0.1839339339339343 	299.9999999999618 	2.782971432383262e-12 	101324.9999999895
-0.1814314314314318 	299.9999999999978 	6.328034546620627e-13 	101324.9999999892
-0.1789289289289293 	299.999999999877 	3.209224903532876e-12 	101324.9999999891
-0.1764264264264268 	299.9999999999715 	4.841448604916476e-13 	101324.9999999893
-0.1739239239239243 	299.9999999998759 	4.751164276508297e-12 	101324.9999999893
-0.1714214214214218 	299.9999999999847 	8.883603195570202e-13 	101324.9999999897
-0.1689189189189193 	299.9999999999458 	6.563031778967556e-12 	101324.9999999897
-0.1664164164164168 	300.0000000000066 	2.205195479247965e-12 	101324.9999999898
-0.1639139139139143 	299.9999999999872 	7.320470134935738e-12 	101324.99999999
-0.1614114114114118 	300.0000000000409 	4.450540334222364e-12 	101324.9999999897
-0.1589089089089093 	299.9999999999994 	8.913537937895729e-12 	101324.9999999895
-0.1564064064064068 	299.9999999999803 	5.2594823698665e-12 	101324.9999999895
-0.1539039039039043 	299.999999999985 	9.702215384182541e-12 	101324.9999999894
-0.1514014014014018 	300.000000000034 	3.759186376103447e-12 	101324.9999999893
-0.1488988988988993 	299.9999999999762 	9.857174529399242e-12 	101324.9999999892
-0.1463963963963968 	300.0000000000026 	2.264657182671364e-12 	101324.9999999892
-0.1438938938938943 	299.9999999999391 	9.450840397171458e-12 	101324.999999989
-0.1413913913913918 	299.9999999998994 	8.040009284510737e-13 	101324.9999999889
-0.1388888888888893 	299.9999999999741 	7.019981015408608e-12 	101324.9999999888
-0.1363863863863868 	299.9999999998647 	6.181159056865083e-13 	101324.999999989
-0.1338838838838843 	299.9999999998873 	5.053273977897838e-12 	101324.9999999888
-0.1313813813813818 	299.9999999999949 	9.701827497032148e-13 	101324.9999999892
-0.1288788788788793 	299.9999999999465 	4.732912649061143e-12 	101324.9999999892
-0.1263763763763768 	299.9999999999554 	6.340434250603649e-13 	101324.9999999895
-0.1238738738738743 	299.9999999998975 	4.212119125358681e-12 	101324.9999999895
-0.1213713713713717 	299.9999999999635 	9.441344896295459e-13 	101324.9999999897
-0.1188688688688693 	300.0000000000069 	5.544021505435993e-12 	101324.9999999896
-0.1163663663663668 	299.9999999998783 	4.234164478648199e-13 	101324.9999999893
-0.1138638638638643 	299.9999999999852 	6.975630652843202e-12 	101324.9999999895
-0.1113613613613618 	299.9999999999787 	7.942010821132986e-13 	101324.9999999895
-0.1088588588588592 	299.9999999999615 	7.729597982564486e-12 	101324.9999999895
-0.1063563563563568 	299.9999999999337 	8.773721809274918e-13 	101324.9999999895
-0.1038538538538543 	299.9999999999657 	6.554607372825701e-12 	101324.9999999895
-0.1013513513513517 	300.0000000000163 	1.256801990841266e-12 	101324.9999999892
-0.09884884884884926 	299.9999999999282 	5.691099714206841e-12 	101324.9999999891
-0.09634634634634676 	299.9999999998639 	2.53303011708097e-12 	101324.9999999893
-0.09384384384384425 	299.9999999999109 	5.413797186289176e-12 	101324.9999999887
-0.09134134134134177 	300.0000000000329 	2.875066829919943e-12 	101324.9999999887
-0.08883883883883925 	300.0000000000041 	5.026664240749423e-12 	101324.9999999888
-0.08633633633633674 	299.9999999999415 	2.986606672016511e-12 	101324.9999999888
-0.08383383383383426 	300.0000000000118 	3.613739180430865e-12 	101324.9999999887
-0.08133133133133173 	299.9999999999515 	3.279126650553705e-12 	101324.9999999888
-0.07882882882882926 	299.9999999998487 	3.434910447942104e-12 	101324.9999999889
-0.07632632632632676 	299.999999999948 	2.71827993688415e-12 	101324.9999999884
-0.07382382382382424 	299.999999999871 	3.046142862742637e-12 	101324.9999999885
-0.07132132132132173 	300.0000000000171 	2.756379775193388e-12 	101324.9999999887
-0.06881881881881925 	299.9999999999402 	2.776776000982188e-12 	101324.9999999888
-0.06631631631631671 	299.999999999864 	2.600477949991707e-12 	101324.9999999889
-0.06381381381381425 	299.9999999999426 	2.541833379977721e-12 	101324.9999999892
-0.06131131131131173 	299.9999999999449 	2.641402921819639e-12 	101324.9999999889
-0.05880880880880923 	299.9999999998926 	2.525193926229053e-12 	101324.9999999887
-0.05630630630630672 	299.9999999999594 	2.590216280342605e-12 	101324.9999999889
-0.05380380380380424 	300.000000000014 	2.515380223413466e-12 	101324.9999999887
-0.05130130130130173 	300.000000000013 	2.548496791119911e-12 	101324.9999999888
-0.04879879879879922 	299.9999999999301 	1.599234413326665e-12 	101324.9999999889
-0.04629629629629672 	299.9999999999116 	2.90589410643437e-13 	101324.9999999884
-0.04379379379379422 	299.9999999999023 	3.203193537662845e-13 	101324.9999999885
-0.04129129129129173 	299.9999999999728 	1.175928861208499e-12 	101324.9999999887
-0.03878878878878922 	299.9999999999752 	1.20524830173636e-12 	101324.9999999889
-0.03628628628628671 	299.9999999999744 	9.97905831906576e-13 	101324.999999989
-0.03378378378378422 	299.9999999999054 	5.612241561443884e-13 	101324.999999989
-0.03128128128128172 	299.9999999999576 	7.523285040627513e-13 	101324.9999999889
-0.02877877877877922 	299.9999999999574 	1.904622298321774e-13 	101324.9999999891
-0.0262762762762767 	299.9999999998736 	5.924606040987818e-13 	101324.9999999889
-0.02377377377377422 	300.0000000000171 	4.189120626623653e-13 	101324.999999989
-0.0212712712712717 	299.9999999998813 	1.179515900155935e-14 	101324.9999999888
-0.01876876876876921 	299.9999999999715 	4.9634586518825e-13 	101324.999999989
-0.01626626626626671 	300.0000000000207 	1.061898877997793e-12 	101324.999999989
-0.0137637637637642 	299.9999999999591 	1.023274265708107e-12 	101324.9999999886
-0.0112612612612617 	300.0000000000157 	7.844144928826258e-13 	101324.9999999889
-0.008758758758759198 	300.0000000000025 	5.979572592099937e-13 	101324.9999999891
-0.006256256256256697 	299.9999999998519 	5.802288020635411e-13 	101324.9999999892
-0.003753753753754195 	299.9999999999394 	6.749896575543812e-14 	101324.9999999891
-0.001251251251251693 	299.999999999911 	5.187592175260267e-13 	101324.999999989
0.00125125125125081 	299.9999999999338 	8.389280549035703e-13 	101324.9999999889
0.003753753753753312 	299.9999999999531 	1.62151423568041e-12 	101324.9999999889
0.006256256256255817 	299.9999999998665 	9.927085123141859e-13 	101324.9999999889
0.008758758758758317 	299.9999999999879 	1.098563835949541e-12 	101324.9999999891
0.01126126126126082 	300.0000000000097 	1.438597486697107e-12 	101324.999999989
0.01376376376376332 	299.9999999999579 	9.471472002740036e-13 	101324.9999999891
0.01626626626626582 	300.0000000000175 	3.197802190874692e-13 	101324.9999999891
0.01876876876876833 	299.9999999999336 	7.267494399739222e-14 	101324.9999999892
0.02127127127127083 	299.9999999999603 	6.330045722716235e-13 	101324.9999999893
0.02377377377377332 	299.9999999999924 	6.526074435729691e-13 	101324.9999999893
0.02627627627627583 	299.9999999998772 	7.974550528404768e-13 	101324.9999999893
0.02877877877877833 	300.0000000000152 	1.200194897917365e-12 	101324.9999999894
0.03128128128128083 	299.9999999999299 	5.267256374303326e-13 	101324.9999999896
0.03378378378378333 	299.9999999998815 	6.116650672860751e-13 	101324.9999999896
0.03628628628628584 	299.9999999999566 	2.525443246550112e-14 	101324.9999999893
0.03878878878878834 	299.9999999999773 	5.994992745666575e-13 	101324.999999989
0.04129129129129084 	299.9999999999724 	5.188670166072283e-13 	101324.9999999888
0.04379379379379333 	299.9999999999324 	2.873404605557167e-13 	101324.999999989
0.04629629629629585 	299.9999999998641 	6.239180063030248e-13 	101324.9999999887
0.04879879879879834 	299.9999999999462 	1.738996229442851e-13 	101324.9999999886
0.05130130130130085 	300.0000000000089 	2.219924233792122e-13 	101324.9999999887
0.05380380380380335 	300.0000000000212 	8.154009362502272e-13 	101324.9999999886
0.05630630630630584 	299.9999999999954 	9.612061138935975e-13 	101324.9999999885
0.05880880880880836 	299.9999999999011 	2.597305200561116e-13 	101324.9999999889
0.06131131131131085 	299.9999999999636 	2.160136656754759e-14 	101324.999999989
0.06381381381381336 	299.999999999954 	1.433967834706585e-13 	101324.9999999892
0.06631631631631586 	299.9999999998611 	6.20778224706406e-14 	101324.9999999891
0.06881881881881835 	299.9999999999461 	9.367173907498821e-13 	101324.9999999891
0.07132132132132088 	299.999999999988 	6.208233133745515e-13 	101324.999999989
0.07382382382382337 	299.9999999998739 	1.43290084542809e-12 	101324.9999999892
0.07632632632632587 	299.999999999963 	2.138380056333129e-12 	101324.9999999892
0.07882882882882837 	299.9999999999118 	2.382561722955929e-12 	101324.9999999892
0.08133133133133086 	299.9999999999749 	3.32829698459511e-12 	101324.9999999892
0.08383383383383337 	299.9999999999736 	2.715374588303871e-12 	101324.9999999894
0.08633633633633589 	299.999999999882 	2.799871575592191e-12 	101324.9999999891
0.08883883883883838 	300.0000000000044 	2.883430978010952e-12 	101324.9999999892
0.09134134134134086 	299.9999999999655 	2.445331943604857e-12 	101324.9999999888
0.09384384384384339 	299.999999999862 	3.101576783399916e-12 	101324.9999999885
0.09634634634634588 	299.9999999999471 	3.017883461232225e-12 	101324.9999999887
0.09884884884884838 	299.9999999999644 	3.061961682460695e-12 	101324.9999999885
0.1013513513513509 	300.000000000019 	2.710014246007847e-12 	101324.9999999887
0.1038538538538534 	299.9999999999437 	1.942529183272348e-12 	101324.9999999884
0.1063563563563559 	300.0000000000148 	1.339510202758987e-12 	101324.9999999884
0.1088588588588584 	300.0000000000366 	8.921571697363098e-13 	101324.9999999886
0.1113613613613609 	299.9999999998938 	1.27083488104536e-12 	101324.999999989
0.1138638638638634 	299.9999999999385 	1.91445550359408e-12 	101324.9999999891
0.1163663663663659 	299.9999999999358 	2.007142736654175e-12 	101324.9999999892
0.1188688688688684 	299.9999999999679 	2.872899425212436e-12 	101324.9999999892
0.1213713713713709 	299.9999999999972 	2.175187686903045e-12 	101324.9999999891
0.1238738738738734 	299.9999999999024 	2.505530908781542e-12 	101324.9999999889
0.1263763763763759 	299.9999999999739 	2.358020452796079e-12 	101324.9999999886
0.1288788788788784 	299.9999999999771 	3.092743711759277e-12 	101324.9999999886
0.1313813813813809 	299.9999999999765 	3.012304812820279e-12 	101324.9999999885
0.1338838838838834 	299.9999999999675 	3.975436386809951e-12 	101324.9999999886
0.1363863863863859 	300.0000000000298 	3.038224612156716e-12 	101324.9999999886
0.1388888888888884 	300.0000000000624 	3.660777527248148e-12 	101324.9999999888
0.1413913913913909 	300.0000000000024 	2.009225969315695e-12 	101324.9999999888
0.1438938938938934 	299.9999999999886 	2.803103312512497e-12 	101324.9999999889
0.1463963963963959 	299.9999999999462 	5.784587392161942e-13 	101324.9999999887
0.1488988988988985 	299.999999999884 	2.31447842575137e-12 	101324.9999999888
0.1514014014014009 	299.999999999957 	4.531304027103917e-13 	101324.999999989
0.1539039039039035 	299.9999999999476 	2.503255229806541e-12 	101324.9999999892
0.1564064064064059 	299.9999999999068 	7.521030461077141e-13 	101324.999999989
0.1589089089089084 	299.9999999999755 	3.23224836411817e-12 	101324.9999999888
0.1614114114114109 	299.9999999999683 	4.847364523378033e-13 	101324.999999989
0.1639139139139134 	299.9999999998887 	2.502645455562483e-12 	101324.999999989
0.166416416416416 	300.0000000000058 	1.365563984795148e-12 	101324.9999999888
0.1689189189189185 	300.0000000000355 	1.656166472532394e-12 	101324.9999999889
0.1714214214214209 	300.0000000000051 	2.45702711611905e-12 	101324.9999999887
0.1739239239239235 	299.9999999999771 	1.466833122808416e-12 	101324.9999999887
0.1764264264264259 	299.9999999999627 	3.754818910821627e-12 	101324.9999999886
0.1789289289289284 	300.0000000000113 	1.471571182737133e-12 	101324.9999999888
0.181431431431431 	299.9999999999504 	3.061624543056537e-12 	101324.9999999891
0.1839339339339334 	299.9999999999591 	4.376883262031093e-13 	101324.9999999894
0.186436436436436 	299.9999999999034 	1.295318023225813e-12 	101324.9999999894
0.1889389389389385 	299.9999999999798 	4.192785584543226e-13 	101324.9999999895
0.191441441441441 	299.9999999999727 	1.393679344023684e-13 	101324.9999999895
0.1939439439439434 	299.9999999998982 	1.19209564632177e-12 	101324.9999999892
0.196446446446446 	299.9999999999209 	9.191488007704237e-13 	101324.999999989
0.1989489489489485 	299.9999999999528 	1.347573127234221e-12 	101324.9999999889
0.2014514514514509 	299.9999999999698 	1.347504028053635e-13 	101324.9999999888
0.2039539539539535 	299.9999999999953 	1.511096090681666e-12 	101324.9999999889
0.2064564564564559 	299.9999999999525 	9.505271669287452e-13 	101324.999999989
0.2089589589589585 	299.9999999999828 	2.130819406993626e-12 	101324.9999999891
0.211461461461461 	299.9999999999151 	3.256927385311788e-12 	101324.9999999888
0.2139639639639635 	299.9999999999717 	3.504711836200728e-12 	101324.9999999889
0.2164664664664659 	299.9999999999982 	4.636272100797088e-12 	101324.9999999884
0.2189689689689684 	299.9999999999976 	1.75821577808069e-12 	101324.9999999881
0.221471471471471 	299.9999999999873 	3.212543755217768e-12 	101324.999999988
0.2239739739739735 	299.9999999999426 	5.584908810277808e-13 	101324.9999999882
0.226476476476476 	299.9999999999736 	1.887533441087211e-12 	101324.9999999882
0.2289789789789785 	299.9999999999989 	1.161403348917535e-12 	101324.9999999882
0.231481481481481 	299.999999999984 	1.190333513048428e-12 	101324.9999999882
0.2339839839839835 	299.9999999999778 	1.779224055813046e-12 	101324.9999999884
0.236486486486486 	300.0000000000293 	1.297324580392096e-12 	101324.9999999885
0.2389889889889885 	300.0000000000055 	2.707139353830118e-12 	101324.9999999884
0.241491491491491 	299.9999999998955 	9.146905122461368e-13 	101324.9999999885
0.2439939939939935 	299.9999999999794 	3.874257355045089e-12 	101324.9999999885
0.246496496496496 	299.9999999999881 	1.877920652795583e-12 	101324.9999999886
0.2489989989989985 	300.0000000000476 	3.142199577764854e-12 	101324.9999999888
0.251501501501501 	300.0000000000368 	2.156929828412385e-12 	101324.999999989
0.2540040040040035 	299.999999999979 	2.70918327134788e-12 	101324.9999999889
0.256506506506506 	300.0000000000383 	3.432014498967454e-12 	101324.9999999889
0.2590090090090086 	299.9999999998818 	2.136173100829684e-12 	101324.9999999887
0.261511511511511 	299.9999999999974 	4.092932389486484e-12 	101324.9999999885
0.2640140140140135 	299.9999999999861 	1.72734560843056e-12 	101324.9999999886
0.2665165165165161 	299.9999999999148 	3.47303529481821e-12 	101324.9999999884
0.2690190190190185 	300.0000000000179 	2.187580965457803e-12 	101324.9999999885
0.271521521521521 	300.0000000000237 	1.948639803257161e-12 	101324.9999999883
0.2740240240240235 	300.0000000000249 	1.736933358146197e-12 	101324.9999999886
0.276526526526526 	300.0000000000121 	1.469821634635518e-12 	101324.9999999888
0.2790290290290286 	299.9999999999239 	2.276103363447337e-12 	101324.9999999886
0.281531531531531 	299.9999999999065 	1.112344409249148e-12 	101324.9999999885
0.2840340340340335 	299.9999999999757 	2.245767342743204e-12 	101324.9999999882
0.2865365365365361 	299.9999999999438 	1.206609173241035e-12 	101324.9999999883
0.2890390390390385 	300.0000000000019 	1.274202591621872e-12 	101324.9999999883
0.291541541541541 	300.0000000000006 	1.606851799714131e-12 	101324.9999999884
0.2940440440440436 	299.9999999999876 	6.325933626114052e-13 	101324.9999999884
0.296546546546546 	299.9999999999919 	2.21297483623797e-12 	101324.9999999883
0.2990490490490486 	299.9999999999214 	1.727841898465451e-12 	101324.9999999883
0.3015515515515511 	300.0000000000583 	3.561817967103765e-12 	101324.9999999883
0.3040540540540535 	300.0000000000108 	3.356529694565798e-12 	101324.9999999883
0.3065565565565562 	299.9999999999861 	3.550998600708014e-12 	101324.9999999885
0.3090590590590585 	299.9999999999852 	3.237662626306379e-12 	101324.9999999886
0.3115615615615611 	299.9999999999196 	2.227762865725329e-12 	101324.9999999886
0.3140640640640635 	300.0000000000076 	2.722321047945885e-12 	101324.9999999884
0.316566566566566 	299.9999999999895 	1.317154637045335e-12 	101324.9999999882
0.3190690690690687 	299.9999999999451 	2.132395044562943e-12 	101324.9999999882
0.3215715715715711 	300.0000000000222 	2.075940004172311e-12 	101324.9999999885
0.3240740740740735 	299.9999999999978 	1.758466510411516e-12 	101324.9999999885
0.326576576576576 	299.9999999998759 	7.79785408679723e-13 	101324.9999999887
0.3290790790790786 	300.0000000000148 	1.719417628800994e-12 	101324.9999999886
0.3315815815815811 	300.000000000049 	7.407420479432895e-13 	101324.9999999888
0.3340840840840836 	299.9999999999783 	1.903497041791123e-12 	101324.9999999889
0.3365865865865861 	300.0000000000746 	7.489978737050929e-13 	101324.9999999889
0.3390890890890886 	300.0000000000643 	2.603460009170712e-12 	101324.9999999889
0.3415915915915911 	300.0000000000053 	1.366777778344525e-12 	101324.9999999888
0.3440940940940935 	299.9999999999457 	2.379992746734732e-12 	101324.9999999887
0.3465965965965962 	300.0000000000455 	4.875792472880674e-13 	101324.9999999885
0.3490990990990985 	300.0000000000364 	1.128822222821988e-12 	101324.9999999882
0.3516016016016011 	299.9999999999882 	9.256859795987423e-13 	101324.999999988
0.3541041041041035 	300.0000000000099 	9.803923307965545e-13 	101324.9999999879
0.3566066066066061 	299.9999999999355 	1.740861106666145e-12 	101324.9999999879
0.3591091091091085 	299.9999999998954 	7.933320656439766e-13 	101324.9999999878
0.3616116116116112 	299.9999999999208 	2.18965948731555e-12 	101324.9999999879
0.3641141141141137 	299.9999999999128 	1.92015363338528e-12 	101324.9999999879
0.3666166166166161 	299.9999999999025 	2.501493137005394e-12 	101324.9999999879
0.3691191191191185 	300.000000000043 	3.244129307985118e-12 	101324.9999999881
0.371621621621621 	300.0000000000267 	2.133469842755077e-12 	101324.9999999881
0.3741241241241237 	300.00000000006 	2.72612211567681e-12 	101324.9999999883
0.3766266266266261 	300.0000000000301 	1.784778996843063e-12 	101324.9999999883
0.3791291291291286 	299.9999999999816 	1.8270239735753e-12 	101324.9999999885
0.3816316316316311 	299.9999999998976 	1.601091746177235e-12 	101324.9999999886
0.3841341341341336 	300.0000000000165 	2.416159714837763e-12 	101324.9999999883
0.3866366366366362 	299.9999999999973 	7.538362632413808e-13 	101324.9999999885
0.3891391391391387 	299.9999999999472 	1.795239665248372e-12 	101324.9999999886
0.391641641641641 	299.9999999999966 	7.926440272485002e-13 	101324.9999999884
0.3941441441441436 	300.000000000004 	1.140353653384364e-12 	101324.9999999888
0.3966466466466462 	299.9999999999944 	5.464111526450501e-13 	101324.9999999889
0.3991491491491486 	299.9999999999357 	1.809645030113131e-12 	101324.999999989
0.4016516516516512 	299.9999999998996 	9.881712007936654e-13 	101324.999999989
0.4041541541541536 	299.9999999999332 	2.93253423463055e-12 	101324.9999999892
0.4066566566566561 	299.9999999999359 	1.83648798783178e-12 	101324.9999999894
0.4091591591591587 	299.999999999993 	3.581676614379456e-12 	101324.9999999894
0.4116616616616612 	300.0000000000056 	2.370609524458033e-12 	101324.9999999892
0.4141641641641635 	300.0000000000514 	2.955485368770698e-12 	101324.9999999892
0.4166666666666662 	299.9999999999974 	3.313379587608052e-12 	101324.999999989
0.4191691691691687 	299.9999999999304 	2.244617951839863e-12 	101324.999999989
0.421671671671671 	300.0000000000106 	3.810513468117827e-12 	101324.9999999891
0.4241741741741737 	299.9999999999697 	1.314894667099328e-12 	101324.9999999891
0.4266766766766761 	299.9999999999467 	3.776490995317492e-12 	101324.9999999892
0.4291791791791785 	300.0000000000281 	3.153340639179534e-12 	101324.9999999893
0.4316816816816812 	300.0000000000181 	3.217461015019874e-12 	101324.9999999894
0.4341841841841836 	299.9999999999858 	3.776608325053609e-12 	101324.9999999892
0.4366866866866862 	299.9999999999002 	1.720602318865231e-12 	101324.9999999891
0.4391891891891885 	299.9999999999777 	2.302810619666666e-12 	101324.9999999892
0.4416916916916913 	299.9999999999801 	1.990341258863405e-12 	101324.9999999894
0.4441941941941936 	299.9999999999889 	1.544012556150235e-12 	101324.9999999891
0.4466966966966961 	299.9999999998998 	1.074614236510524e-12 	101324.9999999888
0.4491991991991987 	299.9999999999787 	1.312790656726743e-13 	101324.9999999888
0.4517017017017012 	299.9999999999764 	3.775679585354457e-13 	101324.9999999889
0.4542042042042035 	299.9999999999793 	3.709104731553349e-13 	101324.9999999891
0.4567067067067062 	299.9999999999976 	5.651245523928008e-13 	101324.9999999892
0.4592092092092087 	299.9999999999119 	6.810090010459426e-13 	101324.9999999895
0.4617117117117112 	300.0000000000236 	6.54408538006265e-13 	101324.9999999897
0.4642142142142137 	299.9999999999557 	3.568963980273352e-13 	101324.9999999898
0.4667167167167162 	299.9999999999908 	7.112408806933334e-13 	101324.9999999897
0.4692192192192187 	299.9999999999471 	7.466093152381802e-13 	101324.9999999898
0.4717217217217212 	300.0000000000129 	1.137910739808878e-12 	101324.99999999
0.4742242242242236 	299.9999999999438 	6.788478476382244e-13 	101324.9999999901
0.4767267267267262 	299.9999999999727 	7.354472079921065e-13 	101324.9999999902
0.4792292292292287 	300.0000000000217 	3.047941974400081e-13 	101324.9999999899
0.4817317317317312 	300.0000000000393 	5.918797559567745e-13 	101324.9999999896
0.4842342342342336 	299.999999999978 	8.802596216932594e-13 	101324.9999999894
0.4867367367367362 	299.9999999999432 	1.331149605083662e-12 	101324.9999999893
0.4892392392392387 	300.0000000000303 	4.461247609552208e-13 	101324.9999999893
0.4917417417417412 	300.0000000000058 	1.162175660091968e-12 	101324.999999989
0.4942442442442437 	299.9999999998832 	9.52803270507097e-13 	101324.9999999888
0.4967467467467462 	299.9999999999105 	9.356669094829123e-13 	101324.9999999885
0.4992492492492487 	299.9999999999015 	1.280651194379181e-12 	101324.9999999886
0.5017517517517511 	299.9999999999421 	4.676389954166229e-13 	101324.9999999887
0.5042542542542537 	299.9999999999596 	1.123882944496657e-12 	101324.9999999885
0.5067567567567562 	299.9999999999357 	1.699763924595579e-12 	101324.9999999883
0.5092592592592589 	299.9999999999573 	1.168455290283387e-12 	101324.9999999881
0.5117617617617611 	299.9999999999498 	2.442704823330132e-12 	101324.9999999879
0.5142642642642637 	299.9999999999843 	1.437340144868645e-12 	101324.9999999881
0.5167667667667663 	299.9999999999662 	3.108366039539283e-12 	101324.9999999883
0.5192692692692688 	299.9999999999014 	2.850637111857001e-12 	101324.9999999885
0.5217717717717714 	299.9999999999304 	4.198624732432461e-12 	101324.9999999886
0.5242742742742736 	299.9999999999307 	2.348568124166612e-12 	101324.9999999889
0.5267767767767763 	299.9999999999564 	4.063383956182986e-12 	101324.9999999891
0.5292792792792789 	299.9999999999317 	1.361122465089467e-12 	101324.9999999893
0.5317817817817813 	299.9999999998887 	3.334161097071297e-12 	101324.9999999894
0.5342842842842837 	300.0000000000162 	1.204142594828434e-12 	101324.9999999892
0.5367867867867864 	300.0000000000002 	2.242915507250641e-12 	101324.999999989
0.5392892892892888 	299.999999999952 	9.548089171154841e-13 	101324.9999999892
0.5417917917917912 	300.0000000000102 	2.969452079819637e-12 	101324.9999999894
0.5442942942942938 	299.9999999999787 	1.919877457108542e-12 	101324.9999999896
0.5467967967967964 	299.9999999999324 	3.886194259084726e-12 	101324.9999999897
0.5492992992992988 	299.9999999999289 	3.058343549506404e-12 	101324.9999999898
0.5518018018018012 	299.9999999999286 	4.220569748008415e-12 	101324.9999999895
0.5543043043043039 	300.0000000000263 	2.954985577962879e-12 	101324.9999999897
0.5568068068068063 	299.9999999999906 	3.60960576413322e-12 	101324.9999999896
0.5593093093093087 	299.9999999998876 	2.590980768477516e-12 	101324.9999999894
0.5618118118118114 	299.9999999999595 	4.456187907434071e-12 	101324.9999999894
0.5643143143143137 	299.9999999999358 	3.412185974756946e-12 	101324.9999999896
0.5668168168168163 	299.9999999999902 	4.321358773001274e-12 	101324.9999999895
0.5693193193193188 	300.0000000000312 	4.515558708596906e-12 	101324.9999999895
0.5718218218218213 	300.0000000000256 	3.988894965237177e-12 	101324.9999999897
0.5743243243243239 	300.0000000000071 	4.924425114632379e-12 	101324.9999999897
0.5768268268268262 	300.0000000000016 	3.378346853568868e-12 	101324.9999999899
0.5793293293293288 	299.9999999999312 	6.274748211904378e-12 	101324.9999999897
0.5818318318318314 	299.9999999999013 	3.545176297931377e-12 	101324.9999999896
0.5843343343343338 	299.9999999999803 	7.880744240185818e-12 	101324.9999999896
0.5868368368368363 	299.9999999999742 	4.364897080068242e-12 	101324.9999999896
0.5893393393393387 	299.9999999999418 	7.796457424411103e-12 	101324.9999999899
0.5918418418418413 	299.9999999999392 	4.68145484534885e-12 	101324.99999999
0.5943443443443439 	300.0000000000242 	6.684177289685573e-12 	101324.99999999
0.5968468468468463 	300.0000000000254 	4.690598605552517e-12 	101324.9999999902
0.5993493493493487 	300.0000000000475 	6.409092678458369e-12 	101324.9999999902
0.6018518518518514 	299.9999999999811 	5.031702088903169e-12 	101324.99999999
0.6043543543543537 	299.9999999999923 	6.80551927812268e-12 	101324.9999999901
0.6068568568568564 	299.9999999999791 	4.584809932033771e-12 	101324.9999999901
0.6093593593593587 	299.9999999999216 	5.747027361364914e-12 	101324.99999999
0.6118618618618614 	299.9999999999177 	4.835026998820231e-12 	101324.9999999901
0.6143643643643638 	300.0000000000254 	6.141432221443574e-12 	101324.9999999905
0.6168668668668662 	299.9999999999824 	4.789918218519484e-12 	101324.9999999908
0.6193693693693688 	299.99999999995 	6.878637303343083e-12 	101324.9999999906
0.6218718718718714 	299.999999999957 	5.53978455489925e-12 	101324.9999999905
0.6243743743743737 	299.9999999999277 	7.314809225351476e-12 	101324.9999999903
0.6268768768768762 	299.9999999999135 	5.283831899431377e-12 	101324.9999999901
0.629379379379379 	299.999999999945 	5.393046912052268e-12 	101324.9999999899
0.6318818818818812 	299.9999999999714 	4.716133446401234e-12 	101324.9999999898
0.6343843843843838 	300.0000000000198 	3.927697300632118e-12 	101324.9999999898
0.6368868868868864 	299.9999999999823 	4.001511218303568e-12 	101324.9999999899
0.6393893893893888 	299.9999999999072 	2.901248100522968e-12 	101324.9999999899
0.6418918918918912 	300.0000000000061 	5.571997836977755e-12 	101324.99999999
0.6443943943943939 	299.9999999999756 	2.233039831040662e-12 	101324.99999999
0.6468968968968963 	299.9999999999821 	5.779008326713634e-12 	101324.9999999899
0.6493993993993988 	299.9999999999676 	2.236338455109069e-12 	101324.9999999899
0.6519019019019012 	299.9999999999704 	5.148637035151936e-12 	101324.9999999903
0.6544044044044038 	299.9999999998873 	2.319683632611905e-12 	101324.9999999908
0.6569069069069065 	299.9999999999415 	5.811505717274528e-12 	101324.9999999912
0.6594094094094087 	299.9999999999583 	3.072639894615007e-12 	101324.9999999911
0.6619119119119113 	299.9999999999525 	5.848867636746948e-12 	101324.9999999912
0.664414414414414 	300.0000000000023 	4.056358104571606e-12 	101324.999999991
0.6669169169169162 	300.0000000000169 	5.947758826439929e-12 	101324.9999999909
0.6694194194194188 	299.9999999999794 	4.0919883445554e-12 	101324.9999999911
0.6719219219219214 	299.9999999999119 	5.808916131485353e-12 	101324.9999999913
0.674424424424424 	299.9999999999696 	4.903926466646604e-12 	101324.9999999915
0.6769269269269262 	299.9999999999036 	5.834140871207766e-12 	101324.9999999915
0.679429429429429 	300.0000000000029 	5.329344936160175e-12 	101324.9999999913
0.6819319319319311 	299.999999999977 	6.540932852234795e-12 	101324.9999999911
0.6844344344344341 	300.0000000000026 	5.743665228407641e-12 	101324.9999999912
0.686936936936936 	299.999999999997 	7.133906310542444e-12 	101324.9999999913
0.6894394394394392 	299.9999999999899 	6.200326455495267e-12 	101324.9999999911
0.6919419419419413 	299.9999999999791 	6.366891053253474e-12 	101324.9999999908
0.694444444444444 	299.9999999999126 	6.458860754526996e-12 	101324.9999999907
0.6969469469469463 	299.9999999999051 	6.805303853153947e-12 	101324.9999999906
0.6994494494494489 	299.9999999999076 	7.752127811801477e-12 	101324.9999999906
0.7019519519519515 	299.9999999999766 	7.283316974523411e-12 	101324.9999999905
0.7044544544544538 	299.999999999938 	8.96288387940376e-12 	101324.9999999907
0.7069569569569564 	299.9999999999949 	7.075700614759885e-12 	101324.9999999909
0.7094594594594589 	299.9999999999571 	9.707692479118038e-12 	101324.9999999911
0.7119619619619615 	299.9999999998979 	6.935908190098131e-12 	101324.999999991
0.7144644644644638 	299.9999999999416 	8.975966273756705e-12 	101324.9999999911
0.7169669669669665 	299.9999999999062 	7.909967031993325e-12 	101324.9999999911
0.7194694694694688 	299.9999999999899 	9.025338477320836e-12 	101324.9999999912
0.7219719719719715 	299.9999999999842 	8.217759524285154e-12 	101324.9999999913
0.7244744744744737 	300.0000000000045 	8.347083595927629e-12 	101324.9999999911
0.7269769769769764 	299.9999999999964 	8.458366457419743e-12 	101324.9999999909
0.7294794794794791 	299.9999999999855 	7.108564987628459e-12 	101324.9999999911
0.7319819819819813 	299.9999999999729 	9.61809533460942e-12 	101324.9999999912
0.7344844844844839 	299.9999999999064 	8.730672096144872e-12 	101324.9999999907
0.7369869869869864 	299.9999999999422 	1.004050142756503e-11 	101324.9999999905
0.739489489489489 	299.9999999999326 	9.394765343203318e-12 	101324.9999999907
0.7419919919919914 	299.9999999999175 	9.308990331121448e-12 	101324.9999999908
0.7444944944944939 	299.9999999999773 	1.030705138119151e-11 	101324.9999999911
0.7469969969969963 	299.9999999999645 	8.701057595115425e-12 	101324.9999999915
0.7494994994994989 	299.999999999927 	1.099457429227827e-11 	101324.9999999916
0.7520020020020015 	299.9999999999608 	7.811295527158386e-12 	101324.9999999918
0.7545045045045039 	299.9999999999583 	1.096911048448638e-11 	101324.9999999918
0.7570070070070062 	299.9999999999316 	7.94772145487899e-12 	101324.9999999916
0.7595095095095092 	299.9999999999217 	9.882319930568208e-12 	101324.9999999916
0.7620120120120112 	300.0000000000051 	8.572034178440288e-12 	101324.9999999918
0.7645145145145138 	299.9999999999828 	9.218286260347822e-12 	101324.9999999918
0.7670170170170165 	299.9999999999205 	9.815203340848738e-12 	101324.9999999919
0.7695195195195191 	299.9999999999104 	9.231138564052049e-12 	101324.9999999918
0.7720220220220213 	299.9999999999224 	1.184343589185001e-11 	101324.9999999918
0.7745245245245239 	299.9999999999196 	1.008484190955065e-11 	101324.9999999921
0.7770270270270263 	299.9999999999674 	1.206162236645456e-11 	101324.999999992
0.779529529529529 	299.9999999999785 	1.16540825342053e-11 	101324.9999999922
0.7820320320320313 	299.99999999996 	1.276270640263027e-11 	101324.9999999925
0.784534534534534 	300.000000000004 	1.271170166559246e-11 	101324.9999999925
0.7870370370370364 	299.9999999999972 	1.225560320368418e-11 	101324.9999999926
0.7895395395395389 	299.9999999999825 	1.310869031468166e-11 	101324.9999999927
0.7920420420420413 	299.9999999999715 	1.153019886070211e-11 	101324.9999999928
0.794544544544544 	299.9999999999677 	1.279512535189214e-11 	101324.9999999927
0.7970470470470463 	299.9999999999985 	9.699869088438072e-12 	101324.9999999927
0.799549549549549 	299.9999999999803 	1.299667241266143e-11 	101324.9999999927
0.8020520520520515 	299.9999999999818 	9.987400729131436e-12 	101324.999999993
0.8045545545545539 	299.9999999999313 	1.196641003017356e-11 	101324.999999993
0.8070570570570563 	299.9999999999753 	1.004867889569584e-11 	101324.9999999931
0.8095595595595589 	299.999999999945 	1.031152509990863e-11 	101324.9999999933
0.8120620620620614 	299.9999999999227 	1.00405855487413e-11 	101324.9999999932
0.8145645645645638 	300.0000000000009 	9.725457162767857e-12 	101324.9999999932
0.8170670670670666 	299.9999999999986 	9.795231202711664e-12 	101324.9999999934
0.8195695695695689 	299.9999999999754 	7.7206213532319e-12 	101324.9999999937
0.8220720720720714 	299.999999999932 	1.075248819960591e-11 	101324.9999999937
0.8245745745745739 	299.9999999999848 	8.825358938924176e-12 	101324.9999999935
0.8270770770770765 	299.9999999999679 	1.102634968490137e-11 	101324.9999999935
0.8295795795795788 	299.9999999999495 	1.014710727389275e-11 	101324.9999999935
0.8320820820820815 	300.0000000000188 	1.080787616025976e-11 	101324.9999999937
0.834584584584584 	300.0000000000072 	1.036839093110309e-11 	101324.9999999936
0.8370870870870865 	299.9999999999603 	1.098528556515109e-11 	101324.9999999934
0.8395895895895891 	299.9999999999242 	1.215957977632457e-11 	101324.9999999936
0.8420920920920915 	299.9999999999454 	1.154225541849192e-11 	101324.9999999936
0.844594594594594 	299.9999999999341 	1.237496888613662e-11 	101324.9999999935
0.8470970970970964 	299.9999999999376 	1.304575351215505e-11 	101324.9999999936
0.8495995995995991 	299.9999999999888 	1.32680383176978e-11 	101324.9999999935
0.8521021021021015 	299.9999999999765 	1.40330733107991e-11 	101324.9999999933
0.8546046046046039 	299.9999999999673 	1.308359592622391e-11 	101324.9999999932
0.8571071071071066 	300.0000000000012 	1.360784442186072e-11 	101324.9999999932
0.8596096096096089 	299.9999999999632 	1.15248748492857e-11 	101324.9999999933
0.8621121121121116 	299.9999999999263 	1.49709085822005e-11 	101324.9999999935
0.8646146146146139 	299.9999999999961 	1.297962214100233e-11 	101324.9999999936
0.8671171171171166 	299.9999999999703 	1.465220768419204e-11 	101324.9999999939
0.8696196196196189 	299.9999999999325 	1.356067780915386e-11 	101324.999999994
0.8721221221221216 	299.9999999999704 	1.439399202310384e-11 	101324.9999999937
0.874624624624624 	300.0000000000014 	1.422154759053495e-11 	101324.9999999936
0.8771271271271264 	300.000000000002 	1.347004930157045e-11 	101324.9999999936
0.879629629629629 	300.000000000013 	1.401310359488368e-11 	101324.9999999934
0.8821321321321317 	299.999999999984 	1.246020007020572e-11 	101324.9999999935
0.8846346346346339 	299.9999999999189 	1.551343765335624e-11 	101324.9999999935
0.8871371371371364 	299.9999999999557 	1.292372104735058e-11 	101324.9999999937
0.8896396396396391 	299.9999999999534 	1.536169920422572e-11 	101324.9999999939
0.8921421421421414 	299.9999999999574 	1.459561733592248e-11 	101324.9999999941
0.8946446446446441 	299.9999999999841 	1.573650120525248e-11 	101324.9999999946
0.8971471471471464 	300.0000000000044 	1.518735142360676e-11 	101324.9999999949
0.8996496496496489 	299.9999999999806 	1.52488880622796e-11 	101324.999999995
0.9021521521521517 	299.9999999999613 	1.565640158143283e-11 	101324.999999995
0.9046546546546541 	299.9999999999903 	1.356734454590385e-11 	101324.9999999949
0.9071571571571564 	299.9999999999431 	1.401772379352903e-11 	101324.9999999948
0.9096596596596589 	299.9999999999415 	1.402849879375738e-11 	101324.9999999946
0.9121621621621616 	300.0000000000115 	1.49553155160647e-11 	101324.9999999946
0.9146646646646639 	299.9999999999763 	1.514576710251829e-11 	101324.9999999946
0.9171671671671666 	299.9999999999395 	1.442198071517628e-11 	101324.9999999947
0.9196696696696689 	299.999999999998 	1.470454002956604e-11 	101324.9999999949
0.9221721721721714 	299.9999999999964 	1.274506952448555e-11 	101324.9999999952
0.9246746746746741 	299.9999999999311 	1.571409211641646e-11 	101324.9999999956
0.9271771771771765 	299.9999999999381 	1.344381289757596e-11 	101324.9999999959
0.9296796796796791 	299.999999999984 	1.603387334623632e-11 	101324.9999999957
0.9321821821821816 	299.9999999999623 	1.479397555791344e-11 	101324.9999999953
0.9346846846846838 	299.9999999999455 	1.63360728082434e-11 	101324.999999995
0.9371871871871866 	300.0000000000208 	1.586141357057567e-11 	101324.9999999947
0.9396896896896891 	300.000000000019 	1.558773797990808e-11 	101324.9999999946
0.9421921921921914 	300.0000000000113 	1.523945366893002e-11 	101324.9999999947
0.9446946946946939 	299.9999999999637 	1.385538104702452e-11 	101324.9999999948
0.9471971971971965 	299.9999999999171 	1.612288997010723e-11 	101324.9999999951
0.9496996996996991 	299.9999999999561 	1.345718124176864e-11 	101324.9999999952
0.9522022022022016 	299.9999999999748 	1.517012481230972e-11 	101324.9999999952
0.9547047047047038 	299.9999999999743 	1.38301895667813e-11 	101324.9999999954
0.9572072072072064 	299.9999999999633 	1.490549845456614e-11 	101324.9999999956
0.9597097097097093 	299.9999999999624 	1.490322317922128e-11 	101324.9999999956
0.9622122122122114 	299.9999999999539 	1.471339654640916e-11 	101324.9999999954
0.964714714714714 	299.9999999999508 	1.557136493494323e-11 	101324.9999999954
0.9672172172172167 	299.9999999999509 	1.468268284711982e-11 	101324.9999999956
0.969719719719719 	299.9999999999822 	1.579552463338882e-11 	101324.9999999956
0.9722222222222214 	299.9999999999716 	1.545694164282178e-11 	101324.9999999956
0.9747247247247239 	299.9999999999695 	1.56954569199322e-11 	101324.9999999959
0.9772272272272267 	300.0000000000074 	1.579298836392252e-11 	101324.999999996
0.9797297297297292 	299.999999999987 	1.562641551653857e-11 	101324.999999996
0.9822322322322313 	299.999999999986 	1.637171027499775e-11 	101324.999999996
0.9847347347347344 	299.9999999999833 	1.485260463492823e-11 	101324.999999996
0.9872372372372363 	299.9999999999413 	1.814458888302185e-11 	101324.9999999959
0.9897397397397389 	299.9999999999625 	1.641056454109686e-11 	101324.9999999954
0.9922422422422417 	299.9999999999434 	1.930458901772008e-11 	101324.9999999953
0.9947447447447441 	299.9999999999596 	1.881556133012369e-11 	101324.9999999953
0.9972472472472468 	299.9999999999609 	2.028757214419842e-11 	101324.9999999954
0.999749749749749 	299.999999999965 	1.910363951400693e-11 	101324.9999999956
1.002252252252252 	299.9999999999857 	1.876259873371439e-11 	101324.999999996
1.004754754754754 	299.9999999999907 	1.892227044069003e-11 	101324.9999999965
1.007257257257256 	299.9999999999602 	1.80154086049383e-11 	101324.9999999966
1.009759759759759 	299.9999999999478 	2.003956678457528e-11 	101324.9999999966
1.012262262262261 	299.9999999999625 	1.762011770744737e-11 	101324.9999999967
1.014764764764764 	299.9999999999268 	1.949938172555152e-11 	101324.9999999968
1.017267267267267 	299.9999999999142 	1.801128901663903e-11 	101324.9999999969
1.019769769769769 	299.9999999999736 	1.833371725021563e-11 	101324.999999997
1.022272272272272 	299.9999999999881 	1.671770029281592e-11 	101324.9999999972
1.024774774774774 	299.999999999985 	1.623934714954098e-11 	101324.9999999976
1.027277277277277 	299.9999999999823 	1.698076601597533e-11 	101324.9999999978
1.029779779779779 	300.0000000000194 	1.593836794895965e-11 	101324.9999999976
1.032282282282282 	300.0000000000192 	1.678650001532036e-11 	101324.9999999976
1.034784784784784 	300.0000000000078 	1.650090125543782e-11 	101324.9999999979
1.037287287287286 	299.9999999999728 	1.743280370613446e-11 	101324.9999999981
1.039789789789789 	299.9999999999726 	1.742432488847621e-11 	101324.9999999979
1.042292292292291 	300.0000000000083 	1.739954321733539e-11 	101324.9999999977
1.044794794794794 	300.0000000000289 	1.761443138404063e-11 	101324.9999999975
1.047297297297296 	300.0000000000472 	1.676171337526105e-11 	101324.9999999972
1.049799799799799 	299.9999999999916 	1.940916405352722e-11 	101324.999999997
1.052302302302302 	299.9999999999459 	1.751061952939533e-11 	101324.9999999965
1.054804804804804 	299.9999999999212 	1.976268881529257e-11 	101324.9999999962
1.057307307307306 	299.9999999999143 	1.901729957676006e-11 	101324.999999996
1.059809809809809 	299.999999999957 	2.083563236797039e-11 	101324.9999999963
1.062312312312312 	299.9999999999565 	2.047766777622764e-11 	101324.9999999966
1.064814814814814 	299.9999999999565 	2.135748694880904e-11 	101324.9999999968
1.067317317317317 	299.9999999999184 	2.083444660241452e-11 	101324.9999999968
1.069819819819819 	299.9999999999163 	2.025823311353047e-11 	101324.9999999969
1.072322322322321 	299.9999999999925 	2.211655541578561e-11 	101324.9999999971
1.074824824824824 	300.0000000000078 	1.984856178771337e-11 	101324.9999999971
1.077327327327327 	300.0000000000324 	2.163945654758173e-11 	101324.9999999971
1.079829829829829 	300.0000000000479 	2.07187457633286e-11 	101324.9999999974
1.082332332332332 	300.0000000000085 	2.171406480721357e-11 	101324.9999999976
1.084834834834834 	299.99999999998 	2.115566428454327e-11 	101324.9999999976
1.087337337337337 	299.9999999999368 	2.094558796536707e-11 	101324.9999999976
1.089839839839839 	299.9999999999242 	2.205415958785147e-11 	101324.9999999976
1.092342342342342 	299.9999999999642 	2.038332872185688e-11 	101324.9999999976
1.094844844844844 	299.9999999999649 	2.207887857690196e-11 	101324.9999999975
1.097347347347347 	299.9999999999366 	2.057613663237169e-11 	101324.9999999976
1.099849849849849 	299.9999999999221 	2.385774081003822e-11 	101324.9999999975
1.102352352352352 	299.9999999999513 	2.147065005678123e-11 	101324.9999999972
1.104854854854854 	299.9999999999762 	2.343676140299547e-11 	101324.9999999969
1.107357357357357 	299.9999999999543 	2.164081805603939e-11 	101324.9999999969
1.109859859859859 	299.9999999999462 	2.373945469653216e-11 	101324.9999999971
1.112362362362362 	300.0000000000224 	2.299297659551321e-11 	101324.9999999972
1.114864864864865 	300.0000000000225 	2.342542613578132e-11 	101324.9999999977
1.117367367367367 	299.9999999999627 	2.423113416326171e-11 	101324.9999999981
1.119869869869869 	299.9999999999162 	2.190525367089726e-11 	101324.9999999983
1.122372372372372 	299.9999999999502 	2.31001458383836e-11 	101324.9999999981
1.124874874874874 	299.9999999999561 	2.176645104021764e-11 	101324.999999998
1.127377377377377 	299.9999999999762 	2.264040394203664e-11 	101324.9999999978
1.129879879879879 	300.000000000025 	2.129549004033123e-11 	101324.9999999979
1.132382382382382 	300.0000000000442 	2.170910777353234e-11 	101324.9999999981
1.134884884884884 	300.0000000000181 	2.112485474934723e-11 	101324.9999999984
1.137387387387387 	300.0000000000216 	2.1622636089397e-11 	101324.9999999985
1.139889889889889 	299.9999999999608 	2.365252043658256e-11 	101324.9999999984
1.142392392392392 	299.9999999999452 	2.227489739067913e-11 	101324.9999999985
1.144894894894894 	300.0000000000156 	2.395895386860866e-11 	101324.9999999984
1.147397397397397 	300.0000000000002 	2.307880708718799e-11 	101324.9999999983
1.149899899899899 	299.9999999999351 	2.433985323234741e-11 	101324.9999999983
1.152402402402402 	299.9999999999191 	2.312945708115661e-11 	101324.9999999985
1.154904904904904 	299.9999999999601 	2.342987561258663e-11 	101324.9999999987
1.157407407407407 	299.9999999999608 	2.234361723654658e-11 	101324.9999999989
1.159909909909909 	299.9999999999297 	2.242312880346726e-11 	101324.999999999
1.162412412412412 	299.9999999999205 	2.391139569128786e-11 	101324.9999999991
1.164914914914914 	299.9999999999498 	2.224430468855658e-11 	101324.9999999992
1.167417417417417 	299.9999999999578 	2.46164391219369e-11 	101324.9999999992
1.169919919919919 	300.000000000018 	2.349449615195217e-11 	101324.9999999991
1.172422422422422 	300.0000000000547 	2.400662225043935e-11 	101324.999999999
1.174924924924925 	299.999999999996 	2.234879734159852e-11 	101324.999999999
1.177427427427427 	299.999999999961 	2.326791537760526e-11 	101324.999999999
1.179929929929929 	300.0000000000132 	2.491868985006549e-11 	101324.9999999989
1.182432432432432 	300.0000000000385 	2.360160287612251e-11 	101324.9999999989
1.184934934934934 	300.0000000000027 	2.559680899073883e-11 	101324.9999999989
1.187437437437437 	299.9999999999779 	2.51896181658523e-11 	101324.9999999989
1.189939939939939 	299.999999999966 	2.662387737163014e-11 	101324.9999999989
1.192442442442442 	299.9999999999235 	2.51596728029147e-11 	101324.999999999
1.194944944944944 	299.9999999999304 	2.595794301326607e-11 	101324.9999999992
1.197447447447447 	299.9999999999939 	2.472709068276924e-11 	101324.9999999992
1.199949949949949 	300.0000000000088 	2.473156059325591e-11 	101324.9999999992
1.202452452452452 	299.9999999999496 	2.597914299849393e-11 	101324.9999999992
1.204954954954955 	299.9999999999377 	2.451368425530135e-11 	101324.999999999
1.207457457457457 	299.9999999999716 	2.599596882837102e-11 	101324.9999999989
1.20995995995996 	299.9999999999759 	2.504233391232711e-11 	101324.9999999992
1.212462462462462 	299.9999999999925 	2.670989187689462e-11 	101324.9999999994
1.214964964964964 	299.9999999999912 	2.547453517840486e-11 	101324.9999999993
1.217467467467467 	299.9999999999802 	2.632660250659088e-11 	101324.9999999993
1.219969969969969 	299.9999999999648 	2.528583644719266e-11 	101324.9999999993
1.222472472472472 	300.0000000000229 	2.628019642566744e-11 	101324.9999999992
1.224974974974975 	300.0000000000559 	2.759673509302393e-11 	101324.9999999991
1.227477477477477 	299.9999999999957 	2.591011040722767e-11 	101324.9999999992
1.229979979979979 	299.999999999976 	2.721208288392121e-11 	101324.9999999992
1.232482482482482 	299.9999999999489 	2.509878674683247e-11 	101324.9999999992
1.234984984984984 	299.9999999999518 	2.622891148021465e-11 	101324.9999999991
1.237487487487487 	299.9999999999766 	2.48566642923251e-11 	101324.999999999
1.239989989989989 	299.9999999999775 	2.616889827194107e-11 	101324.999999999
1.242492492492492 	300.0000000000142 	2.717608867190959e-11 	101324.999999999
1.244994994994994 	299.9999999999771 	2.579400100007382e-11 	101324.9999999989
1.247497497497497 	299.9999999999868 	2.764558569095493e-11 	101324.999999999
1.249999999999999 	300.0000000003001 	2.702734490257461e-11 	101324.9999999991
