-1.25 	281.5937723658232 	0.001192290982636214 	101325.0307876061
-1.247497497497497 	299.9670727089933 	0.001160355453636127 	101325.0443026292
-1.244994994994995 	300.0027534211154 	0.001265773371357809 	101325.0316015915
-1.242492492492492 	300.0000870813433 	0.001349253052350974 	101325.0426042027
-1.23998998998999 	300.0000284864392 	0.001414655111609522 	101325.0329813011
-1.237487487487487 	300.0000337053682 	0.001427868724626745 	101325.0398145271
-1.234984984984985 	300.0000297125231 	0.001398269519360306 	101325.0351518362
-1.232482482482482 	300.0000323481569 	0.001349078510446783 	101325.038216249
-1.22997997997998 	300.0000300027343 	0.001295584016656125 	101325.0354961556
-1.227477477477477 	300.0000322510981 	0.001229041800757522 	101325.0381015117
-1.224974974974975 	300.0000306477415 	0.001165469704931731 	101325.0362576693
-1.222472472472472 	300.0000323707526 	0.001090117046896284 	101325.0382473373
-1.21996996996997 	300.0000308998059 	0.001020795319142222 	101325.0365549671
-1.217467467467467 	300.0000321598698 	0.0009413798382172627 	101325.0379984078
-1.214964964964965 	300.000030540278 	0.00086920939414643 	101325.0361301615
-1.212462462462462 	300.000031495939 	0.0007885727409273201 	101325.0372109273
-1.20995995995996 	300.0000297647205 	0.0007159511291187506 	101325.035209467
-1.207457457457457 	300.0000305569922 	0.0006348768395878201 	101325.0361040638
-1.204954954954955 	300.0000292873474 	0.0005637808844802611 	101325.0346502043
-1.202452452452452 	300.0000299682295 	0.0004819772207261007 	101325.0354074181
-1.19994994994995 	300.0000295599524 	0.0004141616022040427 	101325.0349658434
-1.197447447447447 	300.0000301487283 	0.0003330352683939789 	101325.0356173896
-1.194944944944945 	300.0000302514688 	0.0002699907743724817 	101325.0357812434
-1.192442442442442 	300.0000306784193 	0.0001923653665357946 	101325.0362466112
-1.18993993993994 	300.0000307666978 	0.0001349840727467907 	101325.0363982095
-1.187437437437437 	300.0000308893418 	0.0001162188632903816 	101325.0365015293
-1.184934934934935 	300.0000308624577 	6.007809799655671e-05 	101325.0365091234
-1.182432432432432 	300.0000306515306 	0.0001183708100614507 	101325.03621573
-1.17992992992993 	300.0000306672922 	9.701797383209097e-05 	101325.03627239
-1.177427427427427 	300.0000301981322 	0.0001554692995559001 	101325.0356797676
-1.174924924924925 	300.0000303757142 	0.0001901853318082601 	101325.0359268288
-1.172422422422422 	300.0000297403355 	0.0002404193361276154 	101325.0351397641
-1.16991991991992 	300.0000300741117 	0.0002650378060154799 	101325.0355703596
-1.167417417417417 	300.0000293271156 	0.0003054459521012684 	101325.0346572529
-1.164914914914915 	300.0000297220778 	0.0003180967835285303 	101325.0351536397
-1.162412412412412 	300.0000289864333 	0.0003460765930065097 	101325.0342538194
-1.15990990990991 	300.0000292380076 	0.0003390033379807928 	101325.0345799993
-1.157407407407407 	300.0000288482641 	0.0003443372141820915 	101325.0340911024
-1.154904904904904 	300.000028816125 	0.0003219641078928192 	101325.0340809863
-1.152402402402403 	300.0000285434374 	0.0003224094889039919 	101325.0337323814
-1.1498998998999 	300.0000284881012 	0.0002970867427927022 	101325.0336939148
-1.147397397397397 	300.0000282974103 	0.0002970852965328862 	101325.0334421892
-1.144894894894895 	300.0000282474902 	0.0002707734188130463 	101325.0334066297
-1.142392392392392 	300.00002812516 	0.0002716346532888398 	101325.0332357133
-1.13988988988989 	300.0000280755905 	0.0002452743892176219 	101325.0332009179
-1.137387387387387 	300.0000279892109 	0.0002476634825253061 	101325.0330757694
-1.134884884884885 	300.0000279118395 	0.0002219164839797794 	101325.033006111
-1.132382382382382 	300.0000278121335 	0.000226125917684628 	101325.0328683873
-1.12987987987988 	300.0000276834819 	0.0002014034261135363 	101325.0327421198
-1.127377377377377 	300.0000275732495 	0.0002075967546066043 	101325.0325879613
-1.124874874874875 	300.0000274439726 	0.0001838978220862322 	101325.0324551199
-1.122372372372372 	300.0000273584105 	0.0001921418495677283 	101325.0323354062
-1.11986986986987 	300.0000272808097 	0.000169103052944261 	101325.0322612711
-1.117367367367367 	300.000027245992 	0.0001791644989027762 	101325.0322008812
-1.114864864864865 	300.0000272223533 	0.0001562663184983571 	101325.032190386
-1.112362362362362 	300.0000272074158 	0.0001675994739801964 	101325.0321566913
-1.10985985985986 	300.0000271987056 	0.0001444113884128746 	101325.0321626341
-1.107357357357357 	300.0000271671884 	0.0001564865603577988 	101325.0321099135
-1.104854854854855 	300.0000271402056 	0.0001328084168809048 	101325.0320915565
-1.102352352352353 	300.0000270726862 	0.0001453463189229856 	101325.0319977383
-1.09984984984985 	300.000027010698 	0.000121179341304996 	101325.0319368595
-1.097347347347347 	300.0000269000395 	0.0001340859527802549 	101325.0317936268
-1.094844844844845 	300.000026796636 	0.0001095378747939643 	101325.0316834193
-1.092342342342342 	300.0000266457613 	0.0001228165805520845 	101325.0314958527
-1.08983983983984 	300.0000265152066 	9.797784261137216e-05 	101325.0313529533
-1.087337337337337 	300.0000263549397 	0.0001117330573720681 	101325.0311545269
-1.084834834834835 	300.000026235063 	8.660417335195996e-05 	101325.0310206419
-1.082332332332332 	300.0000261025195 	0.0001010091228785184 	101325.0308553183
-1.07982982982983 	300.0000260208926 	7.554624833031215e-05 	101325.0307644868
-1.077327327327327 	300.000025933064 	9.075610475847076e-05 	101325.030653381
-1.074824824824825 	300.0000258930596 	6.689062320210397e-05 	101325.0306117559
-1.072322322322323 	300.0000258453429 	8.251699438030028e-05 	101325.0305501237
-1.06981981981982 	300.0000258362581 	6.768246572929423e-05 	101325.0305443336
-1.067317317317317 	300.0000258119913 	8.147577098979301e-05 	101325.0305116006
-1.064814814814815 	300.0000258103905 	6.853721053327096e-05 	101325.0305140208
-1.062312312312312 	300.0000257807818 	8.046726965920661e-05 	101325.0304759572
-1.05980980980981 	300.0000257554419 	6.927406450453989e-05 	101325.0304496695
-1.057307307307307 	300.0000256903502 	7.932346602518047e-05 	101325.0303708327
-1.054804804804805 	300.0000256180272 	6.97334047283259e-05 	101325.030287669
-1.052302302302302 	300.0000255032856 	7.793805063276831e-05 	101325.0301493918
-1.0497997997998 	300.0000253775019 	6.984647102201868e-05 	101325.0300018968
-1.047297297297297 	300.0000252142309 	7.630821734945149e-05 	101325.0298072473
-1.044794794794795 	300.0000250460787 	6.964954862526597e-05 	101325.029609435
-1.042292292292292 	300.0000248554259 	7.453755456564337e-05 	101325.0293830591
-1.03978978978979 	300.0000246743521 	6.928053387522264e-05 	101325.0291697487
-1.037287287287287 	300.0000244926234 	7.282372022588638e-05 	101325.0289540911
-1.034784784784785 	300.0000243378403 	6.894451312344207e-05 	101325.0287713685
-1.032282282282283 	300.0000242018675 	7.139610821847504e-05 	101325.0286107662
-1.02977977977978 	300.0000241043569 	6.882709127205565e-05 	101325.028496106
-1.027277277277277 	300.0000240362934 	7.041671921902068e-05 	101325.0284159168
-1.024774774774775 	300.0000240050808 	6.899735722322082e-05 	101325.028379004
-1.022272272272272 	300.0000239973322 	6.989511879408272e-05 	101325.0283696951
-1.01976976976977 	300.0000240072626 	6.934616949822111e-05 	101325.0283817839
-1.017267267267267 	300.0000240187744 	6.965892975806255e-05 	101325.028396138
-1.014764764764765 	300.0000240201808 	6.960281512066972e-05 	101325.0283978405
-1.012262262262262 	300.0000239979202 	6.942257794475237e-05 	101325.0283707637
-1.00975975975976 	300.0000239411672 	6.945724757342495e-05 	101325.0283024275
-1.007257257257257 	300.0000238450671 	6.894700361880427e-05 	101325.0281878398
-1.004754754754755 	300.0000237086647 	6.873336032393579e-05 	101325.028026455
-1.002252252252252 	300.0000235392026 	6.81687414355173e-05 	101325.0278271341
-0.9997497497497498 	300.0000233486834 	6.763912024646659e-05 	101325.027602859
-0.9972472472472473 	300.0000231524636 	6.707507650231455e-05 	101325.0273709611
-0.9947447447447449 	300.0000229657844 	6.653779309142981e-05 	101325.0271496525
-0.9922422422422421 	300.0000228022798 	6.606534772186997e-05 	101325.0269554509
-0.9897397397397399 	300.0000226714671 	6.568939518033755e-05 	101325.0268009841
-0.9872372372372376 	300.0000225794255 	6.542615594977007e-05 	101325.0266934927
-0.9847347347347346 	300.0000225277998 	6.52789979369558e-05 	101325.0266340583
-0.9822322322322323 	300.0000225135097 	6.523541010802612e-05 	101325.0266174304
-0.9797297297297296 	300.0000225272738 	6.526676264280857e-05 	101325.0266323863
-0.9772272272272275 	300.0000225545722 	6.533544525082663e-05 	101325.0266626954
-0.9747247247247248 	300.0000225778422 	6.539348035238546e-05 	101325.0266888576
-0.9722222222222224 	300.0000225789955 	6.539192839812752e-05 	101325.0266906592
-0.9697197197197196 	300.0000225436625 	6.528927560647176e-05 	101325.0266502263
-0.9672172172172175 	300.0000224617546 	6.505426660912508e-05 	101325.0265550491
-0.9647147147147147 	300.0000223301334 	6.467640735414715e-05 	101325.0264004064
-0.9622122122122124 	300.0000221527615 	6.416699318564672e-05 	101325.0261907256
-0.9597097097097099 	300.0000219408839 	6.355741569333655e-05 	101325.025939524
-0.9572072072072073 	300.0000217117771 	6.28992231378633e-05 	101325.0256677352
-0.9547047047047047 	300.0000214869383 	6.225276160620109e-05 	101325.0254006034
-0.9522022022022023 	300.0000212871263 	6.167884522393269e-05 	101325.0251638034
-0.9496996996996998 	300.0000211316452 	6.123236307748371e-05 	101325.0249795439
-0.9471971971971973 	300.0000210335677 	6.09482869878707e-05 	101325.0248629463
-0.9446946946946947 	300.0000209964316 	6.083778192355568e-05 	101325.0248188854
-0.9421921921921923 	300.0000210146489 	6.088422599329577e-05 	101325.0248400269
-0.93968968968969 	300.0000210716563 	6.103956026897519e-05 	101325.0249070718
-0.9371871871871872 	300.0000211430081 	6.123678753931197e-05 	101325.0249916298
-0.9346846846846848 	300.0000212011412 	6.139782812814018e-05 	101325.025061081
-0.9321821821821823 	300.0000212202925 	6.144726697418502e-05 	101325.0250844361
-0.9296796796796799 	300.0000211808842 	6.133121528764482e-05 	101325.0250383686
-0.9271771771771771 	300.0000210734052 	6.102261561977099e-05 	101325.0249120241
-0.9246746746746748 	300.0000209015977 	6.053057617859392e-05 	101325.0247092097
-0.9221721721721724 	300.0000206806183 	5.989921237571734e-05 	101325.0244478546
-0.9196696696696698 	300.000020434806 	5.919789667971131e-05 	101325.0241572596
-0.9171671671671672 	300.000020194734 	5.851308856828734e-05 	101325.0238733427
-0.9146646646646649 	300.0000199914327 	5.79319618027028e-05 	101325.0236323214
-0.9121621621621623 	300.0000198492127 	5.752379561668946e-05 	101325.0234637386
-0.9096596596596597 	300.0000197814895 	5.732768726530759e-05 	101325.0233838311
-0.9071571571571573 	300.0000197872707 	5.733798499082679e-05 	101325.0233905442
-0.9046546546546547 	300.0000198477659 	5.750131549382246e-05 	101325.0234620876
-0.9021521521521524 	300.0000199305835 	5.772920750077979e-05 	101325.0235606431
-0.8996496496496498 	300.0000199979704 	5.791227485801898e-05 	101325.0236407509
-0.8971471471471473 	300.0000200138534 	5.794876923702827e-05 	101325.0236596876
-0.894644644644645 	300.0000199521845 	5.776726506356419e-05 	101325.0235870211
-0.892142142142142 	300.0000198035567 	5.733954495276126e-05 	101325.0234114052
-0.8896396396396397 	300.0000195770533 	5.669244002139348e-05 	101325.0231435178
-0.8871371371371374 	300.0000192987324 	5.590089317451082e-05 	101325.0228146473
-0.8846346346346349 	300.0000190080978 	5.507353643614127e-05 	101325.0224707758
-0.8821321321321324 	300.0000187480836 	5.433343448680651e-05 	101325.0221629231
-0.8796296296296297 	300.0000185561394 	5.378617383377221e-05 	101325.0219358776
-0.8771271271271271 	300.000018456082 	5.349801910133704e-05 	101325.0218177364
-0.8746246246246248 	300.0000184517532 	5.347966500665674e-05 	101325.0218126743
-0.8721221221221224 	300.0000185246319 	5.367826390161478e-05 	101325.0218991427
-0.8696196196196196 	300.0000186388955 	5.399355038042925e-05 	101325.0220345849
-0.8671171171171175 	300.00001874967 	5.429900080033419e-05 	101325.0221656871
-0.8646146146146148 	300.0000188131249 	5.447185309746963e-05 	101325.0222411788
-0.8621121121121121 	300.0000187984847 	5.442510652702626e-05 	101325.0222239203
-0.8596096096096097 	300.0000186937762 	5.412460832738957e-05 	101325.0220997829
-0.857107107107107 	300.000018509008 	5.359943706078555e-05 	101325.0218811219
-0.8546046046046049 	300.0000182745252 	5.293413103754722e-05 	101325.0216033643
-0.8521021021021022 	300.0000180309571 	5.224212496196943e-05 	101325.021314963
-0.8495995995995997 	300.000017818221 	5.163644194786134e-05 	101325.021063577
-0.8470970970970974 	300.0000176649684 	5.119785480751045e-05 	101325.0208830502
-0.8445945945945946 	300.0000175819517 	5.095370885277317e-05 	101325.0207851023
-0.8420920920920922 	300.0000175594185 	5.087791395231299e-05 	101325.0207579673
-0.8395895895895897 	300.0000175715235 	5.09011961416387e-05 	101325.0207720752
-0.8370870870870872 	300.0000175874127 	5.093697052750796e-05 	101325.0207908161
-0.8345845845845846 	300.0000175805477 	5.091259804403724e-05 	101325.0207827783
-0.8320820820820823 	300.0000175365246 	5.078699927612259e-05 	101325.0207312599
-0.8295795795795798 	300.0000174568796 	5.056240219043348e-05 	101325.0206375945
-0.8270770770770772 	300.0000173548907 	5.027349338163378e-05 	101325.0205169786
-0.8245745745745746 	300.0000172465601 	4.99637480786822e-05 	101325.0203889441
-0.8220720720720721 	300.0000171440309 	4.96670255299575e-05 	101325.0202674627
-0.8195695695695699 	300.0000170496875 	4.939066772720361e-05 	101325.0201556111
-0.817067067067067 	300.0000169575324 	4.912061364876955e-05 	101325.0200468889
-0.8145645645645651 	300.0000168598937 	4.883707909737295e-05 	101325.0199317609
-0.8120620620620621 	300.0000167534599 	4.85296448892393e-05 	101325.0198056784
-0.8095595595595597 	300.0000166426108 	4.821326075343771e-05 	101325.0196745051
-0.8070570570570572 	300.0000165408833 	4.792610222438632e-05 	101325.0195545222
-0.8045545545545546 	300.0000164664243 	4.771505609535778e-05 	101325.0194664651
-0.8020520520520523 	300.0000164325622 	4.761526456450993e-05 	101325.0194255779
-0.7995495495495494 	300.0000164386153 	4.762450305334082e-05 	101325.0194318102
-0.7970470470470474 	300.0000164669681 	4.769438416778262e-05 	101325.0194651105
-0.7945445445445446 	300.0000164871886 	4.774074066021237e-05 	101325.0194892071
-0.7920420420420423 	300.0000164645858 	4.766745278275881e-05 	101325.0194633172
-0.7895395395395397 	300.0000163740366 	4.740630426477556e-05 	101325.0193575829
-0.7870370370370371 	300.0000162113158 	4.694517993440564e-05 	101325.0191663359
-0.7845345345345348 	300.0000159972207 	4.634024122341466e-05 	101325.0189134235
-0.7820320320320323 	300.0000157722562 	4.570394393901358e-05 	101325.0186464268
-0.7795295295295296 	300.0000155830575 	4.51677138285804e-05 	101325.0184215219
-0.7770270270270272 	300.0000154686696 	4.483994833939397e-05 	101325.0182850351
-0.7745245245245247 	300.0000154463751 	4.477104819780147e-05 	101325.0182581548
-0.7720220220220222 	300.0000155068735 	4.493449647060435e-05 	101325.0183299135
-0.7695195195195199 	300.0000156168663 	4.523883504976651e-05 	101325.0184610575
-0.767017017017017 	300.0000157312801 	4.555645180319412e-05 	101325.0185973268
-0.7645145145145147 	300.0000158064211 	4.576378854579404e-05 	101325.0186865583
-0.7620120120120122 	300.0000158118249 	4.577680703634191e-05 	101325.0186932568
-0.7595095095095097 	300.0000157379957 	4.556917055814211e-05 	101325.0186067198
-0.7570070070070072 	300.0000155972841 	4.517313379372171e-05 	101325.0184411309
-0.7545045045045048 	300.0000154167211 	4.466394601831036e-05 	101325.0182283815
-0.7520020020020022 	300.0000152282902 	4.413129346319832e-05 	101325.0180067928
-0.7494994994994997 	300.000015061734 	4.365663196240541e-05 	101325.0178102364
-0.7469969969969972 	300.0000149363278 	4.329414612117799e-05 	101325.0176611937
-0.7444944944944945 	300.0000148590979 	4.306644471399307e-05 	101325.0175687024
-0.7419919919919924 	300.0000148277278 	4.29685067526489e-05 	101325.0175301059
-0.7394894894894897 	300.0000148321346 	4.297455302312015e-05 	101325.0175345644
-0.7369869869869872 	300.0000148596277 	4.304713882681162e-05 	101325.0175664662
-0.7344844844844846 	300.0000148945485 	4.314318035941677e-05 	101325.017607901
-0.7319819819819822 	300.0000149219348 	4.321784163658848e-05 	101325.0176405146
-0.7294794794794797 	300.000014927325 	4.323132081035759e-05 	101325.0176475712
-0.7269769769769773 	300.0000149007579 	4.315453243410403e-05 	101325.0176167916
-0.7244744744744747 	300.0000148383551 	4.29767725640676e-05 	101325.0175436436
-0.721971971971972 	300.0000147452285 	4.271290842681903e-05 	101325.0174338642
-0.7194694694694695 	300.0000146358967 	4.240124808319166e-05 	101325.0173036879
-0.7169669669669674 	300.0000145297689 	4.20983062728901e-05 	101325.0171768526
-0.7144644644644647 	300.0000144486986 	4.186439552867252e-05 	101325.0170787719
-0.711961961961962 	300.0000144086383 	4.174600934903958e-05 	101325.0170294336
-0.7094594594594597 	300.0000144157837 	4.176293975833259e-05 	101325.017037135
-0.7069569569569573 	300.0000144647377 	4.189897711807538e-05 	101325.0170952247
-0.7044544544544545 	300.0000145385767 	4.210584664670993e-05 	101325.0171833309
-0.7019519519519523 	300.0000146133814 	4.231687005894581e-05 	101325.0172729945
-0.6994494494494495 	300.0000146653865 	4.24643207609309e-05 	101325.0173358193
-0.6969469469469471 	300.0000146780859 	4.250029887443737e-05 	101325.0173513964
-0.6944444444444446 	300.0000146450581 	4.240795992591448e-05 	101325.0173127088
-0.6919419419419421 	300.0000145729842 	4.220522128683768e-05 	101325.017227537
-0.6894394394394396 	300.0000144775847 	4.193892726923087e-05 	101325.0171155615
-0.6869369369369374 	300.0000143813226 	4.166861358685426e-05 	101325.0170022426
-0.6844344344344344 	300.000014304295 	4.145187337064585e-05 	101325.0169116511
-0.6819319319319321 	300.0000142605077 	4.132842702059404e-05 	101325.0168604827
-0.6794294294294296 	300.0000142556348 	4.131228648789164e-05 	101325.0168546265
-0.6769269269269272 	300.0000142847934 	4.139190791898537e-05 	101325.0168888065
-0.6744244244244245 	300.0000143366282 	4.153359133331408e-05 	101325.0169490325
-0.6719219219219222 	300.0000143944825 	4.169441702519017e-05 	101325.0170169177
-0.6694194194194195 	300.0000144437848 	4.183135154281665e-05 	101325.0170745042
-0.6669169169169172 	300.0000144724211 	4.191173213553088e-05 	101325.0171082447
-0.6644144144144146 	300.0000144744581 	4.191954151451188e-05 	101325.0171113115
-0.661911911911912 	300.0000144508359 	4.185424237565963e-05 	101325.0170839693
-0.6594094094094097 	300.0000144068209 	4.17305934642502e-05 	101325.0170322478
-0.656906906906907 	300.0000143503994 	4.157067622839307e-05 	101325.0169656289
-0.6544044044044046 	300.0000142906531 	4.139976695027362e-05 	101325.0168946607
-0.6519019019019021 	300.0000142359312 	4.124247477806797e-05 	101325.0168292845
-0.6493993993993996 	300.0000141933025 	4.111955829704276e-05 	101325.0167782234
-0.6468968968968971 	300.0000141688865 	4.105076110902283e-05 	101325.0167491945
-0.6443943943943946 	300.0000141689679 	4.105287065032768e-05 	101325.0167492969
-0.6418918918918921 	300.0000141993999 	4.114150392543665e-05 	101325.016784901
-0.6393893893893897 	300.0000142639667 	4.132765046080073e-05 	101325.0168606774
-0.6368868868868871 	300.0000143634877 	4.161353440041783e-05 	101325.0169778921
-0.6343843843843846 	300.0000144944303 	4.19894933478091e-05 	101325.0171325708
-0.6318818818818821 	300.0000146475317 	4.242994804973706e-05 	101325.0173143779
-0.6293793793793795 	300.0000148097742 	4.289556257857296e-05 	101325.0175069242
-0.6268768768768773 	300.0000149635543 	4.333703023521214e-05 	101325.0176897063
-0.6243743743743745 	300.0000150910806 	4.370260229391588e-05 	101325.0178412461
-0.6218718718718721 	300.0000151772965 	4.394743710517212e-05 	101325.0179427173
-0.6193693693693696 	300.0000152100667 	4.404058235786791e-05 	101325.0179813108
-0.6168668668668671 	300.0000151863757 	4.39718752016488e-05 	101325.0179526622
-0.6143643643643645 	300.0000151096953 	4.375367141167512e-05 	101325.0178618809
-0.6118618618618621 	300.0000149916924 	4.341958015109992e-05 	101325.0177230178
-0.6093593593593596 	300.0000148509064 	4.302059774293511e-05 	101325.0175570809
-0.6068568568568571 	300.0000147083607 	4.261620925063303e-05 	101325.0173889666
-0.6043543543543546 	300.0000145859909 	4.226780423192225e-05 	101325.0172439691
-0.6018518518518521 	300.0000145027258 	4.202954715741574e-05 	101325.017144558
-0.5993493493493496 	300.000014472402 	4.19424584315812e-05 	101325.0171077593
-0.5968468468468471 	300.0000145029441 	4.203032000897134e-05 	101325.0171433016
-0.5943443443443446 	300.0000145954329 	4.229621502698431e-05 	101325.0172525994
-0.591841841841842 	300.0000147436156 	4.272322365070446e-05 	101325.0174286055
-0.5893393393393397 	300.0000149357325 	4.3275646282972e-05 	101325.0176565734
-0.5868368368368371 	300.0000151546869 	4.390345751277086e-05 	101325.0179157625
-0.5843343343343346 	300.0000153798604 	4.454863100635245e-05 	101325.0181820853
-0.5818318318318321 	300.0000155907486 	4.515328086359649e-05 	101325.018431446
-0.5793293293293297 	300.000015769588 	4.566782370243462e-05 	101325.018643258
-0.5768268268268271 	300.0000159052572 	4.60590281634787e-05 	101325.0188036155
-0.5743243243243245 	300.0000159934096 	4.63151135772147e-05 	101325.0189075345
-0.5718218218218221 	300.0000160378122 	4.64469107362871e-05 	101325.0189597031
-0.5693193193193196 	300.0000160502617 	4.648676797773733e-05 	101325.0189734691
-0.5668168168168171 	300.0000160462353 	4.648048034888404e-05 	101325.0189681576
-0.5643143143143147 	300.0000160443354 	4.647949893336371e-05 	101325.0189652474
-0.5618118118118121 	300.0000160613961 	4.653062886774324e-05 	101325.0189842553
-0.5593093093093094 	300.0000161081941 	4.666689634397573e-05 	101325.0190391276
-0.5568068068068072 	300.000016189598 	4.690255192975616e-05 	101325.0191356865
-0.5543043043043046 	300.0000163030141 	4.722934131563895e-05 	101325.0192705456
-0.551801801801802 	300.0000164381212 	4.76185778397631e-05 	101325.0194317469
-0.5492992992992995 	300.0000165807269 	4.802722914740484e-05 	101325.0196011012
-0.5467967967967969 	300.0000167127448 	4.840519340394008e-05 	101325.0197578334
-0.5442942942942947 	300.000016817991 	4.870709118843099e-05 	101325.0198827883
-0.5417917917917919 	300.0000168847516 	4.890082109014458e-05 	101325.0199624299
-0.5392892892892895 	300.0000169094572 	4.897439956754712e-05 	101325.0199919137
-0.536786786786787 	300.0000168964891 	4.894163301220498e-05 	101325.0199765623
-0.5342842842842846 	300.0000168580014 	4.88373628460686e-05 	101325.0199312865
-0.531781781781782 	300.0000168127671 	4.871421996743731e-05 	101325.0198779098
-0.5292792792792794 	300.0000167818048 	4.863090920829429e-05 	101325.0198409069
-0.526776776776777 	300.000016783808 	4.863971873176428e-05 	101325.0198425638
-0.5242742742742745 	300.0000168323008 	4.877925965345121e-05 	101325.019898577
-0.521771771771772 	300.0000169320481 	4.906301236599787e-05 	101325.02001497
-0.5192692692692695 	300.0000170783129 	4.947975703227762e-05 	101325.0201869619
-0.516766766766767 	300.0000172596119 	4.999571866860856e-05 	101325.0204000463
-0.5142642642642645 	300.0000174569971 	5.055885126053125e-05 	101325.0206330237
-0.511761761761762 	300.0000176512759 	5.111454617426508e-05 	101325.0208623451
-0.5092592592592596 	300.0000178242076 	5.161078303485359e-05 	101325.02106677
-0.506756756756757 	300.0000179626952 	5.201212196780473e-05 	101325.0212313721
-0.5042542542542544 	300.0000180624786 	5.230468323073137e-05 	101325.0213501249
-0.5017517517517521 	300.0000181261375 	5.249489311215428e-05 	101325.0214264746
-0.4992492492492494 	300.0000181632779 	5.261116671952241e-05 	101325.021471778
-0.496746746746747 	300.0000181877301 	5.269065317843037e-05 	101325.0215020998
-0.4942442442442445 	300.0000182140037 	5.277381244735814e-05 	101325.0215343598
-0.4917417417417421 	300.0000182544152 	5.289606653953663e-05 	101325.0215828814
-0.4892392392392395 	300.000018316841 	5.307805494904032e-05 	101325.0216569733
-0.486736736736737 	300.0000184035791 	5.332902532397132e-05 	101325.0217596677
-0.4842342342342345 	300.0000185117217 	5.363974080781223e-05 	101325.0218875796
-0.481731731731732 	300.0000186345941 	5.398951429044591e-05 	101325.0220319345
-0.4792292292292296 	300.0000187608358 	5.435133329137122e-05 	101325.022180825
-0.4767267267267268 	300.0000188806341 	5.469521763766348e-05 	101325.0223224371
-0.4742242242242246 	300.0000189877636 	5.500377964516472e-05 	101325.0224484591
-0.471721721721722 	300.0000190792728 	5.526994329847574e-05 	101325.0225565482
-0.4692192192192195 	300.000019159339 	5.550371797700433e-05 	101325.0226509143
-0.4667167167167169 	300.0000192352352 	5.572806067293165e-05 	101325.0227407751
-0.4642142142142145 	300.0000193174171 	5.596672126159827e-05 	101325.0228373083
-0.461711711711712 	300.0000194129863 	5.624561889320157e-05 	101325.0229502186
-0.4592092092092094 	300.000019526986 	5.657519939930268e-05 	101325.0230849279
-0.456706706706707 	300.0000196592306 	5.695541094728577e-05 	101325.0232409805
-0.4542042042042045 	300.0000198033509 	5.737149702889154e-05 	101325.0234118953
-0.451701701701702 	300.0000199511413 	5.779440578108828e-05 	101325.0235864305
-0.4491991991991995 	300.0000200903854 	5.819469972015407e-05 	101325.0237510054
-0.4466966966966969 	300.0000202104651 	5.853928559762086e-05 	101325.023892845
-0.4441941941941945 	300.0000203042875 	5.880950289397644e-05 	101325.0240033147
-0.441691691691692 	300.0000203697372 	5.900196017521008e-05 	101325.0240807942
-0.4391891891891895 	300.0000204134744 	5.913189995480216e-05 	101325.0241322832
-0.436686686686687 	300.0000204477121 	5.923866548628415e-05 	101325.024172984
-0.4341841841841846 	300.0000204903633 	5.936814644724476e-05 	101325.0242234706
-0.431681681681682 	300.0000205588636 	5.957272341239599e-05 	101325.0243048752
-0.4291791791791794 	300.0000206671893 	5.98893008139292e-05 	101325.0244331534
-0.426676676676677 	300.0000208199745 	6.032926786296781e-05 	101325.0246138745
-0.4241741741741744 	300.0000210107922 	6.087545326186354e-05 	101325.02483907
-0.421671671671672 	300.0000212212249 	6.147377192509253e-05 	101325.0250873225
-0.4191691691691694 	300.0000214247873 	6.205209446310748e-05 	101325.0253275465
-0.4166666666666669 	300.0000215927856 	6.252932912829918e-05 	101325.0255258157
-0.4141641641641645 	300.0000217005334 	6.283744887749004e-05 	101325.0256537594
-0.411661661661662 	300.0000217371108 	6.294426983002676e-05 	101325.0256966401
-0.4091591591591594 	300.0000217049467 	6.285851130262075e-05 	101325.0256588613
-0.406656656656657 	300.0000216251651 	6.264091563028314e-05 	101325.025564941
-0.4041541541541545 	300.0000215325771 	6.238679747304644e-05 	101325.025455153
-0.401651651651652 	300.0000214657191 	6.22080942465809e-05 	101325.025376835
-0.3991491491491494 	300.0000214632879 	6.221111640179926e-05 	101325.0253738436
-0.396646646646647 	300.0000215497247 	6.246511584335499e-05 	101325.0254764585
-0.3941441441441444 	300.0000217333813 	6.299321774390533e-05 	101325.0256937043
-0.3916416416416419 	300.0000220003632 	6.375650296183087e-05 	101325.0260099142
-0.3891391391391395 	300.0000223190692 	6.466328679558615e-05 	101325.0263868213
-0.3866366366366368 	300.0000226442384 	6.558848007092791e-05 	101325.026771293
-0.3841341341341344 	300.000022928252 	6.639517248842639e-05 	101325.0271068739
-0.381631631631632 	300.0000231304106 	6.697290257769319e-05 	101325.0273460889
-0.3791291291291294 	300.0000232280872 	6.725307675346479e-05 	101325.027460968
-0.3766266266266269 	300.0000232188293 	6.723249458138206e-05 	101325.0274495859
-0.3741241241241244 	300.0000231240217 	6.697141429907692e-05 	101325.0273369673
-0.371621621621622 	300.0000229828909 	6.657903617285464e-05 	101325.0271697864
-0.3691191191191194 	300.000022844659 	6.619568175595284e-05 	101325.0270058534
-0.366616616616617 	300.0000227562303 	6.595150355868582e-05 	101325.0269010188
-0.3641141141141143 	300.0000227523943 	6.594668764606344e-05 	101325.0268966397
-0.3616116116116119 	300.0000228484953 	6.622200520221805e-05 	101325.0270100691
-0.3591091091091095 	300.0000230351557 	6.675047600548706e-05 	101325.0272305601
-0.356606606606607 	300.0000232815153 	6.744972154740231e-05 	101325.0275222359
-0.3541041041041044 	300.0000235448791 	6.819565852678317e-05 	101325.0278337875
-0.3516016016016019 	300.0000237800514 	6.886470436335152e-05 	101325.028112158
-0.3490990990990994 	300.000023952157 	6.935816559178452e-05 	101325.0283160203
-0.346596596596597 	300.0000240448052 	6.962806298306003e-05 	101325.0284256634
-0.3440940940940944 	300.0000240625477 	6.96899824959273e-05 	101325.0284469342
-0.3415915915915919 	300.0000240293462 	6.960721850861322e-05 	101325.0284080499
-0.3390890890890895 	300.0000239801923 	6.947874980641944e-05 	101325.0283501018
-0.3365865865865869 	300.0000239501413 	6.940027778699087e-05 	101325.0283142404
-0.3340840840840844 	300.0000239633012 	6.944082120817397e-05 	101325.0283297504
-0.3315815815815819 	300.0000240283673 	6.962568130398973e-05 	101325.0284064413
-0.3290790790790794 	300.000024135717 	6.992723507106126e-05 	101325.0285333394
-0.3265765765765769 	300.0000242626968 	7.02864931486889e-05 	101325.0286839298
-0.3240740740740744 	300.0000243832449 	7.062613439846184e-05 	101325.0288261186
-0.3215715715715718 	300.0000244741709 	7.088550753419335e-05 	101325.0289334934
-0.3190690690690695 	300.0000245252106 	7.103734652503712e-05 	101325.028994272
-0.3165665665665668 	300.0000245431226 	7.109494585149556e-05 	101325.0290151133
-0.3140640640640644 	300.0000245459518 	7.11130554651058e-05 	101325.0290183267
-0.311561561561562 	300.0000245582061 	7.11565437687483e-05 	101325.0290331533
-0.3090590590590593 	300.0000246017549 	7.128438269624849e-05 	101325.0290841267
-0.3065565565565568 	300.0000246836273 	7.151774513145018e-05 	101325.0291806777
-0.3040540540540545 	300.0000247947096 	7.182902692044228e-05 	101325.0293118812
-0.3015515515515518 	300.0000249106758 	7.215338371860889e-05 	101325.0294487786
-0.2990490490490494 	300.0000249991811 	7.239991627545351e-05 	101325.0295538807
-0.2965465465465469 	300.0000250338482 	7.249562182464268e-05 	101325.0295946599
-0.2940440440440444 	300.0000250016434 	7.240637411849656e-05 	101325.0295565916
-0.2915415415415418 	300.0000249124905 	7.215944326625788e-05 	101325.029451206
-0.2890390390390395 	300.0000247978013 	7.184511399763276e-05 	101325.0293157591
-0.2865365365365368 	300.0000247029082 	7.158668647735723e-05 	101325.0292037184
-0.2840340340340343 	300.0000246733692 	7.151289804460514e-05 	101325.0291688496
-0.2815315315315318 	300.0000247395964 	7.17072418917488e-05 	101325.0292475944
-0.2790290290290295 	300.0000249065279 	7.218044996931802e-05 	101325.0294449793
-0.2765265265265269 	300.0000251472454 	7.285837255678687e-05 	101325.029729342
-0.2740240240240244 	300.0000254093645 	7.359371986048971e-05 	101325.0300391075
-0.2715215215215219 	300.0000256303397 	7.421476352364605e-05 	101325.0303004027
-0.2690190190190194 	300.0000257561582 	7.456960552295816e-05 	101325.03044951
-0.2665165165165169 	300.0000257596881 	7.458156488131099e-05 	101325.0304532098
-0.2640140140140144 	300.0000256473796 	7.427227510461876e-05 	101325.0303204583
-0.2615115115115119 	300.0000254615911 	7.375564028564013e-05 	101325.0301004733
-0.2590090090090094 	300.0000252637855 	7.320683545258179e-05 	101325.029866883
-0.2565065065065068 	300.000025117658 	7.279762261093343e-05 	101325.0296936534
-0.2540040040040044 	300.0000250655624 	7.265074077398854e-05 	101325.0296320416
-0.2515015015015019 	300.0000251197465 	7.279984751257202e-05 	101325.0296960091
-0.2489989989989994 	300.0000252588781 	7.318628770148991e-05 	101325.0298606545
-0.2464964964964968 	300.0000254390238 	7.369160117354397e-05 	101325.0300740704
-0.2439939939939944 	300.0000256110603 	7.417570373047645e-05 	101325.0302775505
-0.2414914914914919 	300.0000257358811 	7.453216717437279e-05 	101325.0304254661
-0.2389889889889893 	300.0000257968251 	7.471085993236708e-05 	101325.0304973653
-0.2364864864864869 	300.0000257984923 	7.472170735376316e-05 	101325.0304990116
-0.2339839839839843 	300.0000257596432 	7.461899440723537e-05 	101325.0304534417
-0.2314814814814819 	300.0000257038785 	7.446102411065772e-05 	101325.0303870428
-0.2289789789789792 	300.000025644815 	7.429141892086729e-05 	101325.0303174301
-0.2264764764764769 	300.000025586588 	7.411995387256659e-05 	101325.0302483531
-0.2239739739739743 	300.0000255230739 	7.393199779136653e-05 	101325.0301730394
-0.2214714714714718 	300.0000254469902 	7.371259818004708e-05 	101325.0300833183
-0.2189689689689693 	300.0000253591631 	7.346182203025434e-05 	101325.0299794103
-0.2164664664664669 	300.000025270998 	7.321461608127029e-05 	101325.0298751909
-0.2139639639639643 	300.0000252035736 	7.302946560681873e-05 	101325.029795962
-0.2114614614614618 	300.0000251810786 	7.296938644496645e-05 	101325.0297693026
-0.2089589589589593 	300.000025217753 	7.3075079932854e-05 	101325.0298126045
-0.2064564564564568 	300.000025310553 	7.333530401821359e-05 	101325.0299225116
-0.2039539539539543 	300.0000254359845 	7.368525204451615e-05 	101325.0300711942
-0.2014514514514518 	300.0000255552858 	7.401369557326303e-05 	101325.0302119592
-0.1989489489489494 	300.0000256237599 	7.419829305198288e-05 	101325.0302926975
-0.1964464464464468 	300.0000256070232 	7.414437258698294e-05 	101325.0302725835
-0.1939439439439443 	300.0000254920779 	7.381597877561977e-05 	101325.0301366148
-0.1914414414414418 	300.0000252940468 	7.325828328243723e-05 	101325.0299028277
-0.1889389389389393 	300.0000250543628 	7.258242595474571e-05 	101325.0296189975
-0.1864364364364368 	300.0000248264099 	7.194101721752745e-05 	101325.0293493496
-0.1839339339339343 	300.0000246626209 	7.148150315800649e-05 	101325.0291560921
-0.1814314314314318 	300.0000245999721 	7.130314534961825e-05 	101325.0290819583
-0.1789289289289293 	300.0000246473722 	7.143593948490178e-05 	101325.0291385617
-0.1764264264264268 	300.000024787512 	7.182574022461394e-05 	101325.0293039009
-0.1739239239239243 	300.0000249782119 	7.236049726912508e-05 	101325.0295297254
-0.1714214214214218 	300.0000251700451 	7.28983563875113e-05 	101325.0297561026
-0.1689189189189193 	300.0000253150241 	7.330648623564583e-05 	101325.0299277802
-0.1664164164164168 	300.00002538229 	7.349680628533975e-05 	101325.0300070113
-0.1639139139139143 	300.0000253594648 	7.343305865033497e-05 	101325.0299800604
-0.1614114114114118 	300.0000252552002 	7.313899066230339e-05 	101325.0298566447
-0.1589089089089093 	300.0000250916996 	7.267694708743618e-05 	101325.0296635327
-0.1564064064064068 	300.0000248984817 	7.212690199822835e-05 	101325.0294351298
-0.1539039039039043 	300.0000247034001 	7.157023165103884e-05 	101325.0292043934
-0.1514014014014018 	300.0000245278822 	7.106514263403553e-05 	101325.0289966329
-0.1488988988988993 	300.0000243843792 	7.065185458325087e-05 	101325.0288271335
-0.1463963963963968 	300.0000242785318 	7.034478319766834e-05 	101325.0287018896
-0.1438938938938943 	300.0000242089084 	7.014177577437459e-05 	101325.0286199739
-0.1413913913913918 	300.0000241716535 	7.003237526367956e-05 	101325.0285760605
-0.1388888888888893 	300.0000241600151 	6.99943247114582e-05 	101325.0285621022
-0.1363863863863868 	300.0000241645608 	7.000529731631235e-05 	101325.028567948
-0.1338838838838843 	300.0000241759083 	7.003405019924731e-05 	101325.0285813694
-0.1313813813813818 	300.0000241822228 	7.004593265047421e-05 	101325.0285882624
-0.1288788788788793 	300.0000241697201 	7.000668849367961e-05 	101325.0285737064
-0.1263763763763768 	300.0000241279225 	6.988156457895458e-05 	101325.0285241487
-0.1238738738738743 	300.0000240484701 	6.965172841299558e-05 	101325.0284304242
-0.1213713713713717 	300.0000239305021 	6.931139635456416e-05 	101325.0282907704
-0.1188688688688693 	300.0000237801492 	6.888007180391355e-05 	101325.0281127295
-0.1163663663663668 	300.0000236106012 	6.839829170780257e-05 	101325.0279129711
-0.1138638638638643 	300.0000234431877 	6.791939949963869e-05 	101325.0277146341
-0.1113613613613618 	300.0000232977091 	6.750539411090258e-05 	101325.0275426709
-0.1088588588588592 	300.0000231924482 	6.720423538693521e-05 	101325.0274183446
-0.1063563563563568 	300.0000231380812 	6.704737927016466e-05 	101325.0273542495
-0.1038538538538543 	300.0000231354812 	6.703654676147096e-05 	101325.0273511285
-0.1013513513513517 	300.0000231749033 	6.714234166133708e-05 	101325.0273973813
-0.09884884884884926 	300.0000232370732 	6.731603655748475e-05 	101325.0274713995
-0.09634634634634676 	300.0000233000557 	6.748982801631077e-05 	101325.0275460292
-0.09384384384384425 	300.0000233406339 	6.760030549567465e-05 	101325.0275938639
-0.09134134134134177 	300.0000233396487 	6.759158545342691e-05 	101325.0275920241
-0.08883883883883925 	300.0000232833958 	6.742666856671608e-05 	101325.027525595
-0.08633633633633674 	300.0000231677837 	6.709487830480168e-05 	101325.0273893579
-0.08383383383383426 	300.0000229975889 	6.660398502870406e-05 	101325.0271878047
-0.08133133133133173 	300.0000227824775 	6.598765343185739e-05 	101325.0269338133
-0.07882882882882926 	300.0000225390755 	6.529039863498251e-05 	101325.0266464903
-0.07632632632632676 	300.0000222873837 	6.456748891347703e-05 	101325.0263486314
-0.07382382382382424 	300.0000220465079 	6.387804756803365e-05 	101325.0260641431
-0.07132132132132173 	300.000021836814 	6.32745168416695e-05 	101325.0258156402
-0.06881881881881925 	300.0000216730362 	6.280587115064997e-05 	101325.0256222622
-0.06631631631631671 	300.0000215675137 	6.250236029551284e-05 	101325.0254976912
-0.06381381381381425 	300.0000215261881 	6.238159518731839e-05 	101325.0254484929
-0.06131131131131173 	300.0000215469616 	6.243905961189661e-05 	101325.0254730475
-0.05880880880880923 	300.0000216215607 	6.264939875070177e-05 	101325.0255613983
-0.05630630630630672 	300.0000217357892 	6.297361763363009e-05 	101325.0256962831
-0.05380380380380424 	300.0000218706855 	6.335492542531607e-05 	101325.0258553771
-0.05130130130130173 	300.0000220050536 	6.373801275872841e-05 	101325.0260144006
-0.04879879879879922 	300.0000221196793 	6.406559638364047e-05 	101325.0261504287
-0.04629629629629672 	300.0000221993823 	6.429251803537022e-05 	101325.0262447295
-0.04379379379379422 	300.0000222333629 	6.438983302991267e-05 	101325.0262847644
-0.04129129129129173 	300.0000222167707 	6.434111649775063e-05 	101325.0262650878
-0.03878878878878922 	300.0000221509843 	6.415301917474676e-05 	101325.0261870852
-0.03628628628628671 	300.0000220414436 	6.383843664963562e-05 	101325.0260576913
-0.03378378378378422 	300.0000218972216 	6.342483636486655e-05 	101325.0258874732
-0.03128128128128172 	300.0000217292131 	6.294147400662501e-05 	101325.0256885737
-0.02877877877877922 	300.0000215469757 	6.241530724479308e-05 	101325.0254729424
-0.0262762762762767 	300.0000213589454 	6.18753370233324e-05 	101325.0252510902
-0.02377377377377422 	300.0000211735255 	6.133787994479554e-05 	101325.0250313797
-0.0212712712712717 	300.0000209940246 	6.082134896129013e-05 	101325.0248198007
-0.01876876876876921 	300.0000208253383 	6.033277195188545e-05 	101325.0246201238
-0.01626626626626671 	300.0000206683534 	5.987737152014582e-05 	101325.0244343409
-0.0137637637637642 	300.000020523395 	5.945901466782767e-05 	101325.0242632694
-0.0112612612612617 	300.0000203915717 	5.907528665662368e-05 	101325.0241071724
-0.008758758758759198 	300.0000202722268 	5.873069272259036e-05 	101325.0239662256
-0.006256256256256697 	300.0000201658029 	5.842216771618088e-05 	101325.0238406815
-0.003753753753754195 	300.0000200731252 	5.815285135108939e-05 	101325.0237306939
-0.001251251251251693 	300.0000199931085 	5.792074103769528e-05 	101325.0236359252
0.00125125125125081 	300.0000199249447 	5.772170368492758e-05 	101325.0235551748
0.003753753753753312 	300.0000198665731 	5.755316055705833e-05 	101325.023486242
0.006256256256255817 	300.000019815361 	5.740382700637811e-05 	101325.0234261156
0.008758758758758317 	300.0000197692217 	5.726963572681358e-05 	101325.0233713581
0.01126126126126082 	300.0000197245045 	5.713836851050472e-05 	101325.0233184712
0.01376376376376332 	300.0000196782167 	5.700417709151282e-05 	101325.0232641719
0.01626626626626582 	300.0000196288358 	5.686020441935771e-05 	101325.0232055967
0.01876876876876833 	300.0000195735835 	5.669910620426552e-05 	101325.0231404844
0.02127127127127083 	300.0000195116953 	5.652082819613351e-05 	101325.0230673384
0.02377377377377332 	300.0000194429529 	5.631913849800655e-05 	101325.0229855264
0.02627627627627583 	300.0000193662588 	5.609931449755991e-05 	101325.0228952624
0.02877877877877833 	300.0000192840596 	5.585972973691825e-05 	101325.0227974584
0.03128128128128083 	300.0000191957897 	5.560523962725627e-05 	101325.0226934302
0.03378378378378333 	300.0000191034217 	5.53394275987038e-05 	101325.0225844886
0.03628628628628584 	300.0000190081121 	5.506162947279324e-05 	101325.0224715213
0.03878878878878834 	300.0000189094046 	5.477642956710996e-05 	101325.0223547049
0.04129129129129084 	300.000018806643 	5.44777292742766e-05 	101325.0222334772
0.04379379379379333 	300.0000186993549 	5.416794198977309e-05 	101325.0221068006
0.04629629629629585 	300.0000185864562 	5.384126151421668e-05 	101325.0219736536
0.04879879879879834 	300.0000184681186 	5.349816242995179e-05 	101325.0218336412
0.05130130130130085 	300.000018344913 	5.314152699915238e-05 	101325.021687576
0.05380380380380335 	300.0000182184525 	5.277484578096705e-05 	101325.0215378566
0.05630630630630584 	300.0000180919049 	5.241130604716116e-05 	101325.0213884804
0.05880880880880836 	300.0000179701286 	5.205931536856344e-05 	101325.0212445855
0.06131131131131085 	300.0000178578734 	5.173569505061768e-05 	101325.0211116097
0.06381381381381336 	300.0000177586304 	5.144877065217175e-05 	101325.0209942662
0.06631631631631586 	300.0000176747762 	5.12074256785395e-05 	101325.0208955488
0.06881881881881835 	300.0000176075595 	5.101212795715219e-05 	101325.0208159379
0.07132132132132088 	300.0000175543901 	5.085570179532302e-05 	101325.0207529109
0.07382382382382337 	300.000017509911 	5.072625778482579e-05 	101325.0207008794
0.07632632632632587 	300.0000174686163 	5.060167188513506e-05 	101325.0206516699
0.07882882882882837 	300.0000174211801 	5.046152350160334e-05 	101325.0205955688
0.08133133133133086 	300.0000173598913 	5.02796841987655e-05 	101325.0205228118
0.08383383383383337 	300.0000172776186 	5.003979196168299e-05 	101325.0204253195
0.08633633633633589 	300.0000171698424 	4.972841237851801e-05 	101325.0202984077
0.08883883883883838 	300.000017038066 	4.934754493605474e-05 	101325.0201421636
0.09134134134134086 	300.0000168855058 	4.891043760628373e-05 	101325.0199621187
0.09384384384384339 	300.0000167216569 	4.844098463175616e-05 	101325.01976889
0.09634634634634588 	300.00001655932 	4.797582228061385e-05 	101325.0195766739
0.09884884884884838 	300.0000164106361 	4.7547810167848e-05 	101325.0194008295
0.1013513513513509 	300.0000162876531 	4.71941380153744e-05 	101325.0192550326
0.1038538538538534 	300.0000161972829 	4.693307122038697e-05 	101325.0191485145
0.1063563563563559 	300.0000161429388 	4.677343142601619e-05 	101325.019083921
0.1088588588588584 	300.0000161197575 	4.670208412734749e-05 	101325.0190562996
0.1113613613613609 	300.0000161169596 	4.668969261717458e-05 	101325.0190535646
0.1138638638638634 	300.0000161211664 	4.669681386315168e-05 	101325.0190584606
0.1163663663663659 	300.0000161153365 	4.667358218092665e-05 	101325.0190515883
0.1188688688688684 	300.0000160842239 	4.658042328248157e-05 	101325.0190147791
0.1213713713713709 	300.0000160161596 	4.637979791277763e-05 	101325.0189342341
0.1238738738738734 	300.000015904717 	4.605955465678817e-05 	101325.0188030916
0.1263763763763759 	300.0000157526289 	4.562133236956616e-05 	101325.0186231051
0.1288788788788784 	300.0000155681188 	4.509272142552101e-05 	101325.0184051241
0.1313813813813809 	300.0000153676118 	4.451985098267753e-05 	101325.0181680717
0.1338838838838834 	300.000015171662 	4.395896230773282e-05 	101325.0179362479
0.1363863863863859 	300.0000150019745 	4.347418160330496e-05 	101325.0177351991
0.1388888888888884 	300.0000148767493 	4.311367506366442e-05 	101325.017586691
0.1413913913913909 	300.0000148064225 	4.291083822549238e-05 	101325.017503462
0.1438938938938934 	300.0000147907654 	4.286002528702304e-05 	101325.0174849407
0.1463963963963959 	300.0000148164071 	4.292638657313249e-05 	101325.0175154904
0.1488988988988985 	300.0000148592886 	4.304000982120436e-05 	101325.017566499
0.1514014014014009 	300.0000148896611 	4.31172958662289e-05 	101325.0176025064
0.1539039039039035 	300.0000148785872 	4.307958201962649e-05 	101325.0175898457
0.1564064064064059 	300.0000148068056 	4.287020243991275e-05 	101325.01750551
0.1589089089089084 	300.0000146700904 	4.247954905834528e-05 	101325.0173439402
0.1614114114114109 	300.0000144800987 	4.193813920782804e-05 	101325.0171194031
0.1639139139139134 	300.0000142628247 	4.132207758775157e-05 	101325.0168626244
0.166416416416416 	300.0000140517441 	4.071941149640213e-05 	101325.0166122458
0.1689189189189185 	300.0000138761277 	4.021653099687772e-05 	101325.0164039521
0.1714214214214209 	300.0000137553581 	3.986749132168714e-05 	101325.016260875
0.1739239239239235 	300.0000136937371 	3.968353760120568e-05 	101325.0161878304
0.1764264264264259 	300.0000136796173 	3.963440183791244e-05 	101325.0161709811
0.1789289289289284 	300.0000136899283 	3.965266068565909e-05 	101325.0161829113
0.181431431431431 	300.000013696654 	3.966519194894457e-05 	101325.0161912874
0.1839339339339334 	300.0000136766508 	3.960178686151339e-05 	101325.0161679446
0.186436436436436 	300.000013614973 	3.942398772825164e-05 	101325.0160955927
0.1889389389389385 	300.0000135092787 	3.912103789320331e-05 	101325.0159707803
0.191441441441441 	300.0000133669395 	3.871504033811587e-05 	101325.0158028518
0.1939439439439434 	300.0000132032367 	3.824907047568962e-05 	101325.0156098227
0.196446446446446 	300.0000130366824 	3.777193900039591e-05 	101325.0154128893
0.1989489489489485 	300.0000128834004 	3.733221147152654e-05 	101325.0152314122
0.2014514514514509 	300.0000127551625 	3.696189933183399e-05 	101325.0150795148
0.2039539539539535 	300.0000126581101 	3.668056488626988e-05 	101325.0149643999
0.2064564564564559 	300.0000125919576 	3.648591966941051e-05 	101325.0148860103
0.2089589589589585 	300.0000125515699 	3.63640160458302e-05 	101325.0148376652
0.211461461461461 	300.0000125259172 	3.628511890112542e-05 	101325.0148074107
0.2139639639639635 	300.0000125030676 	3.621250083077065e-05 	101325.0147799691
0.2164664664664659 	300.0000124687274 	3.61085705719727e-05 	101325.0147391863
0.2189689689689684 	300.0000124108053 	3.593755837068904e-05 	101325.014670845
0.221471471471471 	300.0000123215387 	3.567954380652765e-05 	101325.0145656343
0.2239739739739735 	300.000012199413 	3.532876145823787e-05 	101325.014421723
0.226476476476476 	300.0000120506981 	3.490364954899892e-05 	101325.0142460838
0.2289789789789785 	300.0000118879223 	3.443882744628933e-05 	101325.0140537841
0.231481481481481 	300.0000117279508 	3.398270139426963e-05 	101325.013864965
0.2339839839839835 	300.0000115885501 	3.358408110546095e-05 	101325.0137001065
0.236486486486486 	300.0000114828185 	3.327877273709505e-05 	101325.0135747838
0.2389889889889885 	300.0000114154063 	3.308225439663014e-05 	101325.0134952116
0.241491491491491 	300.0000113819978 	3.298055536448772e-05 	101325.0134559612
0.2439939939939935 	300.0000113696119 	3.293657692513327e-05 	101325.0134408981
0.246496496496496 	300.0000113583814 	3.2895964118858e-05 	101325.0134274202
0.2489989989989985 	300.0000113292904 	3.28062003825072e-05 	101325.0133927107
0.251501501501501 	300.0000112677362 	3.262632414979011e-05 	101325.0133199153
0.2540040040040035 	300.0000111682791 	3.234063669591644e-05 	101325.0132024824
0.256506506506506 	300.0000110356037 	3.196137346108113e-05 	101325.0130455013
0.2590090090090086 	300.0000108813089 	3.152236415413678e-05 	101325.0128637033
0.261511511511511 	300.0000107236687 	3.107176632919284e-05 	101325.0126768776
0.2640140140140135 	300.0000105775219 	3.065347032011051e-05 	101325.0125042812
0.2665165165165161 	300.0000104551672 	3.030295091957959e-05 	101325.0123598947
0.2690190190190185 	300.0000103623109 	3.003399617175444e-05 	101325.0122497032
0.271521521521521 	300.0000102961056 	2.984148637118691e-05 	101325.012171345
0.2740240240240235 	300.0000102491549 	2.970564097956514e-05 	101325.0121158362
0.276526526526526 	300.0000102106693 	2.959493761666478e-05 	101325.0120705217
0.2790290290290286 	300.0000101695752 	2.947963195656928e-05 	101325.0120223042
0.281531531531531 	300.0000101171333 	2.933297948916808e-05 	101325.0119603836
0.2840340340340335 	300.0000100477056 	2.914030993212117e-05 	101325.0118780833
0.2865365365365361 	300.0000099593425 	2.889792887782919e-05 	101325.0117736094
0.2890390390390385 	300.0000098547177 	2.861238846239424e-05 	101325.0116497054
0.291541541541541 	300.0000097385861 	2.829994182187685e-05 	101325.0115123972
0.2940440440440436 	300.0000096174577 	2.797885385766437e-05 	101325.0113692533
0.296546546546546 	300.0000094975796 	2.766910202218889e-05 	101325.0112276511
0.2990490490490486 	300.000009383714 	2.738588228902046e-05 	101325.0110934341
0.3015515515515511 	300.0000092797328 	2.713951474679663e-05 	101325.0109701047
0.3040540540540535 	300.0000091852227 	2.69352843258421e-05 	101325.0108585348
0.3065565565565562 	300.0000090993934 	2.677136803382276e-05 	101325.0107570884
0.3090590590590585 	300.0000090189438 	2.664368926867873e-05 	101325.0106619799
0.3115615615615611 	300.0000089390367 	2.654215951445476e-05 	101325.0105677092
0.3140640640640635 	300.0000088547418 	2.645544425861812e-05 	101325.0104675453
0.316566566566566 	300.0000087588771 	2.637162011360215e-05 	101325.0103542158
0.3190690690690687 	300.0000086459203 	2.628000939727482e-05 	101325.0102209899
0.3215715715715711 	300.0000085127059 	2.617656516159195e-05 	101325.0100631011
0.3240740740740735 	300.0000083569463 	2.606449783762803e-05 	101325.0098791101
0.326576576576576 	300.000008181034 	2.59577038311156e-05 	101325.0096716141
0.3290790790790786 	300.0000079913056 	2.587860693420845e-05 	101325.0094467765
0.3315815815815811 	300.0000077932719 	2.585417342768098e-05 	101325.0092126129
0.3340840840840836 	300.000007593269 	2.590952819827076e-05 	101325.0089764109
0.3365865865865861 	300.0000073951333 	2.60601929549734e-05 	101325.0087419395
0.3390890890890886 	300.0000071967569 	2.630807461277041e-05 	101325.0085073973
0.3415915915915911 	300.0000069915196 	2.663954828038157e-05 	101325.0082650387
0.3440940940940935 	300.0000067696848 	2.703010452305952e-05 	101325.0080029623
0.3465965965965962 	300.0000065211867 	2.745161954355485e-05 	101325.0077086491
0.3490990990990985 	300.0000062374139 	2.788150541358999e-05 	101325.0073731436
0.3516016016016011 	300.0000059171132 	2.831086640408394e-05 	101325.0069945404
0.3541041041041035 	300.0000055658924 	2.874711136815345e-05 	101325.0065794143
0.3566066066066061 	300.000005195214 	2.921118065715796e-05 	101325.0061416359
0.3591091091091085 	300.0000048206238 	2.972875288108083e-05 	101325.0056989613
0.3616116116116112 	300.0000044564812 	3.031918434719417e-05 	101325.0052684038
0.3641141141141137 	300.0000041124047 	3.098562511066235e-05 	101325.0048617828
0.3666166166166161 	300.000003791943 	3.170955119136834e-05 	101325.0044829049
0.3691191191191185 	300.0000034918363 	3.245062583338923e-05 	101325.0041273892
0.371621621621621 	300.000003202305 	3.315469537653651e-05 	101325.0037851618
0.3741241241241237 	300.0000029146566 	3.37644847841295e-05 	101325.0034448689
0.3766266266266261 	300.0000026217035 	3.423386885756932e-05 	101325.0030986836
0.3791291291291286 	300.0000023232982 	3.453866923743594e-05 	101325.0027461618
0.3816316316316311 	300.0000020265761 	3.468182584762907e-05 	101325.0023957846
0.3841341341341336 	300.0000017458277 	3.469146137019332e-05 	101325.0020636093
0.3866366366366362 	300.0000014968612 	3.461333231999489e-05 	101325.0017694857
0.3891391391391387 	300.0000012959166 	3.450018690953453e-05 	101325.0015320487
0.391641641641641 	300.0000011536911 	3.439949510310033e-05 	101325.0013636887
0.3941441441441436 	300.0000010719822 	3.434459722204055e-05 	101325.0012669925
0.3966466466466462 	300.0000010433484 	3.434977213505969e-05 	101325.0012331364
0.3991491491491486 	300.0000010513598 	3.440932158981419e-05 	101325.0012428355
0.4016516516516512 	300.0000010740716 	3.45037144148486e-05 	101325.0012697594
0.4041541541541536 	300.0000010874297 	3.460691089312434e-05 	101325.001285316
0.4066566566566561 	300.0000010692553 	3.469380684690101e-05 	101325.0012638171
0.4091591591591587 	300.0000010044546 	3.474763782989271e-05 	101325.0011869872
0.4116616616616612 	300.0000008859957 	3.476295817951126e-05 	101325.0010469253
0.4141641641641635 	300.0000007168447 	3.474803975619331e-05 	101325.0008468865
0.4166666666666662 	300.0000005078301 	3.472265401661305e-05 	101325.0006000834
0.4191691691691687 	300.0000002766687 	3.471255678010656e-05 	101325.0003271923
0.421671671671671 	300.0000000448683 	3.474476756217891e-05 	101325.0000528618
0.4241741741741737 	299.9999998324502 	3.483901984140866e-05 	101324.9998019512
0.4266766766766761 	299.9999996582058 	3.500548613760848e-05 	101324.9995960095
0.4291791791791785 	299.9999995351403 	3.524055004935782e-05 	101324.9994499845
0.4316816816816812 	299.9999994673085 	3.552473409723673e-05 	101324.9993697722
0.4341841841841836 	299.999999451551 	3.582963298965924e-05 	101324.9993511073
0.4366866866866862 	299.9999994758182 	3.611667687832024e-05 	101324.9993800803
0.4391891891891885 	299.9999995226259 	3.634650281141793e-05 	101324.9994350253
0.4416916916916913 	299.9999995690918 	3.648389005731528e-05 	101324.999490031
0.4441941941941936 	299.9999995939207 	3.650223615271806e-05 	101324.9995195896
0.4466966966966961 	299.999999579513 	3.639485959324477e-05 	101324.9995031234
0.4491991991991987 	299.9999995169637 	3.617322310450524e-05 	101324.999428969
0.4517017017017012 	299.999999405167 	3.587164485059962e-05 	101324.9992970111
0.4542042042042035 	299.9999992548554 	3.554100149449681e-05 	101324.9991191553
0.4567067067067062 	299.9999990845687 	3.523856202681314e-05 	101324.9989177208
0.4592092092092087 	299.9999989181939 	3.502220478194106e-05 	101324.9987213078
0.4617117117117112 	299.9999987812843 	3.49322540298242e-05 	101324.9985586964
0.4642142142142137 	299.9999986913968 	3.498832566837924e-05 	101324.9984525675
0.4667167167167162 	299.9999986596352 	3.518084609287085e-05 	101324.9984146003
0.4692192192192187 	299.9999986835293 	3.547048572317424e-05 	101324.9984430764
0.4717217217217212 	299.9999987519383 	3.579998850708015e-05 	101324.9985236739
0.4742242242242236 	299.9999988440193 	3.610032298096943e-05 	101324.9986330287
0.4767267267267262 	299.9999989379896 	3.631282902839479e-05 	101324.9987442465
0.4792292292292287 	299.9999990130421 	3.639946253696245e-05 	101324.9988327603
0.4817317317317312 	299.9999990540057 	3.634951989739993e-05 	101324.9988812347
0.4842342342342336 	299.99999905493 	3.618404054306513e-05 	101324.9988826332
0.4867367367367362 	299.9999990193108 	3.59425134924371e-05 	101324.9988406926
0.4892392392392387 	299.9999989577491 	3.567721928864902e-05 	101324.9987675846
0.4917417417417412 	299.9999988835451 	3.543712425317681e-05 	101324.9986798509
0.4942442442442437 	299.999998810507 	3.525586570923723e-05 	101324.9985941027
0.4967467467467462 	299.9999987512285 	3.514836804398762e-05 	101324.9985240405
0.4992492492492487 	299.9999987132135 	3.510643054226298e-05 	101324.9984791992
0.5017517517517511 	299.9999987012494 	3.510993870795278e-05 	101324.9984649327
0.5042542542542537 	299.9999987165326 	3.513345295799897e-05 	101324.9984829363
0.5067567567567562 	299.999998757977 	3.515791189487194e-05 	101324.9985322307
0.5092592592592589 	299.9999988238045 	3.517654771791021e-05 	101324.9986101858
0.5117617617617611 	299.9999989107037 	3.51922728052791e-05 	101324.9987129974
0.5142642642642637 	299.9999990142557 	3.521791964140955e-05 	101324.9988353676
0.5167667667667663 	299.9999991277375 	3.526393288243935e-05 	101324.9989696109
0.5192692692692688 	299.999999242267 	3.533465437507484e-05 	101324.9991053392
0.5217717717717714 	299.9999993484724 	3.542145710634056e-05 	101324.9992305199
0.5242742742742736 	299.9999994357837 	3.550071710981603e-05 	101324.9993335575
0.5267767767767763 	299.999999497095 	3.554355377793003e-05 	101324.9994058209
0.5292792792792789 	299.9999995295574 	3.552037086475191e-05 	101324.9994441351
0.5317817817817813 	299.9999995367104 	3.541630639468336e-05 	101324.9994526337
0.5342842842842837 	299.9999995292434 	3.52360969985265e-05 	101324.9994432514
0.5367867867867864 	299.999999521506 	3.500502661571174e-05 	101324.9994340819
0.5392892892892888 	299.9999995311832 	3.47689534532262e-05 	101324.9994456721
0.5417917917917912 	299.99999957425 	3.457804844202349e-05 	101324.9994962432
0.5442942942942938 	299.9999996595936 	3.447933705010569e-05 	101324.9995971081
0.5467967967967964 	299.9999997885528 	3.449916893969356e-05 	101324.9997494458
0.5492992992992988 	299.9999999526989 	3.463361932384032e-05 	101324.9999433486
0.5518018018018012 	300.0000001358338 	3.485097113043486e-05 	101325.0001597202
0.5543043043043039 	300.0000003181338 	3.509332113954741e-05 	101325.000374843
0.5568068068068063 	300.0000004799692 	3.529762857115309e-05 	101325.0005663147
0.5593093093093087 	300.0000006082293 	3.540771272291621e-05 	101325.0007184572
0.5618118118118114 	300.000000699161 	3.539025572330328e-05 	101325.0008259122
0.5643143143143137 	300.0000007571579 	3.524654243918839e-05 	101325.0008947214
0.5668168168168163 	300.0000007960555 	3.50063383231294e-05 	101325.000940577
0.5693193193193188 	300.0000008332633 	3.472638308330995e-05 	101325.0009844185
0.5718218218218213 	300.0000008859341 	3.446906319391918e-05 	101325.0010466869
0.5743243243243239 	300.0000009666032 	3.428727328556495e-05 	101325.001142061
0.5768268268268262 	300.0000010800139 	3.421152532189327e-05 	101325.0012762382
0.5793293293293288 	300.0000012228729 	3.423822863956568e-05 	101325.0014454119
0.5818318318318314 	300.0000013859973 	3.433993406514911e-05 	101325.0016382624
0.5843343343343338 	300.000001556938 	3.447012931712401e-05 	101325.0018400318
0.5868368368368363 	300.0000017236296 	3.458253977143729e-05 	101325.0020372374
0.5893393393393387 	300.0000018791583 	3.464506377028136e-05 	101325.0022214485
0.5918418418418413 	300.0000020226058 	3.464460382101816e-05 	101325.0023910272
0.5943443443443439 	300.0000021576543 	3.459459414277017e-05 	101325.0025504296
0.5968468468468463 	300.0000022906158 	3.452103260262636e-05 	101325.0027075934
0.5993493493493487 	300.0000024284255 	3.445525603636634e-05 	101325.002870398
0.6018518518518514 	300.0000025745559 	3.442095020591947e-05 	101325.0030433924
0.6043543543543537 	300.0000027292489 	3.44214239300444e-05 	101325.0032261315
0.6068568568568564 	300.0000028877696 	3.444520033336797e-05 	101325.003413594
0.6093593593593587 	300.0000030437522 	3.446476344175975e-05 	101325.0035982986
0.6118618618618614 	300.0000031918473 	3.445275768987488e-05 	101325.0037733256
0.6143643643643638 	300.000003329293 	3.439333452807058e-05 	101325.0039353818
0.6168668668668662 	300.0000034573177 	3.428700298786767e-05 	101325.0040869102
0.6193693693693688 	300.0000035835293 	3.415951743864364e-05 	101325.0042362915
0.6218718718718714 	300.0000037185003 	3.404851647375336e-05 	101325.0043959145
0.6243743743743737 	300.0000038728374 	3.399586762856307e-05 	101325.004578686
0.6268768768768762 	300.0000040548475 	3.403257765924254e-05 	101325.0047939065
0.629379379379379 	300.0000042662055 	3.416243967198106e-05 	101325.005043597
0.6318818818818812 	300.0000045005585 	3.436462892773968e-05 	101325.005320543
0.6343843843843838 	300.0000047446704 	3.459047515768659e-05 	101325.0056089394
0.6368868868868864 	300.0000049803803 	3.478006946927802e-05 	101325.0058877037
0.6393893893893888 	300.0000051899095 	3.487910055184609e-05 	101325.0061357159
0.6418918918918912 	300.0000053611419 	3.485018017649147e-05 	101325.0063377607
0.6443943943943939 	300.000005489642 	3.469327578218319e-05 	101325.0064897622
0.6468968968968963 	300.0000055843039 	3.44411166202903e-05 	101325.0066015315
0.6493993993993988 	300.0000056639254 	3.415624261327057e-05 	101325.0066956465
0.6519019019019012 	300.0000057542153 	3.391585996740491e-05 	101325.0068022456
0.6544044044044038 	300.0000058797278 	3.378488922756982e-05 	101325.0069510222
0.6569069069069065 	300.0000060589634 	3.380683763795129e-05 	101325.0071627386
0.6594094094094087 	300.0000062957668 	3.398385158002591e-05 	101325.0074425795
0.6619119119119113 	300.0000065790024 	3.427788313276493e-05 	101325.007777469
0.664414414414414 	300.0000068846635 	3.462215684617867e-05 	101325.0081387265
0.6669169169169162 	300.000007181383 	3.49316021921548e-05 	101325.0084896427
0.6694194194194188 	300.0000074399942 	3.513430317218345e-05 	101325.0087956546
0.6719219219219214 	300.0000076411829 	3.518230492208682e-05 	101325.0090339153
0.674424424424424 	300.0000077815196 	3.506709300906946e-05 	101325.0091997096
0.6769269269269262 	300.000007872667 	3.482374995222273e-05 	101325.0093077897
0.679429429429429 	300.0000079407817 	3.451472772801602e-05 	101325.009387933
0.6819319319319311 	300.0000080152435 	3.422208138279461e-05 	101325.0094760483
0.6844344344344341 	300.0000081234497 	3.401741345597133e-05 	101325.0096039277
0.686936936936936 	300.0000082816065 	3.394749919231917e-05 	101325.009790943
0.6894394394394392 	300.0000084920645 	3.402467907178831e-05 	101325.0100397416
0.6919419419419413 	300.0000087433906 	3.421918014491813e-05 	101325.010336962
0.694444444444444 	300.0000090151336 	3.447966589887452e-05 	101325.0106586311
0.6969469469469463 	300.0000092855315 	3.474177641301335e-05 	101325.0109782571
0.6994494494494489 	300.0000095363858 	3.495147647353378e-05 	101325.0112746553
0.7019519519519515 	300.0000097585922 	3.508037895549531e-05 	101325.0115369814
0.7044544544544538 	300.0000099521112 	3.512444058836931e-05 	101325.0117657973
0.7069569569569564 	300.0000101254603 	3.510854755938061e-05 	101325.0119702946
0.7094594594594589 	300.0000102883466 	3.506465975516919e-05 	101325.0121629191
0.7119619619619615 	300.0000104494964 	3.501975950386294e-05 	101325.012353581
0.7144644644644638 	300.0000106123643 	3.498649947117389e-05 	101325.0125458557
0.7169669669669665 	300.0000107736354 	3.495503297135887e-05 	101325.0127366957
0.7194694694694688 	300.0000109287143 	3.491062474740087e-05 	101325.0129196743
0.7219719719719715 	300.0000110729418 	3.484032106582924e-05 	101325.0130902938
0.7244744744744737 	300.0000112088508 	3.474762896956237e-05 	101325.0132509218
0.7269769769769764 	300.0000113458361 	3.466173738297635e-05 	101325.0134128894
0.7294794794794791 	300.0000114992761 	3.462388963270051e-05 	101325.0135943343
0.7319819819819813 	300.0000116851386 	3.468108916379641e-05 	101325.0138141024
0.7344844844844839 	300.0000119129461 	3.486062257627429e-05 	101325.0140836882
0.7369869869869864 	300.0000121810517 	3.51534059844123e-05 	101325.0144004053
0.739489489489489 	300.0000124727059 	3.551685201949957e-05 	101325.0147450716
0.7419919919919914 	300.000012761057 	3.587594880617695e-05 	101325.0150860326
0.7444944944944939 	300.0000130171427 	3.615029562164156e-05 	101325.0153885337
0.7469969969969963 	300.0000132179008 	3.627718111925511e-05 	101325.0156259146
0.7494994994994989 	300.0000133552668 	3.623074602511001e-05 	101325.0157886275
0.7520020020020015 	300.000013439272 	3.603811758841999e-05 	101325.0158878542
0.7545045045045039 	300.0000134936874 	3.576582680314114e-05 	101325.0159522748
0.7570070070070062 	300.0000135501347 	3.55027352031461e-05 	101325.0160191571
0.7595095095095092 	300.0000136381683 	3.533210492819317e-05 	101325.0161232515
0.7620120120120112 	300.0000137772113 	3.530452938556532e-05 	101325.0162872608
0.7645145145145138 	300.0000139709849 	3.543301439776472e-05 	101325.0165163695
0.7670170170170165 	300.0000142091582 	3.568832768096754e-05 	101325.0167981593
0.7695195195195191 	300.0000144711108 	3.601389495454092e-05 	101325.0171077302
0.7720220220220213 	300.0000147320096 	3.634603000015416e-05 	101325.0174159991
0.7745245245245239 	300.0000149704324 	3.662466715110025e-05 	101325.0176978628
0.7770270270270263 	300.000015173236 	3.681325464150977e-05 	101325.0179373965
0.779529529529529 	300.0000153356539 	3.689648924055752e-05 	101325.0181292623
0.7820320320320313 	300.0000154607231 	3.688003524751359e-05 	101325.0182771933
0.784534534534534 	300.0000155573096 	3.678944327452945e-05 	101325.0183912125
0.7870370370370364 	300.0000156364933 	3.665602512408988e-05 	101325.0184849599
0.7895395395395389 	300.0000157114055 	3.652051143968126e-05 	101325.0185736256
0.7920420420420413 	300.0000157947836 	3.642170367818767e-05 	101325.0186722771
0.794544544544544 	300.00001589778 	3.639035557030276e-05 	101325.018794137
0.7970470470470463 	300.0000160284175 	3.645137460067712e-05 	101325.0189484488
0.799549549549549 	300.0000161887234 	3.660958816716088e-05 	101325.0191380226
0.8020520520520515 	300.0000163740816 	3.685172636877535e-05 	101325.019357253
0.8045545545545539 	300.0000165722957 	3.714422811195304e-05 	101325.0195918502
0.8070570570570563 	300.0000167663809 	3.74341023409765e-05 	101325.0198211419
0.8095595595595589 	300.0000169366899 	3.766817204743978e-05 	101325.0200226668
0.8120620620620614 	300.0000170678524 	3.779942270748691e-05 	101325.0201778201
0.8145645645645638 	300.0000171521411 	3.780301897564995e-05 	101325.0202771928
0.8170670670670666 	300.0000171919553 	3.768669866669679e-05 	101325.0203242695
0.8195695695695689 	300.0000172016503 	3.748419769179044e-05 	101325.020335911
0.8220720720720714 	300.0000172037537 	3.725643424471133e-05 	101325.0203386924
0.8245745745745739 	300.0000172236636 	3.707093853299678e-05 	101325.0203619753
0.8270770770770765 	300.0000172814858 	3.698555156738104e-05 	101325.0204303104
0.8295795795795788 	300.0000173891154 	3.703779083080651e-05 	101325.0205575488
0.8320820820820815 	300.0000175468851 	3.722732808824249e-05 	101325.0207436983
0.834584584584584 	300.0000177423174 	3.752511764166901e-05 	101325.0209747279
0.8370870870870865 	300.0000179542778 	3.78761417043494e-05 	101325.0212255198
0.8395895895895891 	300.0000181573936 	3.821202240517225e-05 	101325.0214657364
0.8420920920920915 	300.0000183278381 	3.847365186842956e-05 	101325.0216670854
0.844594594594594 	300.0000184484537 	3.861581623754747e-05 	101325.0218097183
0.8470970970970964 	300.0000185132621 	3.862476435138627e-05 	101325.021886324
0.8495995995995991 	300.0000185278897 	3.851857039565353e-05 	101325.0219034206
0.8521021021021015 	300.0000185078163 	3.833803833645581e-05 	101325.021879791
0.8546046046046039 	300.0000184759452 	3.814673063784686e-05 	101325.0218422098
0.8571071071071066 	300.0000184566497 	3.800783454098159e-05 	101325.0218192792
0.8596096096096089 	300.0000184698689 	3.79733559289517e-05 	101325.0218350925
0.8621121121121116 	300.00001852813 	3.807416012514935e-05 	101325.0219040959
0.8646146146146139 	300.0000186331692 	3.830539755797714e-05 	101325.022027936
0.8671171171171166 	300.0000187743826 	3.863625485160404e-05 	101325.0221950233
0.8696196196196189 	300.0000189334282 	3.900980363043841e-05 	101325.0223831913
0.8721221221221216 	300.0000190874371 	3.935704515510026e-05 	101325.0225649936
0.874624624624624 	300.0000192138036 	3.961769253926097e-05 	101325.0227142427
0.8771271271271264 	300.0000192965255 	3.97481618739237e-05 	101325.0228120706
0.879629629629629 	300.0000193297819 	3.974084035053648e-05 	101325.0228513702
0.8821321321321317 	300.0000193187129 	3.961933993059589e-05 	101325.0228384496
0.8846346346346339 	300.000019278308 	3.943481139365105e-05 	101325.0227910942
0.8871371371371364 	300.0000192297306 	3.925175779676645e-05 	101325.0227335808
0.8896396396396391 	300.0000191930386 	3.913219147490445e-05 	101325.0226902129
0.8921421421421414 	300.0000191837833 	3.912181593389603e-05 	101325.0226792484
0.8946446446446441 	300.000019208696 	3.923304011154269e-05 	101325.0227085587
0.8971471471471464 	300.0000192641183 	3.944642850640062e-05 	101325.02277393
0.8996496496496489 	300.0000193373818 	3.971733322804512e-05 	101325.0228606026
0.9021521521521517 	300.0000194109431 	3.998610080626386e-05 	101325.0229476056
0.9046546546546541 	300.0000194668802 	4.019308743882907e-05 	101325.0230136239
0.9071571571571564 	300.0000194912595 	4.029665045422459e-05 	101325.0230427184
0.9096596596596589 	300.0000194790461 	4.028116064579802e-05 	101325.0230283509
0.9121621621621616 	300.0000194339626 	4.016736353825656e-05 	101325.0229747938
0.9146646646646639 	300.000019366871 	3.99961240582949e-05 	101325.0228956608
0.9171671671671666 	300.0000192943068 	3.982234773541025e-05 	101325.0228101021
0.9196696696696689 	300.0000192334077 	3.970480902778267e-05 	101325.0227378327
0.9221721721721714 	300.0000191965149 	3.968346573985002e-05 	101325.0226942228
0.9246746746746741 	300.0000191898069 	3.977833161478421e-05 	101325.0226866049
0.9271771771771765 	300.0000192118451 	3.998010243467625e-05 	101325.0227125789
0.9296796796796791 	300.0000192528263 	4.025642666325141e-05 	101325.0227608784
0.9321821821821816 	300.0000192981263 	4.056013539838987e-05 	101325.0228145776
0.9346846846846838 	300.0000193326676 	4.083318341753761e-05 	101325.0228555661
0.9371871871871866 	300.0000193440062 	4.103036819455454e-05 	101325.0228687306
0.9396896896896891 	300.0000193238077 	4.112464587102682e-05 	101325.0228449051
0.9421921921921914 	300.000019270935 	4.111067946313053e-05 	101325.0227824749
0.9446946946946939 	300.0000191904283 	4.100779035180878e-05 	101325.0226874801
0.9471971971971965 	300.0000190925773 	4.085179438964846e-05 	101325.0225719676
0.9496996996996991 	300.0000189903359 	4.069230165160292e-05 	101325.0224508433
0.9522022022022016 	300.0000188952802 	4.057341346468757e-05 	101325.0223382567
0.9547047047047038 	300.0000188161125 	4.052835511934353e-05 	101325.022244542
0.9572072072072064 	300.0000187566908 	4.057369250495796e-05 	101325.0221742703
0.9597097097097093 	300.0000187157124 	4.069989899833116e-05 	101325.0221257148
0.9622122122122114 	300.0000186869702 	4.088007769929391e-05 	101325.0220916764
0.964714714714714 	300.0000186612862 	4.107629424452128e-05 	101325.0220613265
0.9672172172172167 	300.0000186285107 	4.124943252634681e-05 	101325.022022598
0.969719719719719 	300.000018579725 	4.136531167989063e-05 	101325.0219648135
0.9722222222222214 	300.0000185087388 	4.14011201039245e-05 	101325.0218809329
0.9747247247247239 	300.0000184137382 	4.135296430043619e-05 	101325.0217687016
0.9772272272272267 	300.0000182971417 	4.12336010040614e-05 	101325.0216307603
0.9797297297297292 	300.0000181644418 	4.106910712092036e-05 	101325.0214740291
0.9822322322322313 	300.0000180242764 	4.089470849463012e-05 	101325.0213083531
0.9847347347347344 	300.0000178857333 	4.074801037052733e-05 	101325.0211446064
0.9872372372372363 	300.0000177572187 	4.065864671873853e-05 	101325.0209928993
0.9897397397397389 	300.0000176459451 	4.064693432053795e-05 	101325.0208612436
0.9922422422422417 	300.000017555598 	4.072021691844397e-05 	101325.020754475
0.9947447447447441 	300.0000174872526 	4.08697650554907e-05 	101325.0206735031
0.9972472472472468 	300.0000174379532 	4.107708409717284e-05 	101325.0206151889
0.999749749749749 	300.0000174021338 	4.131490947048734e-05 	101325.0205728658
1.002252252252252 	300.0000173720464 	4.155222590425435e-05 	101325.0205372518
1.004754754754754 	300.0000173385379 	4.17624970876801e-05 	101325.0204975759
1.007257257257256 	300.000017292161 	4.192475515493426e-05 	101325.02044289
1.009759759759759 	300.0000172250694 	4.202623417199142e-05 	101325.0203636775
1.012262262262261 	300.000017131872 	4.206282405828299e-05 	101325.0202535656
1.014764764764764 	300.0000170106869 	4.20382654013038e-05 	101325.0201104585
1.017267267267267 	300.0000168637932 	4.19656389675902e-05 	101325.0199368599
1.019769769769769 	300.0000166970839 	4.186393279001092e-05 	101325.0197395591
1.022272272272272 	300.000016518803 	4.175495872451161e-05 	101325.0195287215
1.024774774774774 	300.0000163392005 	4.165985448606875e-05 	101325.0193163717
1.027277277277277 	300.0000161683812 	4.15978173285872e-05 	101325.0191144583
1.029779779779779 	300.0000160149236 	4.158169393503913e-05 	101325.018932893
1.032282282282282 	300.0000158838318 	4.161706584582128e-05 	101325.018777897
1.034784784784784 	300.000015776263 	4.170426799990175e-05 	101325.0186507937
1.037287287287286 	300.0000156888388 	4.18329852208502e-05 	101325.0185475852
1.039789789789789 	300.0000156145097 	4.198690727506519e-05 	101325.0184596783
1.042292292292291 	300.0000155433585 	4.214613766828553e-05 	101325.0183754012
1.044794794794794 	300.0000154642519 	4.228604637540579e-05 	101325.0182817735
1.047297297297296 	300.0000153666454 	4.23834794423044e-05 	101325.0181663337
1.049799799799799 	300.0000152417266 	4.241927547216629e-05 	101325.0180189634
1.052302302302302 	300.0000150846998 	4.238078135642338e-05 	101325.0178335754
1.054804804804804 	300.0000148947162 	4.22637726287845e-05 	101325.0176091293
1.057307307307306 	300.000014675119 	4.207349366634426e-05 	101325.0173495782
1.059809809809809 	300.0000144329172 	4.182445152004361e-05 	101325.0170630602
1.062312312312312 	300.0000141772711 	4.153794052394321e-05 	101325.0167608327
1.064814814814814 	300.0000139193113 	4.124067079316538e-05 	101325.0164558643
1.067317317317317 	300.0000136696506 	4.095883424762737e-05 	101325.0161608363
1.069819819819819 	300.0000134373782 	4.071804687174996e-05 	101325.0158862386
1.072322322322321 	300.0000132288683 	4.054245088453783e-05 	101325.0156393651
1.074824824824824 	300.0000130471013 	4.044819966633383e-05 	101325.0154242817
1.077327327327327 	300.0000128933234 	4.044312197598777e-05 	101325.0152423498
1.079829829829829 	300.0000127667123 	4.052630610412487e-05 	101325.0150926144
1.082332332332332 	300.0000126644625 	4.068916628460671e-05 	101325.0149719643
1.084834834834834 	300.0000125824696 	4.091723786958422e-05 	101325.0148752157
1.087337337337337 	300.0000125146255 	4.119235075795283e-05 	101325.0147952071
1.089839839839839 	300.0000124539312 	4.14938679896811e-05 	101325.0147235452
1.092342342342342 	300.0000123936502 	4.179890282909964e-05 	101325.0146521011
1.094844844844844 	300.0000123277179 	4.208411266493346e-05 	101325.0145741529
1.097347347347347 	300.0000122516542 	4.232918392140004e-05 	101325.0144843631
1.099849849849849 	300.0000121619285 	4.252196234066939e-05 	101325.0143783142
1.102352352352352 	300.0000120559163 	4.265591096210888e-05 	101325.0142527939
1.104854854854854 	300.0000119324533 	4.273397575446759e-05 	101325.0141067314
1.107357357357357 	300.0000117926227 	4.276580154618605e-05 	101325.0139415347
1.109859859859859 	300.0000116393171 	4.275895444627566e-05 	101325.0137603186
1.112362362362362 	300.0000114760017 	4.27319298229073e-05 	101325.013566912
1.114864864864865 	300.0000113057159 	4.270111592087682e-05 	101325.0133655899
1.117367367367367 	300.000011132438 	4.267830625653856e-05 	101325.0131609766
1.119869869869869 	300.0000109595262 	4.266822163389632e-05 	101325.0129567383
1.122372372372372 	300.0000107881436 	4.266893156119996e-05 	101325.0127539488
1.124874874874874 	300.0000106165845 	4.267474156597477e-05 	101325.012551156
1.127377377377377 	300.0000104428445 	4.267271957487029e-05 	101325.0123457538
1.129879879879879 	300.0000102648346 	4.264691025269379e-05 	101325.0121350444
1.132382382382382 	300.0000100805294 	4.258959239624756e-05 	101325.0119170489
1.134884884884884 	300.0000098898436 	4.250271372833461e-05 	101325.0116918139
1.137387387387387 	300.0000096955433 	4.239544087823731e-05 	101325.0114621127
1.139889889889889 	300.0000095009563 	4.228691387426758e-05 	101325.0112323376
1.142392392392392 	300.0000093101651 	4.219770915967369e-05 	101325.011006829
1.144894894894894 	300.000009126146 	4.214274562573787e-05 	101325.0107889079
1.147397397397397 	300.0000089492215 	4.212941684080583e-05 	101325.0105798238
1.149899899899899 	300.0000087781279 	4.215628781653796e-05 	101325.0103778526
1.152402402402402 	300.0000086097032 	4.220993980492657e-05 	101325.0101787848
1.154904904904904 	300.0000084393175 	4.227004430310308e-05 	101325.0099772092
1.157407407407407 	300.000008262134 	4.231440449693402e-05 	101325.0097677983
1.159909909909909 	300.0000080749603 	4.232345993644327e-05 	101325.0095467144
1.162412412412412 	300.0000078768949 	4.22802721698908e-05 	101325.0093126229
1.164914914914914 	300.0000076690856 	4.218100468907467e-05 	101325.009066821
1.167417417417417 	300.0000074545709 	4.203546471095121e-05 	101325.0088131679
1.169919919919919 	300.0000072388294 	4.186242067481563e-05 	101325.0085578014
1.172422422422422 	300.0000070277056 	4.168934633416661e-05 	101325.0083079871
1.174924924924925 	300.0000068267813 	4.154772136967801e-05 	101325.008070688
1.177427427427427 	300.0000066409202 	4.146376092428905e-05 	101325.0078510947
1.179929929929929 	300.0000064720198 	4.14519016105603e-05 	101325.007651116
1.182432432432432 	300.0000063177268 	4.151123798688847e-05 	101325.0074685548
1.184934934934934 	300.0000061727596 	4.162454960357313e-05 	101325.0072974626
1.187437437437437 	300.0000060304735 	4.176397016006613e-05 	101325.007129506
1.189939939939939 	300.0000058836085 	4.189671026589716e-05 	101325.0069559794
1.192442442442442 	300.0000057260935 	4.199337828385686e-05 	101325.0067699441
1.194944944944944 	300.0000055551601 	4.203598547077123e-05 	101325.0065678693
1.197447447447447 	300.0000053713541 	4.202018643411217e-05 	101325.0063502619
1.199949949949949 	300.0000051776703 	4.195416544193221e-05 	101325.0061211146
1.202452452452452 	300.0000049790274 	4.185874200879882e-05 	101325.0058865068
1.204954954954955 	300.000004781206 	4.175856778752741e-05 	101325.0056526371
1.207457457457457 	300.0000045881558 	4.167081308472962e-05 	101325.0054242077
1.20995995995996 	300.0000044016837 	4.160771272420958e-05 	101325.0052037312
1.212462462462462 	300.0000042220568 	4.157578759113525e-05 	101325.0049913186
1.214964964964964 	300.000004047663 	4.157288050752659e-05 	101325.0047851937
1.217467467467467 	300.0000038763778 	4.159064983558198e-05 	101325.0045827838
1.219969969969969 	300.0000037061521 	4.161896134520431e-05 	101325.0043816843
1.222472472472472 	300.0000035359262 	4.164982995331616e-05 	101325.0041801879
1.224974974974975 	300.0000033645221 	4.167695719163157e-05 	101325.003977411
1.227477477477477 	300.0000031915697 	4.169724109793074e-05 	101325.0037732391
1.229979979979979 	300.0000030178916 	4.170964959156177e-05 	101325.0035679666
1.232482482482482 	300.0000028434105 	4.171534089254627e-05 	101325.0033617948
1.234984984984984 	300.0000026683064 	4.171722535093647e-05 	101325.0031547189
1.237487487487487 	300.0000024923199 	4.171503822256128e-05 	101325.0029464606
1.239989989989989 	300.0000023147554 	4.171154948801615e-05 	101325.0027364633
1.242492492492492 	300.0000021353798 	4.170080494035537e-05 	101325.0025242066
1.244994994994994 	300.0000019492851 	4.169187431882646e-05 	101325.0023095015
1.247497497497497 	300.000001096519 	4.16745629619119e-05 	101325.0020926853
1.249999999999999 	299.9997535072847 	4.165628465691322e-05 	101325.0018747951
