-1.25 	349.9013364214141 	0.003259907054726606 	101325.013194689
-1.247497497497497 	300.0862858096637 	0.003177783660815381 	101325.0125795673
-1.244994994994995 	300.0011571539684 	0.002955055891356682 	101325.0128625178
-1.242492492492492 	300.0000216085178 	0.002739224607364854 	101325.0136460992
-1.23998998998999 	300.0000108166149 	0.00252642260043507 	101325.0126907519
-1.237487487487487 	300.0000120027794 	0.00231970924141705 	101325.0142351224
-1.234984984984985 	300.0000105969532 	0.002118062137983864 	101325.012491761
-1.232482482482482 	300.0000121303849 	0.001926064624933126 	101325.014371405
-1.22997997997998 	300.0000103811611 	0.001740228892607457 	101325.012246957
-1.227477477477477 	300.0000121104803 	0.001566347534969758 	101325.0143404955
-1.224974974974975 	300.0000103672912 	0.001398984847950431 	101325.0122377502
-1.222472472472472 	300.0000122030687 	0.001245436889085545 	101325.014447312
-1.21996996996997 	300.0000105962278 	0.001097617226440594 	101325.012516539
-1.217467467467467 	300.0000124997252 	0.0009649444437599351 	101325.0147903992
-1.214964964964965 	300.0000111581123 	0.0008375608980420034 	101325.013182318
-1.212462462462462 	300.0000130706852 	0.0007249399870334395 	101325.0154569472
-1.20995995995996 	300.0000117834053 	0.0006174184869778293 	101325.0139240302
-1.207457457457457 	300.0000132867944 	0.0005240600896426273 	101325.0157130055
-1.204954954954955 	300.0000120069757 	0.0004347422331131977 	101325.0141959332
-1.202452452452452 	300.0000133061048 	0.000358787738367233 	101325.0157314555
-1.19994994994995 	300.0000120668739 	0.0002841225902797663 	101325.014266257
-1.197447447447447 	300.000013520763 	0.0002201713582405243 	101325.0159791559
-1.194944944944945 	300.0000118216782 	0.0001550396951125691 	101325.0139757098
-1.192442442442442 	300.000013719123 	0.0001011796938435276 	101325.0162132998
-1.18993993993994 	300.0000116299716 	5.954491472967603e-05 	101325.0137592185
-1.187437437437437 	300.000013921392 	1.513389483551836e-05 	101325.0164548187
-1.184934934934935 	300.0000117315296 	6.007378460145873e-05 	101325.0138816184
-1.182432432432432 	300.0000143378578 	7.513601902696079e-05 	101325.0169400134
-1.17992992992993 	300.0000121654689 	0.0001066089447442454 	101325.014391234
-1.177427427427427 	300.0000145696293 	0.0001143855204947921 	101325.017209426
-1.174924924924925 	300.0000138053974 	0.0001164075887093677 	101325.0163323436
-1.172422422422422 	300.0000145428758 	9.846857173848889e-05 	101325.0171777942
-1.16991991991992 	300.0000137540379 	8.719998708988077e-05 	101325.0162737868
-1.167417417417417 	300.0000141319716 	6.473074021261906e-05 	101325.0166961601
-1.164914914914915 	300.0000133375693 	5.034861551645073e-05 	101325.015782092
-1.162412412412412 	300.0000137144679 	4.704122472877043e-05 	101325.0161984087
-1.15990990990991 	300.00001336218 	2.95763249893019e-05 	101325.0158103241
-1.157407407407407 	300.0000138961202 	5.090529768443633e-05 	101325.016413497
-1.154904904904904 	300.0000139553676 	2.94306475980287e-05 	101325.016511684
-1.152402402402403 	300.0000144806997 	5.66101326621012e-05 	101325.0171059086
-1.1498998998999 	300.000014596822 	6.848960867590289e-05 	101325.017271037
-1.147397397397397 	300.0000149067089 	9.436902920199408e-05 	101325.0176113732
-1.144894894894895 	300.0000148841103 	0.0001044676487754582 	101325.0176094187
-1.142392392392392 	300.0000149362203 	0.0001281281923655608 	101325.0176442916
-1.13988988988989 	300.0000148572879 	0.0001358411357797922 	101325.0175750116
-1.137387387387387 	300.0000147886006 	0.0001570374755468998 	101325.0174708258
-1.134884884884885 	300.0000148602016 	0.0001612308844308783 	101325.0175758868
-1.132382382382382 	300.0000148207455 	0.0001795944024580676 	101325.0175103627
-1.12987987987988 	300.0000150535378 	0.0001789764373272263 	101325.0178091893
-1.127377377377377 	300.0000150311593 	0.0001927552456585097 	101325.0177609477
-1.124874874874875 	300.0000152076166 	0.0001838113310153372 	101325.0179866234
-1.122372372372372 	300.0000151676805 	0.0001889059523964861 	101325.0179244395
-1.11986986986987 	300.0000152186124 	0.0001747042452452731 	101325.0179990503
-1.117367367367367 	300.0000151188701 	0.0001779243249812983 	101325.017866043
-1.114864864864865 	300.0000151719062 	0.0001621252754324874 	101325.0179428911
-1.112362362362362 	300.0000151622546 	0.0001650819686850115 	101325.0179194833
-1.10985985985986 	300.0000153565706 	0.0001478421031923772 	101325.018161287
-1.107357357357357 	300.0000155052523 	0.0001513543551860919 	101325.018325348
-1.104854854854855 	300.0000157875058 	0.0001329993267410319 	101325.0186684425
-1.102352352352353 	300.0000159306092 	0.0001370260979719523 	101325.0188273136
-1.09984984984985 	300.0000160864221 	0.0001184170055891844 	101325.0190199487
-1.097347347347347 	300.0000160250394 	0.0001224611468581864 	101325.018938861
-1.094844844844845 	300.0000159621977 	0.0001042759656613191 	101325.0188727195
-1.092342342342342 	300.0000157470467 	0.0001083295871112393 	101325.0186127942
-1.08983983983984 	300.0000156486775 	9.034761039547495e-05 	101325.0185041048
-1.087337337337337 	300.0000155468423 	9.517992640810051e-05 	101325.0183782501
-1.084834834834835 	300.0000156523177 	7.665251469538191e-05 	101325.0185073201
-1.082332332332332 	300.0000158077128 	8.302590535864829e-05 	101325.0186859357
-1.07982982982983 	300.0000161077143 	6.369235897710008e-05 	101325.0190433497
-1.077327327327327 	300.0000163630594 	7.154053672871675e-05 	101325.0193413221
-1.074824824824825 	300.0000166092597 	5.201667045742543e-05 	101325.0196352904
-1.072322322322323 	300.0000166924643 	6.058291944757196e-05 	101325.0197315027
-1.06981981981982 	300.000016689388 	4.372341597070921e-05 	101325.0197303538
-1.067317317317317 	300.0000165361146 	5.19746806095591e-05 	101325.0195473667
-1.064814814814815 	300.0000163697629 	4.375973241318043e-05 	101325.0193522846
-1.062312312312312 	300.0000161841398 	5.008347282251527e-05 	101325.0191315905
-1.05980980980981 	300.0000160996025 	4.387255526216095e-05 	101325.0190330295
-1.057307307307307 	300.0000160908587 	4.903610281041359e-05 	101325.0190222908
-1.054804804804805 	300.0000161984773 	4.492533074719081e-05 	101325.0191502101
-1.052302302302302 	300.0000163564074 	4.910016142395632e-05 	101325.0193359396
-1.0497997997998 	300.0000165445616 	4.653997829730265e-05 	101325.0195586683
-1.047297297297297 	300.0000166969822 	4.948229213798643e-05 	101325.019738868
-1.044794794794795 	300.0000168000126 	4.777698896789523e-05 	101325.0198609577
-1.042292292292292 	300.0000168324081 	4.940749262646218e-05 	101325.019899182
-1.03978978978979 	300.0000168129034 	4.821419693136483e-05 	101325.0198761539
-1.037287287287287 	300.0000167559651 	4.885416427451877e-05 	101325.0198084207
-1.034784784784785 	300.0000166853619 	4.813597331156388e-05 	101325.0197246613
-1.032282282282283 	300.0000166126148 	4.821876641626952e-05 	101325.0196389236
-1.02977977977978 	300.0000165438016 	4.790540834263881e-05 	101325.0195577049
-1.027277277277277 	300.0000164800971 	4.771088485194093e-05 	101325.0194823978
-1.024774774774775 	300.0000164231699 	4.764495244640422e-05 	101325.0194148474
-1.022272272272272 	300.0000163824986 	4.739356893215741e-05 	101325.0193667223
-1.01976976976977 	300.000016370985 	4.751661365804152e-05 	101325.0193535548
-1.017267267267267 	300.0000164040272 	4.7487236188469e-05 	101325.0193934287
-1.014764764764765 	300.0000164877421 	4.780584253704653e-05 	101325.0194927542
-1.012262262262262 	300.0000166124219 	4.812500078848118e-05 	101325.0196396976
-1.00975975975976 	300.0000167483614 	4.850655007594194e-05 	101325.0197994306
-1.007257257257257 	300.0000168540569 	4.879563685824338e-05 	101325.0199236034
-1.004754754754755 	300.000016891484 	4.889766044688032e-05 	101325.0199679148
-1.002252252252252 	300.0000168416004 	4.87590914246629e-05 	101325.0199099204
-0.9997497497497498 	300.0000167135906 	4.84017834953359e-05 	101325.019759426
-0.9972472472472473 	300.0000165426664 	4.792481277469493e-05 	101325.019557181
-0.9947447447447449 	300.0000163778598 	4.746229642569511e-05 	101325.0193612702
-0.9922422422422421 	300.0000162653168 	4.714357661273331e-05 	101325.019227045
-0.9897397397397399 	300.0000162324721 	4.704943018607912e-05 	101325.0191882052
-0.9872372372372376 	300.0000162796899 	4.717849945505314e-05 	101325.01924529
-0.9847347347347346 	300.0000163808522 	4.745955484769308e-05 	101325.0193664714
-0.9822322322322323 	300.0000164940109 	4.777361659502663e-05 	101325.0195007393
-0.9797297297297296 	300.0000165762036 	4.799725723411292e-05 	101325.0195969574
-0.9772272272272275 	300.0000165971063 	4.805139507421103e-05 	101325.0196200821
-0.9747247247247248 	300.0000165466291 	4.790724852038712e-05 	101325.0195593873
-0.9722222222222224 	300.000016434901 	4.759273444804641e-05 	101325.0194277352
-0.9697197197197196 	300.000016286574 	4.717798276187466e-05 	101325.0192537026
-0.9672172172172175 	300.0000161304797 	4.673846872458801e-05 	101325.0190706098
-0.9647147147147147 	300.0000159918215 	4.634447023506958e-05 	101325.0189073943
-0.9622122122122124 	300.0000158877306 	4.604591033727332e-05 	101325.0187840779
-0.9597097097097099 	300.0000158268267 	4.586621380570664e-05 	101325.0187111043
-0.9572072072072073 	300.0000158102097 	4.581361679896743e-05 	101325.0186902863
-0.9547047047047047 	300.0000158325488 	4.587173223269116e-05 	101325.0187155075
-0.9522022022022023 	300.0000158814282 	4.600389066028458e-05 	101325.0187727301
-0.9496996996996998 	300.0000159390216 	4.616309693687163e-05 	101325.0188406048
-0.9471971971971973 	300.0000159838226 	4.628531162262995e-05 	101325.0188934167
-0.9446946946946947 	300.000015994887 	4.63115539776461e-05 	101325.0189065491
-0.9421921921921923 	300.000015958169 	4.620460656722225e-05 	101325.0188630219
-0.93968968968969 	300.000015870448 	4.595294583635893e-05 	101325.0187591631
-0.9371871871871872 	300.0000157420247 	4.55892016912002e-05 	101325.018607415
-0.9346846846846848 	300.0000155955188 	4.517696382262331e-05 	101325.0184345668
-0.9321821821821823 	300.0000154602507 	4.479484108637178e-05 	101325.0182750492
-0.9296796796796799 	300.0000153635326 	4.452300632056674e-05 	101325.0181610573
-0.9271771771771771 	300.0000153222487 	4.440555582767334e-05 	101325.0181126822
-0.9246746746746748 	300.0000153378402 	4.444443240390342e-05 	101325.0181313664
-0.9221721721721724 	300.0000153950429 	4.460071400756836e-05 	101325.0181990598
-0.9196696696696698 	300.0000154663713 	4.479605377606103e-05 	101325.0182834955
-0.9171671671671672 	300.0000155206044 	4.494316697357998e-05 	101325.0183476391
-0.9146646646646649 	300.000015531142 	4.496786723744323e-05 	101325.0183598173
-0.9121621621621623 	300.0000154820671 	4.482395121542164e-05 	101325.0183016028
-0.9096596596596597 	300.0000153721335 	4.451075204549393e-05 	101325.01817171
-0.9071571571571573 	300.0000152143314 	4.406251280273649e-05 	101325.0179851179
-0.9046546546546547 	300.0000150306628 	4.353859873177214e-05 	101325.0177680006
-0.9021521521521524 	300.0000148462278 	4.301387777761378e-05 	101325.0175502344
-0.8996496496496498 	300.0000146834299 	4.254805311726039e-05 	101325.017357925
-0.8971471471471473 	300.0000145567014 	4.218187792551178e-05 	101325.0172081383
-0.894644644644645 	300.0000144708409 	4.193275913219236e-05 	101325.0171067547
-0.892142142142142 	300.0000144219799 	4.178741298166597e-05 	101325.017049157
-0.8896396396396397 	300.0000143996353 	4.171826775101824e-05 	101325.0170228969
-0.8871371371371374 	300.0000143895344 	4.168486676905588e-05 	101325.0170112313
-0.8846346346346349 	300.0000143771563 	4.164294587742693e-05 	101325.0169966116
-0.8821321321321324 	300.000014349268 	4.155914455777895e-05 	101325.0169634902
-0.8796296296296297 	300.0000142957746 	4.14025389977008e-05 	101325.0169001981
-0.8771271271271271 	300.0000142110745 	4.115612650357665e-05 	101325.0168001217
-0.8746246246246248 	300.0000140945896 	4.082086827138997e-05 	101325.016662389
-0.8721221221221224 	300.0000139503545 	4.040581986454161e-05 	101325.0164918663
-0.8696196196196196 	300.0000137867071 	3.993579478927643e-05 	101325.0162983627
-0.8671171171171175 	300.0000136148576 	3.944274880544059e-05 	101325.0160951264
-0.8646146146146148 	300.0000134469109 	3.896006071178879e-05 	101325.0158968136
-0.8621121121121121 	300.0000132949573 	3.852432405576918e-05 	101325.0157173513
-0.8596096096096097 	300.0000131687857 	3.816141732625724e-05 	101325.0155681924
-0.857107107107107 	300.0000130749609 	3.78897301954467e-05 	101325.0154572446
-0.8546046046046049 	300.0000130169943 	3.772175461171603e-05 	101325.0153884671
-0.8521021021021022 	300.000012994606 	3.76554650233857e-05 	101325.0153618312
-0.8495995995995997 	300.0000130043393 	3.768184878769477e-05 	101325.0153735036
-0.8470970970970974 	300.0000130401583 	3.778404591781844e-05 	101325.0154162433
-0.8445945945945946 	300.0000130939683 	3.793556750661917e-05 	101325.0154798886
-0.8420920920920922 	300.0000131554039 	3.810877694955954e-05 	101325.0155520575
-0.8395895895895897 	300.0000132126066 	3.826977279986063e-05 	101325.0156192659
-0.8370870870870872 	300.0000132543195 	3.83851837665484e-05 	101325.0156683321
-0.8345845845845846 	300.0000132707869 	3.843079350680399e-05 	101325.0156878574
-0.8320820820820823 	300.0000132549459 	3.838472411758357e-05 	101325.0156696107
-0.8295795795795798 	300.0000132036782 	3.823749583017804e-05 	101325.0156095238
-0.8270770770770772 	300.0000131177321 	3.799118454978226e-05 	101325.0155081218
-0.8245745745745746 	300.0000130011056 	3.765547092523492e-05 	101325.0153703189
-0.8220720720720721 	300.0000128610975 	3.725351756335154e-05 	101325.0152045993
-0.8195695695695699 	300.0000127066858 	3.68095318711024e-05 	101325.0150217742
-0.817067067067067 	300.000012547397 	3.63503587314291e-05 	101325.0148334427
-0.8145645645645651 	300.0000123924262 	3.590455973522703e-05 	101325.0146502969
-0.8120620620620621 	300.0000122490008 	3.549008912086199e-05 	101325.0144806412
-0.8095595595595597 	300.0000121210318 	3.51196328347369e-05 	101325.0143294015
-0.8070570570570572 	300.0000120094599 	3.479659652540838e-05 	101325.014197769
-0.8045545545545546 	300.0000119128493 	3.451474094332469e-05 	101325.0140835999
-0.8020520520520523 	300.0000118276461 	3.426568957909057e-05 	101325.0139823947
-0.7995495495495494 	300.0000117488264 	3.403436195746185e-05 	101325.0138885483
-0.7970470470470474 	300.0000116713518 	3.380691885944809e-05 	101325.0137966095
-0.7945445445445446 	300.000011591425 	3.357535240640262e-05 	101325.0137022219
-0.7920420420420423 	300.0000115065341 	3.333105878714704e-05 	101325.0136026024
-0.7895395395395397 	300.0000114158802 	3.30714987851645e-05 	101325.0134965677
-0.7870370370370371 	300.0000113200556 	3.279661596924299e-05 	101325.0133841779
-0.7845345345345348 	300.0000112202575 	3.250733575654498e-05 	101325.0132662393
-0.7820320320320323 	300.0000111176142 	3.220826882199166e-05 	101325.0131439055
-0.7795295295295296 	300.0000110126214 	3.190128331111132e-05 	101325.013018453
-0.7770270270270272 	300.0000109060451 	3.158917948225353e-05 	101325.0128912496
-0.7745245245245247 	300.0000107985925 	3.127741531667951e-05 	101325.0127637811
-0.7720220220220222 	300.0000106915279 	3.09686987808524e-05 	101325.012637629
-0.7695195195195199 	300.0000105863162 	3.066744678678172e-05 	101325.0125143637
-0.767017017017017 	300.0000104847245 	3.037652358094109e-05 	101325.012395299
-0.7645145145145147 	300.0000103876813 	3.009665491626256e-05 	101325.0122811121
-0.7620120120120122 	300.0000102947729 	2.982817131444194e-05 	101325.0121715522
-0.7595095095095097 	300.0000102045836 	2.956763778080258e-05 	101325.0120654487
-0.7570070070070072 	300.0000101156277 	2.931076305347968e-05 	101325.0119610491
-0.7545045045045048 	300.0000100264301 	2.905438473158637e-05 	101325.0118565828
-0.7520020020020022 	300.0000099360313 	2.879480077738313e-05 	101325.011750835
-0.7494994994994997 	300.0000098450038 	2.853229965579545e-05 	101325.0116435605
-0.7469969969969972 	300.0000097543058 	2.826844110672673e-05 	101325.0115355841
-0.7444944944944945 	300.0000096649534 	2.800669471729009e-05 	101325.0114285844
-0.7419919919919924 	300.0000095783413 	2.775275968797851e-05 	101325.0113245999
-0.7394894894894897 	300.0000094953098 	2.751013810251154e-05 	101325.0112254223
-0.7369869869869872 	300.000009416823 	2.72813594163454e-05 	101325.0111320996
-0.7344844844844846 	300.0000093426948 	2.706690151145411e-05 	101325.0110446501
-0.7319819819819822 	300.0000092722404 	2.686278356155248e-05 	101325.0109618103
-0.7294794794794797 	300.0000092030041 	2.666309318917309e-05 	101325.0108807564
-0.7269769769769773 	300.0000091315733 	2.645662549276578e-05 	101325.0107971157
-0.7244744744744747 	300.0000090535556 	2.623005265959812e-05 	101325.0107055717
-0.721971971971972 	300.0000089649128 	2.597302432873001e-05 	101325.0106010249
-0.7194694694694695 	300.0000088632992 	2.567642668182939e-05 	101325.0104800627
-0.7169669669669674 	300.0000087481874 	2.533992232560639e-05 	101325.0103424324
-0.7144644644644647 	300.0000086227689 	2.49736959285707e-05 	101325.0101919638
-0.711961961961962 	300.0000084928105 	2.459569258982948e-05 	101325.0100364081
-0.7094594594594597 	300.000008366349 	2.423108854855053e-05 	101325.0098860207
-0.7069569569569573 	300.0000082521891 	2.390360314948273e-05 	101325.0097512075
-0.7044544544544545 	300.0000081572086 	2.363116823616952e-05 	101325.0096397781
-0.7019519519519523 	300.0000080841641 	2.342174500345898e-05 	101325.0095546086
-0.6994494494494495 	300.0000080307267 	2.326697058037132e-05 	101325.0094925901
-0.6969469469469471 	300.000007990107 	2.314704889385925e-05 	101325.009445213
-0.6944444444444446 	300.0000079518355 	2.303304419921982e-05 	101325.0094004366
-0.6919419419419421 	300.0000079048995 	2.289387507551708e-05 	101325.0093452703
-0.6894394394394396 	300.0000078395441 	2.270456916312722e-05 	101325.0092686981
-0.6869369369369374 	300.0000077508429 	2.244908682058708e-05 	101325.0091643908
-0.6844344344344344 	300.0000076386792 	2.212759954664708e-05 	101325.0090322621
-0.6819319319319321 	300.0000075081604 	2.175398234410941e-05 	101325.008878351
-0.6794294294294296 	300.00000736874 	2.135351431174633e-05 	101325.0087133873
-0.6769269269269272 	300.000007231387 	2.09586220236282e-05 	101325.0085505278
-0.6744244244244245 	300.0000071068822 	2.059786119907283e-05 	101325.0084023574
-0.6719219219219222 	300.0000070020018 	2.029274923179512e-05 	101325.008277611
-0.6694194194194195 	300.0000069189268 	2.004897207049154e-05 	101325.0081787743
-0.6669169169169172 	300.0000068538087 	1.985711015333255e-05 	101325.0081017508
-0.6644144144144146 	300.0000067990184 	1.969704209130642e-05 	101325.008037584
-0.661911911911912 	300.0000067454915 	1.954031867739271e-05 	101325.0079749858
-0.6594094094094097 	300.000006684142 	1.936146518984363e-05 	101325.0079029288
-0.656906906906907 	300.0000066082965 	1.914110084354165e-05 	101325.0078134138
-0.6544044044044046 	300.0000065159889 	1.887388726145821e-05 	101325.0077040244
-0.6519019019019021 	300.0000064104575 	1.85700187416698e-05 	101325.0075787674
-0.6493993993993996 	300.0000062986177 	1.824769948741848e-05 	101325.0074461022
-0.6468968968968971 	300.0000061880855 	1.792915101814984e-05 	101325.0073152163
-0.6443943943943946 	300.0000060848641 	1.763046825066191e-05 	101325.0071930051
-0.6418918918918921 	300.0000059922643 	1.73608614404818e-05 	101325.0070830058
-0.6393893893893897 	300.0000059103962 	1.712135289021826e-05 	101325.0069854626
-0.6368868868868871 	300.0000058365911 	1.690429128709711e-05 	101325.0068975678
-0.6343843843843846 	300.0000057661046 	1.669760944444828e-05 	101325.0068140544
-0.6318818818818821 	300.0000056934241 	1.648693710715571e-05 	101325.0067288078
-0.6293793793793795 	300.0000056150819 	1.626181979337974e-05 	101325.0066371689
-0.6268768768768773 	300.0000055294668 	1.601671735559251e-05 	101325.0065370661
-0.6243743743743745 	300.0000054370183 	1.575060103191223e-05 	101325.0064283521
-0.6218718718718721 	300.0000053388092 	1.546653283801441e-05 	101325.006312048
-0.6193693693693696 	300.0000052359795 	1.51693446344589e-05 	101325.0061903578
-0.6168668668668671 	300.0000051318973 	1.486825290621983e-05 	101325.0060668393
-0.6143643643643645 	300.0000050297397 	1.457343995551745e-05 	101325.0059459758
-0.6118618618618621 	300.0000049323468 	1.429228253269983e-05 	101325.0058313135
-0.6093593593593596 	300.00000484081 	1.402741758078491e-05 	101325.0057235613
-0.6068568568568571 	300.0000047537688 	1.377433020144693e-05 	101325.0056208534
-0.6043543543543546 	300.000004669263 	1.352787412247507e-05 	101325.0055205523
-0.6018518518518521 	300.0000045857353 	1.32839962814803e-05 	101325.0054208976
-0.5993493493493496 	300.0000045023659 	1.304067308045025e-05 	101325.0053214824
-0.5968468468468471 	300.0000044187101 	1.279751114828428e-05 	101325.0052221715
-0.5943443443443446 	300.0000043343067 	1.255329465497462e-05 	101325.0051225304
-0.591841841841842 	300.000004249144 	1.230876193462098e-05 	101325.00502262
-0.5893393393393397 	300.0000041646845 	1.206675151904785e-05 	101325.0049235974
-0.5868368368368371 	300.0000040824452 	1.18293439257226e-05 	101325.0048268345
-0.5843343343343346 	300.0000040014896 	1.159297070607764e-05 	101325.0047313411
-0.5818318318318321 	300.0000039171728 	1.134537578863096e-05 	101325.0046316681
-0.5793293293293297 	300.0000038219863 	1.106753367624774e-05 	101325.0045192846
-0.5768268268268271 	300.0000037106615 	1.074528476426912e-05 	101325.0043876108
-0.5743243243243245 	300.0000035832558 	1.037934115115982e-05 	101325.0042367574
-0.5718218218218221 	300.0000034474822 	9.989780489688809e-06 	101325.0040758068
-0.5693193193193196 	300.0000033165098 	9.612827095744992e-06 	101325.0039200827
-0.5668168168168171 	300.0000032028022 	9.284370712389027e-06 	101325.003784786
-0.5643143143143147 	300.0000031143767 	9.026689375350934e-06 	101325.0036793343
-0.5618118118118121 	300.000003051898 	8.840518551610776e-06 	101325.0036044972
-0.5593093093093094 	300.000003008101 	8.707841891544988e-06 	101325.0035523592
-0.5568068068068072 	300.0000029726263 	8.601857421445819e-06 	101325.0035107749
-0.5543043043043046 	300.0000029355915 	8.493805162721353e-06 	101325.0034678649
-0.551801801801802 	300.000002888666 	8.359780207290009e-06 	101325.0034138021
-0.5492992992992995 	300.0000028266796 	8.182233017943801e-06 	101325.0033416315
-0.5467967967967969 	300.0000027457281 	7.948237971064018e-06 	101325.0032468546
-0.5442942942942947 	300.0000026437618 	7.65499849346983e-06 	101325.0031269429
-0.5417917917917919 	300.0000025223607 	7.307942816664642e-06 	101325.0029838949
-0.5392892892892895 	300.0000023881357 	6.922885753009729e-06 	101325.0028253559
-0.536786786786787 	300.0000022512197 	6.53030236192609e-06 	101325.0026634226
-0.5342842842842846 	300.0000021238869 	6.164111926563267e-06 	101325.002512834
-0.531781781781782 	300.000002017714 	5.857823255156545e-06 	101325.0023871679
-0.5292792792792794 	300.0000019392745 	5.631019676320555e-06 	101325.002293949
-0.526776776776777 	300.0000018881915 	5.47870450585979e-06 	101325.0022328412
-0.5242742742742745 	300.000001856179 	5.377535573210126e-06 	101325.0021938843
-0.521771771771772 	300.0000018281784 	5.286976340010648e-06 	101325.0021596087
-0.5192692692692695 	300.0000017881597 	5.16457420456958e-06 	101325.0021114039
-0.516766766766767 	300.0000017242303 	4.975399017097947e-06 	101325.0020348469
-0.5142642642642645 	300.0000016293144 	4.699507669956174e-06 	101325.0019221098
-0.511761761761762 	300.0000015058996 	4.34395850338366e-06 	101325.0017759055
-0.5092592592592596 	300.0000013631942 	3.933766566159092e-06 	101325.0016072205
-0.506756756756757 	300.0000012147029 	3.510745310030077e-06 	101325.0014323209
-0.5042542542542544 	300.0000010758356 	3.117009851994021e-06 	101325.0012689263
-0.5017517517517521 	300.0000009586037 	2.781190720944705e-06 	101325.0011313842
-0.4992492492492494 	300.0000008684249 	2.523298754340859e-06 	101325.0010259546
-0.496746746746747 	300.0000008051647 	2.339859050299373e-06 	101325.0009523382
-0.4942442442442445 	300.0000007617 	2.21189984446408e-06 	101325.000901922
-0.4917417417417421 	300.0000007265139 	2.109371597644852e-06 	101325.0008610356
-0.4892392392392395 	300.0000006875416 	1.992678389442652e-06 	101325.0008153895
-0.486736736736737 	300.0000006345563 	1.835464954766665e-06 	101325.0007530511
-0.4842342342342345 	300.0000005602526 	1.61956170366384e-06 	101325.0006653882
-0.481731731731732 	300.0000004645734 	1.34222680698288e-06 	101325.0005519328
-0.4792292292292296 	300.0000003506564 	1.015347837875826e-06 	101325.0004170712
-0.4767267267267268 	300.0000002259084 	6.55810449716228e-07 	101325.0002694712
-0.4742242242242246 	300.0000000996496 	2.918930975763223e-07 	101325.0001197515
-0.471721721721722 	299.99999997982 	1.353389705049607e-07 	101324.9999778535
-0.4692192192192195 	299.9999998760391 	3.500115543784775e-07 	101324.9998547921
-0.4667167167167169 	299.9999997932206 	5.890714104495835e-07 	101324.9997567333
-0.4642142142142145 	299.9999997306093 	7.739521571316609e-07 	101324.9996822089
-0.461711711711712 	299.9999996813467 	9.194106679834194e-07 	101324.9996237445
-0.4592092092092094 	299.9999996374029 	1.04960067142489e-06 	101324.9995716523
-0.456706706706707 	299.9999995919181 	1.18408230939624e-06 	101324.999517709
-0.4542042042042045 	299.9999995397746 	1.335626610496493e-06 	101324.999456296
-0.451701701701702 	299.9999994781613 	1.516087395969187e-06 	101324.9993834098
-0.4491991991991995 	299.9999994037192 	1.732847495824306e-06 	101324.9992953724
-0.4466966966966969 	299.9999993135759 	1.994909997110979e-06 	101324.9991887415
-0.4441941941941945 	299.999999206575 	2.304303656180986e-06 	101324.9990619962
-0.441691691691692 	299.9999990849789 	2.653415477573507e-06 	101324.9989182489
-0.4391891891891895 	299.9999989571215 	3.020071984633776e-06 	101324.9987669505
-0.436686686686687 	299.9999988351175 	3.367871885757812e-06 	101324.9986228146
-0.4341841841841846 	299.9999987330397 	3.659517425254888e-06 	101324.9985021685
-0.431681681681682 	299.9999986614679 	3.864014936787746e-06 	101324.9984178122
-0.4291791791791794 	299.9999986239209 	3.974761371316052e-06 	101324.9983735695
-0.426676676676677 	299.9999986132469 	4.011951143098689e-06 	101324.9983610579
-0.4241741741741744 	299.9999986137846 	4.017697762568148e-06 	101324.9983615135
-0.421671671671672 	299.9999986064238 	4.045389580115775e-06 	101324.9983525979
-0.4191691691691694 	299.9999985755904 	4.138252044021513e-06 	101324.9983158867
-0.4166666666666669 	299.9999985132424 	4.319155865553172e-06 	101324.9982419856
-0.4141641641641645 	299.9999984205499 	4.584113974357445e-06 	101324.9981325856
-0.411661661661662 	299.9999983076736 	4.906657535209529e-06 	101324.997998915
-0.4091591591591594 	299.9999981876914 	5.249234219536323e-06 	101324.9978570949
-0.406656656656657 	299.9999980739908 	5.574363873557251e-06 	101324.997722853
-0.4041541541541545 	299.9999979771103 	5.853225347061303e-06 	101324.9976081778
-0.401651651651652 	299.9999979025009 	6.067409813972294e-06 	101324.9975203756
-0.3991491491491494 	299.999997853383 	6.209929826724146e-06 	101324.9974623427
-0.396646646646647 	299.9999978278401 	6.285042823966664e-06 	101324.9974325304
-0.3941441441441444 	299.9999978206275 	6.309016291866095e-06 	101324.9974242575
-0.3916416416416419 	299.9999978213456 	6.310826638412469e-06 	101324.9974255674
-0.3891391391391395 	299.9999978171351 	6.327346705522834e-06 	101324.9974207991
-0.3866366366366368 	299.9999977942568 	6.396984865554955e-06 	101324.9973939083
-0.3841341341341344 	299.9999977428645 	6.547421282252042e-06 	101324.9973330693
-0.381631631631632 	299.9999976601174 	6.784783821783018e-06 	101324.9972351924
-0.3791291291291294 	299.9999975531825 	7.090127012283266e-06 	101324.9971083269
-0.3766266266266269 	299.9999974369312 	7.420596845388083e-06 	101324.9969704421
-0.3741241241241244 	299.9999973305559 	7.723571772694043e-06 	101324.9968441853
-0.371621621621622 	299.9999972510224 	7.951453305049392e-06 	101324.9967497706
-0.3691191191191194 	299.9999972082454 	8.076332663466024e-06 	101324.99669881
-0.366616616616617 	299.9999972015513 	8.100336323323074e-06 	101324.9966906362
-0.3641141141141143 	299.9999972200571 	8.052776160638065e-06 	101324.9967125113
-0.3616116116116119 	299.9999972469308 	7.981356737081729e-06 	101324.9967442744
-0.3591091091091095 	299.9999972644242 	7.935818085704835e-06 	101324.9967650029
-0.356606606606607 	299.9999972586517 	7.954496691923194e-06 	101324.9967584679
-0.3541041041041044 	299.9999972229569 	8.057002724440422e-06 	101324.9967165563
-0.3516016016016019 	299.9999971583523 	8.240353500610193e-06 	101324.9966404786
-0.3490990990990994 	299.999997072888 	8.482362502551075e-06 	101324.9965397897
-0.346596596596597 	299.9999969796386 	8.746896856179815e-06 	101324.9964297122
-0.3440940940940944 	299.9999968928223 	8.99324487003489e-06 	101324.9963272559
-0.3415915915915919 	299.9999968252033 	9.185457300950557e-06 	101324.9962474988
-0.3390890890890895 	299.9999967855813 	9.29858094359161e-06 	101324.9962007586
-0.3365865865865869 	299.9999967771675 	9.324547323056181e-06 	101324.9961906398
-0.3340840840840844 	299.9999967962843 	9.272655690563629e-06 	101324.9962131813
-0.3315815815815819 	299.9999968338298 	9.169137713601824e-06 	101324.9962574032
-0.3290790790790794 	299.9999968761558 	9.052248994181307e-06 	101324.9963073935
-0.3265765765765769 	299.9999969083386 	8.963194328090812e-06 	101324.9963456346
-0.3240740740740744 	299.9999969181336 	8.938287155917822e-06 	101324.9963570019
-0.3215715715715718 	299.9999968975301 	8.998008128300266e-06 	101324.9963325972
-0.3190690690690695 	299.9999968465194 	9.142397405867278e-06 	101324.996272478
-0.3165665665665668 	299.9999967737889 	9.348389095065635e-06 	101324.9961863372
-0.3140640640640644 	299.9999966935748 	9.574451146531625e-06 	101324.9960914324
-0.311561561561562 	299.9999966228595 	9.773384266142075e-06 	101324.9960079835
-0.3090590590590593 	299.9999965773495 	9.901360922558999e-06 	101324.9959539454
-0.3065565565565568 	299.9999965661503 	9.933419536556132e-06 	101324.9959405644
-0.3040540540540545 	299.9999965906428 	9.866027988207824e-06 	101324.9959694172
-0.3015515515515518 	299.9999966437645 	9.717456272024043e-06 	101324.9960320515
-0.2990490490490494 	299.9999967113503 	9.527681450268412e-06 	101324.996112147
-0.2965465465465469 	299.9999967770192 	9.343405790424786e-06 	101324.9961896915
-0.2940440440440444 	299.9999968245651 	9.210032750257499e-06 	101324.9962458934
-0.2915415415415418 	299.9999968428714 	9.158548268945721e-06 	101324.9962675913
-0.2890390390390395 	299.9999968284448 	9.198039199342557e-06 	101324.996250609
-0.2865365365365368 	299.9999967863516 	9.315072056963432e-06 	101324.9962009838
-0.2840340340340343 	299.9999967289219 	9.475592251670872e-06 	101324.9961331239
-0.2815315315315318 	299.9999966713727 	9.636551170200886e-06 	101324.9960653118
-0.2790290290290295 	299.9999966284885 	9.75687468487563e-06 	101324.9960146178
-0.2765265265265269 	299.9999966105658 	9.807067409163298e-06 	101324.9959933158
-0.2740240240240244 	299.9999966225295 	9.772990476723375e-06 	101324.9960073745
-0.2715215215215219 	299.9999966640299 	9.654904694149074e-06 	101324.9960564232
-0.2690190190190194 	299.999996730292 	9.465572063297073e-06 	101324.9961348913
-0.2665165165165169 	299.999996813925 	9.22667534498114e-06 	101324.9962335815
-0.2640140140140144 	299.9999969047778 	8.966947713500608e-06 	101324.996341035
-0.2615115115115119 	299.9999969926196 	8.716661365475757e-06 	101324.9964447748
-0.2590090090090094 	299.9999970671676 	8.503247631400714e-06 	101324.9965330825
-0.2565065065065068 	299.999997121314 	8.348504682915144e-06 	101324.9965969055
-0.2540040040040044 	299.9999971505464 	8.263512615575634e-06 	101324.9966314383
-0.2515015015015019 	299.9999971558114 	8.246481499326383e-06 	101324.9966375444
-0.2489989989989994 	299.9999971424957 	8.282227601651023e-06 	101324.9966217941
-0.2464964964964968 	299.9999971195234 	8.344757364849407e-06 	101324.9965947794
-0.2439939939939944 	299.9999970977588 	8.404118242166446e-06 	101324.9965690318
-0.2414914914914919 	299.9999970865771 	8.43416413577654e-06 	101324.9965558929
-0.2389889889889893 	299.9999970919264 	8.418278825125875e-06 	101324.9965621522
-0.2364864864864869 	299.9999971149281 	8.353027052541816e-06 	101324.9965892348
-0.2339839839839843 	299.9999971524767 	8.245689851224642e-06 	101324.9966338396
-0.2314814814814819 	299.9999972002636 	8.109072422045538e-06 	101324.9966901786
-0.2289789789789792 	299.9999972532664 	7.955951595512216e-06 	101324.9967530174
-0.2264764764764769 	299.9999973091848 	7.79487255288392e-06 	101324.9968190414
-0.2239739739739743 	299.9999973662932 	7.630273853352782e-06 	101324.9968865206
-0.2214714714714718 	299.9999974244195 	7.461546995113966e-06 	101324.9969553018
-0.2189689689689693 	299.9999974843402 	7.287181366661881e-06 	101324.997026082
-0.2164664664664669 	299.9999975468886 	7.105734425557324e-06 	101324.9970999657
-0.2139639639639643 	299.9999976127992 	6.914282830023226e-06 	101324.9971780297
-0.2114614614614618 	299.9999976826089 	6.713761960608603e-06 	101324.9972604347
-0.2089589589589593 	299.9999977545976 	6.506233800198683e-06 	101324.9973454605
-0.2064564564564568 	299.9999978263233 	6.298560055767692e-06 	101324.9974302538
-0.2039539539539543 	299.9999978952582 	6.098842839094624e-06 	101324.9975119526
-0.2014514514514518 	299.9999979608353 	5.908902575477936e-06 	101324.9975893785
-0.1989489489489494 	299.9999980232636 	5.727907285591812e-06 	101324.9976631742
-0.1964464464464468 	299.9999980842319 	5.550977395136215e-06 	101324.9977351918
-0.1939439439439443 	299.9999981450146 	5.373726970737876e-06 	101324.9978070932
-0.1914414414414418 	299.9999982070584 	5.193065769321843e-06 	101324.9978806389
-0.1889389389389393 	299.9999982721566 	5.004546501078779e-06 	101324.9979573669
-0.1864364364364368 	299.999998341163 	4.804900978541831e-06 	101324.9980388225
-0.1839339339339343 	299.9999984146007 	4.591900864470453e-06 	101324.9981257809
-0.1814314314314318 	299.9999984924078 	4.367311211837956e-06 	101324.9982176675
-0.1789289289289293 	299.9999985721664 	4.136662683523307e-06 	101324.9983121498
-0.1764264264264268 	299.9999986521267 	3.906150016469044e-06 	101324.9984064622
-0.1739239239239243 	299.9999987299412 	3.680382108142965e-06 	101324.9984986601
-0.1714214214214218 	299.9999988061717 	3.459607142473283e-06 	101324.9985886054
-0.1689189189189193 	299.9999988810062 	3.241951212235794e-06 	101324.9986772279
-0.1664164164164168 	299.9999989558793 	3.024949588217734e-06 	101324.9987656865
-0.1639139139139143 	299.9999990314328 	2.80533768910305e-06 	101324.9988550846
-0.1614114114114118 	299.9999991092355 	2.579685205818903e-06 	101324.9989469896
-0.1589089089089093 	299.9999991904548 	2.343805348682949e-06 	101324.9990430819
-0.1564064064064068 	299.9999992762819 	2.095291647795055e-06 	101324.9991445231
-0.1539039039039043 	299.9999993663525 	1.835184079970529e-06 	101324.999250942
-0.1514014014014018 	299.9999994588626 	1.568563556887417e-06 	101324.9993601399
-0.1488988988988993 	299.9999995509924 	1.302210857322724e-06 	101324.9994690649
-0.1463963963963968 	299.9999996413159 	1.040729349276711e-06 	101324.9995757516
-0.1438938938938943 	299.9999997296584 	7.840283609393115e-07 	101324.9996802831
-0.1413913913913918 	299.9999998176182 	5.285604262495249e-07 	101324.9997843158
-0.1388888888888893 	299.9999999067433 	2.703151975225231e-07 	101324.9998895915
-0.1363863863863868 	299.9999999973264 	2.067990955227337e-08 	101324.99999693
-0.1338838838838843 	300.000000089998 	2.612790645208547e-07 	101325.0001065289
-0.1313813813813818 	300.0000001846788 	5.348789939110845e-07 	101325.0002182679
-0.1288788788788793 	300.0000002803238 	8.117767492710546e-07 	101325.0003314731
-0.1263763763763768 	300.0000003759675 	1.088180393581144e-06 	101325.0004445214
-0.1238738738738743 	300.0000004697491 	1.360149108225389e-06 	101325.0005555305
-0.1213713713713717 	300.0000005618904 	1.627768544454643e-06 	101325.000664356
-0.1188688688688693 	300.0000006546456 	1.897755613642778e-06 	101325.000773925
-0.1163663663663668 	300.0000007515408 	2.179813319560997e-06 	101325.0008887165
-0.1138638638638643 	300.0000008551142 	2.478400518094078e-06 	101325.0010109296
-0.1113613613613618 	300.0000009623134 	2.78672198042863e-06 	101325.0011376301
-0.1088588588588592 	300.0000010676524 	3.090164881023215e-06 	101325.0012621658
-0.1063563563563568 	300.0000011665882 	3.376956578458529e-06 	101325.0013791847
-0.1038538538538543 	300.0000012594563 	3.647637470370756e-06 	101325.0014889374
-0.1013513513513517 	300.0000013507943 	3.913689516434132e-06 	101325.0015967975
-0.09884884884884926 	300.0000014448915 	4.187161096212392e-06 	101325.0017082696
-0.09634634634634676 	300.0000015430883 	4.470912787834266e-06 	101325.0018244769
-0.09384384384384425 	300.0000016430084 	4.759359534016604e-06 	101325.0019425207
-0.09134134134134177 	300.000001742602 	5.047804583340668e-06 	101325.0020600049
-0.08883883883883925 	300.0000018429105 	5.339859884589615e-06 	101325.0021786104
-0.08633633633633674 	300.0000019476132 	5.644047112359522e-06 	101325.0023025432
-0.08383383383383426 	300.0000020582253 	5.962514621643546e-06 	101325.0024331592
-0.08133133133133173 	300.0000021699892 	6.283731622472166e-06 	101325.002565406
-0.07882882882882926 	300.0000022756013 	6.588463770527566e-06 	101325.0026904775
-0.07632632632632676 	300.0000023709184 	6.865316177080813e-06 	101325.0028030092
-0.07382382382382424 	300.0000024582561 	7.121963605475174e-06 	101325.0029063956
-0.07132132132132173 	300.0000025467874 	7.380511215812478e-06 	101325.0030107479
-0.06881881881881925 	300.0000026431034 	7.659865111798796e-06 	101325.003124712
-0.06631631631631671 	300.0000027476929 	7.96066284833653e-06 	101325.0032484817
-0.06381381381381425 	300.0000028543068 	8.266562718953064e-06 	101325.0033743643
-0.06131131131131173 	300.0000029558682 	8.560664333507423e-06 	101325.0034944563
-0.05880880880880923 	300.0000030519872 	8.841750900590033e-06 	101325.0036082159
-0.05630630630630672 	300.000003148996 	9.124918269866988e-06 	101325.0037227848
-0.05380380380380424 	300.0000032530222 	9.425785687847931e-06 	101325.0038456192
-0.05130130130130173 	300.0000033636099 	9.743060032692616e-06 	101325.0039763326
-0.04879879879879922 	300.0000034728183 	1.005638618395517e-05 	101325.0041056238
-0.04629629629629672 	300.0000035719012 	1.034271786402602e-05 	101325.0042228001
-0.04379379379379422 	300.0000036588215 	1.059729949062038e-05 	101325.0043254967
-0.04129129129129173 	300.0000037411688 	1.084015818283829e-05 	101325.0044228134
-0.03878878878878922 	300.0000038304472 	1.110084504117471e-05 	101325.0045283305
-0.03628628628628671 	300.0000039321663 	1.139343922098461e-05 	101325.004648608
-0.03378378378378422 	300.000004040677 	1.170338167353998e-05 	101325.0047770478
-0.03128128128128172 	300.0000041438363 	1.199847774720057e-05 	101325.0048988672
-0.02877877877877922 	300.0000042324309 	1.22561383381136e-05 	101325.0050035532
-0.0262762762762767 	300.0000043093502 	1.248458588813619e-05 	101325.0050946472
-0.02377377377377422 	300.000004388814 	1.271935537974306e-05 	101325.0051882883
-0.0212712712712717 	300.0000044837712 	1.299595834066311e-05 	101325.0053007933
-0.01876876876876921 	300.0000045972582 	1.331949096327196e-05 	101325.0054348123
-0.01626626626626671 	300.0000047159985 	1.365567717039863e-05 	101325.0055750904
-0.0137637637637642 	300.0000048199069 	1.395229134240418e-05 	101325.0056981154
-0.0112612612612617 	300.0000048967811 	1.417660641053407e-05 	101325.0057889442
-0.008758758758759198 	300.0000049510272 	1.434165395313667e-05 	101325.0058531737
-0.006256256256256697 	300.0000050028717 	1.450085405549926e-05 	101325.0059146836
-0.003753753753754195 	300.0000050751046 	1.471310377454762e-05 	101325.0059998544
-0.001251251251251693 	300.0000051763711 	1.500261186547006e-05 	101325.0061196076
0.00125125125125081 	300.0000052966202 	1.534175232571723e-05 	101325.0062615921
0.003753753753753312 	300.0000054123886 	1.566926670118297e-05 	101325.0063983723
0.006256256256255817 	300.0000055032916 	1.593162579584942e-05 	101325.0065060526
0.008758758758758317 	300.0000055660213 	1.611846455918831e-05 	101325.0065800385
0.01126126126126082 	300.0000056147247 	1.626814571615215e-05 	101325.0066376338
0.01376376376376332 	300.0000056719653 	1.643995317235094e-05 	101325.0067054743
0.01626626626626582 	300.0000057527775 	1.667257455642817e-05 	101325.0068008928
0.01876876876876833 	300.0000058535161 	1.695760930384226e-05 	101325.0069201075
0.02127127127127083 	300.0000059557669 	1.724572311743621e-05 	101325.0070409777
0.02377377377377332 	300.0000060382279 	1.748077731044769e-05 	101325.0071383432
0.02627627627627583 	300.0000060912898 	1.763871968621505e-05 	101325.0072013179
0.02877877877877833 	300.0000061254211 	1.774557014050527e-05 	101325.007241385
0.03128128128128083 	300.0000061628131 	1.786234608066698e-05 	101325.0072856952
0.03378378378378333 	300.0000062254996 	1.804652364690399e-05 	101325.0073598484
0.03628628628628584 	300.0000063200395 	1.831475530180427e-05 	101325.0074714042
0.03878878878878834 	300.0000064323918 	1.863016127569332e-05 	101325.0076041462
0.04129129129129084 	300.0000065363159 	1.892247625576361e-05 	101325.0077270555
0.04379379379379333 	300.0000066083801 	1.91289217722434e-05 	101325.0078123885
0.04629629629629585 	300.0000066417551 	1.923153728893551e-05 	101325.0078520701
0.04879879879879834 	300.0000066512269 	1.926934484674316e-05 	101325.0078632035
0.05130130130130085 	300.0000066646514 	1.931770342674834e-05 	101325.0078789439
0.05380380380380335 	300.0000067079284 	1.944660487804642e-05 	101325.0079300468
0.05630630630630584 	300.0000067906527 	1.968175553079567e-05 	101325.00802789
0.05880880880880836 	300.0000069004559 	1.998954880710845e-05 	101325.0081577934
0.06131131131131085 	300.0000070094932 	2.029414869720052e-05 	101325.0082865391
0.06381381381381336 	300.0000070884382 	2.051716902535484e-05 	101325.0083798647
0.06631631631631586 	300.0000071223726 	2.06185216526005e-05 	101325.00842017
0.06881881881881835 	300.0000071188802 	2.061775627101535e-05 	101325.0084159144
0.07132132132132088 	300.0000071035674 	2.058493287459932e-05 	101325.0083977075
0.07382382382382337 	300.0000071077064 	2.060547883948168e-05 	101325.0084027985
0.07632632632632587 	300.000007153375 	2.073753034940238e-05 	101325.0084565503
0.07882882882882837 	300.0000072406838 	2.098263600566589e-05 	101325.0085597647
0.08133133133133086 	300.0000073489286 	2.128347204030647e-05 	101325.0086875777
0.08383383383383337 	300.0000074447714 	2.15497647928469e-05 	101325.0088008475
0.08633633633633589 	300.0000074980383 	2.169961496391796e-05 	101325.008864077
0.08883883883883838 	300.0000074961306 	2.169741066039222e-05 	101325.0088616477
0.09134134134134086 	300.0000074488948 	2.157235706973201e-05 	101325.0088059582
0.09384384384384339 	300.0000073873051 	2.140898735785573e-05 	101325.0087334275
0.09634634634634588 	300.0000073504341 	2.1313361539393e-05 	101325.0086896814
0.09884884884884838 	300.0000073686674 	2.137023295061716e-05 	101325.0087111964
0.1013513513513509 	300.0000074528377 	2.160820907614677e-05 	101325.0088105066
0.1038538538538534 	300.0000075875946 	2.198560108856079e-05 	101325.0089699352
0.1063563563563559 	300.0000077375498 	2.240312249767278e-05 	101325.0091470014
0.1088588588588584 	300.0000078581787 	2.273860113237341e-05 	101325.0092895892
0.1113613613613609 	300.0000079122587 	2.288921221822244e-05 	101325.0093538418
0.1138638638638634 	300.0000078828734 	2.280702483654401e-05 	101325.0093191047
0.1163663663663659 	300.0000077786151 	2.251743453433389e-05 	101325.0091959481
0.1188688688688684 	300.0000076330949 	2.211356566118445e-05 	101325.0090239745
0.1213713713713709 	300.0000074938932 	2.172755462294549e-05 	101325.0088593708
0.1238738738738734 	300.0000074074777 	2.148998536103507e-05 	101325.0087573882
0.1263763763763759 	300.0000074069737 	2.149180963704207e-05 	101325.0087565756
0.1288788788788784 	300.0000075010298 	2.175790626689189e-05 	101325.0088676844
0.1313813813813809 	300.0000076720308 	2.223837964899058e-05 	101325.0090697365
0.1338838838838834 	300.0000078798178 	2.282128218632461e-05 	101325.0093153135
0.1363863863863859 	300.0000080733057 	2.336322275889191e-05 	101325.0095438973
0.1388888888888884 	300.000008203333 	2.37262391812e-05 	101325.0096975671
0.1413913913913909 	300.0000082342409 	2.381030812619596e-05 	101325.0097342608
0.1438938938938934 	300.0000081521724 	2.357633327326278e-05 	101325.0096373847
0.1463963963963959 	300.0000079681944 	2.305600843740067e-05 	101325.0094200913
0.1488988988988985 	300.0000077165057 	2.234538400773206e-05 	101325.0091227512
0.1514014014014009 	300.0000074466416 	2.158300993568039e-05 	101325.0088036553
0.1539039039039035 	300.0000072114717 	2.091920942850392e-05 	101325.0085256702
0.1564064064064059 	300.0000070578101 	2.048693659577045e-05 	101325.0083440872
0.1589089089089084 	300.0000070188133 	2.037958221259359e-05 	101325.0082978234
0.1614114114114109 	300.0000071081161 	2.063626854406657e-05 	101325.0084033164
0.1639139139139134 	300.0000073181699 	2.123527929989023e-05 	101325.0086516585
0.166416416416416 	300.0000076215479 	2.209785123839685e-05 	101325.0090099735
0.1689189189189185 	300.0000079748409 	2.310259769243719e-05 	101325.0094274705
0.1714214214214209 	300.0000083279414 	2.41074152394445e-05 	101325.0098448998
0.1739239239239235 	300.0000086317319 	2.497160552700668e-05 	101325.0102040646
0.1764264264264259 	300.0000088435091 	2.557273515132783e-05 	101325.0104544869
0.1789289289289284 	300.0000089309947 	2.581779083345206e-05 	101325.0105578545
0.181431431431431 	300.0000088740948 	2.564983450199238e-05 	101325.0104907641
0.1839339339339334 	300.0000086667252 	2.505039316350872e-05 	101325.0102456984
0.186436436436436 	300.0000083151723 	2.403762668531929e-05 	101325.0098302842
0.1889389389389385 	300.0000078370834 	2.26609726025532e-05 	101325.0092650673
0.191441441441441 	300.0000072576603 	2.099307662679723e-05 	101325.0085801723
0.1939439439439434 	300.0000066071071 	1.912019122294622e-05 	101325.0078113262
0.196446446446446 	300.0000059172579 	1.713236801742733e-05 	101325.0069957695
0.1989489489489485 	300.0000052175807 	1.511454772391858e-05 	101325.0061685712
0.2014514514514509 	300.0000045334386 	1.313977757771269e-05 	101325.0053597657
0.2039539539539535 	300.0000038846134 	1.12652856551894e-05 	101325.0045927243
0.2064564564564559 	300.0000032850074 	9.53173669477514e-06 	101325.0038839439
0.2089589589589585 	300.0000027434901 	7.964506291029864e-06 	101325.0032436597
0.211461461461461 	300.0000022638657 	6.575908591157819e-06 	101325.0026767673
0.2139639639639635 	300.000001847076 	5.367737031224468e-06 	101325.0021838718
0.2164664664664659 	300.000001490588 	4.333825656131725e-06 	101325.0017623477
0.2189689689689684 	300.0000011903014 	3.462463802813812e-06 	101325.0014073161
0.221471471471471 	300.0000009409247 	2.738435068704685e-06 	101325.0011124962
0.2239739739739735 	300.0000007365001 	2.144777483844959e-06 	101325.0008709017
0.226476476476476 	300.0000005711929 	1.664049920010241e-06 	101325.0006753792
0.2289789789789785 	300.0000004389416 	1.279350854071998e-06 	101325.0005189987
0.231481481481481 	300.0000003342864 	9.749304047868961e-07 	101325.0003953191
0.2339839839839835 	300.000000252494 	7.366020571476148e-07 	101325.000298542
0.236486486486486 	300.0000001891616 	5.519168489340361e-07 	101325.0002235863
0.2389889889889885 	300.0000001404808 	4.101969767528789e-07 	101325.0001660985
0.241491491491491 	300.0000001033712 	3.02473506106867e-07 	101325.0001224211
0.2439939939939935 	300.0000000757004 	2.213259160396893e-07 	101325.0000895377
0.246496496496496 	300.0000000549754 	1.60742182068522e-07 	101325.0000649968
0.2489989989989985 	300.0000000397057 	1.158853023565325e-07 	101325.0000468371
0.251501501501501 	300.0000000284232 	8.295238976989349e-08 	101325.0000335094
0.2540040040040035 	300.0000000201325 	5.896304410828325e-08 	101325.0000238062
0.256506506506506 	300.0000000142641 	4.162375562650891e-08 	101325.0000167961
0.2590090090090086 	300.0000000097849 	2.91888781124451e-08 	101325.0000117701
0.261511511511511 	300.0000000069502 	2.032949765365227e-08 	101325.0000081932
0.2640140140140135 	300.0000000047881 	1.407170344889528e-08 	101325.0000056655
0.2665165165165161 	300.0000000031629 	9.674209729996191e-09 	101325.0000038916
0.2690190190190185 	300.000000002299 	6.610264810473079e-09 	101325.0000026552
0.271521521521521 	300.0000000015887 	4.486649780967137e-09 	101325.0000017993
0.2740240240240235 	300.0000000010872 	3.025265091282706e-09 	101325.0000012103
0.276526526526526 	300.0000000007113 	2.025821587504069e-09 	101325.0000008079
0.2790290290290286 	300.0000000003463 	1.345496698583646e-09 	101325.0000005346
0.281531531531531 	300.000000000154 	8.880258111164732e-10 	101325.0000003501
0.2840340340340335 	300.0000000001506 	5.782509405614002e-10 	101325.0000002265
0.2865365365365361 	300.0000000000559 	3.738636292667236e-10 	101325.0000001441
0.2890390390390385 	300.0000000000899 	2.373732284306305e-10 	101325.0000000896
0.291541541541541 	300.00000000006 	1.468683536050536e-10 	101325.0000000536
0.2940440440440436 	300.0000000000286 	8.994618711934705e-11 	101325.0000000302
0.296546546546546 	300.0000000000149 	4.826064645443579e-11 	101325.0000000151
0.2990490490490486 	299.9999999998935 	2.873305569075446e-11 	101325.0000000057
0.3015515515515511 	300.000000000082 	6.770897873611354e-12 	101324.9999999995
0.3040540540540535 	300.0000000000381 	8.214079406434742e-12 	101324.9999999955
0.3065565565565562 	299.9999999999897 	1.029604478251688e-11 	101324.9999999927
0.3090590590590585 	299.9999999999729 	4.751816469448273e-12 	101324.9999999906
0.3115615615615611 	299.9999999998641 	1.537366440214918e-11 	101324.9999999893
0.3140640640640635 	300.0000000000214 	9.818404843460943e-12 	101324.9999999884
0.316566566566566 	300.0000000000016 	1.574769259603111e-11 	101324.999999988
0.3190690690690687 	299.9999999998844 	1.150486761658679e-11 	101324.999999988
0.3215715715715711 	300.000000000038 	1.675360274479373e-11 	101324.9999999877
0.3240740740740735 	300.0000000000048 	1.277182484928938e-11 	101324.9999999878
0.326576576576576 	299.9999999998129 	1.648148327751928e-11 	101324.9999999879
0.3290790790790786 	300.0000000000346 	1.428618291444919e-11 	101324.9999999879
0.3315815815815811 	300.0000000000703 	1.64881851566735e-11 	101324.9999999878
0.3340840840840836 	299.9999999999835 	1.469459268546863e-11 	101324.9999999878
0.3365865865865861 	300.0000000001179 	1.656220815171415e-11 	101324.9999999878
0.3390890890890886 	300.0000000001089 	1.395654362700237e-11 	101324.9999999877
0.3415915915915911 	300.0000000000086 	1.64186112303756e-11 	101324.9999999876
0.3440940940940935 	299.9999999999035 	1.357614501022242e-11 	101324.9999999873
0.3465965965965962 	300.0000000000574 	1.686668610907034e-11 	101324.9999999874
0.3490990990990985 	300.0000000000465 	1.408740600331276e-11 	101324.9999999876
0.3516016016016011 	299.9999999999878 	1.524846854680087e-11 	101324.9999999876
0.3541041041041035 	300.0000000000012 	1.55011448040141e-11 	101324.9999999873
0.3566066066066061 	299.9999999998972 	1.467086068308556e-11 	101324.9999999872
0.3591091091091085 	299.9999999998354 	1.777110892299607e-11 	101324.9999999873
0.3616116116116112 	299.9999999998847 	1.462380219339179e-11 	101324.9999999871
0.3641141141141137 	299.9999999998698 	2.022240095188187e-11 	101324.9999999869
0.3666166166166161 	299.9999999998528 	1.453158192908719e-11 	101324.9999999872
0.3691191191191185 	300.0000000000807 	2.365015486234135e-11 	101324.9999999873
0.371621621621621 	300.000000000013 	1.589042167583306e-11 	101324.9999999875
0.3741241241241237 	300.000000000095 	2.223440755651107e-11 	101324.9999999878
0.3766266266266261 	300.0000000000668 	1.627722682779876e-11 	101324.9999999881
0.3791291291291286 	299.9999999999804 	2.015020154902129e-11 	101324.9999999882
0.3816316316316311 	299.9999999998435 	1.582742235908847e-11 	101324.9999999883
0.3841341341341336 	300.0000000000184 	1.914091371814703e-11 	101324.9999999883
0.3866366366366362 	299.9999999999872 	1.572025952526382e-11 	101324.9999999883
0.3891391391391387 	299.9999999999262 	1.82469008628173e-11 	101324.9999999882
0.391641641641641 	300.0000000000114 	1.566984161381759e-11 	101324.999999988
0.3941441441441436 	300.0000000000333 	1.722582859054549e-11 	101324.999999988
0.3966466466466462 	300.0000000000151 	1.519761267147434e-11 	101324.9999999881
0.3991491491491486 	299.9999999999064 	1.726143738819839e-11 	101324.999999988
0.4016516516516512 	299.9999999998308 	1.58784134363483e-11 	101324.9999999879
0.4041541541541536 	299.9999999999042 	1.803861802950782e-11 	101324.999999988
0.4066566566566561 	299.9999999999105 	1.54318216112948e-11 	101324.9999999879
0.4091591591591587 	300.0000000000149 	1.827302322562202e-11 	101324.9999999878
0.4116616616616612 	300.0000000000285 	1.619060933722482e-11 	101324.9999999878
0.4141641641641635 	300.0000000000875 	1.717680296084525e-11 	101324.9999999879
0.4166666666666662 	300.0000000000058 	1.707254086661232e-11 	101324.999999988
0.4191691691691687 	299.9999999998878 	1.550855263228668e-11 	101324.9999999882
0.421671671671671 	300.0000000000264 	1.874676372110186e-11 	101324.9999999882
0.4241741741741737 	299.9999999999543 	1.531444177486313e-11 	101324.9999999882
0.4266766766766761 	299.999999999903 	2.18080728498335e-11 	101324.9999999881
0.4291791791791785 	300.0000000000505 	1.520887550794911e-11 	101324.9999999885
0.4316816816816812 	300.0000000000317 	2.366276728915874e-11 	101324.9999999889
0.4341841841841836 	299.9999999999848 	1.589838953081113e-11 	101324.9999999887
0.4366866866866862 	299.9999999998403 	2.266376275539874e-11 	101324.9999999889
0.4391891891891885 	299.9999999999788 	1.736215914878273e-11 	101324.9999999891
0.4416916916916913 	299.999999999975 	2.085588588833105e-11 	101324.9999999892
0.4441941941941936 	299.9999999999753 	1.639084454647629e-11 	101324.9999999891
0.4466966966966961 	299.999999999832 	1.911355049984082e-11 	101324.9999999892
0.4491991991991987 	299.9999999999619 	1.699238266878873e-11 	101324.9999999889
0.4517017017017012 	299.9999999999489 	1.80863690655904e-11 	101324.9999999886
0.4542042042042035 	300.0000000000063 	1.663247043116069e-11 	101324.9999999885
0.4567067067067062 	300.0000000000113 	1.681585448661798e-11 	101324.9999999886
0.4592092092092087 	299.999999999856 	1.726515630940623e-11 	101324.999999989
0.4617117117117112 	300.0000000000458 	1.807498090825615e-11 	101324.9999999893
0.4642142142142137 	299.9999999999213 	1.830979648824061e-11 	101324.9999999894
0.4667167167167162 	300.000000000001 	1.922144125113958e-11 	101324.9999999897
0.4692192192192187 	299.9999999999076 	1.924106067145885e-11 	101324.9999999895
0.4717217217217212 	300.0000000000322 	2.055388106748662e-11 	101324.9999999895
0.4742242242242236 	299.9999999999216 	2.026680561069994e-11 	101324.9999999896
0.4767267267267262 	299.9999999999173 	2.070517714857903e-11 	101324.9999999894
0.4792292292292287 	300.0000000000486 	2.103221571491241e-11 	101324.9999999894
0.4817317317317312 	300.0000000000746 	2.035157107283185e-11 	101324.9999999891
0.4842342342342336 	299.9999999999802 	2.052198576451264e-11 	101324.9999999893
0.4867367367367362 	299.9999999999194 	1.93660449777534e-11 	101324.9999999896
0.4892392392392387 	300.0000000000676 	2.062005663112885e-11 	101324.9999999893
0.4917417417417412 	300.0000000000336 	1.880293349240326e-11 	101324.9999999892
0.4942442442442437 	299.9999999998212 	2.033299506543552e-11 	101324.9999999893
0.4967467467467462 	299.9999999998469 	1.768785180306026e-11 	101324.9999999895
0.4992492492492487 	299.9999999998312 	2.126253702490833e-11 	101324.9999999897
0.5017517517517511 	299.9999999999152 	1.910283357696212e-11 	101324.9999999895
0.5042542542542537 	299.999999999947 	2.048163726207929e-11 	101324.9999999893
0.5067567567567562 	299.9999999999052 	2.039681284636895e-11 	101324.9999999892
0.5092592592592589 	299.9999999999241 	1.938502708797058e-11 	101324.9999999895
0.5117617617617611 	299.999999999936 	2.175921321463566e-11 	101324.9999999896
0.5142642642642637 	299.9999999999977 	1.848263284714044e-11 	101324.9999999897
0.5167667667667663 	299.9999999999587 	2.325165376128547e-11 	101324.9999999896
0.5192692692692688 	299.9999999998273 	1.721732438089134e-11 	101324.9999999898
0.5217717717717714 	299.9999999998973 	2.600747914322121e-11 	101324.9999999899
0.5242742742742736 	299.9999999999018 	1.795862180190576e-11 	101324.9999999899
0.5267767767767763 	299.9999999999305 	2.476684043573702e-11 	101324.9999999897
0.5292792792792789 	299.9999999998984 	1.956279103427727e-11 	101324.9999999899
0.5317817817817813 	299.9999999998319 	2.472280147569203e-11 	101324.99999999
0.5342842842842837 	300.0000000000285 	2.125554439763626e-11 	101324.9999999894
0.5367867867867864 	299.9999999999973 	2.435024642027889e-11 	101324.9999999896
0.5392892892892888 	299.9999999999073 	2.2444739967303e-11 	101324.9999999899
0.5417917917917912 	299.999999999992 	2.484072393904248e-11 	101324.9999999897
0.5442942942942938 	299.999999999957 	2.293835136044142e-11 	101324.9999999897
0.5467967967967964 	299.9999999999015 	2.458264531884272e-11 	101324.9999999901
0.5492992992992988 	299.9999999998964 	2.234982456892576e-11 	101324.9999999902
0.5518018018018012 	299.999999999897 	2.359708635052091e-11 	101324.9999999903
0.5543043043043039 	300.0000000000371 	2.082625548618851e-11 	101324.9999999905
0.5568068068068063 	299.9999999999834 	2.205259695067678e-11 	101324.999999991
0.5593093093093087 	299.9999999998216 	1.933800947977187e-11 	101324.9999999911
0.5618118118118114 	299.999999999908 	2.383531235888677e-11 	101324.9999999911
0.5643143143143137 	299.9999999998736 	2.180881425043987e-11 	101324.9999999912
0.5668168168168163 	299.9999999999834 	2.403734761849467e-11 	101324.9999999913
0.5693193193193188 	300.0000000000572 	2.464112244579257e-11 	101324.9999999911
0.5718218218218213 	300.0000000000507 	2.414855426187611e-11 	101324.9999999909
0.5743243243243239 	300.0000000000304 	2.653662070796235e-11 	101324.9999999908
0.5768268268268262 	300.0000000000025 	2.26235349142975e-11 	101324.9999999909
0.5793293293293288 	299.99999999989 	2.798181397565025e-11 	101324.9999999909
0.5818318318318314 	299.9999999998588 	2.207102181657704e-11 	101324.9999999907
0.5843343343343338 	299.9999999999953 	3.083624184967817e-11 	101324.9999999906
0.5868368368368363 	299.9999999999732 	2.282107897558376e-11 	101324.9999999905
0.5893393393393387 	299.9999999998894 	2.937251133170336e-11 	101324.9999999903
0.5918418418418413 	299.9999999998972 	2.43583638383149e-11 	101324.9999999902
0.5943443443443439 	300.0000000000294 	2.87140794166986e-11 	101324.9999999904
0.5968468468468463 	300.0000000000389 	2.528914045314971e-11 	101324.9999999904
0.5993493493493487 	300.0000000000828 	2.747924000367038e-11 	101324.9999999903
0.6018518518518514 	299.9999999999805 	2.525911393945933e-11 	101324.9999999905
0.6043543543543537 	300.0000000000168 	2.807095027961838e-11 	101324.9999999908
0.6068568568568564 	299.9999999999861 	2.553239534867179e-11 	101324.999999991
0.6093593593593587 	299.9999999998688 	2.759176919860647e-11 	101324.9999999914
0.6118618618618614 	299.9999999998591 	2.50758549717546e-11 	101324.9999999915
0.6143643643643638 	300.0000000000338 	2.620277048196878e-11 	101324.9999999917
0.6168668668668662 	299.9999999999886 	2.282256809659558e-11 	101324.9999999917
0.6193693693693688 	299.9999999999332 	2.554088360290543e-11 	101324.9999999918
0.6218718718718714 	299.9999999999458 	2.151001731165206e-11 	101324.9999999916
0.6243743743743737 	299.9999999998668 	2.559055884043458e-11 	101324.9999999915
0.6268768768768762 	299.9999999998566 	2.256336973847879e-11 	101324.9999999917
0.629379379379379 	299.9999999999322 	2.449157907069263e-11 	101324.9999999921
0.6318818818818812 	299.9999999999758 	2.398084077781881e-11 	101324.9999999921
0.6343843843843838 	300.000000000052 	2.428582429467032e-11 	101324.9999999922
0.6368868868868864 	299.9999999999886 	2.60838351387949e-11 	101324.999999992
0.6393893893893888 	299.9999999998576 	2.32351376485594e-11 	101324.999999992
0.6418918918918912 	299.9999999999952 	2.743725622873023e-11 	101324.999999992
0.6443943943943939 	299.9999999999465 	2.170173477920533e-11 	101324.999999992
0.6468968968968963 	299.9999999999745 	3.049205534398565e-11 	101324.999999992
0.6493993993993988 	299.9999999999519 	2.34034570708955e-11 	101324.9999999917
0.6519019019019012 	299.9999999999735 	3.03375511793534e-11 	101324.9999999912
0.6544044044044038 	299.9999999998212 	2.508895273490346e-11 	101324.9999999909
0.6569069069069065 	299.999999999901 	3.011981936191127e-11 	101324.9999999911
0.6594094094094087 	299.9999999999267 	2.620942948045851e-11 	101324.9999999915
0.6619119119119113 	299.9999999999295 	2.899042882093044e-11 	101324.9999999916
0.664414414414414 	300.0000000000293 	2.561969871826607e-11 	101324.9999999915
0.6669169169169162 	300.0000000000315 	2.790491086490048e-11 	101324.9999999914
0.6694194194194188 	299.9999999999683 	2.594919051870831e-11 	101324.9999999913
0.6719219219219214 	299.999999999851 	2.80579272546101e-11 	101324.9999999913
0.674424424424424 	299.9999999999428 	2.609541291195789e-11 	101324.9999999915
0.6769269269269262 	299.9999999998426 	2.744829713127234e-11 	101324.9999999916
0.679429429429429 	300.0000000000127 	2.530249752899525e-11 	101324.9999999917
0.6819319319319311 	299.9999999999835 	2.610636416812197e-11 	101324.9999999919
0.6844344344344341 	300.0000000000123 	2.307944964948562e-11 	101324.999999992
0.686936936936936 	300.0000000000115 	2.598901813438138e-11 	101324.9999999918
0.6894394394394392 	300.0000000000232 	2.395283468193723e-11 	101324.9999999916
0.6919419419419413 	299.9999999999742 	2.59361660956219e-11 	101324.9999999916
0.694444444444444 	299.9999999998474 	2.668455847965608e-11 	101324.9999999918
0.6969469469469463 	299.9999999998358 	2.713617982340883e-11 	101324.9999999919
0.6994494494494489 	299.9999999998519 	2.877994298354298e-11 	101324.9999999917
0.7019519519519515 	299.999999999963 	2.712161469274698e-11 	101324.9999999917
0.7044544544544538 	299.9999999999004 	3.033644990011193e-11 	101324.9999999918
0.7069569569569564 	300.0000000000055 	2.574591370814485e-11 	101324.9999999916
0.7094594594594589 	299.9999999999453 	3.095828736889615e-11 	101324.9999999917
0.7119619619619615 	299.9999999998516 	2.530206465941719e-11 	101324.9999999918
0.7144644644644638 	299.999999999937 	2.923694264000983e-11 	101324.9999999919
0.7169669669669665 	299.9999999998676 	2.659225972948177e-11 	101324.9999999919
0.7194694694694688 	300.0000000000055 	2.910303137144894e-11 	101324.9999999919
0.7219719719719715 	299.9999999999904 	2.821273732246091e-11 	101324.9999999919
0.7244744744744737 	300.0000000000327 	2.786699398824874e-11 	101324.9999999923
0.7269769769769764 	300.0000000000149 	2.888714440008512e-11 	101324.9999999924
0.7294794794794791 	299.999999999981 	2.561506049540857e-11 	101324.9999999925
0.7319819819819813 	299.9999999999466 	2.994555568751743e-11 	101324.9999999926
0.7344844844844839 	299.9999999998294 	2.602060729322158e-11 	101324.9999999928
0.7369869869869864 	299.9999999998955 	2.877382799236411e-11 	101324.9999999931
0.739489489489489 	299.9999999999016 	2.748341907420292e-11 	101324.9999999932
0.7419919919919914 	299.9999999998719 	2.763444915631473e-11 	101324.9999999931
0.7444944944944939 	299.9999999999732 	2.901079434960196e-11 	101324.999999993
0.7469969969969963 	299.999999999944 	2.620648696367577e-11 	101324.9999999929
0.7494994994994989 	299.9999999998674 	3.044548406700047e-11 	101324.9999999927
0.7520020020020015 	299.9999999999332 	2.528173720994141e-11 	101324.9999999926
0.7545045045045039 	299.999999999931 	3.222972713445728e-11 	101324.9999999923
0.7570070070070062 	299.9999999998944 	2.687784248464441e-11 	101324.999999992
0.7595095095095092 	299.9999999998844 	3.077278902942176e-11 	101324.9999999919
0.7620120120120112 	300.0000000000204 	2.880247014879665e-11 	101324.9999999919
0.7645145145145138 	299.9999999999828 	2.941920388056541e-11 	101324.9999999917
0.7670170170170165 	299.9999999998776 	3.003255923242515e-11 	101324.9999999917
0.7695195195195191 	299.9999999998529 	2.770578772078955e-11 	101324.999999992
0.7720220220220213 	299.999999999879 	3.221323696661579e-11 	101324.9999999923
0.7745245245245239 	299.9999999998606 	2.78984219709524e-11 	101324.9999999924
0.7770270270270263 	299.9999999999355 	3.164006257571481e-11 	101324.9999999924
0.779529529529529 	299.9999999999645 	2.925121967201143e-11 	101324.9999999924
0.7820320320320313 	299.9999999999395 	3.061056402225077e-11 	101324.9999999929
0.784534534534534 	300.0000000000164 	2.98891838652367e-11 	101324.999999993
0.7870370370370364 	300.0000000000013 	2.973889377002779e-11 	101324.9999999929
0.7895395395395389 	299.9999999999832 	3.179695264420906e-11 	101324.9999999928
0.7920420420420413 	299.999999999966 	3.012096262309483e-11 	101324.999999993
0.794544544544544 	299.999999999944 	3.312657871152231e-11 	101324.9999999929
0.7970470470470463 	300.0000000000036 	2.864495346719182e-11 	101324.9999999928
0.799549549549549 	299.9999999999811 	3.51106159857751e-11 	101324.9999999929
0.8020520520520515 	299.9999999999673 	3.005594357815104e-11 	101324.999999993
0.8045545545545539 	299.9999999998832 	3.399622154107859e-11 	101324.9999999931
0.8070570570570563 	299.9999999999552 	3.124921466776575e-11 	101324.9999999931
0.8095595595595589 	299.9999999999119 	3.270726132695155e-11 	101324.9999999932
0.8120620620620614 	299.9999999998826 	3.191574541258874e-11 	101324.9999999933
0.8145645645645638 	300.0000000000019 	3.081635097551959e-11 	101324.9999999931
0.8170670670670666 	300.0000000000123 	3.14376456082186e-11 	101324.9999999931
0.8195695695695689 	299.9999999999717 	2.842940154279497e-11 	101324.9999999934
0.8220720720720714 	299.9999999998857 	3.375036956432672e-11 	101324.9999999933
0.8245745745745739 	299.9999999999829 	2.940527090213621e-11 	101324.9999999934
0.8270770770770765 	299.9999999999451 	3.331931117923518e-11 	101324.9999999933
0.8295795795795788 	299.9999999999155 	3.037945549684251e-11 	101324.9999999934
0.8320820820820815 	300.0000000000279 	3.138862844323458e-11 	101324.9999999932
0.834584584584584 	300.000000000009 	2.993795002677171e-11 	101324.9999999931
0.8370870870870865 	299.9999999999266 	2.995089624437569e-11 	101324.9999999932
0.8395895895895891 	299.9999999998623 	3.213707910244304e-11 	101324.9999999932
0.8420920920920915 	299.9999999999104 	3.060568967396873e-11 	101324.999999993
0.844594594594594 	299.9999999999002 	3.197688794610175e-11 	101324.9999999928
0.8470970970970964 	299.9999999999187 	3.218936905183791e-11 	101324.9999999929
0.8495995995995991 	299.9999999999952 	3.223241783296544e-11 	101324.9999999929
0.8521021021021015 	299.9999999999702 	3.312467871460695e-11 	101324.999999993
0.8546046046046039 	299.9999999999533 	3.24448950078289e-11 	101324.9999999932
0.8571071071071066 	300.0000000000169 	3.518583039666426e-11 	101324.9999999934
0.8596096096096089 	299.9999999999475 	3.137362047885863e-11 	101324.9999999935
0.8621121121121116 	299.9999999998821 	3.650826575289887e-11 	101324.9999999934
0.8646146146146139 	300.0000000000056 	3.159135725911608e-11 	101324.9999999931
0.8671171171171166 	299.999999999949 	3.469981504754549e-11 	101324.9999999928
0.8696196196196189 	299.9999999998769 	3.286836129413506e-11 	101324.9999999925
0.8721221221221216 	299.9999999999628 	3.42260189654927e-11 	101324.9999999926
0.874624624624624 	300.0000000000081 	3.384983197623275e-11 	101324.9999999927
0.8771271271271264 	300.0000000000015 	3.356732689478375e-11 	101324.999999993
0.879629629629629 	300.0000000000131 	3.567715454149739e-11 	101324.9999999932
0.8821321321321317 	299.9999999999706 	3.296982913956776e-11 	101324.9999999932
0.8846346346346339 	299.9999999998528 	3.785023320546743e-11 	101324.9999999934
0.8871371371371364 	299.9999999999205 	3.373315862679313e-11 	101324.9999999938
0.8896396396396391 	299.9999999999189 	3.747020581352162e-11 	101324.9999999941
0.8921421421421414 	299.9999999999269 	3.528304972905227e-11 	101324.9999999942
0.8946446446446441 	299.999999999972 	3.690125386775698e-11 	101324.9999999942
0.8971471471471464 	300.0000000000051 	3.569922810570087e-11 	101324.9999999942
0.8996496496496489 	299.9999999999697 	3.472991322878665e-11 	101324.9999999943
0.9021521521521517 	299.9999999999457 	3.572635479629805e-11 	101324.9999999944
0.9046546546546541 	299.999999999993 	3.292402954863481e-11 	101324.9999999944
0.9071571571571564 	299.9999999999083 	3.40759927154876e-11 	101324.9999999944
0.9096596596596589 	299.9999999998989 	3.399996422274361e-11 	101324.9999999943
0.9121621621621616 	300.0000000000171 	3.433982940962402e-11 	101324.9999999944
0.9146646646646639 	299.9999999999583 	3.479431432498421e-11 	101324.9999999944
0.9171671671671666 	299.9999999999017 	3.470737144806296e-11 	101324.9999999944
0.9196696696696689 	300.0000000000135 	3.677809149120686e-11 	101324.9999999944
0.9221721721721714 	299.9999999999955 	3.369994753770715e-11 	101324.9999999944
0.9246746746746741 	299.9999999998855 	3.81370998978894e-11 	101324.9999999946
0.9271771771771765 	299.9999999999116 	3.381086921286254e-11 	101324.9999999947
0.9296796796796791 	299.9999999999847 	3.729177966765394e-11 	101324.9999999946
0.9321821821821816 	299.9999999999335 	3.50738407542239e-11 	101324.9999999947
0.9346846846846838 	299.9999999998996 	3.697296341004806e-11 	101324.9999999949
0.9371871871871866 	300.0000000000217 	3.582788721750116e-11 	101324.999999995
0.9396896896896891 	300.0000000000217 	3.592566903816447e-11 	101324.9999999949
0.9421921921921914 	300.0000000000179 	3.656835694455178e-11 	101324.9999999948
0.9446946946946939 	299.9999999999433 	3.475465845283905e-11 	101324.9999999948
0.9471971971971965 	299.9999999998647 	3.871843130245411e-11 	101324.9999999949
0.9496996996996991 	299.9999999999396 	3.524262681871924e-11 	101324.9999999949
0.9522022022022016 	299.9999999999687 	3.828713846871024e-11 	101324.9999999946
0.9547047047047038 	299.9999999999517 	3.608802728593639e-11 	101324.9999999944
0.9572072072072064 	299.9999999999204 	3.771662540471961e-11 	101324.9999999943
0.9597097097097093 	299.9999999999364 	3.728649617918229e-11 	101324.9999999943
0.9622122122122114 	299.9999999999346 	3.75953779516055e-11 	101324.9999999943
0.964714714714714 	299.9999999999182 	3.95231269375117e-11 	101324.9999999944
0.9672172172172167 	299.9999999999146 	3.767253786981288e-11 	101324.9999999948
0.969719719719719 	299.9999999999659 	3.933699417242613e-11 	101324.9999999951
0.9722222222222214 	299.999999999963 	3.884949091280106e-11 	101324.9999999954
0.9747247247247239 	299.9999999999573 	3.917858047533334e-11 	101324.9999999955
0.9772272272272267 	300.0000000000234 	3.919632280336001e-11 	101324.9999999952
0.9797297297297292 	299.9999999999876 	3.806670589262461e-11 	101324.9999999952
0.9822322322322313 	299.9999999999828 	3.902224146297157e-11 	101324.9999999953
0.9847347347347344 	299.9999999999703 	3.618927013884144e-11 	101324.9999999953
0.9872372372372363 	299.9999999998856 	4.049689904761581e-11 	101324.9999999951
0.9897397397397389 	299.9999999999198 	3.605023759536674e-11 	101324.9999999952
0.9922422422422417 	299.999999999896 	3.943829933571256e-11 	101324.9999999956
0.9947447447447441 	299.9999999999472 	3.693973544603616e-11 	101324.9999999958
0.9972472472472468 	299.9999999999476 	3.86802837074202e-11 	101324.9999999959
0.999749749749749 	299.9999999999332 	3.732525578416382e-11 	101324.9999999959
1.002252252252252 	299.9999999999475 	3.771112921559328e-11 	101324.9999999959
1.004754754754754 	299.9999999999873 	3.794996403627221e-11 	101324.9999999958
1.007257257257256 	299.9999999999577 	3.647913583977394e-11 	101324.9999999956
1.009759759759759 	299.9999999999314 	4.000503341025865e-11 	101324.9999999954
1.012262262262261 	299.9999999999171 	3.674823051396812e-11 	101324.9999999955
1.014764764764764 	299.9999999998716 	3.987562762196243e-11 	101324.9999999955
1.017267267267267 	299.9999999998565 	3.802881126999731e-11 	101324.9999999955
1.019769769769769 	299.9999999999525 	4.021807668967762e-11 	101324.9999999957
1.022272272272272 	299.9999999999777 	3.96358730937529e-11 	101324.9999999959
1.024774774774774 	299.9999999999787 	3.951982324839497e-11 	101324.9999999961
1.027277277277277 	299.9999999999748 	4.07711222016284e-11 	101324.9999999961
1.029779779779779 	300.0000000000325 	3.880976997554565e-11 	101324.9999999961
1.032282282282282 	300.0000000000319 	4.007036516097684e-11 	101324.9999999963
1.034784784784784 	300.0000000000073 	3.90362611574893e-11 	101324.9999999964
1.037287287287286 	299.9999999999426 	4.013259404979868e-11 	101324.999999996
1.039789789789789 	299.9999999999471 	3.983027024089964e-11 	101324.9999999957
1.042292292292291 	300.0000000000135 	3.979422194486337e-11 	101324.9999999959
1.044794794794794 	300.0000000000563 	4.000477205294174e-11 	101324.999999996
1.047297297297296 	300.0000000000949 	3.830853662498912e-11 	101324.9999999961
1.049799799799799 	299.9999999999972 	4.215834599972756e-11 	101324.9999999959
1.052302302302302 	299.9999999999151 	3.909541043116636e-11 	101324.9999999958
1.054804804804804 	299.9999999998711 	4.238411347602297e-11 	101324.999999996
1.057307307307306 	299.9999999998554 	3.987036818440708e-11 	101324.9999999961
1.059809809809809 	299.9999999999341 	4.151313659073284e-11 	101324.9999999961
1.062312312312312 	299.9999999999338 	4.043794582533446e-11 	101324.9999999962
1.064814814814814 	299.9999999999334 	4.164810755360036e-11 	101324.9999999964
1.067317317317317 	299.9999999998745 	4.135057642153453e-11 	101324.9999999965
1.069819819819819 	299.9999999998709 	4.002054633081459e-11 	101324.9999999964
1.072322322322321 	300.0000000000006 	4.206687620158618e-11 	101324.9999999964
1.074824824824824 	300.0000000000458 	3.90436664125154e-11 	101324.9999999965
1.077327327327327 	300.0000000000763 	4.197497302877397e-11 	101324.9999999967
1.079829829829829 	300.000000000092 	4.021480477501163e-11 	101324.9999999968
1.082332332332332 	300.0000000000219 	4.12076901455225e-11 	101324.999999997
1.084834834834834 	299.9999999999649 	4.043053805460212e-11 	101324.9999999971
1.087337337337337 	299.9999999998918 	4.020798481451831e-11 	101324.9999999971
1.089839839839839 	299.9999999998605 	4.230673445657809e-11 	101324.9999999973
1.092342342342342 	299.9999999999378 	3.945234646678232e-11 	101324.9999999974
1.094844844844844 	299.9999999999393 	4.140920190032134e-11 	101324.9999999973
1.097347347347347 	299.9999999998809 	3.901518279950993e-11 	101324.9999999974
1.099849849849849 	299.9999999998599 	4.362332035077119e-11 	101324.9999999974
1.102352352352352 	299.9999999999309 	3.947059285278703e-11 	101324.9999999974
1.104854854854854 	299.9999999999685 	4.297158864999935e-11 	101324.9999999975
1.107357357357357 	299.9999999999238 	4.068743105392132e-11 	101324.9999999975
1.109859859859859 	299.9999999999116 	4.371041690369433e-11 	101324.9999999973
1.112362362362362 	300.0000000000342 	4.215326322385584e-11 	101324.999999997
1.114864864864865 	300.0000000000343 	4.315954670951182e-11 	101324.9999999969
1.117367367367367 	299.999999999935 	4.488544224313527e-11 	101324.9999999969
1.119869869869869 	299.9999999998671 	4.277505162922576e-11 	101324.9999999969
1.122372372372372 	299.9999999999347 	4.538970973847821e-11 	101324.9999999969
1.124874874874874 	299.9999999999224 	4.396608389036065e-11 	101324.9999999971
1.127377377377377 	299.9999999999351 	4.572851333967508e-11 	101324.9999999971
1.129879879879879 	300.0000000000426 	4.453294567635149e-11 	101324.999999997
1.132382382382382 	300.0000000000794 	4.563777958160413e-11 	101324.9999999969
1.134884884884884 	300.0000000000251 	4.466781025651002e-11 	101324.999999997
1.137387387387387 	300.0000000000379 	4.407504090825968e-11 	101324.999999997
1.139889889889889 	299.999999999933 	4.61691770545935e-11 	101324.999999997
1.142392392392392 	299.999999999913 	4.363049535176612e-11 	101324.9999999971
1.144894894894894 	300.0000000000392 	4.580642535164992e-11 	101324.9999999975
1.147397397397397 	299.9999999999964 	4.413663604787997e-11 	101324.9999999977
1.149899899899899 	299.9999999998785 	4.630224593244929e-11 	101324.9999999976
1.152402402402402 	299.9999999998597 	4.552117358186924e-11 	101324.9999999975
1.154904904904904 	299.999999999929 	4.726012449652435e-11 	101324.9999999976
1.157407407407407 	299.99999999993 	4.608819593826596e-11 	101324.9999999977
1.159909909909909 	299.9999999998747 	4.573197526844464e-11 	101324.9999999979
1.162412412412412 	299.9999999998622 	4.778616092991518e-11 	101324.999999998
1.164914914914914 	299.9999999999172 	4.505670938367888e-11 	101324.9999999982
1.167417417417417 	299.9999999999368 	4.720781865001516e-11 	101324.9999999982
1.169919919919919 	300.0000000000364 	4.539223037398038e-11 	101324.9999999981
1.172422422422422 	300.0000000000904 	4.758336078651791e-11 	101324.9999999981
1.174924924924925 	299.9999999999898 	4.57849738256911e-11 	101324.9999999983
1.177427427427427 	299.9999999999299 	4.605860813250037e-11 	101324.9999999987
1.179929929929929 	300.0000000000303 	4.702493899112621e-11 	101324.999999999
1.182432432432432 	300.000000000089 	4.464649729648844e-11 	101324.9999999992
1.184934934934934 	300.0000000000119 	4.69965021408653e-11 	101324.9999999992
1.187437437437437 	299.9999999999386 	4.53338830245643e-11 	101324.9999999988
1.189939939939939 	299.9999999999184 	4.737204718820475e-11 	101324.9999999984
1.192442442442442 	299.9999999998661 	4.658782770985725e-11 	101324.9999999983
1.194944944944944 	299.9999999998749 	4.883627107770104e-11 	101324.9999999984
1.197447447447447 	299.9999999999905 	4.739860382764616e-11 	101324.9999999986
1.199949949949949 	300.0000000000302 	4.729987073118617e-11 	101324.9999999985
1.202452452452452 	299.9999999999222 	4.934573711312543e-11 	101324.9999999983
1.204954954954955 	299.9999999999055 	4.743183439836904e-11 	101324.9999999985
1.207457457457457 	299.9999999999652 	4.959406143135028e-11 	101324.9999999987
1.20995995995996 	299.9999999999621 	4.77105454770614e-11 	101324.9999999988
1.212462462462462 	299.9999999999836 	4.952688896996029e-11 	101324.9999999987
1.214964964964964 	299.9999999999803 	4.782826527745238e-11 	101324.9999999987
1.217467467467467 	299.9999999999633 	4.948780553103854e-11 	101324.9999999986
1.219969969969969 	299.9999999999364 	4.796859477512751e-11 	101324.9999999986
1.222472472472472 	300.0000000000398 	4.844140508441273e-11 	101324.9999999985
1.224974974974975 	300.0000000000945 	4.953861067391524e-11 	101324.9999999982
1.227477477477477 	299.9999999999945 	4.702434735235789e-11 	101324.9999999981
1.229979979979979 	299.9999999999656 	4.904555404523673e-11 	101324.9999999982
1.232482482482482 	299.9999999999144 	4.704945351149729e-11 	101324.9999999983
1.234984984984984 	299.9999999999148 	4.938075018136689e-11 	101324.9999999985
1.237487487487487 	299.9999999999602 	4.693215402408334e-11 	101324.9999999987
1.239989989989989 	299.9999999999664 	4.768122920520975e-11 	101324.9999999987
1.242492492492492 	300.0000000000317 	4.802776705486879e-11 	101324.9999999987
1.244994994994994 	299.9999999999707 	4.544610178167799e-11 	101324.999999999
1.247497497497497 	299.9999999999828 	4.699927416023162e-11 	101324.9999999992
1.249999999999999 	300.0000000005833 	4.563605836910191e-11 	101324.9999999994
