-1.25 	300 	0.1222859480908918 	101374.9013364214
-1.247497497497497 	300.0416943511406 	0.1219879803218207 	101374.8587585898
-1.244994994994995 	300.0421173346622 	0.1219114360621816 	101374.8020295044
-1.242492492492492 	300.0420647001905 	0.121911618189113 	101374.7364166975
-1.23998998998999 	300.0420008106647 	0.1216255315005311 	101374.6617674351
-1.237487487487487 	300.0419299262975 	0.1214386550441426 	101374.5779459338
-1.234984984984985 	300.0418513363259 	0.1212063851341834 	101374.4850052467
-1.232482482482482 	300.041765046619 	0.120959115217818 	101374.382959344
-1.22997997997998 	300.0416710746632 	0.1206869772211918 	101374.2718282591
-1.227477477477477 	300.0415694366417 	0.1203935566869459 	101374.1516313702
-1.224974974974975 	300.0414601512114 	0.1200775028249417 	101374.022390676
-1.222472472472472 	300.0413432377792 	0.1197394796818312 	101373.8841292635
-1.21996996996997 	300.0412187164331 	0.1193792943576214 	101373.7368708485
-1.217467467467467 	300.0410866111449 	0.1189971325984394 	101373.5806437913
-1.214964964964965 	300.0409469442266 	0.1185930220884869 	101373.4154745052
-1.212462462462462 	300.0407997445632 	0.1181670660373999 	101373.2413972458
-1.20995995995996 	300.0406450364733 	0.1177193337980208 	101373.058440806
-1.207457457457457 	300.0404828519409 	0.1172499156384157 	101372.8666429557
-1.204954954954955 	300.0403132176092 	0.1167588950634977 	101372.6660353042
-1.202452452452452 	300.0401361661557 	0.1162463686886641 	101372.4566565341
-1.19994994994995 	300.0399517295713 	0.1157124313218773 	101372.2385444682
-1.197447447447447 	300.0397599388174 	0.1151571797309016 	101372.0117358704
-1.194944944944945 	300.0395608347213 	0.1145807172506333 	101371.7762790144
-1.192442442442442 	300.0393544453254 	0.1139831460069984 	101371.5322070181
-1.18993993993994 	300.0391408174754 	0.1133645867409512 	101371.2795753945
-1.187437437437437 	300.0389199827918 	0.1127251461750304 	101371.0184216076
-1.184934934934935 	300.0386919849035 	0.1120649433958065 	101370.7487971809
-1.182432432432432 	300.038456869 	0.1113841010661216 	101370.4707555436
-1.17992992992993 	300.0382146665185 	0.1106827393513513 	101370.1843342563
-1.177427427427427 	300.037965438413 	0.1099610015428863 	101369.8896058934
-1.174924924924925 	300.0377092142454 	0.1092190013344827 	101369.5866049092
-1.172422422422422 	300.0374460505414 	0.1084568866129224 	101369.2753968488
-1.16991991991992 	300.0371760010297 	0.1076748019274834 	101368.9560453334
-1.167417417417417 	300.0368990922332 	0.1068728709811371 	101368.628584083
-1.164914914914915 	300.0366154023002 	0.1060512694401364 	101368.2931075765
-1.162412412412412 	300.0363249624372 	0.1052101224749626 	101367.9496511845
-1.15990990990991 	300.0360278290876 	0.1043495908259813 	101367.5982775183
-1.157407407407407 	300.03572408691 	0.1034698600282394 	101367.2390847061
-1.154904904904904 	300.0354137454989 	0.1025710399130005 	101366.8720870617
-1.152402402402403 	300.0350968884535 	0.1016533390756655 	101366.4973887525
-1.1498998998999 	300.0347735798089 	0.1007169298254897 	101366.1150683282
-1.147397397397397 	300.0344438299882 	0.09976192155546357 	101365.7251362428
-1.144894894894895 	300.0341077629397 	0.09878856932396954 	101365.3277340309
-1.142392392392392 	300.0337654268207 	0.09779702336824721 	101364.9229138608
-1.13988988988989 	300.0334168367127 	0.0967874031119101 	101364.5106918248
-1.137387387387387 	300.0330621365175 	0.09576000697114623 	101364.0912398231
-1.134884884884885 	300.0327013513112 	0.09471496435363058 	101363.6645907857
-1.132382382382382 	300.0323344905512 	0.09365239386062811 	101363.2307588376
-1.12987987987988 	300.0319617205896 	0.09257264102012031 	101362.7899426156
-1.127377377377377 	300.0315830709086 	0.09147583981218103 	101362.3421777384
-1.124874874874875 	300.0311985327123 	0.09036207305678662 	101361.8874538241
-1.122372372372372 	300.0308082864912 	0.08923172148315464 	101361.4259839087
-1.11986986986987 	300.0304124028326 	0.0880849875779486 	101360.9578509367
-1.117367367367367 	300.0300108400157 	0.08692188788645153 	101360.4830051098
-1.114864864864865 	300.029603744331 	0.08574276071921756 	101360.001619088
-1.112362362362362 	300.0291912683089 	0.08454796668733712 	101359.5138730078
-1.10985985985986 	300.0287733861929 	0.083337534395135 	101359.0197363029
-1.107357357357357 	300.0283501256288 	0.082111585133553 	101358.5192415869
-1.104854854854855 	300.0279216721256 	0.08087057075057477 	101358.0126082296
-1.102352352352353 	300.0274881639668 	0.07961483056117952 	101357.4999997897
-1.09984984984985 	300.0270495455597 	0.07834428987364692 	101356.9813505303
-1.097347347347347 	300.0266057898783 	0.07705900318370994 	101356.4566285861
-1.094844844844845 	300.0261571991026 	0.07575969791954874 	101355.9261913686
-1.092342342342342 	300.0257040281432 	0.07444688328244625 	101355.3903403123
-1.08983983983984 	300.0252459751604 	0.07311996975134609 	101354.8487185599
-1.087337337337337 	300.0247828845857 	0.0717788377557606 	101354.3011422491
-1.084834834834835 	300.0243154773593 	0.07042508095221515 	101353.7484639265
-1.082332332332332 	300.0238441504353 	0.06905940796751066 	101353.1911529677
-1.07982982982983 	300.0233680040572 	0.06767998340897123 	101352.628145532
-1.077327327327327 	300.0228867034754 	0.0662864345123025 	101352.059045962
-1.074824824824825 	300.0224018057954 	0.06488216579147832 	101351.4856954887
-1.072322322322323 	300.0219140762504 	0.06346850587332108 	101350.9089988669
-1.06981981981982 	300.0214214774788 	0.06204101928737989 	101350.3265471057
-1.067317317317317 	300.0209227708285 	0.06059758581839265 	101349.7368758657
-1.064814814814815 	300.0204209287273 	0.05914511476886096 	101349.1434998589
-1.062312312312312 	300.019918876503 	0.05768958221162295 	101348.5498778624
-1.05980980980981 	300.0194135217768 	0.05622343485324777 	101347.9523533608
-1.057307307307307 	300.0188994010111 	0.05473476184076505 	101347.3444665255
-1.054804804804805 	300.0183782663566 	0.05322870128187948 	101346.7282894471
-1.052302302302302 	300.017858982031 	0.05172594337526927 	101346.1143030546
-1.0497997997998 	300.0173450607241 	0.05023359354646135 	101345.5066602438
-1.047297297297297 	300.0168272314245 	0.0487289127341211 	101344.8943989794
-1.044794794794795 	300.0162939746157 	0.04718513564312301 	101344.2638994606
-1.042292292292292 	300.0157480448806 	0.0456103320085814 	101343.6184193105
-1.03978978978979 	300.015206432778 	0.04404615644675319 	101342.9780475598
-1.037287287287287 	300.0146811012864 	0.04252089162825173 	101342.3569279104
-1.034784784784785 	300.0141629127377 	0.04101082322792313 	101341.7442557062
-1.032282282282283 	300.0136288803866 	0.03945877106586168 	101341.1128529465
-1.02977977977978 	300.0130663465084 	0.03783413981770639 	101340.4477550583
-1.027277277277277 	300.0124884075688 	0.0361709261033713 	101339.7644474267
-1.024774774774775 	300.0119235960304 	0.03454154352371024 	101339.0966645359
-1.022272272272272 	300.011389424512 	0.03299011722701217 	101338.4651107213
-1.01976976976977 	300.0108752722154 	0.03148874109600744 	101337.8572276932
-1.017267267267267 	300.0103499149834 	0.02995641568548152 	101337.2360987257
-1.014764764764765 	300.0097863789213 	0.02832328426736487 	101336.5698335675
-1.012262262262262 	300.009183565719 	0.02658700598722046 	101335.857135301
-1.00975975975976 	300.0085682043898 	0.02481806480851574 	101335.1296063691
-1.007257257257257 	300.0079765543945 	0.02311233814709945 	101334.4301153764
-1.004754754754755 	300.0074303424672 	0.02152777885604123 	101333.7843479149
-1.002252252252252 	300.006923521845 	0.02004839498679795 	101333.1851535604
-0.9997497497497498 	300.0064262810679 	0.01859370145599469 	101332.5972864132
-0.9972472472472473 	300.0059010070391 	0.0170612734778407 	101331.9762782779
-0.9947447447447449 	300.0053201787741 	0.01537585544550066 	101331.2895936244
-0.9922422422422421 	300.0046782340956 	0.01352238780077826 	101330.5306583242
-0.9897397397397399 	300.0039936944046 	0.011552064515046 	101329.7213708291
-0.9872372372372376 	300.003301950529 	0.009562717573392845 	101328.9035722434
-0.9847347347347346 	300.0026427182949 	0.007665117017458676 	101328.1242154202
-0.9822322322322323 	300.0020486758634 	0.005952042809085801 	101327.4219318722
-0.9797297297297296 	300.0015399308746 	0.004481826226409472 	101326.8204914216
-0.9772272272272275 	300.001123770533 	0.003276504598491489 	101326.3285073837
-0.9747247247247248 	300.0007971957563 	0.002328544885285981 	101325.9424328347
-0.9722222222222224 	300.0005504450543 	0.001610720629173765 	101325.6507267864
-0.9697197197197196 	300.0003703806859 	0.001085767623654578 	101325.4378571572
-0.9672172172172175 	300.0002431409914 	0.0007140391588459735 	101325.2874364323
-0.9647147147147147 	300.0001558828798 	0.0004585945692550222 	101325.184281455
-0.9622122122122124 	300.0000976988553 	0.0002879234538937351 	101325.1154974385
-0.9597097097097099 	300.0000599127757 	0.0001768699271146528 	101325.0708275154
-0.9572072072072073 	300.000035978774 	0.0001063941428450866 	101325.0425332666
-0.9547047047047047 	300.0000211739354 	6.271899536631555e-05 	101325.0250313015
-0.9522022022022023 	300.0000122205398 	3.625804922706886e-05 	101325.0144468203
-0.9496996996996998 	300.0000069214511 	2.05692181123368e-05 	101325.0081823704
-0.9471971971971973 	300.0000038493422 	1.145785204180209e-05 	101325.0045505908
-0.9446946946946947 	300.0000021032851 	6.270562485460282e-06 	101325.0024864733
-0.9421921921921923 	300.0000011297213 	3.373317922291616e-06 	101325.0013355379
-0.93968968968969 	300.0000005967916 	1.784720330180963e-06 	101325.0007055039
-0.9371871871871872 	300.000000310196 	9.290662772779366e-07 	101325.0003667026
-0.9346846846846848 	300.0000001586918 	4.760760817140023e-07 	101325.0001876241
-0.9321821821821823 	300.0000000799567 	2.402353021848557e-07 	101325.0000945365
-0.9296796796796799 	300.0000000396987 	1.19426280801104e-07 	101325.0000469256
-0.9271771771771771 	300.0000000194155 	5.850840200777777e-08 	101325.0000229547
-0.9246746746746748 	300.0000000093556 	2.825922731272119e-08 	101325.0000110693
-0.9221721721721724 	300.0000000044561 	1.345983212413382e-08 	101325.0000052633
-0.9196696696696698 	300.000000002085 	6.325646281615722e-09 	101325.0000024677
-0.9171671671671672 	300.0000000009464 	2.93359030193008e-09 	101325.0000011407
-0.9146646646646649 	300.0000000004344 	1.343677301727337e-09 	101325.0000005193
-0.9121621621621623 	300.0000000002019 	6.08195168082984e-10 	101325.0000002324
-0.9096596596596597 	300.0000000000709 	2.720846719417739e-10 	101325.0000001016
-0.9071571571571573 	300.0000000000328 	1.19939806533081e-10 	101325.0000000428
-0.9046546546546547 	300.000000000024 	5.223015283838169e-11 	101325.0000000167
-0.9021521521521524 	299.9999999999949 	2.33224111739168e-11 	101325.0000000052
-0.8996496496496498 	299.9999999999962 	9.769583914548906e-12 	101325.0000000002
-0.8971471471471473 	300.0000000000043 	4.856506028188412e-12 	101324.9999999981
-0.894644644644645 	300.0000000000016 	3.373699714862952e-12 	101324.9999999975
-0.892142142142142 	300.000000000003 	2.01258794450277e-12 	101324.9999999973
-0.8896396396396397 	300.0000000000063 	3.205724153694341e-12 	101324.9999999971
-0.8871371371371374 	299.9999999999821 	1.593817967015995e-12 	101324.9999999969
-0.8846346346346349 	299.9999999999748 	2.552633809394336e-12 	101324.9999999967
-0.8821321321321324 	299.9999999999735 	2.792340063246502e-12 	101324.9999999968
-0.8796296296296297 	299.9999999999775 	2.882142414693978e-12 	101324.9999999969
-0.8771271271271271 	299.9999999999799 	3.165522939147319e-12 	101324.9999999969
-0.8746246246246248 	299.9999999999938 	2.570541812841969e-12 	101324.9999999968
-0.8721221221221224 	300 	2.121619350436896e-12 	101324.999999997
-0.8696196196196196 	299.9999999999885 	1.876663461830591e-12 	101324.9999999971
-0.8671171171171175 	299.9999999999959 	1.386097159128935e-12 	101324.999999997
-0.8646146146146148 	299.9999999999757 	1.078442866395118e-12 	101324.9999999969
-0.8621121121121121 	299.9999999999904 	1.045107032493224e-12 	101324.9999999968
-0.8596096096096097 	300.0000000000086 	5.908533059216193e-13 	101324.9999999969
-0.857107107107107 	299.9999999999852 	5.893114359246458e-13 	101324.9999999968
-0.8546046046046049 	299.9999999999925 	7.42986316018286e-13 	101324.9999999967
-0.8521021021021022 	299.9999999999982 	6.570347660399937e-13 	101324.9999999965
-0.8495995995995997 	299.9999999999933 	1.577884328182472e-12 	101324.9999999963
-0.8470970970970974 	299.9999999999694 	1.282846432454943e-12 	101324.9999999963
-0.8445945945945946 	299.9999999999823 	2.007339092832203e-12 	101324.9999999964
-0.8420920920920922 	300.0000000000048 	1.301549304420904e-12 	101324.9999999964
-0.8395895895895897 	299.9999999999958 	2.825109607452586e-12 	101324.9999999965
-0.8370870870870872 	299.9999999999958 	1.49517254658141e-12 	101324.9999999965
-0.8345845845845846 	299.9999999999994 	2.282900527978695e-12 	101324.9999999967
-0.8320820820820823 	299.9999999999794 	1.644068793819032e-12 	101324.999999997
-0.8295795795795798 	299.9999999999608 	1.036142390643949e-12 	101324.9999999972
-0.8270770770770772 	299.9999999999778 	1.170538536559709e-12 	101324.9999999973
-0.8245745745745746 	299.999999999966 	9.10916974811071e-13 	101324.9999999972
-0.8220720720720721 	299.9999999999777 	5.979538741099301e-13 	101324.9999999971
-0.8195695695695699 	299.999999999994 	1.106597802895525e-12 	101324.999999997
-0.817067067067067 	299.9999999999802 	1.500172932777732e-12 	101324.9999999971
-0.8145645645645651 	299.9999999999664 	1.794023587626811e-12 	101324.999999997
-0.8120620620620621 	299.999999999991 	7.959020086278522e-13 	101324.9999999969
-0.8095595595595597 	300.0000000000008 	5.090779343544789e-13 	101324.9999999968
-0.8070570570570572 	299.9999999999728 	6.641336855571669e-13 	101324.9999999968
-0.8045545545545546 	299.9999999999728 	5.050661915279679e-13 	101324.9999999968
-0.8020520520520523 	299.9999999999939 	1.893469057614047e-12 	101324.9999999967
-0.7995495495495494 	300.0000000000072 	2.425074636616069e-12 	101324.9999999968
-0.7970470470470474 	299.9999999999984 	3.079887304750288e-12 	101324.9999999968
-0.7945445445445446 	300.0000000000027 	2.865787866465119e-12 	101324.9999999967
-0.7920420420420423 	300.0000000000084 	3.597065395361859e-12 	101324.9999999968
-0.7895395395395397 	300.0000000000071 	3.232797153898897e-12 	101324.9999999967
-0.7870370370370371 	300.0000000000039 	3.185365844125099e-12 	101324.9999999967
-0.7845345345345348 	299.9999999999853 	2.748880372315036e-12 	101324.9999999967
-0.7820320320320323 	299.9999999999849 	2.553462170597469e-12 	101324.9999999965
-0.7795295295295296 	299.9999999999644 	3.406036300107198e-12 	101324.9999999963
-0.7770270270270272 	299.999999999957 	3.105168551260363e-12 	101324.9999999965
-0.7745245245245247 	299.9999999999575 	2.789872144338387e-12 	101324.9999999966
-0.7720220220220222 	299.9999999999746 	2.70379407101424e-12 	101324.9999999965
-0.7695195195195199 	299.9999999999763 	2.166097399585791e-12 	101324.9999999966
-0.767017017017017 	299.999999999991 	3.300209739889828e-12 	101324.9999999967
-0.7645145145145147 	300.000000000006 	2.768493118911416e-12 	101324.9999999968
-0.7620120120120122 	300.0000000000083 	3.682598628411066e-12 	101324.9999999969
-0.7595095095095097 	299.9999999999679 	3.845478317855321e-12 	101324.999999997
-0.7570070070070072 	299.9999999999681 	5.323655364085854e-12 	101324.999999997
-0.7545045045045048 	299.999999999992 	4.689618010187365e-12 	101324.9999999968
-0.7520020020020022 	299.9999999999818 	4.324732149143691e-12 	101324.9999999966
-0.7494994994994997 	299.9999999999797 	3.278372061906222e-12 	101324.9999999965
-0.7469969969969972 	299.9999999999978 	3.057602575891731e-12 	101324.9999999965
-0.7444944944944945 	299.9999999999931 	1.115623459125276e-12 	101324.9999999963
-0.7419919919919924 	299.9999999999952 	1.936886745758634e-12 	101324.9999999962
-0.7394894894894897 	299.9999999999774 	1.952045625481986e-12 	101324.9999999961
-0.7369869869869872 	299.9999999999924 	2.079484630668227e-12 	101324.999999996
-0.7344844844844846 	299.9999999999794 	3.207289227377589e-12 	101324.999999996
-0.7319819819819822 	300.0000000000019 	1.603963683428763e-12 	101324.9999999961
-0.7294794794794797 	299.9999999999968 	2.52164865232477e-12 	101324.999999996
-0.7269769769769773 	300.0000000000032 	9.668512728388152e-13 	101324.9999999959
-0.7244744744744747 	300.0000000000074 	7.503840855260078e-13 	101324.999999996
-0.721971971971972 	299.9999999999779 	7.148400175811772e-13 	101324.9999999962
-0.7194694694694695 	299.9999999999898 	7.24523962916245e-13 	101324.9999999964
-0.7169669669669674 	299.9999999999692 	7.401369438605481e-13 	101324.9999999965
-0.7144644644644647 	299.9999999999875 	9.582096566151972e-13 	101324.9999999967
-0.711961961961962 	300.000000000004 	9.111836501112667e-13 	101324.9999999967
-0.7094594594594597 	300.0000000000069 	8.899686366642104e-13 	101324.9999999965
-0.7069569569569573 	300.0000000000101 	7.460598161685908e-13 	101324.9999999965
-0.7044544544544545 	300.0000000000118 	7.037177793712747e-13 	101324.9999999967
-0.7019519519519523 	300.0000000000048 	4.073503645247913e-13 	101324.9999999967
-0.6994494494494495 	299.9999999999674 	3.672860160142812e-13 	101324.9999999966
-0.6969469469469471 	299.9999999999742 	4.844745823897023e-13 	101324.9999999966
-0.6944444444444446 	299.9999999999832 	3.27050309720221e-13 	101324.9999999966
-0.6919419419419421 	300.0000000000138 	5.07515047904425e-13 	101324.9999999966
-0.6894394394394396 	299.9999999999989 	5.921106058235009e-13 	101324.9999999964
-0.6869369369369374 	300.0000000000039 	3.671388089302198e-13 	101324.9999999964
-0.6844344344344344 	300.0000000000093 	1.365761063961613e-12 	101324.9999999966
-0.6819319319319321 	299.9999999999807 	9.688962877594927e-13 	101324.9999999968
-0.6794294294294296 	299.9999999999729 	1.071249054314968e-12 	101324.9999999967
-0.6769269269269272 	299.9999999999603 	6.567663044172989e-13 	101324.9999999965
-0.6744244244244245 	299.9999999999856 	2.968549274349669e-13 	101324.9999999964
-0.6719219219219222 	299.9999999999816 	1.875967301234209e-13 	101324.9999999966
-0.6694194194194195 	299.9999999999983 	7.401995248061588e-13 	101324.9999999967
-0.6669169169169172 	300.0000000000081 	6.748252236506811e-13 	101324.9999999967
-0.6644144144144146 	299.9999999999837 	5.717282039579958e-13 	101324.9999999968
-0.661911911911912 	299.9999999999849 	4.602152243976805e-13 	101324.9999999967
-0.6594094094094097 	299.9999999999884 	1.138822917416959e-12 	101324.9999999968
-0.656906906906907 	299.9999999999711 	1.047375502568746e-12 	101324.9999999968
-0.6544044044044046 	299.999999999975 	1.83169526063469e-12 	101324.9999999968
-0.6519019019019021 	299.9999999999961 	7.388939787267228e-13 	101324.9999999968
-0.6493993993993996 	300.0000000000092 	2.011630955971341e-12 	101324.9999999966
-0.6468968968968971 	300.0000000000116 	1.35199786145615e-12 	101324.9999999966
-0.6443943943943946 	299.9999999999951 	1.927401606737866e-12 	101324.9999999964
-0.6418918918918921 	299.9999999999985 	1.453939841340208e-12 	101324.9999999962
-0.6393893893893897 	299.9999999999987 	6.512971752807054e-13 	101324.9999999963
-0.6368868868868871 	299.9999999999873 	7.991721660158868e-13 	101324.9999999966
-0.6343843843843846 	299.9999999999981 	7.834369930706604e-13 	101324.9999999967
-0.6318818818818821 	299.9999999999781 	7.429347725125377e-13 	101324.9999999966
-0.6293793793793795 	300.0000000000015 	9.021502514760945e-13 	101324.9999999965
-0.6268768768768773 	300.0000000000095 	9.718050954046222e-13 	101324.9999999967
-0.6243743743743745 	299.9999999999918 	4.577461873747346e-13 	101324.9999999967
-0.6218718718718721 	300.0000000000036 	1.161765885064433e-12 	101324.9999999966
-0.6193693693693696 	299.9999999999688 	6.318576623444641e-13 	101324.9999999967
-0.6168668668668671 	299.9999999999908 	1.660161666637852e-12 	101324.9999999967
-0.6143643643643645 	300.0000000000061 	9.883455500620811e-13 	101324.9999999968
-0.6118618618618621 	299.9999999999926 	1.497906236655839e-12 	101324.9999999969
-0.6093593593593596 	299.9999999999927 	1.236733510046641e-12 	101324.9999999968
-0.6068568568568571 	299.9999999999941 	1.210646563020833e-12 	101324.9999999969
-0.6043543543543546 	299.9999999999814 	1.368090125946289e-12 	101324.9999999969
-0.6018518518518521 	299.9999999999831 	2.137927238136762e-12 	101324.9999999967
-0.5993493493493496 	299.9999999999744 	1.883346459973006e-12 	101324.9999999967
-0.5968468468468471 	299.9999999999784 	2.550374908559538e-12 	101324.9999999966
-0.5943443443443446 	299.999999999995 	1.672854849808708e-12 	101324.9999999964
-0.591841841841842 	299.9999999999791 	2.176007535002699e-12 	101324.9999999965
-0.5893393393393397 	299.9999999999781 	1.040452800765835e-12 	101324.9999999965
-0.5868368368368371 	299.9999999999957 	2.428309881700411e-12 	101324.9999999967
-0.5843343343343346 	300.0000000000017 	1.240164048606781e-12 	101324.9999999968
-0.5818318318318321 	300.0000000000115 	2.743668373551319e-12 	101324.9999999967
-0.5793293293293297 	299.9999999999932 	1.091447871533408e-12 	101324.9999999967
-0.5768268268268271 	300.0000000000044 	2.010985769489724e-12 	101324.9999999967
-0.5743243243243245 	300.0000000000104 	1.074443585210116e-12 	101324.9999999966
-0.5718218218218221 	300.0000000000098 	9.306559007507511e-13 	101324.9999999966
-0.5693193193193196 	300.0000000000185 	1.195357679937265e-12 	101324.9999999967
-0.5668168168168171 	299.9999999999937 	5.072304521863807e-13 	101324.9999999966
-0.5643143143143147 	299.9999999999756 	1.253549029491165e-12 	101324.9999999966
-0.5618118118118121 	300.0000000000075 	4.716324701828932e-13 	101324.9999999967
-0.5593093093093094 	300.0000000000175 	1.548937052248905e-12 	101324.9999999968
-0.5568068068068072 	300.0000000000074 	1.01909199333986e-12 	101324.9999999969
-0.5543043043043046 	300.0000000000116 	1.184483428704282e-12 	101324.9999999968
-0.551801801801802 	299.9999999999803 	5.701895554476194e-13 	101324.9999999968
-0.5492992992992995 	299.9999999999981 	5.527467364186753e-13 	101324.9999999968
-0.5467967967967969 	300.0000000000049 	3.672061986553579e-13 	101324.9999999967
-0.5442942942942947 	300.0000000000014 	5.309142203803001e-13 	101324.9999999968
-0.5417917917917919 	299.9999999999792 	9.302825114672993e-13 	101324.999999997
-0.5392892892892895 	299.9999999999726 	1.739748612423266e-12 	101324.9999999971
-0.536786786786787 	299.9999999999783 	1.345461272136301e-12 	101324.9999999971
-0.5342842842842846 	299.9999999999799 	1.93537037431407e-12 	101324.9999999973
-0.531781781781782 	299.9999999999678 	1.278344464026801e-12 	101324.9999999971
-0.5292792792792794 	299.9999999999661 	3.072004330486556e-12 	101324.9999999972
-0.526776776776777 	299.9999999999598 	8.367846767116188e-13 	101324.9999999974
-0.5242742742742745 	299.9999999999873 	3.55389612815306e-12 	101324.9999999974
-0.521771771771772 	300.0000000000061 	2.239053368197001e-12 	101324.9999999976
-0.5192692692692695 	299.9999999999808 	4.190019660782722e-12 	101324.9999999977
-0.516766766766767 	300.0000000000003 	2.327543593668823e-12 	101324.999999998
-0.5142642642642645 	299.9999999999907 	3.44679463318016e-12 	101324.9999999979
-0.511761761761762 	299.9999999999792 	2.011262740794868e-12 	101324.9999999976
-0.5092592592592596 	299.9999999999883 	2.679080345299956e-12 	101324.9999999974
-0.506756756756757 	299.9999999999746 	8.082124834908855e-13 	101324.9999999973
-0.5042542542542544 	299.9999999999966 	2.222336159614671e-12 	101324.9999999973
-0.5017517517517521 	300.0000000000128 	5.510638403715222e-13 	101324.999999997
-0.4992492492492494 	300.0000000000155 	1.291055857994726e-12 	101324.9999999969
-0.496746746746747 	299.9999999999962 	4.119827662452408e-13 	101324.9999999969
-0.4942442442442445 	299.9999999999719 	8.42754630721435e-13 	101324.9999999971
-0.4917417417417421 	299.9999999999728 	3.13543034878275e-13 	101324.9999999971
-0.4892392392392395 	299.9999999999787 	9.440008625376667e-13 	101324.9999999969
-0.486736736736737 	299.9999999999789 	3.680342708369596e-13 	101324.9999999969
-0.4842342342342345 	299.9999999999633 	7.218585869521755e-13 	101324.9999999969
-0.481731731731732 	300.0000000000151 	1.05323895796605e-12 	101324.9999999969
-0.4792292292292296 	300.00000000001 	1.246169201212283e-12 	101324.9999999969
-0.4767267267267268 	299.9999999999816 	1.428961714455635e-12 	101324.9999999969
-0.4742242242242246 	299.9999999999983 	2.30970765985221e-12 	101324.9999999971
-0.471721721721722 	299.999999999981 	1.154843607700128e-12 	101324.9999999972
-0.4692192192192195 	299.9999999999902 	2.337758618988599e-12 	101324.9999999974
-0.4667167167167169 	299.9999999999614 	1.0342281689294e-12 	101324.9999999975
-0.4642142142142145 	299.9999999999998 	2.063010575515279e-12 	101324.9999999975
-0.461711711711712 	300.000000000011 	6.989640553727848e-13 	101324.9999999974
-0.4592092092092094 	300.000000000006 	1.303057326035177e-12 	101324.9999999974
-0.456706706706707 	300.0000000000261 	5.960671672149366e-13 	101324.9999999972
-0.4542042042042045 	299.9999999999736 	5.568754796558481e-13 	101324.999999997
-0.451701701701702 	299.9999999999789 	6.063542268902119e-13 	101324.999999997
-0.4491991991991995 	299.9999999999835 	6.856215587145496e-13 	101324.9999999972
-0.4466966966966969 	299.9999999999819 	2.288733282287233e-13 	101324.9999999973
-0.4441941941941945 	299.9999999999962 	1.110202527822494e-12 	101324.9999999972
-0.441691691691692 	299.9999999999825 	6.639038402857538e-13 	101324.9999999971
-0.4391891891891895 	299.9999999999943 	1.970715093476561e-12 	101324.999999997
-0.436686686686687 	299.9999999999866 	1.38002828869744e-12 	101324.9999999971
-0.4341841841841846 	300.0000000000026 	2.763570387761604e-12 	101324.999999997
-0.431681681681682 	299.9999999999796 	1.120461594478308e-12 	101324.9999999969
-0.4291791791791794 	299.9999999999633 	2.486383975784966e-12 	101324.9999999969
-0.426676676676677 	299.9999999999637 	1.177747714935603e-12 	101324.9999999969
-0.4241741741741744 	299.999999999987 	2.220234056892307e-12 	101324.9999999972
-0.421671671671672 	300.000000000002 	1.081371531747079e-12 	101324.9999999972
-0.4191691691691694 	300.0000000000226 	9.615100677832184e-13 	101324.9999999973
-0.4166666666666669 	300.000000000026 	2.266189502461592e-13 	101324.9999999976
-0.4141641641641645 	299.9999999999732 	1.06930579505589e-13 	101324.9999999975
-0.411661661661662 	300.0000000000046 	3.210896190798938e-13 	101324.9999999974
-0.4091591591591594 	300.0000000000052 	4.723790568361718e-13 	101324.9999999975
-0.406656656656657 	299.9999999999764 	6.254629068701291e-13 	101324.9999999974
-0.4041541541541545 	300.0000000000089 	2.515842178558512e-13 	101324.9999999972
-0.401651651651652 	299.9999999999669 	1.113358212069781e-12 	101324.9999999974
-0.3991491491491494 	299.999999999999 	1.439768460784945e-12 	101324.9999999972
-0.396646646646647 	299.9999999999799 	2.22871040074251e-12 	101324.9999999972
-0.3941441441441444 	299.9999999999899 	2.289273305624273e-12 	101324.9999999971
-0.3916416416416419 	299.9999999999692 	1.898557919578771e-12 	101324.9999999971
-0.3891391391391395 	299.9999999999833 	1.646518054565548e-12 	101324.9999999972
-0.3866366366366368 	299.9999999999839 	8.92353170861692e-13 	101324.9999999974
-0.3841341341341344 	300.0000000000007 	9.371954024833806e-13 	101324.9999999974
-0.381631631631632 	299.9999999999821 	5.832791479721948e-13 	101324.9999999974
-0.3791291291291294 	300.0000000000024 	3.207662978573523e-13 	101324.9999999972
-0.3766266266266269 	300.000000000009 	4.844924111406268e-13 	101324.9999999971
-0.3741241241241244 	300.0000000000108 	5.835325880533393e-13 	101324.999999997
-0.371621621621622 	300.0000000000099 	9.213772939789379e-13 	101324.9999999968
-0.3691191191191194 	300.000000000003 	1.919525230501562e-12 	101324.9999999967
-0.366616616616617 	300.0000000000047 	1.520959289080284e-12 	101324.9999999967
-0.3641141141141143 	299.9999999999928 	1.79031444356551e-12 	101324.9999999966
-0.3616116116116119 	299.9999999999735 	1.020829336875036e-12 	101324.9999999967
-0.3591091091091095 	299.9999999999909 	9.550940598888116e-13 	101324.9999999966
-0.356606606606607 	299.9999999999957 	5.706901424417792e-13 	101324.9999999965
-0.3541041041041044 	299.9999999999951 	1.067047319676087e-13 	101324.9999999964
-0.3516016016016019 	300.000000000007 	4.244383411812168e-13 	101324.9999999964
-0.3490990990990994 	299.999999999996 	4.817298708959239e-13 	101324.9999999963
-0.346596596596597 	300.0000000000134 	1.46251855825984e-12 	101324.9999999964
-0.3440940940940944 	300.0000000000162 	6.59795094255118e-13 	101324.9999999962
-0.3415915915915919 	300.0000000000151 	1.214215099658879e-12 	101324.9999999963
-0.3390890890890895 	299.9999999999921 	7.006157443757384e-13 	101324.9999999964
-0.3365865865865869 	300.0000000000068 	6.453303103154909e-13 	101324.9999999965
-0.3340840840840844 	299.9999999999961 	3.293088444748512e-13 	101324.9999999964
-0.3315815815815819 	300.0000000000115 	1.073962482530424e-12 	101324.9999999963
-0.3290790790790794 	300.0000000000141 	7.818867475941496e-13 	101324.9999999965
-0.3265765765765769 	299.9999999999717 	7.008429253553821e-13 	101324.9999999964
-0.3240740740740744 	300.000000000003 	6.351740677709717e-13 	101324.9999999966
-0.3215715715715718 	300.0000000000085 	1.500898239662722e-12 	101324.9999999969
-0.3190690690690695 	299.9999999999716 	8.686544653589052e-13 	101324.9999999969
-0.3165665665665668 	299.9999999999943 	1.263060783179981e-12 	101324.999999997
-0.3140640640640644 	299.9999999999962 	2.272499965496892e-13 	101324.9999999971
-0.311561561561562 	299.9999999999688 	2.193764557738811e-12 	101324.9999999971
-0.3090590590590593 	299.9999999999968 	7.420408252832476e-13 	101324.9999999971
-0.3065565565565568 	300.0000000000008 	3.640787846875827e-12 	101324.9999999972
-0.3040540540540545 	299.9999999999978 	1.275897636401378e-12 	101324.9999999969
-0.3015515515515518 	300.0000000000056 	2.739706130143972e-12 	101324.9999999968
-0.2990490490490494 	299.9999999999709 	5.947111032366996e-13 	101324.9999999968
-0.2965465465465469 	299.9999999999997 	1.407211382587679e-12 	101324.9999999966
-0.2940440440440444 	299.9999999999938 	1.319450246775723e-12 	101324.9999999963
-0.2915415415415418 	300.0000000000044 	2.085884319264771e-12 	101324.9999999961
-0.2890390390390395 	300.0000000000064 	3.045874953815437e-12 	101324.9999999961
-0.2865365365365368 	299.9999999999847 	2.208232396886104e-12 	101324.999999996
-0.2840340340340343 	299.9999999999967 	3.59987302044579e-12 	101324.9999999959
-0.2815315315315318 	299.9999999999633 	1.873208437582595e-12 	101324.9999999961
-0.2790290290290295 	299.9999999999878 	3.112402448690431e-12 	101324.9999999962
-0.2765265265265269 	300.0000000000074 	2.273898847436424e-12 	101324.9999999962
-0.2740240240240244 	300.0000000000097 	2.416705069468687e-12 	101324.999999996
-0.2715215215215219 	300.0000000000072 	3.230547811799639e-12 	101324.999999996
-0.2690190190190194 	299.9999999999749 	2.824838142144581e-12 	101324.9999999963
-0.2665165165165169 	299.9999999999958 	3.408170311200216e-12 	101324.9999999961
-0.2640140140140144 	299.99999999999 	2.789534001918317e-12 	101324.999999996
-0.2615115115115119 	299.9999999999959 	4.456699465712987e-12 	101324.999999996
-0.2590090090090094 	299.9999999999659 	2.8248174547691e-12 	101324.9999999959
-0.2565065065065068 	299.9999999999939 	3.773968409732452e-12 	101324.999999996
-0.2540040040040044 	299.9999999999945 	3.236717357844106e-12 	101324.9999999962
-0.2515015015015019 	300.0000000000097 	2.870224713452972e-12 	101324.999999996
-0.2489989989989994 	300.0000000000185 	3.832725909683583e-12 	101324.9999999959
-0.2464964964964968 	299.9999999999907 	2.995096161895095e-12 	101324.9999999959
-0.2439939939939944 	299.999999999994 	5.086751481882524e-12 	101324.9999999959
-0.2414914914914919 	299.9999999999839 	2.830732007561249e-12 	101324.9999999955
-0.2389889889889893 	299.9999999999957 	5.055769667530018e-12 	101324.9999999956
-0.2364864864864869 	300.0000000000096 	2.820876825390488e-12 	101324.9999999956
-0.2339839839839843 	299.9999999999736 	4.913446737029679e-12 	101324.9999999957
-0.2314814814814819 	299.999999999986 	2.318474235180824e-12 	101324.9999999959
-0.2289789789789792 	299.9999999999653 	4.584353708819445e-12 	101324.9999999961
-0.2264764764764769 	299.9999999999732 	3.508150520149736e-12 	101324.9999999963
-0.2239739739739743 	299.9999999999858 	4.802650597238707e-12 	101324.9999999964
-0.2214714714714718 	299.9999999999728 	4.41755711103898e-12 	101324.9999999964
-0.2189689689689693 	299.9999999999839 	3.79251632254042e-12 	101324.9999999962
-0.2164664664664669 	299.9999999999879 	4.872366029323223e-12 	101324.999999996
-0.2139639639639643 	299.9999999999684 	3.041198367778342e-12 	101324.9999999962
-0.2114614614614618 	299.9999999999868 	3.698731620674031e-12 	101324.9999999961
-0.2089589589589593 	300.0000000000026 	3.08429837759679e-12 	101324.9999999961
-0.2064564564564568 	300.0000000000022 	3.020827551587783e-12 	101324.9999999962
-0.2039539539539543 	299.9999999999628 	3.385420361726072e-12 	101324.9999999961
-0.2014514514514518 	299.9999999999694 	1.417562515488917e-12 	101324.999999996
-0.1989489489489494 	299.9999999999942 	3.63593241816648e-12 	101324.999999996
-0.1964464464464468 	300.0000000000034 	1.087234541951915e-12 	101324.9999999959
-0.1939439439439443 	299.9999999999979 	3.172446968194175e-12 	101324.9999999959
-0.1914414414414418 	299.9999999999708 	1.752084855032678e-12 	101324.9999999956
-0.1889389389389393 	299.9999999999941 	2.502173675683303e-12 	101324.9999999956
-0.1864364364364368 	300.0000000000094 	2.273240841929443e-12 	101324.9999999958
-0.1839339339339343 	299.9999999999891 	2.646391756354083e-12 	101324.9999999958
-0.1814314314314318 	299.9999999999951 	2.733539269520588e-12 	101324.9999999958
-0.1789289289289293 	299.999999999958 	2.640954763416497e-12 	101324.999999996
-0.1764264264264268 	299.9999999999856 	2.280961103886196e-12 	101324.9999999959
-0.1739239239239243 	299.9999999999567 	3.479469162185769e-12 	101324.9999999958
-0.1714214214214218 	299.9999999999958 	2.385855559756805e-12 	101324.9999999957
-0.1689189189189193 	299.9999999999767 	3.821765318111118e-12 	101324.9999999956
-0.1664164164164168 	299.9999999999995 	1.73814652004382e-12 	101324.9999999958
-0.1639139139139143 	299.9999999999941 	5.11644441151529e-12 	101324.9999999957
-0.1614114114114118 	300.0000000000075 	2.001369749826523e-12 	101324.9999999957
-0.1589089089089093 	299.9999999999999 	7.620414917919274e-12 	101324.9999999957
-0.1564064064064068 	299.999999999991 	1.240014544988621e-12 	101324.9999999957
-0.1539039039039043 	300.0000000000003 	8.088773469237374e-12 	101324.9999999957
-0.1514014014014018 	300.0000000000098 	2.441100185735242e-12 	101324.9999999958
-0.1488988988988993 	300.0000000000056 	7.759621167972502e-12 	101324.9999999956
-0.1463963963963968 	300.0000000000029 	3.046158497563504e-12 	101324.9999999955
-0.1438938938938943 	299.9999999999839 	6.936961946799686e-12 	101324.9999999956
-0.1413913913913918 	299.9999999999654 	4.000652078378223e-12 	101324.9999999958
-0.1388888888888893 	299.9999999999872 	5.480293525639834e-12 	101324.9999999956
-0.1363863863863868 	299.9999999999521 	3.977661232891832e-12 	101324.9999999954
-0.1338838838838843 	299.9999999999735 	3.883760663618149e-12 	101324.9999999956
-0.1313813813813818 	299.9999999999946 	3.238167766042534e-12 	101324.9999999955
-0.1288788788788793 	299.9999999999844 	3.712778026842245e-12 	101324.9999999956
-0.1263763763763768 	299.9999999999886 	3.379498306542949e-12 	101324.9999999956
-0.1238738738738743 	299.9999999999747 	4.369437613504344e-12 	101324.9999999957
-0.1213713713713717 	299.9999999999963 	3.125560765253776e-12 	101324.9999999954
-0.1188688688688693 	300.0000000000051 	5.341956624877012e-12 	101324.9999999953
-0.1163663663663668 	299.9999999999575 	2.833531412957858e-12 	101324.9999999954
-0.1138638638638643 	299.9999999999961 	4.736146603568196e-12 	101324.9999999959
-0.1113613613613618 	299.9999999999945 	1.966943951593843e-12 	101324.999999996
-0.1088588588588592 	299.999999999992 	5.959157930725257e-12 	101324.9999999959
-0.1063563563563568 	299.9999999999833 	2.621228661322924e-12 	101324.9999999959
-0.1038538538538543 	299.9999999999935 	5.223241290730174e-12 	101324.9999999959
-0.1013513513513517 	300.0000000000047 	3.367855335245474e-12 	101324.9999999958
-0.09884884884884926 	299.9999999999758 	4.718927523362131e-12 	101324.9999999957
-0.09634634634634676 	299.9999999999629 	3.84251906085597e-12 	101324.9999999957
-0.09384384384384425 	299.9999999999662 	4.107310681628779e-12 	101324.9999999959
-0.09134134134134177 	300.0000000000054 	3.839256019736867e-12 	101324.9999999959
-0.08883883883883925 	300.0000000000028 	4.677858323660565e-12 	101324.9999999955
-0.08633633633633674 	299.9999999999799 	4.284576262442051e-12 	101324.9999999957
-0.08383383383383426 	300.0000000000012 	3.641970649361099e-12 	101324.9999999957
-0.08133133133133173 	299.9999999999829 	3.570042200193125e-12 	101324.9999999959
-0.07882882882882926 	299.9999999999545 	2.647919595351762e-12 	101324.9999999959
-0.07632632632632676 	299.9999999999855 	2.671991459901905e-12 	101324.999999996
-0.07382382382382424 	299.9999999999533 	2.528628886483916e-12 	101324.999999996
-0.07132132132132173 	300.0000000000044 	2.327386457492558e-12 	101324.9999999958
-0.06881881881881925 	299.9999999999821 	2.483469856225154e-12 	101324.9999999955
-0.06631631631631671 	299.9999999999533 	2.116252879296231e-12 	101324.9999999955
-0.06381381381381425 	299.9999999999809 	1.823707822389572e-12 	101324.9999999953
-0.06131131131131173 	299.9999999999816 	1.801802649425654e-12 	101324.9999999952
-0.05880880880880923 	299.9999999999644 	1.659500494117469e-12 	101324.9999999953
-0.05630630630630672 	299.9999999999861 	1.864777663583381e-12 	101324.9999999955
-0.05380380380380424 	300.000000000006 	2.284385895664492e-12 	101324.9999999956
-0.05130130130130173 	300.0000000000052 	2.695828931377958e-12 	101324.9999999955
-0.04879879879879922 	299.999999999976 	2.642645778041241e-12 	101324.9999999956
-0.04629629629629672 	299.9999999999748 	2.053426342353994e-12 	101324.9999999954
-0.04379379379379422 	299.9999999999629 	1.794390907230976e-12 	101324.9999999954
-0.04129129129129173 	299.999999999993 	1.297112407002543e-12 	101324.9999999954
-0.03878878878878922 	299.9999999999949 	1.009767471095695e-12 	101324.9999999954
-0.03628628628628671 	299.9999999999948 	5.445363688148622e-13 	101324.9999999955
-0.03378378378378422 	299.9999999999699 	6.28652597488582e-13 	101324.9999999955
-0.03128128128128172 	299.9999999999832 	1.919955869161873e-13 	101324.9999999956
-0.02877877877877922 	299.9999999999831 	9.575956244885594e-13 	101324.9999999958
-0.0262762762762767 	299.999999999956 	7.358166870996725e-13 	101324.9999999959
-0.02377377377377422 	300.0000000000097 	5.861218439175025e-13 	101324.9999999959
-0.0212712712712717 	299.9999999999596 	3.118036997780025e-13 	101324.9999999956
-0.01876876876876921 	299.9999999999874 	1.490704645765885e-13 	101324.9999999957
-0.01626626626626671 	300.0000000000014 	3.901267037062334e-13 	101324.9999999953
-0.0137637637637642 	299.9999999999825 	3.639568860825161e-13 	101324.9999999952
-0.0112612612612617 	300.0000000000072 	5.978423995414985e-13 	101324.9999999952
-0.008758758758759198 	299.9999999999949 	4.031472048310454e-13 	101324.9999999955
-0.006256256256256697 	299.9999999999511 	5.12572391622329e-13 	101324.9999999955
-0.003753753753754195 	299.9999999999798 	6.859597864385109e-14 	101324.9999999957
-0.001251251251251693 	299.999999999969 	9.452276044288216e-13 	101324.9999999958
0.00125125125125081 	299.9999999999795 	3.072246963205018e-13 	101324.9999999959
0.003753753753753312 	299.9999999999839 	4.863207027738434e-13 	101324.9999999957
0.006256256256255817 	299.999999999952 	2.692533524291904e-13 	101324.9999999955
0.008758758758758317 	299.9999999999914 	2.670607388850898e-13 	101324.9999999952
0.01126126126126082 	299.9999999999995 	2.555840265854144e-13 	101324.9999999951
0.01376376376376332 	299.9999999999857 	1.376929181007933e-13 	101324.9999999948
0.01626626626626582 	300.0000000000027 	1.327092557724171e-13 	101324.999999995
0.01876876876876833 	299.9999999999775 	2.500262014410159e-13 	101324.999999995
0.02127127127127083 	299.9999999999866 	4.099678951120927e-13 	101324.9999999952
0.02377377377377332 	299.9999999999967 	5.437960028836901e-13 	101324.9999999952
0.02627627627627583 	299.9999999999581 	1.423088736673182e-13 	101324.9999999952
0.02877877877877833 	300.0000000000005 	4.529486728311346e-13 	101324.9999999952
0.03128128128128083 	299.9999999999771 	1.646973499825364e-13 	101324.9999999953
0.03378378378378333 	299.9999999999548 	6.843062222353239e-13 	101324.9999999952
0.03628628628628584 	299.999999999989 	9.222277025738683e-13 	101324.9999999951
0.03878878878878834 	299.9999999999926 	1.680753851805539e-12 	101324.9999999951
0.04129129129129084 	299.999999999992 	2.129080298557862e-12 	101324.999999995
0.04379379379379333 	299.9999999999749 	2.345434510109359e-12 	101324.9999999947
0.04629629629629585 	299.9999999999502 	2.831577085357639e-12 	101324.9999999948
0.04879879879879834 	299.9999999999798 	3.392791238796266e-12 	101324.9999999948
0.05130130130130085 	300.0000000000024 	3.067638041789447e-12 	101324.9999999949
0.05380380380380335 	300.0000000000107 	2.437340156666187e-12 	101324.999999995
0.05630630630630584 	299.9999999999949 	2.102077747683356e-12 	101324.9999999953
0.05880880880880836 	299.9999999999667 	2.144002538566605e-12 	101324.9999999956
0.06131131131131085 	299.9999999999889 	2.30734549778409e-12 	101324.9999999955
0.06381381381381336 	299.9999999999787 	2.257860964091761e-12 	101324.9999999957
0.06631631631631586 	299.9999999999516 	1.556068501642373e-12 	101324.9999999957
0.06881881881881835 	299.9999999999795 	2.340147209486096e-12 	101324.9999999958
0.07132132132132088 	300 	2.210397672927617e-12 	101324.9999999958
0.07382382382382337 	299.9999999999559 	2.553410713241309e-12 	101324.9999999961
0.07632632632632587 	299.999999999987 	2.915488724261414e-12 	101324.999999996
0.07882882882882837 	299.9999999999678 	3.346670107018617e-12 	101324.9999999958
0.08133133133133086 	299.9999999999974 	3.662427155559834e-12 	101324.9999999959
0.08383383383383337 	299.999999999998 	2.621058239605236e-12 	101324.9999999957
0.08633633633633589 	299.9999999999559 	2.668722534957594e-12 	101324.9999999954
0.08883883883883838 	300.0000000000065 	3.547440380303317e-12 	101324.9999999954
0.09134134134134086 	299.9999999999946 	3.402835605047395e-12 	101324.9999999953
0.09384384384384339 	299.9999999999571 	4.118431491671704e-12 	101324.9999999955
0.09634634634634588 	299.9999999999836 	4.112879450202786e-12 	101324.9999999957
0.09884884884884838 	299.9999999999877 	4.128835158196609e-12 	101324.9999999956
0.1013513513513509 	300.0000000000112 	4.197687638677433e-12 	101324.9999999956
0.1038538538538534 	299.9999999999775 	4.061670354166638e-12 	101324.999999996
0.1063563563563559 	300.0000000000029 	4.286593980052172e-12 	101324.9999999961
0.1088588588588584 	300.0000000000076 	3.717582849266217e-12 	101324.999999996
0.1113613613613609 	299.9999999999795 	3.622142135793593e-12 	101324.9999999961
0.1138638638638634 	299.99999999998 	3.694007782545857e-12 	101324.9999999958
0.1163663663663659 	299.9999999999758 	4.558899731097271e-12 	101324.9999999958
0.1188688688688684 	299.9999999999872 	4.737154254869166e-12 	101324.9999999958
0.1213713713713709 	299.9999999999972 	4.250041486602511e-12 	101324.9999999958
0.1238738738738734 	299.9999999999663 	3.960969038444987e-12 	101324.9999999956
0.1263763763763759 	299.999999999998 	3.988448137372777e-12 	101324.9999999955
0.1288788788788784 	299.9999999999974 	3.872461454662414e-12 	101324.9999999956
0.1313813813813809 	299.9999999999941 	3.710936952809326e-12 	101324.9999999959
0.1338838838838834 	299.9999999999843 	4.052467370359814e-12 	101324.9999999957
0.1363863863863859 	300.0000000000076 	4.22433228281518e-12 	101324.9999999956
0.1388888888888884 	300.0000000000159 	4.017367142984712e-12 	101324.9999999955
0.1413913913913909 	299.9999999999981 	4.116929917059657e-12 	101324.9999999956
0.1438938938938934 	299.999999999992 	3.761124667412461e-12 	101324.999999996
0.1463963963963959 	299.9999999999819 	3.723684090721022e-12 	101324.999999996
0.1488988988988985 	299.9999999999604 	4.626221874001797e-12 	101324.9999999958
0.1514014014014009 	299.9999999999885 	4.796577003569915e-12 	101324.9999999959
0.1539039039039035 	299.9999999999808 	5.520491614605126e-12 	101324.999999996
0.1564064064064059 	299.9999999999754 	3.548451220262826e-12 	101324.9999999961
0.1589089089089084 	299.9999999999897 	5.618585099110265e-12 	101324.9999999959
0.1614114114114109 	299.9999999999877 	3.039484553686457e-12 	101324.9999999957
0.1639139139139134 	299.9999999999641 	3.945912565851421e-12 	101324.9999999956
0.166416416416416 	299.9999999999966 	3.405934610184611e-12 	101324.9999999955
0.1689189189189185 	300.0000000000132 	3.094570966343318e-12 	101324.9999999957
0.1714214214214209 	299.9999999999964 	3.508708171598066e-12 	101324.9999999958
0.1739239239239235 	299.999999999994 	2.815367189184653e-12 	101324.9999999959
0.1764264264264259 	299.9999999999843 	4.549584314704947e-12 	101324.999999996
0.1789289289289284 	300.0000000000031 	3.034784665875855e-12 	101324.999999996
0.181431431431431 	299.9999999999877 	5.489963796378118e-12 	101324.999999996
0.1839339339339334 	299.9999999999905 	3.889243620962557e-12 	101324.999999996
0.186436436436436 	299.9999999999727 	5.519133652158247e-12 	101324.9999999962
0.1889389389389385 	299.999999999992 	5.024017036780849e-12 	101324.9999999963
0.191441441441441 	299.9999999999901 	5.258982599741419e-12 	101324.9999999964
0.1939439439439434 	299.9999999999648 	5.886597759845866e-12 	101324.9999999966
0.196446446446446 	299.9999999999793 	4.563872412529507e-12 	101324.9999999964
0.1989489489489485 	299.9999999999843 	6.134851890093907e-12 	101324.9999999966
0.2014514514514509 	299.9999999999918 	4.53727208908143e-12 	101324.9999999965
0.2039539539539535 	299.9999999999947 	5.493531849855102e-12 	101324.9999999968
0.2064564564564559 	299.99999999998 	4.954127328917131e-12 	101324.9999999967
0.2089589589589585 	299.9999999999935 	5.215614876927615e-12 	101324.9999999968
0.211461461461461 	299.9999999999768 	5.456033689093043e-12 	101324.9999999967
0.2139639639639635 	299.9999999999945 	5.316614222866831e-12 	101324.9999999968
0.2164664664664659 	300.000000000003 	5.505488046164144e-12 	101324.9999999967
0.2189689689689684 	300.0000000000026 	4.033783092422313e-12 	101324.9999999965
0.221471471471471 	299.9999999999995 	5.225800915447471e-12 	101324.9999999963
0.2239739739739735 	299.9999999999782 	3.228158881467366e-12 	101324.9999999963
0.226476476476476 	299.9999999999932 	4.207807109397989e-12 	101324.9999999961
0.2289789789789785 	300.0000000000009 	3.628674884928975e-12 	101324.9999999961
0.231481481481481 	299.999999999994 	3.671112951139682e-12 	101324.9999999962
0.2339839839839835 	299.9999999999927 	4.125648927281376e-12 	101324.9999999963
0.236486486486486 	300.0000000000122 	3.734521904557727e-12 	101324.9999999965
0.2389889889889885 	299.9999999999997 	4.589596059816384e-12 	101324.9999999968
0.241491491491491 	299.9999999999658 	2.818173591625347e-12 	101324.9999999967
0.2439939939939935 	299.9999999999924 	5.156607190198433e-12 	101324.9999999967
0.246496496496496 	299.9999999999941 	2.937512045825377e-12 	101324.9999999964
0.2489989989989985 	300.0000000000111 	3.446877002724948e-12 	101324.9999999963
0.251501501501501 	300.0000000000098 	2.188900000467059e-12 	101324.9999999961
0.2540040040040035 	299.9999999999975 	1.927244788313119e-12 	101324.9999999962
0.256506506506506 	300.0000000000101 	2.162203094876957e-12 	101324.9999999962
0.2590090090090086 	299.9999999999669 	1.110645341376816e-12 	101324.9999999963
0.261511511511511 	300.0000000000025 	3.230714830750577e-12 	101324.9999999963
0.2640140140140135 	299.999999999993 	1.246233764069191e-12 	101324.9999999961
0.2665165165165161 	299.9999999999718 	2.548898647239202e-12 	101324.9999999961
0.2690190190190185 	300.0000000000077 	1.589874768409084e-12 	101324.9999999961
0.271521521521521 	300.0000000000051 	1.605172574446683e-12 	101324.9999999962
0.2740240240240235 	300.000000000006 	1.777613279301866e-12 	101324.9999999962
0.276526526526526 	300.0000000000007 	1.584719061375717e-12 	101324.9999999963
0.2790290290290286 	299.9999999999765 	2.212362881927872e-12 	101324.9999999963
0.281531531531531 	299.9999999999675 	8.660446013578821e-13 	101324.9999999962
0.2840340340340335 	299.9999999999953 	2.792492174432113e-12 	101324.9999999962
0.2865365365365361 	299.9999999999825 	1.339536241563053e-12 	101324.999999996
0.2890390390390385 	299.999999999996 	2.387297508911183e-12 	101324.9999999959
0.291541541541541 	299.9999999999954 	2.076616037506559e-12 	101324.999999996
0.2940440440440436 	299.9999999999955 	1.501246283942141e-12 	101324.9999999962
0.296546546546546 	299.9999999999936 	1.791081984293502e-12 	101324.9999999961
0.2990490490490486 	299.9999999999723 	7.2513716687244e-13 	101324.9999999963
0.3015515515515511 	300.0000000000109 	3.070145820171624e-12 	101324.9999999964
0.3040540540540535 	299.999999999993 	1.19794157133253e-12 	101324.9999999964
0.3065565565565562 	299.9999999999961 	3.4252218939091e-12 	101324.9999999963
0.3090590590590585 	299.9999999999928 	9.062377384300394e-13 	101324.9999999961
0.3115615615615611 	299.9999999999734 	1.855275920449819e-12 	101324.9999999961
0.3140640640640635 	299.9999999999994 	3.108985147690182e-13 	101324.999999996
0.316566566566566 	299.9999999999936 	1.274683544978859e-12 	101324.9999999959
0.3190690690690687 	299.9999999999797 	5.434245209522621e-13 	101324.999999996
0.3215715715715711 	300.0000000000017 	1.123941686666771e-12 	101324.9999999961
0.3240740740740735 	299.9999999999947 	7.570816562775012e-13 	101324.9999999963
0.326576576576576 	299.999999999954 	2.935643680217793e-13 	101324.9999999966
0.3290790790790786 	300.000000000001 	2.492729055739038e-13 	101324.9999999966
0.3315815815815811 	300.0000000000185 	2.535844222397453e-13 	101324.9999999966
0.3340840840840836 	299.9999999999976 	1.295075966370358e-13 	101324.9999999966
0.3365865865865861 	300.0000000000251 	5.366434324617663e-13 	101324.9999999966
0.3390890890890886 	300.0000000000198 	6.464804964683331e-13 	101324.9999999966
0.3415915915915911 	299.9999999999993 	7.958952413715169e-13 	101324.9999999965
0.3440940940940935 	299.9999999999811 	5.03420676647947e-13 	101324.9999999966
0.3465965965965962 	300.0000000000173 	1.805467283908704e-12 	101324.9999999967
0.3490990990990985 	300.0000000000121 	2.830894348845397e-13 	101324.9999999969
0.3516016016016011 	299.9999999999926 	1.005941883029212e-12 	101324.9999999971
0.3541041041041035 	300.000000000003 	3.207354380224071e-13 	101324.9999999971
0.3566066066066061 	299.9999999999861 	1.75271536329694e-13 	101324.9999999968
0.3591091091091085 	299.9999999999665 	1.092433356879814e-12 	101324.9999999968
0.3616116116116112 	299.9999999999786 	8.580422772798928e-13 	101324.9999999968
0.3641141141141137 	299.9999999999742 	1.709316527113017e-12 	101324.9999999969
0.3666166166166161 	299.9999999999649 	1.110691607686754e-12 	101324.9999999969
0.3691191191191185 	300.0000000000123 	2.491008591461714e-12 	101324.999999997
0.371621621621621 	300.0000000000078 	1.103336406052127e-12 	101324.9999999969
0.3741241241241237 	300.0000000000189 	1.376056436800046e-12 	101324.9999999969
0.3766266266266261 	300.0000000000089 	7.229930934762571e-13 	101324.9999999971
0.3791291291291286 	299.9999999999948 	5.721510040368493e-13 	101324.999999997
0.3816316316316311 	299.9999999999653 	1.652071771629156e-12 	101324.9999999969
0.3841341341341336 	300.000000000003 	1.221224586862392e-12 	101324.9999999967
0.3866366366366362 	299.9999999999973 	1.587496250851599e-12 	101324.9999999969
0.3891391391391387 	299.9999999999831 	1.047552365351332e-12 	101324.999999997
0.391641641641641 	299.9999999999974 	1.440402993202872e-12 	101324.9999999972
0.3941441441441436 	300.000000000005 	1.694142721510372e-12 	101324.999999997
0.3966466466466462 	300.0000000000007 	2.08187009064883e-12 	101324.999999997
0.3991491491491486 	299.9999999999783 	1.782318501500088e-12 	101324.9999999971
0.4016516516516512 	299.9999999999652 	1.951697492570013e-12 	101324.9999999971
0.4041541541541536 	299.9999999999843 	8.983589407549526e-13 	101324.9999999971
0.4066566566566561 	299.9999999999815 	2.235862805334542e-12 	101324.9999999972
0.4091591591591587 	299.9999999999989 	4.516918327400053e-13 	101324.9999999974
0.4116616616616612 	300.0000000000013 	1.905231357978549e-12 	101324.9999999971
0.4141641641641635 	300.000000000016 	8.984901587264216e-13 	101324.999999997
0.4166666666666662 	300.0000000000016 	1.843118476668984e-12 	101324.9999999969
0.4191691691691687 	299.9999999999754 	2.064449514010679e-12 	101324.9999999969
0.421671671671671 	300.0000000000022 	1.794030921633662e-12 	101324.9999999969
0.4241741741741737 	299.9999999999921 	3.399817151267193e-12 	101324.9999999971
0.4266766766766761 	299.9999999999795 	1.449405108113122e-12 	101324.9999999972
0.4291791791791785 	300.0000000000105 	4.515026697428112e-12 	101324.9999999972
0.4316816816816812 	300.0000000000008 	1.324058911171849e-12 	101324.9999999971
0.4341841841841836 	299.9999999999928 	5.145000742600226e-12 	101324.9999999969
0.4366866866866862 	299.9999999999695 	3.057948825209306e-12 	101324.9999999971
0.4391891891891885 	299.9999999999999 	3.832432728497251e-12 	101324.9999999972
0.4416916916916913 	299.9999999999966 	2.980310872877181e-12 	101324.9999999971
0.4441941941941936 	299.9999999999956 	3.577191888107888e-12 	101324.999999997
0.4466966966966961 	299.9999999999677 	3.043428807921409e-12 	101324.9999999972
0.4491991991991987 	299.9999999999947 	2.741534717313865e-12 	101324.9999999971
0.4517017017017012 	299.9999999999935 	3.315623609056983e-12 	101324.9999999972
0.4542042042042035 	299.999999999994 	2.640093841636763e-12 	101324.9999999972
0.4567067067067062 	299.9999999999962 	2.743859445193115e-12 	101324.9999999972
0.4592092092092087 	299.9999999999691 	2.073855131811074e-12 	101324.9999999972
0.4617117117117112 	300.0000000000076 	2.444098233510921e-12 	101324.9999999969
0.4642142142142137 	299.9999999999851 	2.560579207314769e-12 	101324.9999999967
0.4667167167167162 	299.9999999999952 	2.526329343471248e-12 	101324.9999999964
0.4692192192192187 	299.9999999999817 	2.621938873643565e-12 	101324.9999999965
0.4717217217217212 	300.0000000000064 	2.778299244977044e-12 	101324.9999999965
0.4742242242242236 	299.9999999999826 	2.978435838398428e-12 	101324.9999999965
0.4767267267267262 	299.9999999999907 	2.398504811772275e-12 	101324.9999999967
0.4792292292292287 	300.0000000000055 	2.713062102044471e-12 	101324.9999999966
0.4817317317317312 	300.0000000000111 	3.043229990367273e-12 	101324.9999999968
0.4842342342342336 	299.9999999999941 	3.219678436772993e-12 	101324.999999997
0.4867367367367362 	299.9999999999812 	3.136103654986228e-12 	101324.9999999971
0.4892392392392387 	300.0000000000116 	2.592095488475622e-12 	101324.999999997
0.4917417417417412 	300.0000000000016 	3.531427280276202e-12 	101324.9999999972
0.4942442442442437 	299.9999999999637 	2.709763962231467e-12 	101324.9999999973
0.4967467467467462 	299.9999999999711 	3.64975758337048e-12 	101324.9999999971
0.4992492492492487 	299.9999999999654 	1.791779542380444e-12 	101324.9999999971
0.5017517517517511 	299.9999999999803 	2.298681287760929e-12 	101324.9999999971
0.5042542542542537 	299.9999999999857 	1.648208770603123e-12 	101324.9999999972
0.5067567567567562 	299.9999999999772 	1.906779981339238e-12 	101324.9999999971
0.5092592592592589 	299.9999999999865 	1.751920228872472e-12 	101324.9999999971
0.5117617617617611 	299.9999999999832 	1.514100173482926e-12 	101324.9999999971
0.5142642642642637 	299.9999999999959 	2.562957484701961e-12 	101324.9999999972
0.5167667667667663 	299.9999999999898 	1.537604769685755e-12 	101324.9999999972
0.5192692692692688 	299.9999999999688 	3.395863812685837e-12 	101324.9999999971
0.5217717717717714 	299.9999999999746 	1.043232441489116e-12 	101324.999999997
0.5242742742742736 	299.999999999975 	3.169715033043097e-12 	101324.999999997
0.5267767767767763 	299.9999999999841 	1.014358152575684e-12 	101324.9999999969
0.5292792792792789 	299.9999999999746 	2.727495570322012e-12 	101324.9999999969
0.5317817817817813 	299.9999999999612 	8.262743145704854e-13 	101324.999999997
0.5342842842842837 	300.0000000000055 	1.124383460469036e-12 	101324.9999999972
0.5367867867867864 	299.9999999999999 	7.204509188175378e-13 	101324.9999999972
0.5392892892892888 	299.9999999999842 	6.169135852608539e-13 	101324.9999999972
0.5417917917917912 	300.0000000000015 	5.318804699999569e-13 	101324.9999999971
0.5442942942942938 	299.9999999999925 	9.306177599382815e-13 	101324.999999997
0.5467967967967964 	299.9999999999815 	5.247268553887337e-13 	101324.9999999967
0.5492992992992988 	299.9999999999749 	1.151395062149505e-12 	101324.9999999968
0.5518018018018012 	299.999999999976 	9.07683284743943e-13 	101324.9999999968
0.5543043043043039 	300.0000000000049 	1.034317368543668e-12 	101324.9999999967
0.5568068068068063 	299.9999999999941 	7.053977312841469e-13 	101324.9999999966
0.5593093093093087 	299.9999999999661 	1.23523473457695e-12 	101324.9999999965
0.5618118118118114 	299.9999999999837 	9.896600125648578e-13 	101324.9999999966
0.5643143143143137 	299.999999999979 	9.689604109355036e-13 	101324.9999999967
0.5668168168168163 	299.9999999999957 	4.570963664576756e-13 	101324.9999999969
0.5693193193193188 	300.0000000000144 	9.334145168648682e-13 	101324.9999999967
0.5718218218218213 	300.0000000000153 	8.790645601925746e-13 	101324.9999999967
0.5743243243243239 	300.0000000000077 	1.014454201328903e-12 	101324.9999999966
0.5768268268268262 	300.0000000000017 	2.168802582905486e-12 	101324.9999999964
0.5793293293293288 	299.9999999999782 	1.507441975913618e-12 	101324.9999999963
0.5818318318318314 	299.9999999999677 	3.674800218591257e-12 	101324.9999999964
0.5843343343343338 	299.9999999999915 	1.614080904060291e-12 	101324.9999999966
0.5868368368368363 	299.9999999999877 	3.926502122603811e-12 	101324.9999999966
0.5893393393393387 	299.9999999999766 	2.293651745478494e-12 	101324.9999999966
0.5918418418418413 	299.9999999999746 	3.393777635794469e-12 	101324.9999999964
0.5943443443443439 	300.0000000000038 	2.73332699613023e-12 	101324.9999999964
0.5968468468468463 	300.0000000000049 	3.882974925656879e-12 	101324.9999999965
0.5993493493493487 	300.000000000016 	3.615479548122977e-12 	101324.9999999965
0.6018518518518514 	299.9999999999889 	3.64000258151048e-12 	101324.9999999967
0.6043543543543537 	299.9999999999982 	3.340153372013355e-12 	101324.9999999968
0.6068568568568564 	299.9999999999917 	3.346915397180488e-12 	101324.9999999969
0.6093593593593587 	299.9999999999688 	3.298381150481125e-12 	101324.9999999967
0.6118618618618614 	299.9999999999692 	2.705284596180944e-12 	101324.9999999965
0.6143643643643638 	300.0000000000077 	2.022311941340481e-12 	101324.9999999965
0.6168668668668662 	299.9999999999964 	2.506118417516879e-12 	101324.9999999963
0.6193693693693688 	299.9999999999801 	1.6352984365972e-12 	101324.9999999962
0.6218718718718714 	299.9999999999862 	2.395771968262879e-12 	101324.9999999961
0.6243743743743737 	299.9999999999737 	8.166037379751496e-13 	101324.999999996
0.6268768768768762 	299.9999999999694 	1.625181276335491e-12 	101324.9999999957
0.629379379379379 	299.999999999979 	6.543537246828294e-13 	101324.9999999956
0.6318818818818812 	299.9999999999856 	1.473068594195245e-12 	101324.9999999956
0.6343843843843838 	300.0000000000043 	1.414707130848636e-12 	101324.9999999957
0.6368868868868864 	299.999999999992 	1.629238353627126e-12 	101324.9999999959
0.6393893893893888 	299.999999999971 	1.837091671438513e-12 	101324.9999999961
0.6418918918918912 	300.0000000000008 	1.3129373435437e-12 	101324.999999996
0.6443943943943939 	299.9999999999933 	2.898485572103602e-12 	101324.9999999961
0.6468968968968963 	299.9999999999909 	1.653679796096115e-12 	101324.999999996
0.6493993993993988 	299.999999999987 	2.246744705522318e-12 	101324.9999999959
0.6519019019019012 	299.9999999999857 	8.522887905960802e-13 	101324.999999996
0.6544044044044038 	299.9999999999595 	1.905996381125907e-12 	101324.999999996
0.6569069069069065 	299.9999999999842 	6.214680942721937e-13 	101324.999999996
0.6594094094094087 	299.9999999999814 	1.496693905207691e-12 	101324.999999996
0.6619119119119113 	299.9999999999778 	5.48172867415667e-13 	101324.9999999961
0.664414414414414 	299.9999999999973 	1.180278906223853e-12 	101324.999999996
0.6669169169169162 	300.0000000000059 	9.579880018460231e-13 	101324.9999999959
0.6694194194194188 	299.9999999999927 	1.451367229633041e-12 	101324.999999996
0.6719219219219214 	299.9999999999724 	1.055175641600155e-12 	101324.9999999962
0.674424424424424 	299.999999999994 	1.222608722035138e-12 	101324.9999999962
0.6769269269269262 	299.9999999999683 	7.839686173062246e-13 	101324.999999996
0.679429429429429 	300.0000000000024 	8.620549906393121e-13 	101324.9999999958
0.6819319319319311 	299.9999999999878 	8.228273438871892e-13 	101324.9999999957
0.6844344344344341 	299.9999999999962 	1.275017929723869e-12 	101324.9999999958
0.686936936936936 	299.999999999996 	1.998737197310819e-13 	101324.9999999959
0.6894394394394392 	299.9999999999952 	3.577342872183783e-14 	101324.9999999959
0.6919419419419413 	299.9999999999937 	1.944060165850317e-13 	101324.9999999959
0.694444444444444 	299.9999999999803 	6.588961527053521e-13 	101324.9999999959
0.6969469469469463 	299.9999999999712 	7.650434200729364e-13 	101324.9999999958
0.6994494494494489 	299.999999999966 	3.613273707972827e-13 	101324.9999999957
0.7019519519519515 	299.9999999999903 	9.902657411244685e-13 	101324.9999999956
0.7044544544544538 	299.9999999999796 	1.100418938997153e-12 	101324.9999999955
0.7069569569569564 	299.9999999999935 	1.340750857970855e-12 	101324.9999999957
0.7094594594594589 	299.999999999982 	1.102462916526146e-12 	101324.9999999959
0.7119619619619615 	299.999999999963 	9.591551415105569e-13 	101324.999999996
0.7144644644644638 	299.9999999999761 	4.70683439641229e-13 	101324.999999996
0.7169669669669665 	299.9999999999665 	5.276272639110819e-13 	101324.9999999959
0.7194694694694688 	299.9999999999978 	4.924922379607898e-13 	101324.999999996
0.7219719719719715 	299.9999999999969 	1.473432517595838e-13 	101324.999999996
0.7244744744744737 	299.9999999999993 	4.550282808118161e-13 	101324.9999999959
0.7269769769769764 	299.9999999999955 	1.056250051482838e-12 	101324.9999999958
0.7294794794794791 	299.999999999993 	1.531234330299484e-12 	101324.9999999957
0.7319819819819813 	299.999999999991 	1.031498555389288e-12 	101324.9999999957
0.7344844844844839 	299.9999999999668 	1.176295026860365e-12 	101324.9999999956
0.7369869869869864 	299.9999999999793 	2.682963120330098e-13 	101324.9999999955
0.739489489489489 	299.9999999999758 	2.59134658127334e-13 	101324.9999999955
0.7419919919919914 	299.9999999999728 	8.57013449803529e-13 	101324.9999999954
0.7444944944944939 	299.9999999999907 	1.675488493217054e-12 	101324.9999999952
0.7469969969969963 	299.9999999999885 	1.627752881943636e-12 	101324.9999999953
0.7494994994994989 	299.9999999999774 	2.436577414618439e-12 	101324.9999999954
0.7520020020020015 	299.9999999999878 	1.584974651487749e-12 	101324.9999999956
0.7545045045045039 	299.9999999999883 	2.792373906605444e-12 	101324.9999999958
0.7570070070070062 	299.9999999999771 	1.001168432408225e-12 	101324.999999996
0.7595095095095092 	299.9999999999692 	1.979767484288742e-12 	101324.999999996
0.7620120120120112 	299.9999999999977 	1.034017671972353e-12 	101324.999999996
0.7645145145145138 	299.9999999999932 	4.779759905318468e-13 	101324.999999996
0.7670170170170165 	299.9999999999748 	1.198928957610024e-12 	101324.9999999959
0.7695195195195191 	299.9999999999684 	1.631131558568984e-12 	101324.999999996
0.7720220220220213 	299.9999999999745 	1.59751963785037e-12 	101324.9999999959
0.7745245245245239 	299.9999999999755 	1.588008034535068e-12 	101324.9999999958
0.7770270270270263 	299.9999999999882 	8.966423305363677e-13 	101324.9999999957
0.779529529529529 	299.9999999999895 	4.875323785431244e-13 	101324.9999999957
0.7820320320320313 	299.9999999999854 	3.915587258130184e-13 	101324.9999999958
0.784534534534534 	299.9999999999948 	5.174962791664353e-13 	101324.9999999957
0.7870370370370364 	299.9999999999935 	8.087655200817542e-13 	101324.9999999957
0.7895395395395389 	299.999999999989 	1.338652458116353e-12 	101324.9999999957
0.7920420420420413 	299.9999999999924 	1.151803543899456e-12 	101324.9999999958
0.794544544544544 	299.9999999999997 	2.426446180677005e-12 	101324.9999999958
0.7970470470470463 	300.0000000000031 	1.522375795473715e-12 	101324.9999999959
0.799549549549549 	299.9999999999927 	2.438978453799931e-12 	101324.9999999961
0.8020520520520515 	299.9999999999968 	7.822269160742079e-13 	101324.9999999962
0.8045545545545539 	299.9999999999812 	1.373734264558839e-12 	101324.9999999961
0.8070570570570563 	299.9999999999957 	3.325026869041711e-13 	101324.999999996
0.8095595595595589 	299.9999999999836 	4.469887840962352e-13 	101324.9999999959
0.8120620620620614 	299.99999999997 	6.865623797846651e-13 	101324.9999999959
0.8145645645645638 	299.9999999999923 	8.941405570721612e-13 	101324.9999999958
0.8170670670670666 	299.9999999999898 	1.205970147367941e-12 	101324.9999999958
0.8195695695695689 	299.9999999999876 	1.881790856459044e-12 	101324.9999999959
0.8220720720720714 	299.9999999999778 	1.600516315510067e-12 	101324.9999999959
0.8245745745745739 	300.0000000000002 	6.289703532792613e-13 	101324.9999999961
0.8270770770770765 	299.9999999999898 	1.109243375210835e-12 	101324.9999999963
0.8295795795795788 	299.99999999998 	3.446175153256377e-13 	101324.9999999964
0.8320820820820815 	300.0000000000095 	4.205276567591262e-13 	101324.9999999965
0.834584584584584 	300.0000000000031 	5.516472364485105e-13 	101324.9999999966
0.8370870870870865 	299.9999999999857 	9.109870488904088e-13 	101324.9999999965
0.8395895895895891 	299.9999999999677 	3.845901341203135e-13 	101324.9999999964
0.8420920920920915 	299.9999999999709 	2.95356023638613e-13 	101324.9999999962
0.844594594594594 	299.9999999999706 	9.627535726516401e-13 	101324.9999999961
0.8470970970970964 	299.9999999999795 	1.30515888019918e-12 	101324.9999999961
0.8495995995995991 	299.999999999992 	1.554255450786395e-12 	101324.9999999962
0.8521021021021015 	299.9999999999894 	1.504303489366451e-12 	101324.9999999961
0.8546046046046039 	299.9999999999902 	7.737612442261219e-13 	101324.9999999962
0.8571071071071066 	299.9999999999959 	2.02205991346318e-12 	101324.9999999962
0.8596096096096089 	299.9999999999794 	1.868131052508787e-12 	101324.9999999963
0.8621121121121116 	299.9999999999707 	1.693822715960585e-12 	101324.9999999962
0.8646146146146139 	299.9999999999949 	6.243355664556634e-13 	101324.9999999962
0.8671171171171166 	299.9999999999887 	8.40199628151344e-13 	101324.9999999962
0.8696196196196189 	299.99999999998 	2.351840487984102e-13 	101324.9999999964
0.8721221221221216 	299.9999999999869 	8.580066327788575e-13 	101324.9999999964
0.874624624624624 	299.9999999999969 	1.078496567318661e-12 	101324.9999999963
0.8771271271271264 	300.0000000000009 	1.233590770671935e-12 	101324.9999999963
0.879629629629629 	300.0000000000008 	2.142393858740011e-12 	101324.9999999963
0.8821321321321317 	299.9999999999933 	1.475050331565646e-12 	101324.9999999964
0.8846346346346339 	299.9999999999669 	1.844785274557212e-12 	101324.9999999962
0.8871371371371364 	299.9999999999825 	6.684543891271902e-13 	101324.9999999962
0.8896396396396391 	299.9999999999805 	1.26108268349459e-12 	101324.9999999961
0.8921421421421414 	299.9999999999798 	8.384722664879642e-13 	101324.9999999959
0.8946446446446441 	299.9999999999922 	1.229900348268081e-12 	101324.9999999958
0.8971471471471464 	299.9999999999976 	1.182690049998921e-12 	101324.9999999958
0.8996496496496489 	299.9999999999839 	8.259805245477223e-13 	101324.9999999961
0.9021521521521517 	299.9999999999804 	1.259277351671944e-12 	101324.9999999962
0.9046546546546541 	299.9999999999934 	6.891379697346358e-13 	101324.9999999962
0.9071571571571564 	299.9999999999768 	1.085410581762466e-12 	101324.9999999963
0.9096596596596589 	299.9999999999768 	1.453005941949391e-12 	101324.9999999964
0.9121621621621616 	299.9999999999999 	2.082154792388803e-12 	101324.9999999964
0.9146646646646639 	299.9999999999924 	2.311256007240136e-12 	101324.9999999965
0.9171671671671666 	299.999999999979 	2.607082458368524e-12 	101324.9999999965
0.9196696696696689 	299.9999999999997 	2.703352959110987e-12 	101324.9999999965
0.9221721721721714 	300.0000000000031 	1.661121401250579e-12 	101324.9999999966
0.9246746746746741 	299.9999999999803 	2.636457174648278e-12 	101324.9999999965
0.9271771771771765 	299.9999999999754 	1.311153514688484e-12 	101324.9999999963
0.9296796796796791 	299.9999999999948 	2.107198132650173e-12 	101324.9999999962
0.9321821821821816 	299.9999999999917 	1.472546307403797e-12 	101324.9999999962
0.9346846846846838 	299.999999999981 	2.183834049893445e-12 	101324.9999999963
0.9371871871871866 	300.0000000000036 	1.826873423925696e-12 	101324.9999999962
0.9396896896896891 	300.000000000005 	1.442795009833597e-12 	101324.9999999961
0.9421921921921914 	300.0000000000024 	1.953499945551796e-12 	101324.9999999959
0.9446946946946939 	299.9999999999827 	1.339012506142888e-12 	101324.999999996
0.9471971971971965 	299.9999999999663 	1.494227409957565e-12 	101324.9999999961
0.9496996996996991 	299.9999999999787 	7.997069413158705e-13 	101324.9999999961
0.9522022022022016 	299.9999999999857 	1.44383046558388e-12 	101324.9999999962
0.9547047047047038 	299.9999999999871 	1.125237477470005e-12 	101324.9999999961
0.9572072072072064 	299.999999999986 	1.51111169042899e-12 	101324.9999999962
0.9597097097097093 	299.9999999999858 	1.662837955230873e-12 	101324.9999999963
0.9622122122122114 	299.9999999999826 	2.0048631189207e-12 	101324.9999999964
0.964714714714714 	299.9999999999843 	3.127592291732923e-12 	101324.9999999966
0.9672172172172167 	299.9999999999852 	3.021219170772915e-12 	101324.9999999967
0.969719719719719 	299.9999999999957 	3.542707680544504e-12 	101324.9999999968
0.9722222222222214 	299.9999999999893 	2.916257024246068e-12 	101324.9999999969
0.9747247247247239 	299.999999999985 	2.494993038674804e-12 	101324.9999999969
0.9772272272272267 	299.9999999999975 	1.98258796573589e-12 	101324.9999999971
0.9797297297297292 	299.9999999999966 	1.676401028940024e-12 	101324.9999999971
0.9822322322322313 	300.0000000000029 	2.372498267996997e-12 	101324.9999999973
0.9847347347347344 	300.0000000000007 	1.816739024856535e-12 	101324.9999999973
0.9872372372372363 	299.999999999983 	2.172864958394323e-12 	101324.9999999972
0.9897397397397389 	299.9999999999923 	1.268289434415172e-12 	101324.9999999971
0.9922422422422417 	299.9999999999828 	2.618426756758534e-12 	101324.9999999973
0.9947447447447441 	299.9999999999804 	2.54257808211739e-12 	101324.9999999972
0.9972472472472468 	299.9999999999849 	3.343193907426605e-12 	101324.999999997
0.999749749749749 	299.9999999999817 	3.145059706111139e-12 	101324.9999999969
1.002252252252252 	299.9999999999911 	2.948088272180845e-12 	101324.9999999968
1.004754754754754 	299.9999999999936 	2.555131313051848e-12 	101324.9999999967
1.007257257257256 	299.9999999999846 	1.99061692323082e-12 	101324.9999999969
1.009759759759759 	299.9999999999803 	2.940650779801682e-12 	101324.999999997
1.012262262262261 	299.999999999979 	2.008219333413119e-12 	101324.9999999969
1.014764764764764 	299.9999999999665 	3.26932510985984e-12 	101324.999999997
1.017267267267267 	299.9999999999641 	3.217812463748457e-12 	101324.9999999971
1.019769769769769 	299.9999999999854 	3.991813298768301e-12 	101324.9999999969
1.022272272272272 	299.9999999999866 	3.836701584813806e-12 	101324.9999999971
1.024774774774774 	299.9999999999835 	3.833658969235683e-12 	101324.9999999973
1.027277277277277 	299.999999999987 	4.24097025010284e-12 	101324.9999999974
1.029779779779779 	299.9999999999977 	3.786772812024424e-12 	101324.9999999975
1.032282282282282 	299.9999999999958 	4.1645989620523e-12 	101324.9999999975
1.034784784784784 	299.9999999999933 	3.81932601956614e-12 	101324.9999999975
1.037287287287286 	299.9999999999848 	4.225551361751421e-12 	101324.9999999975
1.039789789789789 	299.9999999999894 	4.548772503571518e-12 	101324.9999999974
1.042292292292291 	300.0000000000049 	4.703116490507619e-12 	101324.9999999975
1.044794794794794 	300.000000000009 	4.549245683292871e-12 	101324.9999999976
1.047297297297296 	300.0000000000135 	3.547490120512281e-12 	101324.9999999977
1.049799799799799 	299.9999999999951 	4.048059773829338e-12 	101324.9999999977
1.052302302302302 	299.9999999999842 	2.823846794943601e-12 	101324.9999999979
1.054804804804804 	299.9999999999758 	3.600567691006917e-12 	101324.999999998
1.057307307307306 	299.9999999999671 	3.405297616665104e-12 	101324.999999998
1.059809809809809 	299.9999999999834 	4.156868261850253e-12 	101324.999999998
1.062312312312312 	299.9999999999785 	3.761922283231575e-12 	101324.9999999979
1.064814814814814 	299.9999999999739 	4.152594818143519e-12 	101324.9999999979
1.067317317317317 	299.9999999999663 	4.259260998787605e-12 	101324.9999999979
1.069819819819819 	299.999999999969 	4.074674922288709e-12 	101324.9999999981
1.072322322322321 	299.999999999997 	4.590035960433778e-12 	101324.9999999982
1.074824824824824 	300.0000000000062 	3.280222446728036e-12 	101324.9999999981
1.077327327327327 	300.0000000000126 	4.284016156705511e-12 	101324.9999999981
1.079829829829829 	300.000000000013 	3.889067511788531e-12 	101324.9999999981
1.082332332332332 	299.9999999999999 	4.439629129580665e-12 	101324.9999999979
1.084834834834834 	299.9999999999914 	3.833956637108328e-12 	101324.9999999979
1.087337337337337 	299.9999999999779 	3.857772195340078e-12 	101324.9999999981
1.089839839839839 	299.9999999999752 	4.857664872259577e-12 	101324.9999999981
1.092342342342342 	299.9999999999876 	4.545720612515282e-12 	101324.999999998
1.094844844844844 	299.9999999999894 	5.30572612392324e-12 	101324.999999998
1.097347347347347 	299.9999999999785 	5.010866754773983e-12 	101324.9999999979
1.099849849849849 	299.9999999999754 	6.832888740875515e-12 	101324.999999998
1.102352352352352 	299.9999999999843 	5.685542267042198e-12 	101324.999999998
1.104854854854854 	299.9999999999898 	6.558620032856411e-12 	101324.9999999979
1.107357357357357 	299.9999999999842 	5.538398153775951e-12 	101324.999999998
1.109859859859859 	299.9999999999808 	5.893006352967912e-12 	101324.999999998
1.112362362362362 	300.000000000009 	4.663809215395925e-12 	101324.999999998
1.114864864864865 	300.0000000000069 	4.528891474683258e-12 	101324.9999999981
1.117367367367367 	299.999999999985 	5.360675140333384e-12 	101324.9999999983
1.119869869869869 	299.9999999999707 	4.706927920155438e-12 	101324.9999999985
1.122372372372372 	299.9999999999817 	5.616599717493132e-12 	101324.9999999986
1.124874874874874 	299.9999999999808 	5.236850226487871e-12 	101324.9999999985
1.127377377377377 	299.9999999999867 	5.962669248621489e-12 	101324.9999999985
1.129879879879879 	300.0000000000059 	5.455292635965753e-12 	101324.9999999985
1.132382382382382 	300.0000000000105 	5.359628312565807e-12 	101324.9999999986
1.134884884884884 	300.0000000000016 	4.884135272699032e-12 	101324.9999999988
1.137387387387387 	300.0000000000032 	4.815995188271823e-12 	101324.9999999989
1.139889889889889 	299.9999999999853 	5.315597458199677e-12 	101324.9999999987
1.142392392392392 	299.9999999999826 	4.940527176897755e-12 	101324.9999999987
1.144894894894894 	300.0000000000042 	6.072006445436048e-12 	101324.9999999987
1.147397397397397 	299.9999999999978 	5.557216252204706e-12 	101324.9999999988
1.149899899899899 	299.9999999999772 	6.167979760583063e-12 	101324.9999999987
1.152402402402402 	299.9999999999743 	5.996369543032543e-12 	101324.9999999987
1.154904904904904 	299.9999999999889 	6.370089950610705e-12 	101324.9999999988
1.157407407407407 	299.9999999999893 	5.944794888775907e-12 	101324.999999999
1.159909909909909 	299.999999999979 	6.119586408378142e-12 	101324.9999999992
1.162412412412412 	299.999999999976 	6.727678613783079e-12 	101324.9999999993
1.164914914914914 	299.9999999999842 	5.664525297929557e-12 	101324.9999999994
1.167417417417417 	299.9999999999853 	6.386661923885057e-12 	101324.9999999993
1.169919919919919 	300.0000000000044 	5.36421672571324e-12 	101324.9999999992
1.172422422422422 	300.0000000000165 	5.763863241872243e-12 	101324.9999999992
1.174924924924925 	299.9999999999964 	5.304359185638519e-12 	101324.9999999992
1.177427427427427 	299.9999999999839 	6.068078764294212e-12 	101324.9999999992
1.179929929929929 	300.0000000000024 	6.7669275907921e-12 	101324.999999999
1.182432432432432 	300.0000000000132 	5.73219631442414e-12 	101324.9999999988
1.184934934934934 	299.9999999999983 	6.434314153929265e-12 	101324.9999999987
1.187437437437437 	299.999999999987 	6.033575069103096e-12 	101324.9999999987
1.189939939939939 	299.9999999999873 	6.526916426716455e-12 	101324.9999999989
1.192442442442442 	299.9999999999741 	6.245871952610111e-12 	101324.999999999
1.194944944944944 	299.9999999999748 	7.292757162019629e-12 	101324.9999999992
1.197447447447447 	299.9999999999981 	6.951886929297785e-12 	101324.9999999992
1.199949949949949 	300.0000000000049 	6.744218800228714e-12 	101324.9999999992
1.202452452452452 	299.9999999999844 	6.932383551293214e-12 	101324.9999999992
1.204954954954955 	299.9999999999799 	6.002299174080498e-12 	101324.9999999993
1.207457457457457 	299.9999999999939 	6.644727778316208e-12 	101324.9999999995
1.20995995995996 	299.999999999996 	6.182282257511801e-12 	101324.9999999997
1.212462462462462 	299.9999999999972 	6.617703961461191e-12 	101324.9999999997
1.214964964964964 	299.9999999999981 	5.779082011985631e-12 	101324.9999999996
1.217467467467467 	299.9999999999956 	6.143273891594018e-12 	101324.9999999994
1.219969969969969 	299.9999999999869 	5.646488640493853e-12 	101324.9999999994
1.222472472472472 	300.0000000000068 	5.968134664384686e-12 	101324.9999999996
1.224974974974975 	300.0000000000182 	6.033547204314101e-12 	101324.9999999997
1.227477477477477 	299.999999999998 	4.937333665103698e-12 	101324.9999999997
1.229979979979979 	299.9999999999924 	5.920297145466416e-12 	101324.9999999995
1.232482482482482 	299.9999999999852 	5.5909922902477e-12 	101324.9999999993
1.234984984984984 	299.9999999999845 	7.02345244187373e-12 	101324.9999999992
1.237487487487487 	299.9999999999901 	6.232667944250459e-12 	101324.9999999992
1.239989989989989 	299.9999999999924 	6.283775275109418e-12 	101324.9999999993
1.242492492492492 	300.0000000000056 	6.163027960244071e-12 	101324.9999999994
1.244994994994994 	299.999999999994 	5.002350167292201e-12 	101324.9999999996
1.247497497497497 	299.999999999997 	5.544914129212017e-12 	101324.9999999996
1.249999999999999 	300.0000000000595 	4.895639000031215e-12 	101324.9999999996
