-1.25 	257.7836037248974 	0.002267948894786564 	101325.0087964594
-1.247497497497497 	300.0324311785409 	0.00219765267279168 	101325.0150868709
-1.244994994994995 	300.0010875387061 	0.002109059283957347 	101325.0095837714
-1.242492492492492 	300.0000165300929 	0.002009551396569461 	101325.0140254346
-1.23998998998999 	300.0000085449619 	0.001904046468126865 	101325.0101310103
-1.237487487487487 	300.0000112128022 	0.001792872715830773 	101325.0132239745
-1.234984984984985 	300.000008828819 	0.001679226985405435 	101325.0104697526
-1.232482482482482 	300.0000106593995 	0.001562608841482762 	101325.0125688772
-1.22997997997998 	300.0000089303369 	0.001446558217000606 	101325.010587893
-1.227477477477477 	300.0000101641962 	0.001329601499434847 	101325.0119878709
-1.224974974974975 	300.0000089258278 	0.001215430378240105 	101325.0105804171
-1.222472472472472 	300.0000097731098 	0.001102111948160594 	101325.0115321593
-1.21996996996997 	300.0000088964784 	0.0009932156798829698 	101325.0105452516
-1.217467467467467 	300.0000094660728 	0.0008862558344429762 	101325.0111686832
-1.214964964964965 	300.0000088274502 	0.0007852451794718117 	101325.0104586449
-1.212462462462462 	300.0000091821138 	0.0006865302805308512 	101325.0108313396
-1.20995995995996 	300.0000087381745 	0.0005951334416933909 	101325.0103505436
-1.207457457457457 	300.0000089530944 	0.0005059523867149364 	101325.0105658156
-1.204954954954955 	300.0000086984681 	0.0004251454890253015 	101325.010306817
-1.202452452452452 	300.0000087990292 	0.0003462934565850712 	101325.0103830673
-1.19994994994995 	300.0000086741491 	0.0002764662052519245 	101325.0102740815
-1.197447447447447 	300.0000085769117 	0.0002083478751825316 	101325.0101178349
-1.194944944944945 	300.0000085580197 	0.0001496043190492686 	101325.0101326054
-1.192442442442442 	300.0000082015148 	9.240119924507217e-05 	101325.0096765681
-1.18993993993994 	300.0000083634677 	4.446616376032864e-05 	101325.0099095133
-1.187437437437437 	300.0000078867845 	4.67983636086828e-05 	101325.0093100218
-1.184934934934935 	300.0000081490625 	4.578602756387391e-05 	101325.0096559659
-1.182432432432432 	300.0000076195911 	8.766245761323482e-05 	101325.0089901467
-1.17992992992993 	300.0000079120446 	0.0001226392665457031 	101325.0093694048
-1.177427427427427 	300.0000074027772 	0.0001595042922976684 	101325.0087320665
-1.174924924924925 	300.0000078989651 	0.0001888779638663225 	101325.0093542153
-1.172422422422422 	300.0000072526629 	0.0002200920187237894 	101325.0085564347
-1.16991991991992 	300.000007904988 	0.000243455006063793 	101325.0093615277
-1.167417417417417 	300.0000071112139 	0.0002688130810207612 	101325.0083943072
-1.164914914914915 	300.0000078871438 	0.0002855895414997921 	101325.0093392011
-1.162412412412412 	300.0000070397577 	0.0003041709833484497 	101325.0083069343
-1.15990990990991 	300.0000077388187 	0.0003133795471522506 	101325.0091620023
-1.157407407407407 	300.0000068738665 	0.0003236227587549193 	101325.0081129184
-1.154904904904904 	300.0000071424096 	0.0003210723270638519 	101325.0084566037
-1.152402402402403 	300.0000066451071 	0.0003182043230512184 	101325.0078447203
-1.1498998998999 	300.0000068092489 	0.0003083669605687821 	101325.0080632439
-1.147397397397397 	300.0000063818193 	0.0003029107322680549 	101325.0075355048
-1.144894894894895 	300.0000066064644 	0.000291056847513072 	101325.0078218037
-1.142392392392392 	300.0000062785034 	0.0002845779303484518 	101325.0074111822
-1.13988988988989 	300.0000065491661 	0.000271470506675222 	101325.0077511289
-1.137387387387387 	300.0000062594922 	0.0002645353361912864 	101325.007389741
-1.134884884884885 	300.0000065051697 	0.000250905070536191 	101325.0076967902
-1.132382382382382 	300.0000061496491 	0.0002436663121283356 	101325.0072613444
-1.12987987987988 	300.0000063378124 	0.0002300604832713838 	101325.0075041196
-1.127377377377377 	300.0000059123416 	0.0002226739815475914 	101325.0069823024
-1.124874874874875 	300.0000060787721 	0.0002092320249198191 	101325.007193223
-1.122372372372372 	300.0000056381298 	0.0002019331074619005 	101325.0066599594
-1.11986986986987 	300.0000058098355 	0.0001886523539929027 	101325.0068746515
-1.117367367367367 	300.0000054148306 	0.0001816537020113146 	101325.0063952235
-1.114864864864865 	300.0000056080343 	0.0001685199523063313 	101325.006635338
-1.112362362362362 	300.0000052878226 	0.0001619828250416005 	101325.0062473592
-1.10985985985986 	300.0000054890386 	0.000149069089461029 	101325.0064949399
-1.107357357357357 	300.0000052092988 	0.0001430850834490977 	101325.0061549129
-1.104854854854855 	300.000005374493 	0.0001306439837583069 	101325.006357374
-1.102352352352353 	300.0000050646278 	0.0001251626492388416 	101325.005982871
-1.09984984984985 	300.0000051742392 	0.0001134362718620898 	101325.0061187371
-1.097347347347347 	300.0000048335563 	0.000108393504359258 	101325.0057093612
-1.094844844844845 	300.0000049118524 	9.73802006300886e-05 	101325.0058080696
-1.092342342342342 	300.0000046003352 	9.286259254322223e-05 	101325.0054359176
-1.08983983983984 	300.000004672428 	8.243291465218772e-05 	101325.0055270472
-1.087337337337337 	300.000004428227 	7.859090500675722e-05 	101325.005234506
-1.084834834834835 	300.0000044946619 	6.87306151589086e-05 	101325.0053160928
-1.082332332332332 	300.0000042960142 	6.55866949549208e-05 	101325.0050776703
-1.07982982982983 	300.000004342924 	5.640048274026501e-05 	101325.0051348285
-1.077327327327327 	300.0000041639611 	5.389782282989933e-05 	101325.0049205495
-1.074824824824825 	300.0000041763788 	4.544910912672067e-05 	101325.004937101
-1.072322322322323 	300.0000040028892 	4.355848718533859e-05 	101325.0047306624
-1.06981981981982 	300.0000039831676 	3.585631575646538e-05 	101325.004708933
-1.067317317317317 	300.0000038257422 	3.454688513626444e-05 	101325.0045215268
-1.064814814814815 	300.0000037853791 	2.757647981385442e-05 	101325.0044746324
-1.062312312312312 	300.0000036402126 	2.681470224367671e-05 	101325.0043022481
-1.05980980980981 	300.000003574708 	2.058123755845479e-05 	101325.0042258089
-1.057307307307307 	300.0000034358453 	2.032006919227897e-05 	101325.0040616944
-1.054804804804805 	300.0000033553912 	1.478137518405044e-05 	101325.0039671271
-1.052302302302302 	300.0000032327724 	1.49908203268981e-05 	101325.0038215463
-1.0497997997998 	300.0000031443769 	1.011000204823036e-05 	101325.0037172578
-1.047297297297297 	300.0000030307025 	1.07298433770573e-05 	101325.0035830652
-1.044794794794795 	300.0000029396185 	8.036549196609929e-06 	101325.0034755111
-1.042292292292292 	300.0000028479825 	8.607531673264789e-06 	101325.0033670474
-1.03978978978979 	300.0000027807527 	7.822548895621298e-06 	101325.0032874405
-1.037287287287287 	300.0000027299521 	8.073682707117713e-06 	101325.003226919
-1.034784784784785 	300.0000026938126 	7.728349886158262e-06 	101325.0031838822
-1.032282282282283 	300.0000026608051 	7.7413393761424e-06 	101325.0031451567
-1.02977977977978 	300.0000026176286 	7.59861828641694e-06 	101325.0030942743
-1.027277277277277 	300.0000025557447 	7.355835821538783e-06 	101325.003021088
-1.024774774774775 	300.0000024660989 	7.194480640126919e-06 	101325.0029148795
-1.022272272272272 	300.0000023491218 	6.730046555669176e-06 	101325.0027765685
-1.01976976976977 	300.0000022071164 	6.436033930378652e-06 	101325.0026091657
-1.017267267267267 	300.000002056503 	5.938557689347263e-06 	101325.0024319365
-1.014764764764765 	300.0000019131919 	5.553604853201075e-06 	101325.0022629296
-1.012262262262262 	300.0000017948831 	5.208152208119949e-06 	101325.0021226662
-1.00975975975976 	300.0000017093668 	4.956607112870768e-06 	101325.0020206124
-1.007257257257257 	300.0000016524315 	4.784747150519689e-06 	101325.0019525282
-1.004754754754755 	300.0000016140797 	4.672085250170671e-06 	101325.0019072174
-1.002252252252252 	300.0000015836096 	4.584497080411999e-06 	101325.0018720653
-0.9997497497497498 	300.0000015480389 	4.476733531578803e-06 	101325.0018307663
-0.9972472472472473 	300.0000014922565 	4.309894925825279e-06 	101325.0017645739
-0.9947447447447449 	300.0000014096696 	4.068424936638356e-06 	101325.0016658094
-0.9922422422422421 	300.0000013064559 	3.769417094990757e-06 	101325.0015426581
-0.9897397397397399 	300.000001188889 	3.430846668681868e-06 	101325.0014037648
-0.9872372372372376 	300.0000010548515 	3.046354977227925e-06 	101325.0012466867
-0.9847347347347346 	300.0000009032148 	2.614013831699937e-06 	101325.0010690897
-0.9822322322322323 	300.0000007435489 	2.158804572860548e-06 	101325.0008808714
-0.9797297297297296 	300.0000005969367 	1.739961164934495e-06 	101325.0007065941
-0.9772272272272275 	300.000000488953 	1.433478359963735e-06 	101325.0005772996
-0.9747247247247248 	300.0000004351783 	1.278763536602032e-06 	101325.0005126222
-0.9722222222222224 	300.000000432201 	1.262402789636605e-06 	101325.0005094074
-0.9697197197197196 	300.0000004553835 	1.318796069417429e-06 	101325.0005380577
-0.9672172172172175 	300.0000004679399 	1.347255766996847e-06 	101325.0005543105
-0.9647147147147147 	300.0000004414949 	1.270367150578616e-06 	101325.0005237691
-0.9622122122122124 	300.0000003663129 	1.053501071800761e-06 	101325.0004346764
-0.9597097097097099 	300.0000002462503 	7.062008391785072e-07 	101325.0002918275
-0.9572072072072073 	300.0000000965438 	2.732854349805737e-07 	101325.0001137052
-0.9547047047047047 	299.9999999329104 	2.747106578243518e-07 	101324.9999191656
-0.9522022022022023 	299.9999997690497 	6.696836049173025e-07 	101324.9997248854
-0.9496996996996998 	299.9999996226242 	1.088098657210789e-06 	101324.9995515872
-0.9471971971971973 	299.9999995095746 	1.411927412627045e-06 	101324.9994178176
-0.9446946946946947 	299.9999994377055 	1.619677324651721e-06 	101324.9993328539
-0.9421921921921923 	299.9999994048981 	1.718734887179218e-06 	101324.9992939097
-0.93968968968969 	299.9999993985992 	1.743996534611457e-06 	101324.9992862957
-0.9371871871871872 	299.9999993997238 	1.747987081735778e-06 	101324.9992876404
-0.9346846846846848 	299.9999993884751 	1.786203881937376e-06 	101324.9992746237
-0.9321821821821823 	299.999999348984 	1.903764741579472e-06 	101324.9992283452
-0.9296796796796799 	299.9999992723238 	2.125552716152235e-06 	101324.9991381253
-0.9271771771771771 	299.9999991594598 	2.447673112882367e-06 	101324.9990051682
-0.9246746746746748 	299.9999990225348 	2.836711287499632e-06 	101324.9988436182
-0.9221721721721724 	299.9999988802626 	3.241847105512507e-06 	101324.9986755848
-0.9196696696696698 	299.9999987506118 	3.612524257356226e-06 	101324.9985224211
-0.9171671671671672 	299.9999986453695 	3.916171176325533e-06 	101324.9983979863
-0.9146646646646649 	299.9999985678506 	4.142832349788477e-06 	101324.9983060767
-0.9121621621621623 	299.9999985137438 	4.302523494116608e-06 	101324.998241859
-0.9096596596596597 	299.9999984753551 	4.41642272914693e-06 	101324.9981964439
-0.9071571571571573 	299.9999984461703 	4.502722590058121e-06 	101324.9981618669
-0.9046546546546547 	299.9999984220127 	4.573927023875514e-06 	101324.9981333323
-0.9021521521521524 	299.9999984003275 	4.637773658521932e-06 	101324.998107924
-0.8996496496496498 	299.9999983777538 	4.7050239703877e-06 	101324.9980813882
-0.8971471471471473 	299.9999983473468 	4.796513613873804e-06 	101324.9980455413
-0.894644644644645 	299.9999982990764 	4.939457968023236e-06 	101324.9979886358
-0.892142142142142 	299.999998223419 	5.159557070685291e-06 	101324.9978994154
-0.8896396396396397 	299.9999981168227 	5.465520851059756e-06 	101324.9977736001
-0.8871371371371374 	299.9999979862998 	5.83642657180672e-06 	101324.9976195504
-0.8846346346346349 	299.9999978501409 	6.222207298619709e-06 	101324.9974585788
-0.8821321321321324 	299.999997731733 	6.557751814528184e-06 	101324.997318436
-0.8796296296296297 	299.9999976514991 	6.786229941869916e-06 	101324.9972234703
-0.8771271271271271 	299.9999976191802 	6.881461959229749e-06 	101324.9971852579
-0.8746246246246248 	299.9999976291107 	6.859955338437232e-06 	101324.9971969762
-0.8721221221221224 	299.9999976611941 	6.777121973619142e-06 	101324.997234879
-0.8696196196196196 	299.9999976886824 	6.706662981253333e-06 	101324.9972673342
-0.8671171171171175 	299.9999976881766 	6.713287573848126e-06 	101324.9972666849
-0.8646146146146148 	299.9999976471707 	6.831043897836985e-06 	101324.9972184406
-0.8621121121121121 	299.9999975679083 	7.055107512279434e-06 	101324.9971249395
-0.8596096096096097 	299.9999974641066 	7.348439510293285e-06 	101324.9970022718
-0.857107107107107 	299.999997354018 	7.661332647595696e-06 	101324.9968720569
-0.8546046046046049 	299.999997253502 	7.949793613860388e-06 	101324.9967529597
-0.8521021021021022 	299.9999971719863 	8.185048367025033e-06 	101324.9966564543
-0.8495995995995997 	299.9999971134342 	8.354484776451813e-06 	101324.9965873955
-0.8470970970970974 	299.9999970789329 	8.453738864040046e-06 	101324.9965469724
-0.8445945945945946 	299.9999970686131 	8.484285485276316e-06 	101324.9965348197
-0.8420920920920922 	299.999997080344 	8.453790795238098e-06 	101324.9965483291
-0.8395895895895897 	299.9999971073241 	8.38088946302609e-06 	101324.9965798262
-0.8370870870870872 	299.999997136895 	8.302034643734224e-06 	101324.9966145388
-0.8345845845845846 	299.9999971518155 	8.264375692257331e-06 	101324.9966322608
-0.8320820820820823 	299.9999971353463 	8.314399714831025e-06 	101324.9966132476
-0.8295795795795798 	299.9999970784227 	8.477377310777591e-06 	101324.9965464599
-0.8270770770770772 	299.9999969851951 	8.740725642283818e-06 	101324.9964364404
-0.8245745745745746 	299.9999968733492 	9.055691507831882e-06 	101324.9963042353
-0.8220720720720721 	299.999996768891 	9.349996232849163e-06 	101324.9961804926
-0.8195695695695699 	299.9999966962582 	9.555891434915091e-06 	101324.9960943261
-0.817067067067067 	299.9999966700437 	9.632582351462048e-06 	101324.9960632217
-0.8145645645645651 	299.999996690515 	9.578203113769633e-06 	101324.9960874292
-0.8120620620620621 	299.9999967440436 	9.430934779862739e-06 	101324.9961506571
-0.8095595595595597 	299.9999968084351 	9.251503447977099e-06 	101324.9962268906
-0.8070570570570572 	299.9999968616073 	9.101759019265172e-06 	101324.9962900352
-0.8045545545545546 	299.9999968881411 	9.02661806876866e-06 	101324.9963214761
-0.8020520520520523 	299.9999968815871 	9.045466672252351e-06 	101324.9963133357
-0.7995495495495494 	299.9999968437587 	9.153336097897487e-06 	101324.9962680267
-0.7970470470470474 	299.9999967828438 	9.326533665831153e-06 	101324.9961956424
-0.7945445445445446 	299.9999967107298 	9.530751560811261e-06 	101324.996110463
-0.7920420420420423 	299.9999966402125 	9.728797750421637e-06 	101324.9960278355
-0.7895395395395397 	299.9999965838805 	9.885233109169752e-06 	101324.9959623488
-0.7870370370370371 	299.999996553079 	9.969715658943154e-06 	101324.9959267535
-0.7845345345345348 	299.9999965557139 	9.961695972928648e-06 	101324.9959298675
-0.7820320320320323 	299.9999965932773 	9.857806597998192e-06 	101324.9959732731
-0.7795295295295296 	299.9999966585619 	9.676905735494969e-06 	101324.9960490833
-0.7770270270270272 	299.9999967373629 	9.457963773134934e-06 	101324.996141023
-0.7745245245245247 	299.9999968116094 	9.250551495913379e-06 	101324.9962283953
-0.7720220220220222 	299.9999968639778 	9.103006362120331e-06 	101324.9962907879
-0.7695195195195199 	299.9999968817339 	9.050718279955814e-06 	101324.9963129149
-0.767017017017017 	299.9999968610427 	9.105549987023668e-06 	101324.9962895328
-0.7645145145145147 	299.9999968088183 	9.249280947510279e-06 	101324.9962283823
-0.7620120120120122 	299.9999967411828 	9.43698306804507e-06 	101324.9961486693
-0.7595095095095097 	299.9999966785394 	9.610434524141364e-06 	101324.9960750463
-0.7570070070070072 	299.9999966401492 	9.714838982383586e-06 	101324.9960303818
-0.7545045045045048 	299.9999966395573 	9.711760109135817e-06 	101324.9960306836
-0.7520020020020022 	299.9999966823225 	9.586923983749087e-06 	101324.9960822971
-0.7494994994994997 	299.999996764992 	9.351991919334053e-06 	101324.9961803659
-0.7469969969969972 	299.9999968749427 	9.042525370000106e-06 	101324.9963096246
-0.7444944944944945 	299.9999969933938 	8.709853367724196e-06 	101324.9964483023
-0.7419919919919924 	299.9999971010087 	8.407177970649281e-06 	101324.9965739716
-0.7394894894894897 	299.9999971827725 	8.175520293872367e-06 	101324.9966696205
-0.7369869869869872 	299.9999972317607 	8.035264919977154e-06 	101324.9967270546
-0.7344844844844846 	299.99999724797 	7.985617873167322e-06 	101324.996746418
-0.7319819819819822 	299.9999972372543 	8.011003230952905e-06 	101324.9967342571
-0.7294794794794797 	299.9999972088168 	8.086680533054189e-06 	101324.9967014189
-0.7269769769769773 	299.9999971739147 	8.181525977978159e-06 	101324.9966609577
-0.7244744744744747 	299.9999971440715 	8.263144134720357e-06 	101324.9966263121
-0.721971971971972 	299.9999971290793 	8.303909121634165e-06 	101324.9966087719
-0.7194694694694695 	299.9999971346803 	8.288764699391639e-06 	101324.9966145361
-0.7169669669669674 	299.9999971618987 	8.214445511080572e-06 	101324.9966451213
-0.7144644644644647 	299.9999972095072 	8.083649089118158e-06 	101324.9966992165
-0.711961961961962 	299.9999972742427 	7.902553044528677e-06 	101324.9967738721
-0.7094594594594597 	299.9999973520203 	7.680009635825381e-06 	101324.9968649235
-0.7069569569569573 	299.999997437735 	7.433183360854584e-06 	101324.9969664093
-0.7044544544544545 	299.9999975242553 	7.183110389802952e-06 	101324.9970696035
-0.7019519519519523 	299.9999976048917 	6.948446977964355e-06 	101324.9971661091
-0.6994494494494495 	299.9999976753892 	6.7423058042078e-06 	101324.9972505721
-0.6969469469469471 	299.9999977353905 	6.564145652425405e-06 	101324.9973221658
-0.6944444444444446 	299.9999977885139 	6.405287282734737e-06 	101324.9973854519
-0.6919419419419421 	299.9999978415528 	6.249702867487127e-06 	101324.9974485453
-0.6894394394394396 	299.9999978999617 	6.078006044706949e-06 	101324.9975182308
-0.6869369369369374 	299.9999979671877 	5.881908849146595e-06 	101324.9975982583
-0.6844344344344344 	299.9999980419921 	5.664244516261407e-06 	101324.9976871373
-0.6819319319319321 	299.999998119233 	5.440642901081915e-06 	101324.9977787775
-0.6794294294294296 	299.9999981936765 	5.227386527846483e-06 	101324.9978666292
-0.6769269269269272 	299.9999982626711 	5.02991748359667e-06 	101324.9979476913
-0.6744244244244245 	299.9999983264566 	4.846353083594746e-06 	101324.9980221692
-0.6719219219219222 	299.9999983879777 	4.667131445542908e-06 	101324.9980941253
-0.6694194194194195 	299.9999984508523 	4.485986963387271e-06 	101324.9981678715
-0.6669169169169172 	299.9999985170639 	4.295500424813653e-06 	101324.9982461377
-0.6644144144144146 	299.9999985881886 	4.087834000269257e-06 	101324.9983308003
-0.661911911911912 	299.9999986656545 	3.862616522789067e-06 	101324.998423051
-0.6594094094094097 	299.9999987483104 	3.620886861974201e-06 	101324.9985212335
-0.656906906906907 	299.9999988341154 	3.372716735765024e-06 	101324.9986227881
-0.6544044044044046 	299.9999989200509 	3.127201717978802e-06 	101324.9987241033
-0.6519019019019021 	299.9999990037284 	2.886051510207252e-06 	101324.9988225516
-0.6493993993993996 	299.9999990848848 	2.651078190446257e-06 	101324.9989181053
-0.6468968968968971 	299.9999991646796 	2.419763851249543e-06 	101324.9990122445
-0.6443943943943946 	299.9999992437236 	2.191180671124064e-06 	101324.9991054899
-0.6418918918918921 	299.9999993228925 	1.963277557311751e-06 	101324.9991985605
-0.6393893893893897 	299.9999994035126 	1.731115308498003e-06 	101324.9992931031
-0.6368868868868871 	299.999999487169 	1.489620401468427e-06 	101324.9993913274
-0.6343843843843846 	299.9999995756356 	1.233320614510239e-06 	101324.9994957208
-0.6318818818818821 	299.9999996690253 	9.624298845534637e-07 	101324.9996067652
-0.6293793793793795 	299.9999997658597 	6.803545433882369e-07 	101324.9997222632
-0.6268768768768773 	299.9999998635175 	3.947660894608297e-07 	101324.9998388169
-0.6243743743743745 	299.9999999607452 	1.129513963962027e-07 	101324.9999543117
-0.6218718718718721 	300.0000000561389 	1.84040045768852e-07 	101325.000066944
-0.6193693693693696 	300.000000149005 	4.31470508861569e-07 	101325.0001765482
-0.6168668668668671 	300.0000002402811 	6.948037624357803e-07 	101325.0002840093
-0.6143643643643645 	300.0000003295844 	9.533745163318551e-07 	101325.0003895244
-0.6118618618618621 	300.0000004169635 	1.208291642006437e-06 	101325.0004932923
-0.6093593593593596 	300.0000005046194 	1.46475596585004e-06 	101325.0005973953
-0.6068568568568571 	300.0000005963914 	1.732170195318634e-06 	101325.0007060287
-0.6043543543543546 	300.000000695519 	2.01806819213332e-06 	101325.0008227867
-0.6018518518518521 	300.000000801249 	2.320218080439627e-06 	101325.0009468627
-0.5993493493493496 	300.0000009081807 	2.625749603128509e-06 	101325.0010724096
-0.5968468468468471 	300.000001010502 	2.920688994438281e-06 	101325.0011929588
-0.5943443443443446 	300.0000011068959 	3.201844010575732e-06 	101325.0013070774
-0.591841841841842 	300.0000012011425 	3.478427434913468e-06 	101325.0014192405
-0.5893393393393397 	300.0000012980504 	3.761353781005244e-06 	101325.0015346335
-0.5868368368368371 	300.0000013984067 	4.052121368843919e-06 	101325.0016537934
-0.5843343343343346 	300.0000014991637 	4.343812412299305e-06 	101325.0017731717
-0.5818318318318321 	300.0000015982474 	4.631449874922908e-06 	101325.0018903347
-0.5793293293293297 	300.0000016967913 	4.918121856830765e-06 	101325.0020069245
-0.5768268268268271 	300.0000017973581 	5.209101505404814e-06 	101325.0021257377
-0.5743243243243245 	300.0000018993948 	5.502805114238728e-06 	101325.0022461216
-0.5718218218218221 	300.0000019995855 	5.79111101045433e-06 	101325.0023640819
-0.5693193193193196 	300.0000020961719 	6.069864914220538e-06 	101325.0024773893
-0.5668168168168171 	300.0000021918027 	6.346820787390905e-06 	101325.0025895154
-0.5643143143143147 	300.0000022922217 	6.636558519841581e-06 	101325.002707278
-0.5618118118118121 	300.0000024004171 	6.946677002424982e-06 	101325.0028342998
-0.5593093093093094 	300.0000025129468 	7.269278575157813e-06 	101325.0029670205
-0.5568068068068072 	300.0000026227706 	7.586286406087668e-06 	101325.0030972212
-0.5543043043043046 	300.0000027244739 	7.882966590948662e-06 	101325.0032183476
-0.551801801801802 	300.0000028175791 	8.157441678630578e-06 	101325.0033297682
-0.5492992992992995 	300.0000029063739 	8.419154558980123e-06 	101325.0034358901
-0.5467967967967969 	300.0000029954043 	8.680298792667259e-06 	101325.0035420743
-0.5442942942942947 	300.0000030875669 	8.949069738922153e-06 	101325.0036516251
-0.5417917917917919 	300.0000031838962 	9.229249399142738e-06 	101325.0037658707
-0.5392892892892895 	300.0000032850696 	9.522714412785726e-06 	101325.0038855798
-0.536786786786787 	300.0000033911595 	9.829325464506454e-06 	101325.0040109379
-0.5342842842842846 	300.0000035002541 	1.014363958932635e-05 	101325.0041398402
-0.531781781781782 	300.000003608155 	1.045414430473647e-05 	101325.0042672464
-0.5292792792792794 	300.0000037105191 	1.074914608400181e-05 	101325.004387817
-0.526776776776777 	300.0000038061169 	1.102567248182625e-05 	101325.0045001468
-0.5242742742742745 	300.0000038982594 	1.129174582999403e-05 	101325.0046080355
-0.521771771771772 	300.0000039910353 	1.15581542796156e-05 	101325.0047166024
-0.5192692692692695 	300.0000040851484 	1.182727443923513e-05 	101325.0048269407
-0.516766766766767 	300.0000041777708 	1.209214918125314e-05 	101325.0049354696
-0.5142642642642645 	300.0000042661162 	1.234744663736879e-05 	101325.0050392925
-0.511761761761762 	300.0000043529236 	1.26004870653118e-05 	101325.0051415747
-0.5092592592592596 	300.0000044445277 	1.286711822068494e-05 	101325.005249879
-0.506756756756757 	300.0000045439475 	1.315468049399546e-05 	101325.0053679879
-0.5042542542542544 	300.000004646444 	1.344991320170541e-05 	101325.0054899719
-0.5017517517517521 	300.0000047421871 	1.372813566219404e-05 	101325.0056042553
-0.4992492492492494 	300.0000048262615 	1.397693775747612e-05 	101325.0057048621
-0.496746746746747 	300.0000049042667 	1.421023210746122e-05 	101325.0057982643
-0.4942442442442445 	300.0000049873494 	1.445534931324584e-05 	101325.0058974618
-0.4917417417417421 	300.0000050805142 	1.47242770451229e-05 	101325.0060083215
-0.4892392392392395 	300.0000051765869 	1.499869857877691e-05 	101325.0061223504
-0.486736736736737 	300.0000052626588 	1.524662889318676e-05 	101325.0062243828
-0.4842342342342345 	300.0000053335012 	1.545558515342525e-05 	101325.0063082709
-0.481731731731732 	300.0000053983506 	1.564863127328787e-05 	101325.0063846272
-0.4792292292292296 	300.0000054722221 	1.586473534391642e-05 	101325.0064717154
-0.4767267267267268 	300.0000055621672 	1.61214269984311e-05 	101325.006577831
-0.4742242242242246 	300.0000056597499 	1.639681845310769e-05 	101325.0066927635
-0.471721721721722 	300.0000057485665 	1.665049980332134e-05 	101325.0067974961
-0.4692192192192195 	300.0000058211392 	1.686328947055429e-05 	101325.0068829743
-0.4667167167167169 	300.0000058858192 	1.705652559250061e-05 	101325.006959276
-0.4642142142142145 	300.0000059588889 	1.726976573280702e-05 	101325.0070452768
-0.461711711711712 	300.0000060462434 	1.751762829590865e-05 	101325.0071483252
-0.4592092092092094 	300.0000061357746 	1.776842246086504e-05 	101325.0072540325
-0.456706706706707 	300.0000062064603 	1.796876991953241e-05 	101325.0073374589
-0.4542042042042045 	300.0000062481423 	1.809492130240814e-05 	101325.0073868874
-0.451701701701702 	300.000006275165 	1.818426436528743e-05 	101325.0074187737
-0.4491991991991995 	300.000006317163 	1.831420357311169e-05 	101325.0074683477
-0.4466966966966969 	300.0000063963934 	1.854151068392998e-05 	101325.0075618955
-0.4441941941941945 	300.0000065077093 	1.885143488712207e-05 	101325.007693256
-0.441691691691692 	300.0000066193812 	1.916151270140924e-05 	101325.0078252252
-0.4391891891891895 	300.0000066967339 	1.938091883007486e-05 	101325.0079165797
-0.436686686686687 	300.0000067281068 	1.948033177006195e-05 	101325.0079537707
-0.4341841841841846 	300.0000067354374 	1.951664186904053e-05 	101325.0079625196
-0.431681681681682 	300.0000067575037 	1.959138963549543e-05 	101325.0079888448
-0.4291791791791794 	300.0000068210799 	1.977372416170228e-05 	101325.008064162
-0.426676676676677 	300.0000069200708 	2.004764902149222e-05 	101325.0081812775
-0.4241741741741744 	300.0000070202618 	2.032350980694767e-05 	101325.0082996001
-0.421671671671672 	300.0000070847455 	2.050527153548767e-05 	101325.0083756592
-0.4191691691691694 	300.0000071018474 	2.056277130219236e-05 	101325.0083956492
-0.4166666666666669 	300.0000070942427 	2.055578671710304e-05 	101325.0083864517
-0.4141641641641645 	300.0000071026947 	2.059177626996769e-05 	101325.0083964883
-0.411661661661662 	300.0000071573469 	2.074848171258425e-05 	101325.0084608581
-0.4091591591591594 	300.0000072544916 	2.101669384380027e-05 	101325.0085756757
-0.406656656656657 	300.0000073590476 	2.130342981180034e-05 	101325.0086994078
-0.4041541541541545 	300.0000074275519 	2.149293418863432e-05 	101325.0087803777
-0.401651651651652 	300.0000074362061 	2.152381168019864e-05 	101325.0087909858
-0.3991491491491494 	300.0000073987173 	2.143147552886059e-05 	101325.0087468077
-0.396646646646647 	300.0000073568641 	2.132816409484339e-05 	101325.0086977051
-0.3941441441441444 	300.0000073557719 	2.133345938210858e-05 	101325.0086967056
-0.3916416416416419 	300.0000074153567 	2.15007434379112e-05 	101325.0087675404
-0.3891391391391395 	300.0000075187501 	2.178421015642371e-05 	101325.008889971
-0.3866366366366368 	300.0000076218359 	2.2066237081265e-05 	101325.0090119682
-0.3841341341341344 	300.0000076800047 	2.22269308255548e-05 	101325.0090806618
-0.381631631631632 	300.0000076734939 	2.221405793146548e-05 	101325.0090728779
-0.3791291291291294 	300.000007619753 	2.20739442584275e-05 	101325.0090089188
-0.3766266266266269 	300.0000075631003 	2.192636454978902e-05 	101325.0089414741
-0.3741241241241244 	300.0000075506812 	2.189840474301644e-05 	101325.0089262921
-0.371621621621622 	300.0000076066169 	2.205481128344256e-05 	101325.0089919674
-0.3691191191191194 	300.0000077182502 	2.236080637863373e-05 	101325.0091235754
-0.366616616616617 	300.0000078412081 	2.269593659238459e-05 	101325.0092687163
-0.3641141141141143 	300.0000079206657 	2.291108403000695e-05 	101325.0093626826
-0.3616116116116119 	300.0000079172394 	2.289889090951827e-05 	101325.0093587189
-0.3591091091091095 	300.0000078257411 	2.26462912942168e-05 	101325.0092506681
-0.356606606606607 	300.0000076797695 	2.224603211213525e-05 	101325.009078368
-0.3541041041041044 	300.0000075388145 	2.186100037545005e-05 	101325.0089119749
-0.3516016016016019 	300.0000074636754 	2.165881149276985e-05 	101325.0088233787
-0.3490990990990994 	300.0000074931755 	2.174598607607315e-05 	101325.0088584915
-0.346596596596597 	300.0000076286528 	2.21248378388658e-05 	101325.0090187598
-0.3440940940940944 	300.000007831322 	2.268835225319628e-05 	101325.0092585051
-0.3415915915915919 	300.0000080361451 	2.325649597740235e-05 	101325.0095008275
-0.3390890890890895 	300.000008174201 	2.363710069837164e-05 	101325.009664187
-0.3365865865865869 	300.0000081940708 	2.368675908416703e-05 	101325.0096876581
-0.3340840840840844 	300.0000080771802 	2.335512648950513e-05 	101325.0095495159
-0.3315815815815819 	300.0000078450395 	2.270248859474783e-05 	101325.0092750266
-0.3290790790790794 	300.0000075532006 	2.188373957120019e-05 	101325.0089299502
-0.3265765765765769 	300.0000072747523 	2.110348928123634e-05 	101325.0086008313
-0.3240740740740744 	300.0000070807942 	2.056119046649133e-05 	101325.0083712998
-0.3215715715715718 	300.0000070235209 	2.040493403730299e-05 	101325.0083034308
-0.3190690690690695 	300.0000071262204 	2.06998330176247e-05 	101325.0084248404
-0.3165665665665668 	300.0000073779411 	2.141344154421426e-05 	101325.0087222115
-0.3140640640640644 	300.0000077345814 	2.242255808065703e-05 	101325.0091437367
-0.311561561561562 	300.0000081301779 	2.354229442666265e-05 	101325.0096115202
-0.3090590590590593 	300.0000084925289 	2.456713685817663e-05 	101325.0100397631
-0.3065565565565568 	300.0000087551297 	2.530817223940155e-05 	101325.0103502191
-0.3040540540540545 	300.0000088666941 	2.561840709602139e-05 	101325.0104821685
-0.3015515515515518 	300.0000087958758 	2.540779556072714e-05 	101325.0103984623
-0.2990490490490494 	300.0000085330112 	2.464888001818474e-05 	101325.010087914
-0.2965465465465469 	300.0000080899404 	2.337397997867547e-05 	101325.0095641083
-0.2940440440440444 	300.0000074952414 	2.166470655079554e-05 	101325.0088610907
-0.2915415415415418 	300.0000067895064 	1.963620992555361e-05 	101325.0080267963
-0.2890390390390395 	300.000006018525 	1.741872059051255e-05 	101325.0071153672
-0.2865365365365368 	300.0000052269863 	1.513963556473772e-05 	101325.006179644
-0.2840340340340343 	300.0000044533795 	1.290901564542612e-05 	101325.0052650489
-0.2815315315315318 	300.0000037266501 	1.08111066227235e-05 	101325.0044060082
-0.2790290290290295 	300.0000030664546 	8.902546283869307e-06 	101325.0036254428
-0.2765265265265269 	300.0000024833951 	7.215002489814988e-06 	101325.0029360339
-0.2740240240240244 	300.0000019810506 	5.75970333058134e-06 	101325.0023421141
-0.2715215215215219 	300.0000015577972 	4.532390662769121e-06 	101325.0018417213
-0.2690190190190194 	300.0000012082073 	3.518078635039028e-06 	101325.0014285519
-0.2665165165165169 	300.0000009250372 	2.695215165011004e-06 	101325.00109366
-0.2640140140140144 	300.000000699288 	2.039027983907549e-06 	101325.000826828
-0.2615115115115119 	300.0000005223738 	1.524078815512807e-06 	101325.0006175976
-0.2590090090090094 	300.0000003855783 	1.125996791629337e-06 	101325.00045598
-0.2565065065065068 	300.0000002815665 	8.226021009515546e-07 	101325.0003328976
-0.2540040040040044 	300.0000002033496 	5.94466227314904e-07 	101325.0002404148
-0.2515015015015019 	300.0000001453812 	4.251049945097911e-07 	101325.0001718093
-0.2489989989989994 	300.0000001028657 	3.009135173897154e-07 	101325.0001215353
-0.2464964964964968 	300.000000071999 	2.109011011578915e-07 	101325.0000851244
-0.2439939939939944 	300.0000000499587 	1.464042747590423e-07 	101325.0000590502
-0.2414914914914919 	300.0000000342924 	1.006781026454286e-07 	101325.0000405797
-0.2389889889889893 	300.0000000233819 	6.86122587627945e-08 	101325.0000276322
-0.2364864864864869 	300.0000000158193 	4.633879200423468e-08 	101325.0000186479
-0.2339839839839843 	300.0000000104565 	3.103325409153371e-08 	101325.0000124748
-0.2314814814814819 	300.0000000069822 	2.060180212163682e-08 	101325.0000082738
-0.2289789789789792 	300.0000000044924 	1.357095061640589e-08 	101325.0000054409
-0.2264764764764769 	300.0000000029355 	8.862511017406854e-09 	101325.0000035479
-0.2239739739739743 	300.0000000018922 	5.746405232911548e-09 	101325.0000022937
-0.2214714714714718 	300.0000000011619 	3.694977537557859e-09 	101325.0000014699
-0.2189689689689693 	300.0000000007535 	2.359659518697405e-09 	101325.0000009331
-0.2164664664664669 	300.0000000004806 	1.496802975841883e-09 	101325.0000005862
-0.2139639639639643 	300.0000000002123 	9.42476944685278e-10 	101325.0000003639
-0.2114614614614618 	300.0000000001615 	5.89562692415237e-10 	101325.0000002224
-0.2089589589589593 	300.0000000001109 	3.667265190082201e-10 	101325.0000001329
-0.2064564564564568 	300.000000000061 	2.26106560822638e-10 	101325.000000077
-0.2039539539539543 	299.9999999999075 	1.408027841329452e-10 	101325.0000000421
-0.2014514514514518 	299.9999999999611 	8.392249660545614e-11 	101325.0000000204
-0.1989489489489494 	299.9999999999766 	5.517619132404191e-11 	101325.0000000072
-0.1964464464464468 	300.000000000001 	3.107496603666421e-11 	101324.9999999994
-0.1939439439439443 	299.9999999999847 	2.336352465845833e-11 	101324.9999999942
-0.1914414414414418 	299.9999999998811 	1.27976130694256e-11 	101324.9999999911
-0.1889389389389393 	300.0000000000195 	1.13475550703367e-11 	101324.9999999896
-0.1864364364364368 	300.0000000000687 	6.49710009272036e-12 	101324.9999999887
-0.1839339339339343 	299.9999999999612 	8.110635636280318e-12 	101324.9999999882
-0.1814314314314318 	299.9999999999928 	4.497995652396241e-12 	101324.9999999879
-0.1789289289289293 	299.9999999998587 	7.173372989240149e-12 	101324.9999999878
-0.1764264264264268 	299.9999999999704 	2.186730483216208e-12 	101324.9999999875
-0.1739239239239243 	299.9999999998543 	6.608971657953734e-12 	101324.9999999874
-0.1714214214214218 	299.9999999999774 	1.077697727045849e-12 	101324.9999999873
-0.1689189189189193 	299.9999999999274 	7.23281853219686e-12 	101324.9999999872
-0.1664164164164168 	299.9999999999966 	2.125818644825073e-12 	101324.9999999871
-0.1639139139139143 	299.999999999979 	8.979698231605766e-12 	101324.9999999872
-0.1614114114114118 	300.0000000000376 	3.564900927510817e-12 	101324.9999999873
-0.1589089089089093 	299.9999999999991 	1.103044934663015e-11 	101324.9999999877
-0.1564064064064068 	299.9999999999777 	4.205263090117089e-12 	101324.9999999878
-0.1539039039039043 	299.9999999999842 	1.194318543167349e-11 	101324.9999999879
-0.1514014014014018 	300.0000000000329 	3.628813649079082e-12 	101324.999999988
-0.1488988988988993 	299.999999999975 	1.115021465469009e-11 	101324.999999988
-0.1463963963963968 	299.9999999999931 	2.072448329687293e-12 	101324.9999999881
-0.1438938938938943 	299.9999999999334 	1.028948329865602e-11 	101324.999999988
-0.1413913913913918 	299.9999999998913 	1.295302352058004e-12 	101324.9999999881
-0.1388888888888893 	299.9999999999728 	9.606769540684495e-12 	101324.9999999882
-0.1363863863863868 	299.9999999998409 	3.239143664500405e-12 	101324.9999999882
-0.1338838838838843 	299.9999999998648 	8.544317835364672e-12 	101324.999999988
-0.1313813813813818 	299.9999999999993 	3.529712006833832e-12 	101324.9999999881
-0.1288788788788793 	299.9999999999399 	8.919818224801977e-12 	101324.9999999883
-0.1263763763763768 	299.999999999957 	3.541050138048764e-12 	101324.9999999882
-0.1238738738738743 	299.9999999998864 	7.781060902166856e-12 	101324.9999999879
-0.1213713713713717 	299.9999999999536 	1.434662993824584e-12 	101324.9999999877
-0.1188688688688693 	300.0000000000026 	7.513146228220026e-12 	101324.9999999873
-0.1163663663663668 	299.9999999998628 	4.263567308977931e-13 	101324.9999999871
-0.1138638638638643 	299.9999999999853 	6.855989240197103e-12 	101324.9999999868
-0.1113613613613618 	299.9999999999781 	1.449760858889219e-12 	101324.9999999862
-0.1088588588588592 	299.9999999999579 	6.746796747356202e-12 	101324.9999999862
-0.1063563563563568 	299.9999999999225 	1.874508471225158e-12 	101324.9999999862
-0.1038538538538543 	299.9999999999552 	5.758527521523271e-12 	101324.9999999862
-0.1013513513513517 	300.0000000000224 	7.295442845377089e-13 	101324.9999999862
-0.09884884884884926 	299.9999999999077 	5.852165107141951e-12 	101324.9999999863
-0.09634634634634676 	299.9999999998343 	1.97109098865452e-12 	101324.9999999861
-0.09384384384384425 	299.9999999998983 	5.358702317973336e-12 	101324.9999999859
-0.09134134134134177 	300.0000000000368 	3.157685540390656e-12 	101324.9999999861
-0.08883883883883925 	300.0000000000136 	6.643459647300049e-12 	101324.9999999861
-0.08633633633633674 	299.9999999999284 	5.362531991045715e-12 	101324.9999999862
-0.08383383383383426 	300.0000000000161 	6.334228759961093e-12 	101324.9999999865
-0.08133133133133173 	299.9999999999503 	5.373684545384939e-12 	101324.9999999867
-0.07882882882882926 	299.999999999823 	5.243229663086698e-12 	101324.9999999867
-0.07632632632632676 	299.9999999999354 	5.143445829964205e-12 	101324.9999999864
-0.07382382382382424 	299.99999999985 	4.868240164115255e-12 	101324.9999999863
-0.07132132132132173 	300.0000000000185 	4.371446361803626e-12 	101324.9999999864
-0.06881881881881925 	299.999999999935 	4.74998004760147e-12 	101324.9999999865
-0.06631631631631671 	299.9999999998449 	4.057098052411423e-12 	101324.9999999862
-0.06381381381381425 	299.9999999999412 	3.213470921150645e-12 	101324.9999999861
-0.06131131131131173 	299.9999999999434 	2.772353783890784e-12 	101324.9999999861
-0.05880880880880923 	299.9999999998843 	2.697094631700071e-12 	101324.9999999861
-0.05630630630630672 	299.9999999999634 	2.486605017011008e-12 	101324.9999999862
-0.05380380380380424 	300.000000000021 	2.989021527112619e-12 	101324.9999999863
-0.05130130130130173 	300.0000000000221 	2.722091216996098e-12 	101324.9999999865
-0.04879879879879922 	299.999999999901 	2.705211555289551e-12 	101324.9999999867
-0.04629629629629672 	299.9999999998681 	2.146064315434918e-12 	101324.9999999868
-0.04379379379379422 	299.9999999999058 	2.3722272466133e-12 	101324.9999999869
-0.04129129129129173 	299.9999999999611 	1.88687059555212e-12 	101324.9999999868
-0.03878878878878922 	299.9999999999773 	1.909107049707608e-12 	101324.9999999868
-0.03628628628628671 	299.9999999999756 	1.533293987262039e-12 	101324.9999999868
-0.03378378378378422 	299.999999999884 	1.215226236683884e-12 	101324.9999999868
-0.03128128128128172 	299.9999999999437 	1.456001266794881e-12 	101324.9999999871
-0.02877877877877922 	299.9999999999507 	2.123595335033451e-12 	101324.9999999872
-0.0262762762762767 	299.999999999857 	2.200242102199702e-12 	101324.9999999873
-0.02377377377377422 	300.0000000000243 	2.086093666262868e-12 	101324.999999987
-0.0212712712712717 	299.9999999998555 	2.718133116297724e-12 	101324.9999999869
-0.01876876876876921 	299.9999999999488 	2.634651552857758e-12 	101324.9999999866
-0.01626626626626671 	300.000000000028 	3.580851829554107e-12 	101324.9999999864
-0.0137637637637642 	299.9999999999524 	2.884314226955093e-12 	101324.9999999865
-0.0112612612612617 	300.0000000000198 	3.338821679607353e-12 	101324.9999999867
-0.008758758758759198 	299.999999999985 	3.051151626762323e-12 	101324.9999999867
-0.006256256256256697 	299.9999999998312 	2.85634843732842e-12 	101324.9999999867
-0.003753753753754195 	299.9999999999337 	1.254553768316956e-12 	101324.9999999868
-0.001251251251251693 	299.9999999999006 	7.621897086842069e-13 	101324.9999999868
0.00125125125125081 	299.9999999999332 	4.188340848516763e-13 	101324.9999999868
0.003753753753753312 	299.9999999999411 	7.797761622250932e-14 	101324.9999999871
0.006256256256255817 	299.9999999998275 	1.015614478764367e-12 	101324.9999999872
0.008758758758758317 	299.9999999999917 	5.510304864200215e-13 	101324.9999999872
0.01126126126126082 	300.0000000000127 	1.282588442302714e-12 	101324.9999999872
0.01376376376376332 	299.9999999999518 	9.645236496937981e-13 	101324.9999999872
0.01626626626626582 	300.0000000000216 	1.604189386546138e-12 	101324.9999999868
0.01876876876876833 	299.9999999999305 	6.773853355578673e-13 	101324.9999999868
0.02127127127127083 	299.9999999999545 	7.558304726016036e-13 	101324.9999999869
0.02377377377377332 	299.999999999993 	4.408703865673027e-14 	101324.999999987
0.02627627627627583 	299.9999999998524 	8.584601065818138e-14 	101324.9999999873
0.02877877877877833 	300.0000000000131 	8.866351371071308e-14 	101324.9999999874
0.03128128128128083 	299.9999999999221 	8.521009403749668e-13 	101324.9999999873
0.03378378378378333 	299.9999999998557 	1.243415806569211e-12 	101324.9999999871
0.03628628628628584 	299.9999999999446 	1.396437318450665e-12 	101324.9999999868
0.03878878878878834 	299.9999999999723 	1.381184402178282e-12 	101324.9999999865
0.04129129129129084 	299.9999999999677 	1.221380461850754e-12 	101324.9999999862
0.04379379379379333 	299.9999999999095 	8.782023467559681e-14 	101324.9999999863
0.04629629629629585 	299.9999999998394 	2.296853348067876e-13 	101324.9999999862
0.04879879879879834 	299.9999999999393 	1.160358464626014e-12 	101324.9999999865
0.05130130130130085 	300.0000000000147 	6.385356775870994e-13 	101324.9999999865
0.05380380380380335 	300.0000000000336 	7.799377261602536e-13 	101324.9999999867
0.05630630630630584 	299.9999999999904 	8.686839945038942e-13 	101324.9999999868
0.05880880880880836 	299.9999999998859 	1.530641666991952e-12 	101324.9999999867
0.06131131131131085 	299.9999999999529 	1.704940527003089e-12 	101324.9999999869
0.06381381381381336 	299.9999999999376 	1.652935416897006e-12 	101324.9999999872
0.06631631631631586 	299.9999999998423 	1.450260309687448e-12 	101324.9999999874
0.06881881881881835 	299.9999999999351 	1.964273495300694e-12 	101324.9999999874
0.07132132132132088 	299.999999999986 	9.676182672580361e-13 	101324.9999999873
0.07382382382382337 	299.9999999998498 	3.182883984377572e-13 	101324.999999987
0.07632632632632587 	299.9999999999515 	1.126522833490481e-13 	101324.999999987
0.07882882882882837 	299.9999999999093 	7.352496925038818e-14 	101324.9999999869
0.08133133133133086 	299.9999999999724 	8.672868210912036e-13 	101324.9999999871
0.08383383383383337 	299.9999999999803 	1.115122531788243e-12 	101324.999999987
0.08633633633633589 	299.9999999998601 	1.301247520717806e-12 	101324.999999987
0.08883883883883838 	300.0000000000099 	2.037336210996662e-12 	101324.9999999867
0.09134134134134086 	299.9999999999767 	1.836553473962946e-12 	101324.9999999868
0.09384384384384339 	299.9999999998409 	3.193256897536767e-12 	101324.9999999868
0.09634634634634588 	299.9999999999534 	3.597108464883083e-12 	101324.9999999869
0.09884884884884838 	299.9999999999611 	3.807848547103458e-12 	101324.9999999867
0.1013513513513509 	300.0000000000304 	3.345226230240728e-12 	101324.9999999867
0.1038538538538534 	299.9999999999274 	3.389840489819462e-12 	101324.9999999865
0.1063563563563559 	300.0000000000128 	4.224161102085246e-12 	101324.9999999861
0.1088588588588584 	300.0000000000288 	3.624396348502638e-12 	101324.9999999862
0.1113613613613609 	299.9999999998761 	3.478552234163252e-12 	101324.9999999865
0.1138638638638634 	299.9999999999258 	3.434088312896455e-12 	101324.9999999864
0.1163663663663659 	299.99999999993 	3.061628490507424e-12 	101324.9999999863
0.1188688688688684 	299.9999999999485 	3.329326336735984e-12 	101324.9999999863
0.1213713713713709 	299.9999999999881 	2.606657729261684e-12 	101324.9999999867
0.1238738738738734 	299.9999999998934 	2.978236091891172e-12 	101324.9999999866
0.1263763763763759 	299.9999999999782 	2.98786559306157e-12 	101324.9999999868
0.1288788788788784 	299.9999999999798 	2.898344060881272e-12 	101324.9999999868
0.1313813813813809 	299.9999999999785 	2.39342923464449e-12 	101324.999999987
0.1338838838838834 	299.9999999999611 	2.409480789165759e-12 	101324.9999999874
0.1363863863863859 	300.0000000000378 	1.487356385899348e-12 	101324.999999988
0.1388888888888884 	300.0000000000696 	1.713876643604031e-12 	101324.9999999882
0.1413913913913909 	300.0000000000085 	4.955914814886302e-13 	101324.9999999882
0.1438938938938934 	299.9999999999866 	1.745969428658798e-12 	101324.9999999881
0.1463963963963959 	299.9999999999334 	3.743112808493249e-13 	101324.9999999881
0.1488988988988985 	299.9999999998648 	1.957687223495602e-12 	101324.999999988
0.1514014014014009 	299.9999999999607 	1.000783381603639e-12 	101324.9999999877
0.1539039039039035 	299.9999999999491 	1.75393134607412e-12 	101324.9999999873
0.1564064064064059 	299.9999999998912 	2.00023217914209e-12 	101324.9999999872
0.1589089089089084 	299.9999999999606 	2.453678097200723e-12 	101324.999999987
0.1614114114114109 	299.999999999955 	1.132037147302857e-12 	101324.9999999868
0.1639139139139134 	299.9999999998819 	1.952953294428487e-12 	101324.9999999868
0.166416416416416 	299.9999999999983 	8.49881765100855e-13 	101324.9999999867
0.1689189189189185 	300.000000000054 	1.604702744522931e-12 	101324.9999999868
0.1714214214214209 	300.0000000000081 	1.352166262325571e-12 	101324.9999999869
0.1739239239239235 	299.999999999993 	6.69769207338913e-13 	101324.9999999871
0.1764264264264259 	299.9999999999499 	2.279235557742248e-12 	101324.9999999868
0.1789289289289284 	300.0000000000201 	4.986045499419565e-13 	101324.9999999867
0.181431431431431 	299.9999999999533 	2.486316553121583e-12 	101324.9999999868
0.1839339339339334 	299.9999999999609 	1.12383103097857e-12 	101324.9999999865
0.186436436436436 	299.9999999999001 	2.480128403245217e-12 	101324.9999999863
0.1889389389389385 	299.999999999977 	2.749248819696583e-12 	101324.9999999862
0.191441441441441 	299.999999999969 	2.680066890316436e-12 	101324.9999999862
0.1939439439439434 	299.9999999998702 	3.762612907447119e-12 	101324.9999999861
0.196446446446446 	299.9999999999205 	1.890122260010781e-12 	101324.9999999862
0.1989489489489485 	299.9999999999603 	3.634249413733464e-12 	101324.9999999859
0.2014514514514509 	299.9999999999699 	1.458636394057373e-12 	101324.9999999859
0.2039539539539535 	299.9999999999833 	2.372653598855376e-12 	101324.9999999861
0.2064564564564559 	299.9999999999362 	1.379388321351345e-12 	101324.9999999863
0.2089589589589585 	299.9999999999715 	2.097467770340163e-12 	101324.9999999865
0.211461461461461 	299.9999999999089 	2.744169590322613e-12 	101324.9999999866
0.2139639639639635 	299.9999999999786 	2.420704651619878e-12 	101324.9999999866
0.2164664664664659 	300.000000000001 	3.981693277399243e-12 	101324.9999999864
0.2189689689689684 	299.9999999999966 	1.980492870431945e-12 	101324.9999999864
0.221471471471471 	300.0000000000013 	4.004697595916737e-12 	101324.9999999865
0.2239739739739735 	299.9999999999346 	1.689920116345152e-12 	101324.9999999864
0.226476476476476 	299.9999999999831 	3.632478920899343e-12 	101324.9999999865
0.2289789789789785 	299.9999999999939 	2.537739862416738e-12 	101324.9999999865
0.231481481481481 	299.9999999999515 	2.894381709514673e-12 	101324.9999999867
0.2339839839839835 	299.9999999999946 	2.905913363972015e-12 	101324.999999987
0.236486486486486 	300.0000000000304 	1.881550413119592e-12 	101324.9999999871
0.2389889889889885 	299.9999999999993 	3.223821576664223e-12 	101324.9999999872
0.241491491491491 	299.9999999998763 	1.223644593083055e-12 	101324.9999999874
0.2439939939939935 	299.9999999999785 	3.710767902489652e-12 	101324.9999999876
0.246496496496496 	299.9999999999865 	1.078558413329518e-12 	101324.9999999874
0.2489989989989985 	300.0000000000504 	1.508651672005292e-12 	101324.9999999873
0.251501501501501 	300.0000000000404 	1.270672886468854e-13 	101324.9999999871
0.2540040040040035 	299.999999999975 	4.321040681694993e-13 	101324.9999999873
0.256506506506506 	300.0000000000315 	4.685055773064688e-13 	101324.9999999872
0.2590090090090086 	299.9999999998618 	1.260008845679456e-12 	101324.9999999872
0.261511511511511 	300.0000000000059 	2.014802091220121e-12 	101324.9999999872
0.2640140140140135 	299.9999999999841 	1.249677172555387e-12 	101324.9999999872
0.2665165165165161 	299.9999999998981 	1.939369270051445e-12 	101324.9999999872
0.2690190190190185 	300.0000000000211 	9.601595988444998e-13 	101324.9999999875
0.271521521521521 	300.0000000000195 	2.256104350057074e-12 	101324.9999999877
0.2740240240240235 	300.0000000000209 	2.519305194270497e-12 	101324.999999988
0.276526526526526 	300.0000000000072 	2.773719365600848e-12 	101324.9999999882
0.2790290290290286 	299.9999999999127 	3.467816085882805e-12 	101324.999999988
0.281531531531531 	299.9999999998947 	2.860701935480878e-12 	101324.9999999878
0.2840340340340335 	299.9999999999732 	4.138597931362142e-12 	101324.9999999877
0.2865365365365361 	299.9999999999353 	3.350318640672966e-12 	101324.9999999874
0.2890390390390385 	299.9999999999933 	2.968555008454061e-12 	101324.9999999873
0.291541541541541 	299.9999999999945 	3.136677882838729e-12 	101324.9999999872
0.2940440440440436 	299.999999999987 	1.821126644127987e-12 	101324.9999999871
0.296546546546546 	299.9999999999829 	3.956730169204314e-12 	101324.9999999871
0.2990490490490486 	299.9999999999109 	1.422395087826443e-12 	101324.9999999871
0.3015515515515511 	300.0000000000551 	5.474322825398066e-12 	101324.9999999872
0.3040540540540535 	300.000000000017 	2.214708151720415e-12 	101324.9999999874
0.3065565565565562 	299.9999999999819 	5.421297764656454e-12 	101324.9999999876
0.3090590590590585 	299.9999999999796 	1.983519153391475e-12 	101324.9999999878
0.3115615615615611 	299.9999999999053 	4.767769747007268e-12 	101324.9999999879
0.3140640640640635 	300.0000000000109 	6.725214568626016e-13 	101324.9999999881
0.316566566566566 	299.9999999999933 	3.954268239884534e-12 	101324.9999999883
0.3190690690690687 	299.9999999999242 	8.153084113222994e-13 	101324.9999999884
0.3215715715715711 	300.0000000000206 	4.120960774344467e-12 	101324.9999999885
0.3240740740740735 	299.9999999999929 	8.944099189602642e-13 	101324.9999999884
0.326576576576576 	299.9999999998641 	2.520214312943099e-12 	101324.9999999883
0.3290790790790786 	300.0000000000154 	2.652662097566006e-13 	101324.9999999884
0.3315815815815811 	300.0000000000516 	1.646283439931855e-12 	101324.9999999883
0.3340840840840836 	299.9999999999829 	8.614060851647781e-13 	101324.999999988
0.3365865865865861 	300.0000000000742 	1.936926727192749e-12 	101324.999999988
0.3390890890890886 	300.0000000000665 	6.293832528228748e-13 	101324.9999999878
0.3415915915915911 	300.0000000000003 	2.149065398609003e-12 	101324.9999999878
0.3440940940940935 	299.9999999999353 	1.012403971579495e-12 	101324.999999988
0.3465965965965962 	300.0000000000489 	2.764040949634252e-12 	101324.9999999883
0.3490990990990985 	300.000000000037 	1.542197110537811e-12 	101324.9999999884
0.3516016016016011 	299.9999999999844 	1.831476231710562e-12 	101324.9999999886
0.3541041041041035 	300.0000000000072 	1.518259848407204e-12 	101324.9999999887
0.3566066066066061 	299.9999999999378 	5.615450167453123e-13 	101324.9999999887
0.3591091091091085 	299.999999999891 	2.562265193018832e-12 	101324.9999999883
0.3616116116116112 	299.9999999999174 	1.160072913632819e-12 	101324.9999999882
0.3641141141141137 	299.9999999999089 	3.738040234070328e-12 	101324.999999988
0.3666166166166161 	299.9999999999009 	1.892043157565211e-12 	101324.9999999879
0.3691191191191185 	300.0000000000596 	5.005799274373746e-12 	101324.9999999877
0.371621621621621 	300.0000000000148 	1.267687473723463e-12 	101324.9999999875
0.3741241241241237 	300.0000000000684 	4.815178011748695e-12 	101324.9999999877
0.3766266266266261 	300.0000000000439 	1.432332064159255e-12 	101324.9999999875
0.3791291291291286 	299.9999999999768 	4.653599668553224e-12 	101324.9999999874
0.3816316316316311 	299.999999999892 	2.161877952786968e-12 	101324.9999999877
0.3841341341341336 	300.0000000000167 	5.116398991556982e-12 	101324.9999999875
0.3866366366366362 	299.9999999999978 	2.810809301431234e-12 	101324.9999999875
0.3891391391391387 	299.999999999935 	5.346311213614129e-12 	101324.9999999877
0.391641641641641 	300.0000000000013 	3.66415720746755e-12 	101324.9999999878
0.3941441441441436 	300.0000000000151 	5.387468814740661e-12 	101324.9999999878
0.3966466466466462 	300.0000000000027 	3.725616971605046e-12 	101324.9999999877
0.3991491491491486 	299.9999999999297 	4.653387758902971e-12 	101324.9999999874
0.4016516516516512 	299.9999999998793 	3.466062596394019e-12 	101324.9999999872
0.4041541541541536 	299.9999999999266 	4.614973300293993e-12 	101324.9999999874
0.4066566566566561 	299.9999999999239 	2.802253717638647e-12 	101324.9999999875
0.4091591591591587 	299.9999999999882 	4.014167605531287e-12 	101324.9999999878
0.4116616616616612 	300.0000000000069 	2.402871525851732e-12 	101324.9999999881
0.4141641641641635 	300.0000000000695 	2.480563113209802e-12 	101324.9999999882
0.4166666666666662 	299.9999999999915 	2.443978680291301e-12 	101324.9999999879
0.4191691691691687 	299.9999999999118 	9.099099605108076e-13 	101324.999999988
0.421671671671671 	300.0000000000225 	3.095286904015716e-12 	101324.9999999881
0.4241741741741737 	299.9999999999747 	2.257824377006229e-12 	101324.9999999881
0.4266766766766761 	299.9999999999386 	3.678273666739153e-12 	101324.9999999879
0.4291791791791785 	300.0000000000269 	2.65867667284876e-12 	101324.9999999881
0.4316816816816812 	300.0000000000155 	4.873423842606135e-12 	101324.9999999882
0.4341841841841836 	299.999999999979 	2.091468097748225e-12 	101324.9999999884
0.4366866866866862 	299.9999999998801 	4.24378848154303e-12 	101324.9999999885
0.4391891891891885 	299.9999999999723 	1.020958575786019e-12 	101324.9999999884
0.4416916916916913 	299.9999999999716 	3.852859883490029e-12 	101324.9999999882
0.4441941941941936 	299.999999999983 	1.232727631304843e-12 	101324.9999999882
0.4466966966966961 	299.9999999998847 	3.313649126463303e-12 	101324.9999999884
0.4491991991991987 	299.9999999999672 	2.265820054475748e-12 	101324.9999999886
0.4517017017017012 	299.9999999999599 	3.288884451858499e-12 	101324.9999999888
0.4542042042042035 	299.9999999999842 	2.394579698022992e-12 	101324.9999999886
0.4567067067067062 	299.9999999999922 	2.200205310017617e-12 	101324.9999999884
0.4592092092092087 	299.9999999998968 	2.275685881804415e-12 	101324.9999999884
0.4617117117117112 	300.0000000000264 	2.248899269396734e-12 	101324.9999999882
0.4642142142142137 	299.9999999999513 	2.061439594502342e-12 	101324.9999999881
0.4667167167167162 	299.9999999999923 	2.083489090474997e-12 	101324.9999999884
0.4692192192192187 	299.9999999999432 	2.059270463368628e-12 	101324.9999999884
0.4717217217217212 	300.0000000000234 	2.435900832105705e-12 	101324.9999999886
0.4742242242242236 	299.9999999999399 	2.33276728691965e-12 	101324.9999999887
0.4767267267267262 	299.999999999965 	2.469947353372735e-12 	101324.9999999889
0.4792292292292287 	300.0000000000285 	2.497570617753279e-12 	101324.9999999891
0.4817317317317312 	300.000000000051 	2.114657557046317e-12 	101324.9999999888
0.4842342342342336 	299.9999999999785 	2.287695630421531e-12 	101324.9999999887
0.4867367367367362 	299.9999999999327 	1.574200844614381e-12 	101324.9999999888
0.4892392392392387 	300.0000000000391 	2.639681895002436e-12 	101324.9999999887
0.4917417417417412 	300.0000000000094 	1.428381524132302e-12 	101324.9999999889
0.4942442442442437 	299.9999999998761 	3.481558516822492e-12 	101324.999999989
0.4967467467467462 	299.9999999999001 	2.511340230566091e-12 	101324.999999989
0.4992492492492487 	299.9999999998875 	5.06774103000996e-12 	101324.9999999891
0.5017517517517511 	299.9999999999436 	4.321837022745325e-12 	101324.9999999892
0.5042542542542537 	299.9999999999563 	4.792581462036606e-12 	101324.9999999892
0.5067567567567562 	299.9999999999272 	4.57155896723713e-12 	101324.999999989
0.5092592592592589 	299.9999999999488 	3.864136511813264e-12 	101324.9999999889
0.5117617617617611 	299.9999999999459 	5.1560943980032e-12 	101324.9999999887
0.5142642642642637 	299.9999999999864 	3.121326436427288e-12 	101324.9999999888
0.5167667667667663 	299.999999999964 	5.528043107938107e-12 	101324.9999999889
0.5192692692692688 	299.9999999998856 	2.11762081542456e-12 	101324.999999989
0.5217717717717714 	299.9999999999236 	7.137069793708035e-12 	101324.9999999891
0.5242742742742736 	299.9999999999261 	2.427932114846916e-12 	101324.9999999893
0.5267767767767763 	299.9999999999451 	6.994823589231792e-12 	101324.9999999895
0.5292792792792789 	299.9999999999244 	3.273812144245322e-12 	101324.9999999898
0.5317817817817813 	299.999999999882 	6.306822804458995e-12 	101324.99999999
0.5342842842842837 	300.0000000000151 	3.736054239488298e-12 	101324.9999999901
0.5367867867867864 	299.9999999999967 	6.043276662678342e-12 	101324.99999999
0.5392892892892888 	299.9999999999376 	4.932028579016003e-12 	101324.9999999901
0.5417917917917912 	300.0000000000006 	6.940736055011892e-12 	101324.9999999898
0.5442942942942938 	299.9999999999732 	5.532542674745173e-12 	101324.9999999895
0.5467967967967964 	299.9999999999266 	7.550462072869336e-12 	101324.9999999895
0.5492992992992988 	299.999999999922 	7.046520654842433e-12 	101324.9999999892
0.5518018018018012 	299.9999999999245 	8.525059060459178e-12 	101324.9999999892
0.5543043043043039 	300.0000000000227 	7.075861663593863e-12 	101324.9999999893
0.5568068068068063 	299.9999999999856 	8.47049489556655e-12 	101324.9999999892
0.5593093093093087 	299.9999999998756 	7.292510863321356e-12 	101324.9999999893
0.5618118118118114 	299.999999999938 	9.833463602566387e-12 	101324.9999999893
0.5643143143143137 	299.9999999999201 	8.522949243993478e-12 	101324.9999999893
0.5668168168168163 	299.9999999999904 	9.399759073736437e-12 	101324.9999999895
0.5693193193193188 	300.0000000000359 	8.849039302425899e-12 	101324.9999999898
0.5718218218218213 	300.0000000000315 	7.68763021938184e-12 	101324.99999999
0.5743243243243239 	300.0000000000142 	8.434497952861992e-12 	101324.99999999
0.5768268268268262 	299.9999999999984 	6.019068787393269e-12 	101324.9999999902
0.5793293293293288 	299.9999999999235 	8.797912996717867e-12 	101324.9999999902
0.5818318318318314 	299.9999999998995 	5.013708760477596e-12 	101324.9999999902
0.5843343343343338 	299.9999999999862 	9.970095777641353e-12 	101324.9999999902
0.5868368368368363 	299.9999999999736 	5.260797314899651e-12 	101324.9999999901
0.5893393393393387 	299.9999999999245 	1.001175579464624e-11 	101324.9999999903
0.5918418418418413 	299.9999999999258 	7.278436143830897e-12 	101324.9999999904
0.5943443443443439 	300.0000000000136 	1.073678172903941e-11 	101324.9999999904
0.5968468468468463 	300.0000000000225 	8.488028508028877e-12 	101324.9999999904
0.5993493493493487 	300.0000000000549 	1.017908144482643e-11 	101324.9999999901
0.6018518518518514 	299.9999999999819 	8.108960664072872e-12 	101324.9999999899
0.6043543543543537 	300.0000000000019 	8.985930025138831e-12 	101324.9999999899
0.6068568568568564 	299.9999999999844 	6.387816549393525e-12 	101324.9999999896
0.6093593593593587 	299.9999999999124 	7.878916690471958e-12 	101324.9999999894
0.6118618618618614 	299.9999999999023 	7.388127679511213e-12 	101324.9999999894
0.6143643643643638 	300.0000000000207 	9.111457662472686e-12 	101324.9999999896
0.6168668668668662 	299.9999999999866 	7.017350156906025e-12 	101324.9999999898
0.6193693693693688 	299.9999999999494 	8.99440360522272e-12 	101324.99999999
0.6218718718718714 	299.9999999999563 	6.746507320738565e-12 	101324.99999999
0.6243743743743737 	299.9999999999083 	9.296428706592454e-12 	101324.99999999
0.6268768768768762 	299.9999999998963 	7.297445692245911e-12 	101324.9999999902
0.629379379379379 	299.9999999999489 	8.739820775780704e-12 	101324.9999999904
0.6318818818818812 	299.9999999999758 	8.792479084572906e-12 	101324.9999999905
0.6343843843843838 	300.0000000000236 	8.969033980401694e-12 	101324.9999999906
0.6368868868868864 	299.9999999999814 	9.941378376992051e-12 	101324.9999999907
0.6393893893893888 	299.9999999998982 	7.886871492713649e-12 	101324.9999999907
0.6418918918918912 	299.9999999999982 	1.067842074821636e-11 	101324.9999999906
0.6443943943943939 	299.9999999999694 	6.718659378267949e-12 	101324.9999999907
0.6468968968968963 	299.9999999999785 	1.209555834860059e-11 	101324.9999999908
0.6493993993993988 	299.9999999999699 	7.028431580106011e-12 	101324.9999999907
0.6519019019019012 	299.9999999999758 	1.147658582563102e-11 	101324.9999999907
0.6544044044044038 	299.999999999876 	8.054527552811367e-12 	101324.9999999905
0.6569069069069065 	299.9999999999359 	1.23692953008899e-11 	101324.9999999905
0.6594094094094087 	299.9999999999513 	1.007961197796905e-11 	101324.9999999906
0.6619119119119113 	299.9999999999444 	1.299391506610205e-11 	101324.9999999906
0.664414414414414 	300.0000000000144 	1.059313454569121e-11 	101324.9999999907
0.6669169169169162 	300.0000000000252 	1.237934582489746e-11 	101324.9999999909
0.6694194194194188 	299.9999999999823 	1.060402977695434e-11 	101324.9999999912
0.6719219219219214 	299.9999999998997 	1.237265704812705e-11 	101324.9999999912
0.674424424424424 	299.9999999999561 	1.132233126975092e-11 	101324.9999999913
0.6769269269269262 	299.9999999998898 	1.243325689140565e-11 	101324.9999999914
0.679429429429429 	300.0000000000063 	1.102103143783923e-11 	101324.9999999914
0.6819319319319311 	299.9999999999682 	1.156504110816218e-11 	101324.9999999913
0.6844344344344341 	299.9999999999847 	1.014965165101707e-11 	101324.9999999913
0.686936936936936 	299.9999999999846 	1.157517698072108e-11 	101324.9999999912
0.6894394394394392 	299.999999999999 	1.036614674331971e-11 	101324.9999999914
0.6919419419419413 	299.999999999979 	1.094395645170802e-11 	101324.9999999914
0.694444444444444 	299.9999999998976 	1.122317630788532e-11 	101324.9999999913
0.6969469469469463 	299.999999999893 	1.157218994719626e-11 	101324.9999999914
0.6994494494494489 	299.999999999898 	1.28024558772865e-11 	101324.9999999914
0.7019519519519515 	299.9999999999753 	1.160374333418305e-11 	101324.9999999913
0.7044544544544538 	299.9999999999336 	1.329928591062373e-11 	101324.9999999916
0.7069569569569564 	299.9999999999995 	1.038455805823473e-11 	101324.9999999917
0.7094594594594589 	299.9999999999569 	1.353876500013558e-11 	101324.9999999915
0.7119619619619615 	299.9999999998881 	1.021078039825121e-11 	101324.9999999914
0.7144644644644638 	299.9999999999458 	1.276611273051396e-11 	101324.9999999914
0.7169669669669665 	299.9999999999031 	1.120121953264163e-11 	101324.999999991
0.7194694694694688 	299.9999999999997 	1.271194428010036e-11 	101324.999999991
0.7219719719719715 	299.9999999999895 	1.174946646735339e-11 	101324.999999991
0.7244744744744737 	300.0000000000106 	1.19422194683146e-11 	101324.999999991
0.7269769769769764 	300.0000000000004 	1.241440158141734e-11 	101324.999999991
0.7294794794794791 	299.9999999999853 	1.114849508624283e-11 	101324.9999999913
0.7319819819819813 	299.9999999999701 	1.468888136868603e-11 	101324.9999999912
0.7344844844844839 	299.9999999998899 	1.303237156532474e-11 	101324.9999999912
0.7369869869869864 	299.9999999999321 	1.501729365280855e-11 	101324.9999999912
0.739489489489489 	299.9999999999268 	1.43945631962731e-11 	101324.999999991
0.7419919919919914 	299.9999999999076 	1.445413971055384e-11 	101324.999999991
0.7444944944944939 	299.9999999999777 	1.559793748716267e-11 	101324.9999999912
0.7469969969969963 	299.9999999999634 	1.379288329996407e-11 	101324.9999999913
0.7494994994994989 	299.9999999999175 	1.695071589095279e-11 	101324.9999999911
0.7520020020020015 	299.9999999999575 	1.325004844778061e-11 	101324.9999999912
0.7545045045045039 	299.9999999999539 	1.773397191513621e-11 	101324.9999999913
0.7570070070070062 	299.9999999999243 	1.402516810349979e-11 	101324.9999999914
0.7595095095095092 	299.999999999917 	1.661189972655768e-11 	101324.9999999917
0.7620120120120112 	300.0000000000116 	1.504292005784987e-11 	101324.9999999919
0.7645145145145138 	299.9999999999851 	1.521790331556891e-11 	101324.9999999919
0.7670170170170165 	299.9999999999121 	1.52108078444604e-11 	101324.9999999919
0.7695195195195191 	299.9999999998952 	1.332576794212183e-11 	101324.9999999919
0.7720220220220213 	299.9999999999096 	1.598685540146414e-11 	101324.9999999921
0.7745245245245239 	299.9999999999038 	1.300250017975925e-11 	101324.9999999922
0.7770270270270263 	299.9999999999525 	1.572023916944652e-11 	101324.9999999923
0.779529529529529 	299.9999999999749 	1.439588366478947e-11 	101324.9999999925
0.7820320320320313 	299.9999999999607 	1.543444083423784e-11 	101324.9999999925
0.784534534534534 	300.0000000000047 	1.569205020006934e-11 	101324.9999999924
0.7870370370370364 	299.999999999997 	1.581774054364761e-11 	101324.9999999923
0.7895395395395389 	299.9999999999825 	1.707942987449137e-11 	101324.9999999923
0.7920420420420413 	299.9999999999699 	1.568788433460629e-11 	101324.9999999923
0.794544544544544 	299.9999999999596 	1.758252391624826e-11 	101324.9999999924
0.7970470470470463 	300.0000000000046 	1.459744058663836e-11 	101324.9999999923
0.799549549549549 	299.9999999999861 	1.894473869460573e-11 	101324.9999999923
0.8020520520520515 	299.9999999999848 	1.53464539019104e-11 	101324.9999999921
0.8045545545545539 	299.9999999999293 	1.789314818877144e-11 	101324.999999992
0.8070570570570563 	299.9999999999694 	1.594891917431783e-11 	101324.9999999919
0.8095595595595589 	299.9999999999412 	1.665472422080248e-11 	101324.9999999921
0.8120620620620614 	299.9999999999222 	1.666231672865611e-11 	101324.9999999925
0.8145645645645638 	300.0000000000058 	1.686563558941944e-11 	101324.9999999928
0.8170670670670666 	300.0000000000043 	1.798445205213149e-11 	101324.999999993
0.8195695695695689 	299.9999999999737 	1.601533156318226e-11 	101324.9999999932
0.8220720720720714 	299.9999999999249 	1.9678726832801e-11 	101324.9999999933
0.8245745745745739 	299.9999999999926 	1.687228510588434e-11 	101324.9999999932
0.8270770770770765 	299.9999999999619 	1.96365755764891e-11 	101324.999999993
0.8295795795795788 	299.9999999999385 	1.816085664688402e-11 	101324.9999999928
0.8320820820820815 	300.0000000000242 	1.899032439489242e-11 	101324.9999999928
0.834584584584584 	300.0000000000126 	1.832748010828866e-11 	101324.9999999926
0.8370870870870865 	299.9999999999608 	1.849246672883063e-11 	101324.9999999925
0.8395895895895891 	299.9999999999139 	2.058787024846493e-11 	101324.9999999927
0.8420920920920915 	299.9999999999309 	1.953667630997075e-11 	101324.9999999928
0.844594594594594 	299.9999999999266 	1.994379831145845e-11 	101324.9999999928
0.8470970970970964 	299.9999999999491 	1.942534358484457e-11 	101324.9999999927
0.8495995995995991 	299.9999999999947 	1.93970837979033e-11 	101324.9999999928
0.8521021021021015 	299.9999999999783 	1.968848171652847e-11 	101324.9999999928
0.8546046046046039 	299.9999999999662 	1.914304383085489e-11 	101324.999999993
0.8571071071071066 	300.0000000000044 	2.099052189635949e-11 	101324.999999993
0.8596096096096089 	299.9999999999599 	1.930532616898716e-11 	101324.9999999931
0.8621121121121116 	299.9999999999163 	2.315756270121767e-11 	101324.9999999929
0.8646146146146139 	299.9999999999956 	1.947352945187338e-11 	101324.9999999928
0.8671171171171166 	299.9999999999628 	2.054950760823674e-11 	101324.9999999929
0.8696196196196189 	299.9999999999217 	1.903171196228719e-11 	101324.9999999931
0.8721221221221216 	299.9999999999726 	1.96925536350648e-11 	101324.9999999931
0.874624624624624 	299.9999999999976 	1.959190168857655e-11 	101324.999999993
0.8771271271271264 	299.9999999999994 	1.918283381939223e-11 	101324.9999999931
0.879629629629629 	300.0000000000201 	2.027881836346629e-11 	101324.999999993
0.8821321321321317 	299.9999999999785 	1.821259956538796e-11 	101324.9999999932
0.8846346346346339 	299.9999999999064 	2.168869269027817e-11 	101324.9999999932
0.8871371371371364 	299.9999999999484 	1.877224320883525e-11 	101324.9999999931
0.8896396396396391 	299.9999999999485 	2.145518671183686e-11 	101324.9999999933
0.8921421421421414 	299.9999999999512 	1.980187319984903e-11 	101324.9999999935
0.8946446446446441 	299.9999999999792 	2.077392079563493e-11 	101324.9999999937
0.8971471471471464 	300.0000000000032 	1.969722680157022e-11 	101324.9999999939
0.8996496496496489 	299.9999999999773 	1.89400464639499e-11 	101324.9999999942
0.9021521521521517 	299.9999999999588 	1.98296529858925e-11 	101324.9999999942
0.9046546546546541 	299.9999999999931 	1.843869297579545e-11 	101324.9999999942
0.9071571571571564 	299.9999999999395 	1.953654962453829e-11 	101324.999999994
0.9096596596596589 	299.9999999999345 	1.960464740524409e-11 	101324.999999994
0.9121621621621616 	300.0000000000125 	1.979091339245761e-11 	101324.9999999942
0.9146646646646639 	299.9999999999727 	1.983041328159596e-11 	101324.9999999941
0.9171671671671666 	299.9999999999283 	2.005782888196572e-11 	101324.9999999941
0.9196696696696689 	299.9999999999982 	2.180693312181491e-11 	101324.9999999942
0.9221721721721714 	299.9999999999922 	2.03157280355169e-11 	101324.9999999942
0.9246746746746741 	299.9999999999202 	2.425104550072836e-11 	101324.9999999941
0.9271771771771765 	299.9999999999418 	2.152824964227306e-11 	101324.999999994
0.9296796796796791 	299.9999999999881 	2.42454713177808e-11 	101324.9999999939
0.9321821821821816 	299.9999999999573 	2.267807982242326e-11 	101324.999999994
0.9346846846846838 	299.9999999999352 	2.389472914411645e-11 	101324.9999999942
0.9371871871871866 	300.0000000000118 	2.24699865886906e-11 	101324.9999999941
0.9396896896896891 	300.0000000000128 	2.188020841657183e-11 	101324.9999999944
0.9421921921921914 	300.0000000000117 	2.184741574833099e-11 	101324.9999999947
0.9446946946946939 	299.9999999999627 	2.091570577810698e-11 	101324.999999995
0.9471971971971965 	299.999999999907 	2.358243733351267e-11 	101324.9999999953
0.9496996996996991 	299.9999999999554 	2.082740779525456e-11 	101324.9999999955
0.9522022022022016 	299.9999999999721 	2.291661571686087e-11 	101324.9999999954
0.9547047047047038 	299.9999999999682 	2.200088330121653e-11 	101324.9999999952
0.9572072072072064 	299.9999999999523 	2.32160684600111e-11 	101324.9999999954
0.9597097097097093 	299.9999999999533 	2.243845881110531e-11 	101324.9999999956
0.9622122122122114 	299.9999999999502 	2.20300519126585e-11 	101324.9999999957
0.964714714714714 	299.9999999999432 	2.354249673972421e-11 	101324.9999999959
0.9672172172172167 	299.9999999999471 	2.23403885632738e-11 	101324.9999999959
0.969719719719719 	299.9999999999837 	2.294885682093383e-11 	101324.9999999957
0.9722222222222214 	299.9999999999765 	2.256297545044253e-11 	101324.9999999955
0.9747247247247239 	299.9999999999704 	2.290481312685671e-11 	101324.9999999955
0.9772272272272267 	300.0000000000102 	2.28458776385528e-11 	101324.9999999955
0.9797297297297292 	299.9999999999862 	2.215790625413365e-11 	101324.9999999956
0.9822322322322313 	299.9999999999852 	2.306910740711779e-11 	101324.9999999958
0.9847347347347344 	299.9999999999839 	2.135708820203356e-11 	101324.999999996
0.9872372372372363 	299.9999999999249 	2.501489473477569e-11 	101324.9999999962
0.9897397397397389 	299.9999999999565 	2.255793471325379e-11 	101324.9999999961
0.9922422422422417 	299.9999999999392 	2.534515307122458e-11 	101324.9999999961
0.9947447447447441 	299.9999999999521 	2.398245922328308e-11 	101324.999999996
0.9972472472472468 	299.9999999999667 	2.53149060114805e-11 	101324.999999996
0.999749749749749 	299.9999999999554 	2.389462568638589e-11 	101324.9999999958
1.002252252252252 	299.999999999966 	2.373109193658859e-11 	101324.999999996
1.004754754754754 	299.9999999999918 	2.356166227902586e-11 	101324.9999999959
1.007257257257256 	299.9999999999608 	2.296594674851508e-11 	101324.9999999959
1.009759759759759 	299.9999999999446 	2.591256429532181e-11 	101324.9999999961
1.012262262262261 	299.9999999999467 	2.36368651808217e-11 	101324.9999999959
1.014764764764764 	299.9999999999135 	2.621893785886944e-11 	101324.9999999957
1.017267267267267 	299.9999999999002 	2.533344699940205e-11 	101324.9999999957
1.019769769769769 	299.9999999999501 	2.678424662611308e-11 	101324.9999999959
1.022272272272272 	299.9999999999727 	2.596298021830857e-11 	101324.9999999962
1.024774774774774 	299.9999999999852 	2.561763551801694e-11 	101324.9999999965
1.027277277277277 	299.9999999999754 	2.643098286164407e-11 	101324.9999999967
1.029779779779779 	300.0000000000052 	2.476535686979223e-11 	101324.9999999969
1.032282282282282 	300.0000000000081 	2.534380473681502e-11 	101324.9999999969
1.034784784784784 	299.9999999999957 	2.428331094353477e-11 	101324.999999997
1.037287287287286 	299.9999999999536 	2.472526880768031e-11 	101324.9999999969
1.039789789789789 	299.9999999999638 	2.459878557767203e-11 	101324.9999999968
1.042292292292291 	300.0000000000111 	2.486356445736891e-11 	101324.9999999967
1.044794794794794 	300.0000000000322 	2.516946594355626e-11 	101324.9999999967
1.047297297297296 	300.0000000000542 	2.389459226319559e-11 	101324.9999999967
1.049799799799799 	299.9999999999922 	2.650410850141697e-11 	101324.9999999969
1.052302302302302 	299.9999999999462 	2.387203686432503e-11 	101324.9999999972
1.054804804804804 	299.9999999999246 	2.670947968112588e-11 	101324.9999999974
1.057307307307306 	299.9999999999073 	2.562105451744775e-11 	101324.9999999976
1.059809809809809 	299.9999999999482 	2.677608014442691e-11 	101324.9999999978
1.062312312312312 	299.9999999999392 	2.537148256813133e-11 	101324.9999999977
1.064814814814814 	299.9999999999329 	2.569646236252652e-11 	101324.9999999978
1.067317317317317 	299.9999999999079 	2.500765670355557e-11 	101324.9999999977
1.069819819819819 	299.9999999999073 	2.462406746321382e-11 	101324.9999999977
1.072322322322321 	299.9999999999862 	2.698120658734791e-11 	101324.9999999976
1.074824824824824 	300.000000000014 	2.463090891179098e-11 	101324.9999999974
1.077327327327327 	300.0000000000425 	2.627954772559688e-11 	101324.9999999976
1.079829829829829 	300.0000000000608 	2.477872952746183e-11 	101324.9999999975
1.082332332332332 	300.0000000000092 	2.579455440543817e-11 	101324.9999999973
1.084834834834834 	299.9999999999691 	2.495909821120301e-11 	101324.9999999973
1.087337337337337 	299.9999999999235 	2.460988364637206e-11 	101324.9999999974
1.089839839839839 	299.9999999999076 	2.660331238345771e-11 	101324.9999999975
1.092342342342342 	299.9999999999547 	2.50039026050313e-11 	101324.9999999975
1.094844844844844 	299.9999999999548 	2.642637947301823e-11 	101324.9999999975
1.097347347347347 	299.9999999999163 	2.451346121345104e-11 	101324.9999999975
1.099849849849849 	299.9999999998991 	2.809385641998667e-11 	101324.9999999976
1.102352352352352 	299.9999999999374 	2.496241799525332e-11 	101324.9999999975
1.104854854854854 	299.9999999999698 	2.736419947769543e-11 	101324.9999999975
1.107357357357357 	299.9999999999545 	2.514280803811878e-11 	101324.9999999977
1.109859859859859 	299.9999999999424 	2.745524813627434e-11 	101324.9999999979
1.112362362362362 	300.0000000000219 	2.632082363140046e-11 	101324.9999999978
1.114864864864865 	300.0000000000221 	2.683654013364731e-11 	101324.9999999978
1.117367367367367 	299.9999999999551 	2.808102565765582e-11 	101324.9999999977
1.119869869869869 	299.9999999999084 	2.649563701647629e-11 	101324.9999999978
1.122372372372372 	299.9999999999561 	2.85405757624137e-11 	101324.9999999979
1.124874874874874 	299.9999999999481 	2.74094267959061e-11 	101324.9999999978
1.127377377377377 	299.999999999959 	2.884657532046749e-11 	101324.999999998
1.129879879879879 	300.0000000000271 	2.796868344273411e-11 	101324.9999999983
1.132382382382382 	300.0000000000477 	2.830458794785546e-11 	101324.9999999984
1.134884884884884 	300.0000000000164 	2.760722343627127e-11 	101324.9999999985
1.137387387387387 	300.0000000000243 	2.758803016610103e-11 	101324.9999999986
1.139889889889889 	299.9999999999545 	2.948044091638539e-11 	101324.9999999987
1.142392392392392 	299.9999999999393 	2.759253411931218e-11 	101324.9999999987
1.144894894894894 	300.0000000000201 	2.904704944362168e-11 	101324.9999999986
1.147397397397397 	299.999999999996 	2.697254741850045e-11 	101324.9999999987
1.149899899899899 	299.9999999999236 	2.821299748824118e-11 	101324.9999999988
1.152402402402402 	299.9999999999087 	2.736022607340786e-11 	101324.999999999
1.154904904904904 	299.9999999999513 	2.851696061949304e-11 	101324.9999999992
1.157407407407407 	299.9999999999512 	2.774394385313112e-11 	101324.9999999991
1.159909909909909 	299.99999999991 	2.779752808292813e-11 	101324.9999999992
1.162412412412412 	299.9999999999064 	2.969701077980919e-11 	101324.9999999993
1.164914914914914 	299.9999999999588 	2.772066694231986e-11 	101324.9999999993
1.167417417417417 	299.9999999999671 	2.928127286749616e-11 	101324.9999999993
1.169919919919919 	300.0000000000225 	2.723908164981692e-11 	101324.9999999994
1.172422422422422 	300.0000000000608 	2.822131021214269e-11 	101324.9999999994
1.174924924924925 	299.9999999999956 	2.699187446550617e-11 	101324.9999999994
1.177427427427427 	299.9999999999575 	2.841336050993435e-11 	101324.9999999995
1.179929929929929 	300.0000000000235 	2.983754867699918e-11 	101324.9999999994
1.182432432432432 	300.0000000000604 	2.778837666306609e-11 	101324.9999999994
1.184934934934934 	300.000000000009 	2.929364689899507e-11 	101324.9999999994
1.187437437437437 	299.9999999999604 	2.789066165227253e-11 	101324.9999999995
1.189939939939939 	299.9999999999475 	2.90891757348485e-11 	101324.9999999997
1.192442442442442 	299.9999999999155 	2.778104604713874e-11 	101324.9999999998
1.194944944944944 	299.9999999999202 	2.910485344099429e-11 	101324.9999999999
1.197447447447447 	299.9999999999926 	2.803073543364856e-11 	101325
1.199949949949949 	300.000000000021 	2.806419076638669e-11 	101324.9999999999
1.202452452452452 	299.9999999999501 	2.945462106925551e-11 	101324.9999999997
1.204954954954955 	299.9999999999377 	2.776783016300028e-11 	101324.9999999994
1.207457457457457 	299.9999999999723 	2.939834954539116e-11 	101324.9999999994
1.20995995995996 	299.9999999999719 	2.793376301298092e-11 	101324.9999999995
1.212462462462462 	299.9999999999875 	2.912794930473122e-11 	101324.9999999997
1.214964964964964 	299.9999999999878 	2.780893423484355e-11 	101324.9999999997
1.217467467467467 	299.999999999998 	2.888774609701982e-11 	101324.9999999998
1.219969969969969 	299.9999999999628 	2.755954454236543e-11 	101324.9999999997
1.222472472472472 	300.0000000000097 	2.823203842521761e-11 	101324.9999999997
1.224974974974975 	300.0000000000583 	2.945249682897926e-11 	101324.9999999998
1.227477477477477 	299.9999999999895 	2.760862171895931e-11 	101324.9999999999
1.229979979979979 	299.9999999999779 	2.936333824772637e-11 	101325
1.232482482482482 	299.9999999999459 	2.772998155341058e-11 	101325
1.234984984984984 	299.9999999999453 	2.945897490674254e-11 	101325.0000000001
1.237487487487487 	299.9999999999829 	2.765091551479106e-11 	101325.0000000002
1.239989989989989 	299.9999999999891 	2.871933075862078e-11 	101325.0000000001
1.242492492492492 	300.0000000000326 	2.9560424580173e-11 	101325.0000000001
1.244994994994994 	299.9999999999883 	2.776966099964281e-11 	101325.0000000001
1.247497497497497 	299.9999999999903 	2.949678304497835e-11 	101325.0000000002
1.249999999999999 	300.0000000003412 	2.863498217019721e-11 	101325.0000000002
