-1.25 	300 	0.0717431294801275 	101295.6107373854
-1.247497497497497 	299.9788250505335 	0.05968819694128097 	101301.3304956276
-1.244994994994995 	299.9853207089405 	0.04186525365259635 	101307.642280297
-1.242492492492492 	299.9906863773726 	0.02744647944782849 	101313.9857254679
-1.23998998998999 	299.9963091949274 	0.01039666811602151 	101320.6360568526
-1.237487487487487 	300.0020554432616 	0.008345572054642848 	101327.4290290019
-1.234984984984985 	300.0077589094507 	0.02251615394241464 	101334.1719490397
-1.232482482482482 	300.0133449341636 	0.03865076713532896 	101340.7762972526
-1.22997997997998 	300.018726285296 	0.05414146591156863 	101347.1389338874
-1.227477477477477 	300.0237492696504 	0.06863601457471086 	101353.0781556554
-1.224974974974975 	300.0283174426231 	0.08188170347496683 	101358.4798263909
-1.222472472472472 	300.0324143773082 	0.09369088848223868 	101363.3244818306
-1.21996996996997 	300.0358978063447 	0.103745010883497 	101367.4438435836
-1.217467467467467 	300.0386510296483 	0.1117379179712491 	101370.6997578421
-1.214964964964965 	300.0406860199949 	0.1176425748488656 	101373.1063759028
-1.212462462462462 	300.0420060584714 	0.1215034372142657 	101374.6675211178
-1.20995995995996 	300.0425783996259 	0.1231437389376369 	101375.3444238964
-1.207457457457457 	300.0423745350141 	0.1225023458941065 	101375.1033750095
-1.204954954954955 	300.0413731412028 	0.1195717009626291 	101373.9192063249
-1.202452452452452 	300.039572786815 	0.1143415505391231 	101371.79024158
-1.19994994994995 	300.036994593754 	0.1069259142145843 	101368.7414384878
-1.197447447447447 	300.0337259828618 	0.09748854488566325 	101364.8762167002
-1.194944944944945 	300.0298680039004 	0.08630644901080621 	101360.3141875684
-1.192442442442442 	300.0254849321154 	0.07363225762317516 	101355.1314248454
-1.18993993993994 	300.0206427127929 	0.0596883827595017 	101349.4059152624
-1.187437437437437 	300.0154436809275 	0.04468234228599539 	101343.2587730387
-1.184934934934935 	300.0099609097172 	0.02879644930398538 	101336.7764112969
-1.182432432432432 	300.0042948062978 	0.01239739511778859 	101330.0776020643
-1.17992992992993 	299.9985797349784 	0.008481782146237238 	101323.3212343684
-1.177427427427427 	299.9928854952295 	0.02064486882541518 	101316.5897739377
-1.174924924924925 	299.9872829108156 	0.03683184167291027 	101309.966987433
-1.172422422422422 	299.9818778641675 	0.05241919438390004 	101303.5779702577
-1.16991991991992 	299.9767881058219 	0.06709870899628025 	101297.5619110746
-1.167417417417417 	299.9721340016459 	0.0805388627553803 	101292.0610193078
-1.164914914914915 	299.9680198965054 	0.09245195488880839 	101287.1985014414
-1.162412412412412 	299.964519191885 	0.1025772908100919 	101283.0611113162
-1.15990990990991 	299.9616752608243 	0.110793010309701 	101279.6999977074
-1.157407407407407 	299.9595153251999 	0.117051441038336 	101277.1473027357
-1.154904904904904 	299.9580781717635 	0.1212056526862268 	101275.448788736
-1.152402402402403 	299.9574248760629 	0.1231022068151679 	101274.6766576409
-1.1498998998999 	299.957588262831 	0.1226143939501168 	101274.8697324185
-1.147397397397397 	299.9585609209843 	0.1197532767247786 	101276.0191142845
-1.144894894894895 	299.960316718249 	0.114668044337788 	101278.0940307961
-1.142392392392392 	299.9628051195571 	0.107491658092431 	101281.0348170972
-1.13988988988989 	299.9659582422782 	0.0983851567510606 	101284.761224451
-1.137387387387387 	299.9697235718434 	0.08749205646591797 	101289.2113321009
-1.134884884884885 	299.9740441814849 	0.07498520392177631 	101294.3178593882
-1.132382382382382 	299.9788444990544 	0.06112127423612998 	101299.9916008796
-1.12987987987988 	299.9840309036899 	0.04616634055868494 	101306.1219697146
-1.127377377377377 	299.9894849871713 	0.03043433092646123 	101312.5689851111
-1.124874874874875 	299.9950817973362 	0.01421451000061436 	101319.1850613626
-1.122372372372372 	300.0007376327721 	0.008362798640206644 	101325.871207073
-1.11986986986987 	300.0064065763516 	0.01861319518206599 	101332.573195248
-1.117367367367367 	300.012012529817 	0.03479359196427658 	101339.2010554679
-1.114864864864865 	300.0174249436455 	0.05041217150655539 	101345.6003551597
-1.112362362362362 	300.0225166341037 	0.06511542633440612 	101351.6207615963
-1.10985985985986 	300.0271883505946 	0.07861415982191391 	101357.1448039542
-1.107357357357357 	300.0313500631605 	0.09061326480834599 	101362.0660082888
-1.104854854854855 	300.0349283129773 	0.1009630891407218 	101366.2974406021
-1.102352352352353 	300.0378802178169 	0.1094915234222607 	101369.7882587656
-1.09984984984985 	300.0401551796008 	0.1160666779195479 	101372.4786547653
-1.097347347347347 	300.0417020970933 	0.1205664145002019 	101374.3080912659
-1.094844844844845 	300.0424758605335 	0.1227724663402847 	101375.2232163592
-1.092342342342342 	300.0424393012732 	0.1226457446385111 	101375.1800204147
-1.08983983983984 	300.0415856706588 	0.1201811800152786 	101374.1705745404
-1.087337337337337 	300.0399559640632 	0.1154560629025061 	101372.2434288191
-1.084834834834835 	300.0375885432052 	0.1086326379720121 	101369.4438509944
-1.082332332332332 	300.0345320944554 	0.09978210353561631 	101365.8295099176
-1.07982982982983 	300.0308425852054 	0.08910097718468445 	101361.4666892863
-1.077327327327327 	300.0265832248901 	0.07678651838152215 	101356.4301363825
-1.074824824824825 	300.0218332794038 	0.06308589335516558 	101350.813699466
-1.072322322322323 	300.0167035540243 	0.04827083385837182 	101344.7484401692
-1.06981981981982 	300.0112762969768 	0.0325489908386707 	101338.3316416602
-1.067317317317317 	300.0056539897748 	0.0162864765190438 	101331.6845581814
-1.064814814814815 	299.9999417635673 	0.008171282044896588 	101324.9314570244
-1.062312312312312 	299.9942017593164 	0.01686942157257165 	101318.1458318049
-1.05980980980981 	299.9885342333586 	0.03320941444725592 	101311.4462079043
-1.057307307307307 	299.9830722307337 	0.04896814694901659 	101304.9898007642
-1.054804804804805 	299.9779366908166 	0.06379840951671276 	101298.9195763899
-1.052302302302302 	299.9732283775334 	0.07743067186914385 	101293.354546302
-1.0497997997998 	299.9690153308248 	0.08965031231421555 	101288.3750602574
-1.047297297297297 	299.965355484204 	0.1002160429586002 	101284.0495570437
-1.044794794794795 	299.962318914664 	0.1089753669788791 	101280.4607560989
-1.042292292292292 	299.959977001871 	0.1157327929561227 	101277.6929979961
-1.03978978978979 	299.9583922226574 	0.12030162266245 	101275.8199921776
-1.037287287287287 	299.95760442371 	0.1225901460773184 	101274.8889136154
-1.034784784784785 	299.9576156871493 	0.1225287169965926 	101274.9022069511
-1.032282282282283 	299.9584131651509 	0.1201873495799041 	101275.8445693301
-1.02977977977978 	299.9599769427687 	0.115671135665905 	101277.6925652778
-1.027277277277277 	299.9622730692043 	0.1090465568190412 	101280.4060815831
-1.024774774774775 	299.965262058059 	0.1004316606670676 	101283.9385030043
-1.022272272272272 	299.9688949252665 	0.08993207873073922 	101288.232012194
-1.01976976976977 	299.9730973653062 	0.07776009107158685 	101293.1988251408
-1.017267267267267 	299.9777885449361 	0.06419766697046091 	101298.7435345112
-1.014764764764765 	299.9828748516603 	0.04950184276294228 	101304.7555120583
-1.012262262262262 	299.9882489353391 	0.03396960918281567 	101311.1079134192
-1.00975975975976 	299.9938062008346 	0.01786652565342033 	101317.6771706803
-1.007257257257257 	299.999451492936 	0.00760758144887038 	101324.350778896
-1.004754754754755 	300.0051112204379 	0.01486437418291145 	101331.0418054908
-1.002252252252252 	300.0107018098795 	0.03098442860719629 	101337.6514147787
-0.9997497497497498 	300.0161034775148 	0.04656479117478817 	101344.0379517246
-0.9972472472472473 	300.0212184179457 	0.06135401109850558 	101350.085777776
-0.9947447447447449 	300.0259678126721 	0.07509067939985641 	101355.7016125665
-0.9922422422422421 	300.0302634149668 	0.08747549493006514 	101360.7810779431
-0.9897397397397399 	300.0340147084832 	0.09832722504174059 	101365.217086383
-0.9872372372372376 	300.0371496635763 	0.1073728683281995 	101368.9243659407
-0.9847347347347346 	300.0395906654349 	0.1144692691740984 	101371.8110947984
-0.9822322322322323 	300.0412983545211 	0.1194539059541056 	101373.8306692642
-0.9797297297297296 	300.0422483597164 	0.1221373010946739 	101374.9542091261
-0.9772272272272275 	300.0424111671863 	0.1225674831563468 	101375.1467733659
-0.9747247247247248 	300.0417714329464 	0.1207042202989833 	101374.3902824627
-0.9722222222222224 	300.0403551024471 	0.1166074787838924 	101372.7154606423
-0.9697197197197196 	300.038174261512 	0.110335622875093 	101370.1365448246
-0.9672172172172175 	300.0352829655877 	0.1019441135371354 	101366.7174789693
-0.9647147147147147 	300.0317428955252 	0.09169241420120948 	101362.5313207028
-0.9622122122122124 	300.0276174048053 	0.07978260865414405 	101357.6530513285
-0.9597097097097099 	300.0229831301309 	0.0664534414475889 	101352.1733374503
-0.9572072072072073 	300.0179364806125 	0.05185626012211464 	101346.2062551206
-0.9547047047047047 	300.0125412315422 	0.03621271545838028 	101339.8272410779
-0.9522022022022023 	300.0069203243362 	0.01995571323750889 	101333.1817162454
-0.9496996996996998 	300.001205897155 	0.007011936339530443 	101326.4259624165
-0.9471971971971973 	299.9954776116957 	0.01317468771876605 	101319.6541214998
-0.9446946946946947 	299.9898203275605 	0.02951024245059197 	101312.9665277329
-0.9421921921921923 	299.9843358332917 	0.04532443761133016 	101306.4834795113
-0.93968968968969 	299.9791323353097 	0.06033471227341645 	101300.3328474235
-0.9371871871871872 	299.9743108326884 	0.07429244971734361 	101294.6339953575
-0.9346846846846848 	299.9699594208768 	0.08688797476796828 	101289.4909402357
-0.9321821821821823 	299.9661622566061 	0.09786284691630834 	101285.00310209
-0.9296796796796799 	299.9629954924883 	0.107010097733797 	101281.2604242163
-0.9271771771771771 	299.9605212740989 	0.1141501206573503 	101278.3362765557
-0.9246746746746748 	299.9587916301352 	0.1191721069992879 	101276.2920795106
-0.9221721721721724 	299.9578359814876 	0.1219390064528481 	101275.1626262077
-0.9196696696696698 	299.9576651594916 	0.1223919782388346 	101274.9607205235
-0.9171671671671672 	299.9582830498694 	0.1205626349703783 	101275.6908801844
-0.9146646646646649 	299.9596740983022 	0.116529665951439 	101277.3347135959
-0.9121621621621623 	299.9618023649118 	0.1103997799522632 	101279.8498578507
-0.9096596596596597 	299.9646277653977 	0.102253903650085 	101283.1889391136
-0.9071571571571573 	299.9680976588961 	0.09221617202847748 	101287.2897898086
-0.9046546546546547 	299.9721516136287 	0.08046943157824508 	101292.081092751
-0.9021521521521524 	299.9767243943152 	0.06726580708414294 	101297.4857895426
-0.8996496496496498 	299.9817214136206 	0.05285903175420447 	101303.3921790144
-0.8971471471471473 	299.9870282061602 	0.03751598277406379 	101309.6649840802
-0.894644644644645 	299.9925352797882 	0.02155651243427277 	101316.1748222564
-0.892142142142142 	299.9981324166041 	0.005957220982644128 	101322.791452493
-0.8896396396396397 	300.0037481283363 	0.01092644191209648 	101329.4303526339
-0.8871371371371374 	300.0093198575664 	0.02699072969641052 	101336.0175858852
-0.8846346346346349 	300.0147424258695 	0.04265387007105591 	101342.4287668043
-0.8821321321321324 	300.019925294687 	0.05764829014137599 	101348.5568179615
-0.8796296296296297 	300.0247758018214 	0.0716657025106938 	101354.2921653761
-0.8771271271271271 	300.0291861765887 	0.08438034414111527 	101359.5072918455
-0.8746246246246248 	300.0330664622667 	0.09559015784062756 	101364.0957916477
-0.8721221221221224 	300.0363454383739 	0.1050588404250059 	101367.9733586664
-0.8696196196196196 	300.0389488597943 	0.1126462721719088 	101371.0521239144
-0.8671171171171175 	300.0408427746564 	0.1181485099476031 	101373.2919248308
-0.8646146146146148 	300.0419892793748 	0.1213886971120387 	101374.6478522672
-0.8621121121121121 	300.0423453163477 	0.1223907998779025 	101375.0689456079
-0.8596096096096097 	300.0419069574898 	0.1211076112287785 	101374.5505662722
-0.857107107107107 	300.0406918019656 	0.1176007551367846 	101373.1136410325
-0.8546046046046049 	300.0387108273303 	0.1119000580306252 	101370.7710908226
-0.8521021021021022 	300.0360123713389 	0.1040561809126157 	101367.5800628899
-0.8495995995995997 	300.0326404946231 	0.09427549667126205 	101363.5927742
-0.8470970970970974 	300.0286392036059 	0.08274430454247929 	101358.8613293668
-0.8445945945945946 	300.0240988860913 	0.06968448568414809 	101353.4926560137
-0.8420920920920922 	300.0191135988653 	0.05526951400655161 	101347.5980835252
-0.8395895895895897 	300.013768886487 	0.03979248998443756 	101341.2787572239
-0.8370870870870872 	300.0081969939712 	0.02365903777909259 	101334.6911281493
-0.8345845845845846 	300.0025235958389 	0.00721392519189773 	101327.9837959277
-0.8320820820820823 	299.9968148121886 	0.01044155399145206 	101321.2349252691
-0.8295795795795798 	299.9911403824999 	0.02568317952240922 	101314.5270064299
-0.8270770770770772 	299.9856008811587 	0.04164976322098247 	101307.9788621809
-0.8245745745745746 	299.980319069113 	0.05690895024974509 	101301.7356133578
-0.8220720720720721 	299.9754019002074 	0.07114384156446636 	101295.9236269767
-0.8195695695695699 	299.970939062548 	0.08405705327319081 	101290.6488197831
-0.817067067067067 	299.9670142090519 	0.09537764894307484 	101286.0100477101
-0.8145645645645651 	299.9637106048123 	0.1049277651370336 	101282.1056137256
-0.8120620620620621 	299.9610884180912 	0.1125187617428334 	101279.0065935595
-0.8095595595595597 	299.9592037765102 	0.1179834585979246 	101276.7792250543
-0.8070570570570572 	299.95808664937 	0.1212123568280113 	101275.4588978158
-0.8045545545545546 	299.957750664859 	0.1221315505294806 	101275.0618249222
-0.8020520520520523 	299.958194950163 	0.1208137330841908 	101275.5868160491
-0.7995495495495494 	299.9594078528885 	0.1173228091704912 	101277.0201371829
-0.7970470470470474 	299.9613539009555 	0.1116998573404797 	101279.3199150656
-0.7945445445445446 	299.9640101803047 	0.1040292538113805 	101282.4590961493
-0.7920420420420423 	299.967334406585 	0.09439795217879003 	101286.3877828235
-0.7895395395395397 	299.9712715260719 	0.08301741594015835 	101291.0409538775
-0.7870370370370371 	299.9757400401228 	0.07013131537645279 	101296.3223817679
-0.7845345345345348 	299.9806428741437 	0.05598762454383378 	101302.1173865338
-0.7820320320320323 	299.9858605124206 	0.04088238401151624 	101308.2847420049
-0.7795295295295296 	299.9912990642116 	0.0251202906577291 	101314.7135367616
-0.7770270270270272 	299.996846354302 	0.009047404657342571 	101321.271145899
-0.7745245245245247 	300.0024269913705 	0.009582585780247094 	101327.8685230363
-0.7720220220220222 	300.0079789948477 	0.02313927778835768 	101334.432355888
-0.7695195195195199 	300.0134150811243 	0.03885054614822409 	101340.8594311759
-0.767017017017017 	300.0186476323403 	0.05394256872087237 	101347.0461840257
-0.7645145145145147 	300.0235734712782 	0.06815408957804266 	101352.8705110307
-0.7620120120120122 	300.028082637508 	0.08116512394016517 	101358.2024197902
-0.7595095095095097 	300.0320894363346 	0.09277233198314667 	101362.9404770309
-0.7570070070070072 	300.0355121562973 	0.1026779299728978 	101366.9879739758
-0.7545045045045048 	300.0382830494224 	0.1107068601955628 	101370.264799153
-0.7520020020020022 	300.0403545622958 	0.1166973810350685 	101372.7145802849
-0.7494994994994997 	300.0416773337308 	0.1204813943905535 	101374.2789659699
-0.7469969969969972 	300.0422194324694 	0.1220789539808381 	101374.9201241531
-0.7444944944944945 	300.0419912422955 	0.1213764395987932 	101374.6502451566
-0.7419919919919924 	300.0409874671502 	0.1184292618264479 	101373.4633240022
-0.7394894894894897 	300.039212286941 	0.1132990177854728 	101371.364112452
-0.7369869869869872 	300.0366934037164 	0.105980399192013 	101368.3854331237
-0.7344844844844846 	300.0334710509703 	0.09670273194713597 	101364.5749623688
-0.7319819819819822 	300.0296057865582 	0.08557469594435856 	101360.0043046173
-0.7294794794794797 	300.0252020578046 	0.07283651714792663 	101354.7971344377
-0.7269769769769773 	300.0203251612788 	0.05876266635830277 	101349.0306374869
-0.7244744744744747 	300.0150675640616 	0.0435528182924385 	101342.8142551995
-0.721971971971972 	300.009546043562 	0.02759781939282957 	101336.2861310257
-0.7194694694694695 	300.0038851823718 	0.01117551515883175 	101329.5935187299
-0.7169669669669674 	299.9981714073437 	0.00909216556814286 	101322.8387033808
-0.7144644644644647 	299.9924761638313 	0.02185499587429326 	101316.1060819256
-0.711961961961962 	299.9868819461207 	0.03796160488501794 	101309.4931968505
-0.7094594594594597 	299.9815263502317 	0.05340299619744191 	101303.1626845568
-0.7069569569569573 	299.976519782577 	0.06792152792137329 	101297.2449481994
-0.7044544544544545 	299.9719508974222 	0.08115548315973971 	101291.8447829143
-0.7019519519519523 	299.9679031503396 	0.09278650775881735 	101287.0607064293
-0.6994494494494495 	299.9644702955756 	0.1027010850861883 	101283.0034997249
-0.6969469469469471 	299.9617043828104 	0.1106797226004963 	101279.7346154907
-0.6944444444444446 	299.9596734070221 	0.1166386029079883 	101277.3343050135
-0.6919419419419421 	299.9583871417653 	0.1204096412806538 	101275.8140794463
-0.6894394394394396 	299.9578590784793 	0.1218357135976881 	101275.1899887982
-0.6869369369369374 	299.9581101613992 	0.1210394067960436 	101275.4866755888
-0.6844344344344344 	299.9591605850547 	0.1180223931665852 	101276.7279680979
-0.6819319319319321 	299.9609565244439 	0.1128678028075294 	101278.8503509213
-0.6794294294294296 	299.9634740573053 	0.1056332637638928 	101281.8255536148
-0.6769269269269272 	299.9666389064672 	0.0963901321519931 	101285.565844256
-0.6744244244244245 	299.9704105205863 	0.08544292948151232 	101290.0233990257
-0.6719219219219222 	299.9747323202366 	0.07299163793397165 	101295.1313613771
-0.6694194194194195 	299.9795293203507 	0.05926330393293107 	101300.8012246704
-0.6669169169169172 	299.9846534579166 	0.04443185841527268 	101306.8579996653
-0.6644144144144146 	299.9900340846262 	0.02878017633166221 	101313.2182239354
-0.661911911911912 	299.9955325109042 	0.01283286631609126 	101319.7180378343
-0.6594094094094097 	300.0010695533597 	0.007717569278625456 	101326.2637761211
-0.656906906906907 	300.0066100304472 	0.01917829229908899 	101332.8139111718
-0.6544044044044046 	300.012066114206 	0.03494676048270321 	101339.2645749048
-0.6519019019019021 	300.0173436878215 	0.05022628269256803 	101345.5044584959
-0.6493993993993996 	300.0223425420007 	0.06463605957446367 	101351.4151032759
-0.6468968968968971 	300.0269466940117 	0.07790845928113399 	101356.859238761
-0.6443943943943946 	300.0310768015456 	0.08982944258192516 	101361.7430610833
-0.6418918918918921 	300.0346354080862 	0.1001210303058515 	101365.951234416
-0.6393893893893897 	300.0375530107371 	0.1086463960606369 	101369.4014876223
-0.6368868868868871 	300.0397895239011 	0.1151120027472704 	101372.0464177902
-0.6343843843843846 	300.0413065745666 	0.119418537984857 	101373.8405248747
-0.6318818818818821 	300.0420575400865 	0.1216109244477706 	101374.7286906578
-0.6293793793793795 	300.0420545225035 	0.121562794937581 	101374.7251319862
-0.6268768768768773 	300.0412655740163 	0.1193051603345135 	101373.7921980652
-0.6243743743743745 	300.0396888500063 	0.1147232018740337 	101371.9274411119
-0.6218718718718721 	300.0373322980547 	0.1078342624534373 	101369.1407417964
-0.6193693693693696 	300.0342388006709 	0.0988925154676728 	101365.4828025826
-0.6168668668668671 	300.0304705856723 	0.08808031355717699 	101361.0269846164
-0.6143643643643645 	300.0261712560857 	0.07568769509525607 	101355.9431971714
-0.6118618618618621 	300.0213984393386 	0.06188942087502129 	101350.2997257967
-0.6093593593593596 	300.0162432207466 	0.0469344530401143 	101344.2043496663
-0.6068568568568571 	300.0107856078827 	0.03115621759112551 	101337.7516846222
-0.6043543543543546 	300.0051436883307 	0.01483439872509791 	101331.0814314717
-0.6018518518518521 	299.9994151760344 	0.006967760671978327 	101324.3091002031
-0.5993493493493496 	299.9936861806569 	0.01829487774144824 	101317.5365106086
-0.5968468468468471 	299.9880745839832 	0.03450541985491281 	101310.9030272893
-0.5943443443443446 	299.9826987124634 	0.05004537154999425 	101304.5484510625
-0.591841841841842 	299.977650917471 	0.06464778871841456 	101298.5819483062
-0.5893393393393397 	299.9730046004235 	0.07807995585532045 	101293.0902005142
-0.5868368368368371 	299.968830791319 	0.09013573331836894 	101288.1570987605
-0.5843343343343346 	299.9652163358289 	0.1005652189440355 	101283.8852463171
-0.5818318318318321 	299.9622565631424 	0.1091030077142045 	101280.3872106163
-0.5793293293293297 	299.960041008051 	0.1154967118709433 	101277.7687589831
-0.5768268268268271 	299.9586294631936 	0.1195760047174756 	101276.1004600791
-0.5743243243243245 	299.9580302866238 	0.1213226499386135 	101275.3923303512
-0.5718218218218221 	299.9582037682022 	0.1208334485931491 	101275.5973188207
-0.5693193193193196 	299.9590921627344 	0.1182717650375225 	101276.6471486802
-0.5668168168168171 	299.9606495912535 	0.1137617568320075 	101278.4876414464
-0.5643143143143147 	299.9628614567998 	0.1073406967776111 	101281.1015993855
-0.5618118118118121 	299.9657390173991 	0.09899363208307102 	101284.5023416422
-0.5593093093093094 	299.9692916152195 	0.08870026979607966 	101288.7009890309
-0.5568068068068072 	299.9734972893791 	0.07653427797362175 	101293.6716621145
-0.5543043043043046 	299.9782797482613 	0.06272469216034222 	101299.3242556784
-0.551801801801802 	299.9834983006323 	0.04767100973522119 	101305.492578844
-0.5492992992992995 	299.9889650819046 	0.03190288443578958 	101311.954610543
-0.5467967967967969 	299.9944877329623 	0.0159589777611464 	101318.4829981661
-0.5442942942942947 	299.9999161461069 	0.005171113870583928 	101324.9003015796
-0.5417917917917919 	300.0051775536647 	0.01498397649017233 	101331.1204404744
-0.5392892892892895 	300.0102764854407 	0.02977274048450922 	101337.1487636929
-0.536786786786787 	300.0152591793928 	0.0442205716313412 	101343.03990659
-0.5342842842842846 	300.0201606771989 	0.05841250310165149 	101348.8352811244
-0.531781781781782 	300.0249606169291 	0.07228161814544339 	101354.5108273776
-0.5292792792792794 	300.0295617965484 	0.08554731673677105 	101359.9515719561
-0.526776776776777 	300.0337941294758 	0.09772493681531316 	101364.9563790245
-0.5242742742742745 	300.0374392574972 	0.1081944206792827 	101369.2669850307
-0.521771771771772 	300.0402677783825 	0.1163055158412629 	101372.6120140825
-0.5192692692692695 	300.042080268066 	0.121494176969583 	101374.7555743858
-0.516766766766767 	300.0427439811405 	0.1233861592406412 	101375.5405567963
-0.5142642642642645 	300.0422179790476 	0.1218683652355423 	101374.9185094537
-0.511761761761762 	300.0405627658247 	0.1171165959700406 	101372.9612486489
-0.5092592592592596 	300.0379344955221 	0.1095756838595385 	101369.8532278324
-0.506756756756757 	300.03456153066 	0.0998957297083474 	101365.8645844643
-0.5042542542542544 	300.030711671563 	0.08883855189745078 	101361.3121007741
-0.5017517517517521 	300.0266552556018 	0.07717367443700557 	101356.515497126
-0.4992492492492494 	300.02263150568 	0.06558450957385774 	101351.7576627153
-0.496746746746747 	300.0188257276611 	0.0546054560704281 	101347.2576997796
-0.4942442442442445 	300.0153629043791 	0.04460109789753006 	101343.1633609666
-0.4917417417417421 	300.0123132799706 	0.03577881116558042 	101339.5576656928
-0.4892392392392395 	300.0097024963762 	0.02821682535250945 	101336.4708961781
-0.486736736736737 	300.007522804713 	0.02189626713717183 	101333.8938597806
-0.4842342342342345 	300.0057437552346 	0.01673190854296897 	101331.7905312458
-0.481731731731732 	300.0043214395081 	0.01259886224984614 	101330.1089800908
-0.4792292292292296 	300.0032058472922 	0.009353918252253429 	101328.7900688012
-0.4767267267267268 	300.0023462717809 	0.006851281421927116 	101327.7738407701
-0.4742242242242246 	300.0016949295721 	0.004953168502358647 	101327.0037989721
-0.471721721721722 	300.0012090943412 	0.003536104958076294 	101326.429427949
-0.4692192192192195 	300.0008520883157 	0.002493899013506465 	101326.0073641195
-0.4667167167167169 	300.0005934593096 	0.001738243417128901 	101325.7016052393
-0.4642142142142145 	300.0004086323605 	0.00119777131798018 	101325.4830973211
-0.461711711711712 	300.0002782607988 	0.0008162273800888789 	101325.3289682764
-0.4592092092092094 	300.0001874480823 	0.0005502432702727652 	101325.2216068629
-0.456706706706707 	300.000124952025 	0.0003670525275348056 	101325.1477221368
-0.4542042042042045 	300.0000824429475 	0.0002423523481422478 	101325.0974667855
-0.451701701701702 	300.0000538544177 	0.0001584237656650807 	101325.0636685258
-0.4491991991991995 	300.0000348375876 	0.0001025532921255365 	101325.0411862288
-0.4466966966966969 	300.0000223218341 	6.57553948360476e-05 	101325.0263897039
-0.4441941941941945 	300.0000141696423 	4.176924125349263e-05 	101325.0167518637
-0.441691691691692 	300.0000089128649 	2.62912646150551e-05 	101325.010537168
-0.4391891891891895 	300.0000055563986 	1.640127088990057e-05 	101325.0065689868
-0.436686686686687 	300.0000034336498 	1.014221318715654e-05 	101325.0040594208
-0.4341841841841846 	300.0000021037262 	6.217992793890125e-06 	101325.002487108
-0.431681681681682 	300.0000012780145 	3.780085926473693e-06 	101325.0015109853
-0.4291791791791794 	300.0000007699774 	2.279042285462657e-06 	101325.0009103906
-0.426676676676677 	300.0000004601126 	1.36291746824187e-06 	101325.0005440775
-0.4241741741741744 	300.0000002728114 	8.085568231611096e-07 	101325.0003225671
-0.421671671671672 	300.0000001605094 	4.759277130504836e-07 	101325.0001897418
-0.4191691691691694 	300.0000000937447 	2.7797708913645e-07 	101325.0001107501
-0.4166666666666669 	300.0000000543424 	1.611329338724848e-07 	101325.0000641525
-0.4141641641641645 	300.000000031128 	9.270378391093108e-08 	101325.000036882
-0.411661661661662 	300.0000000178148 	5.294670316535646e-08 	101325.0000210468
-0.4091591591591594 	300.0000000100908 	3.00203131542365e-08 	101325.0000119221
-0.406656656656657 	300.0000000056033 	1.690305994735468e-08 	101325.0000067035
-0.4041541541541545 	300.0000000031891 	9.448495546630274e-09 	101325.000003741
-0.401651651651652 	300.0000000016695 	5.249098584093081e-09 	101325.0000020715
-0.3991491491491494 	300.0000000009692 	2.891537758333369e-09 	101325.0000011372
-0.396646646646647 	300.0000000004807 	1.587496318165482e-09 	101325.0000006179
-0.3941441441441444 	300.0000000002674 	8.599902586593098e-10 	101325.0000003314
-0.3916416416416419 	300.0000000000807 	4.683164829929187e-10 	101325.0000001744
-0.3891391391391395 	300.0000000000333 	2.489540175945672e-10 	101325.000000089
-0.3866366366366368 	299.9999999999962 	1.349284968603291e-10 	101325.0000000427
-0.3841341341341344 	300.0000000000171 	7.023809486096373e-11 	101325.000000018
-0.381631631631632 	299.9999999999503 	3.821574760530518e-11 	101325.0000000049
-0.3791291291291294 	300.0000000000103 	2.031524877084521e-11 	101324.999999998
-0.3766266266266269 	300.0000000000316 	1.137644090184818e-11 	101324.9999999944
-0.3741241241241244 	300.0000000000327 	7.51292145992451e-12 	101324.9999999925
-0.371621621621622 	300.0000000000243 	3.695733150252221e-12 	101324.9999999915
-0.3691191191191194 	300.0000000000049 	5.702718765870603e-12 	101324.9999999911
-0.366616616616617 	300.0000000000115 	2.199129637433372e-12 	101324.9999999908
-0.3641141141141143 	299.9999999999547 	5.385807520867764e-12 	101324.9999999907
-0.3616116116116119 	299.9999999999425 	3.064338942490108e-12 	101324.9999999907
-0.3591091091091095 	299.9999999999866 	4.256013411817414e-12 	101324.9999999907
-0.356606606606607 	299.9999999999666 	3.022583755203897e-12 	101324.9999999906
-0.3541041041041044 	299.9999999999889 	2.521411042349613e-12 	101324.9999999904
-0.3516016016016019 	300.000000000009 	3.348737131843854e-12 	101324.9999999904
-0.3490990990990994 	299.9999999999922 	1.623876031836167e-12 	101324.9999999903
-0.346596596596597 	300.0000000000509 	3.755105715024197e-12 	101324.9999999906
-0.3440940940940944 	300.0000000000609 	1.010321831591755e-12 	101324.9999999907
-0.3415915915915919 	300.0000000000169 	3.174603851354727e-12 	101324.9999999909
-0.3390890890890895 	299.9999999999774 	7.678189204018052e-13 	101324.9999999912
-0.3365865865865869 	300.0000000000219 	2.112483995775372e-12 	101324.9999999911
-0.3340840840840844 	300.0000000000055 	1.37892065615658e-12 	101324.9999999911
-0.3315815815815819 	300.0000000000231 	2.99772947520202e-12 	101324.9999999914
-0.3290790790790794 	300.000000000023 	2.771080937014164e-12 	101324.9999999913
-0.3265765765765769 	299.9999999999107 	5.015422423034489e-12 	101324.9999999913
-0.3240740740740744 	299.9999999999928 	3.164815283347104e-12 	101324.999999991
-0.3215715715715718 	300.0000000000063 	5.084237719042252e-12 	101324.9999999906
-0.3190690690690695 	299.9999999999199 	2.222070951483795e-12 	101324.9999999902
-0.3165665665665668 	299.999999999991 	4.823873771965314e-12 	101324.9999999901
-0.3140640640640644 	300.000000000006 	1.654838845599896e-12 	101324.9999999901
-0.311561561561562 	299.9999999999122 	5.596724875961278e-12 	101324.99999999
-0.3090590590590593 	299.9999999999918 	9.15460772231849e-13 	101324.9999999899
-0.3065565565565568 	300.0000000000014 	6.487800979111837e-12 	101324.99999999
-0.3040540540540545 	300.0000000000085 	1.373418140817837e-12 	101324.9999999897
-0.3015515515515518 	300.0000000000469 	6.571427812492495e-12 	101324.9999999896
-0.2990490490490494 	299.9999999999426 	2.849731362931427e-12 	101324.9999999895
-0.2965465465465469 	299.9999999999824 	5.324855534200618e-12 	101324.9999999893
-0.2940440440440444 	300.0000000000002 	3.551481956346291e-12 	101324.9999999892
-0.2915415415415418 	300.0000000000049 	4.654254721462221e-12 	101324.9999999894
-0.2890390390390395 	300.0000000000044 	4.822450639866542e-12 	101324.9999999894
-0.2865365365365368 	299.9999999999774 	3.63768440575311e-12 	101324.9999999897
-0.2840340340340343 	299.9999999999993 	4.426638995583962e-12 	101324.9999999901
-0.2815315315315318 	299.9999999999171 	1.262321714121314e-12 	101324.9999999903
-0.2790290290290295 	299.9999999999503 	3.200498013042184e-12 	101324.9999999903
-0.2765265265265269 	300.0000000000055 	2.524523424126762e-12 	101324.9999999903
-0.2740240240240244 	300.000000000031 	4.283825321056206e-12 	101324.9999999905
-0.2715215215215219 	300.0000000000194 	5.011496185964559e-12 	101324.9999999905
-0.2690190190190194 	299.9999999999395 	5.049326303399765e-12 	101324.9999999905
-0.2665165165165169 	299.9999999999983 	5.657302822690313e-12 	101324.9999999903
-0.2640140140140144 	299.9999999999612 	3.985648143683535e-12 	101324.99999999
-0.2615115115115119 	300.0000000000026 	5.849782959552475e-12 	101324.99999999
-0.2590090090090094 	299.999999999922 	4.046627689911956e-12 	101324.9999999898
-0.2565065065065068 	299.9999999999941 	4.628888641821213e-12 	101324.9999999897
-0.2540040040040044 	299.9999999999951 	4.994404908545069e-12 	101324.9999999897
-0.2515015015015019 	300.000000000048 	3.419346431986375e-12 	101324.9999999899
-0.2489989989989994 	300.0000000000549 	5.268630802682249e-12 	101324.9999999899
-0.2464964964964968 	299.9999999999895 	1.999045624327006e-12 	101324.9999999898
-0.2439939939939944 	299.999999999994 	6.228416542832824e-12 	101324.9999999901
-0.2414914914914919 	299.9999999999637 	2.114579191232199e-12 	101324.9999999898
-0.2389889889889893 	300.0000000000032 	7.083304322055613e-12 	101324.99999999
-0.2364864864864869 	300.0000000000258 	2.902439927642165e-12 	101324.9999999899
-0.2339839839839843 	299.9999999999143 	7.804552854009344e-12 	101324.9999999901
-0.2314814814814819 	299.9999999999785 	3.513728085631099e-12 	101324.9999999901
-0.2289789789789792 	299.9999999999077 	7.28706129621744e-12 	101324.99999999
-0.2264764764764769 	299.9999999999374 	4.461983547456821e-12 	101324.9999999899
-0.2239739739739743 	299.9999999999451 	6.103979420951608e-12 	101324.9999999896
-0.2214714714714718 	299.9999999999321 	4.867957598087926e-12 	101324.9999999894
-0.2189689689689693 	299.9999999999615 	4.323152583904738e-12 	101324.9999999892
-0.2164664664664669 	299.9999999999812 	4.955894862728805e-12 	101324.9999999891
-0.2139639639639643 	299.9999999999212 	2.803655098870672e-12 	101324.999999989
-0.2114614614614618 	299.9999999999697 	3.742023350629417e-12 	101324.9999999888
-0.2089589589589593 	299.9999999999866 	3.652042174168979e-12 	101324.999999989
-0.2064564564564568 	299.9999999999858 	3.270266033138095e-12 	101324.999999989
-0.2039539539539543 	299.9999999998937 	4.933752096462945e-12 	101324.9999999891
-0.2014514514514518 	299.9999999999413 	2.615216253111079e-12 	101324.999999989
-0.1989489489489494 	299.999999999963 	6.002653587823435e-12 	101324.9999999892
-0.1964464464464468 	299.9999999999874 	2.001872464341099e-12 	101324.9999999891
-0.1939439439439443 	299.999999999989 	5.895912069940919e-12 	101324.9999999892
-0.1914414414414418 	299.999999999905 	3.303694817257746e-12 	101324.9999999896
-0.1889389389389393 	300.0000000000113 	5.727351482382361e-12 	101324.9999999898
-0.1864364364364368 	300.0000000000484 	3.998810301909608e-12 	101324.9999999898
-0.1839339339339343 	299.9999999999695 	5.127376359533531e-12 	101324.9999999899
-0.1814314314314318 	299.9999999999959 	2.96290140302641e-12 	101324.9999999896
-0.1789289289289293 	299.9999999998871 	4.159057171128596e-12 	101324.9999999894
-0.1764264264264268 	299.9999999999797 	1.097471481046076e-12 	101324.9999999896
-0.1739239239239243 	299.9999999998872 	4.005939396341339e-12 	101324.9999999896
-0.1714214214214218 	299.9999999999858 	9.985948253392574e-13 	101324.9999999896
-0.1689189189189193 	299.9999999999455 	5.228260587311583e-12 	101324.9999999895
-0.1664164164164168 	300.0000000000042 	1.763680481518797e-12 	101324.9999999895
-0.1639139139139143 	299.9999999999796 	7.975105631785305e-12 	101324.9999999898
-0.1614114114114118 	300.0000000000288 	2.429184614818099e-12 	101324.99999999
-0.1589089089089093 	299.9999999999914 	1.052738683685891e-11 	101324.9999999903
-0.1564064064064068 	299.9999999999835 	3.416222541002294e-12 	101324.9999999903
-0.1539039039039043 	299.9999999999889 	1.061466160453699e-11 	101324.9999999903
-0.1514014014014018 	300.0000000000309 	3.21739942214749e-12 	101324.9999999901
-0.1488988988988993 	299.9999999999769 	9.252471837874548e-12 	101324.99999999
-0.1463963963963968 	299.9999999999959 	2.326718527602451e-12 	101324.9999999901
-0.1438938938938943 	299.999999999939 	7.524848747844376e-12 	101324.9999999898
-0.1413913913913918 	299.9999999999148 	8.479320402647958e-13 	101324.9999999899
-0.1388888888888893 	299.9999999999774 	6.479689163098544e-12 	101324.99999999
-0.1363863863863868 	299.9999999998764 	1.387141869727799e-12 	101324.9999999902
-0.1338838838838843 	299.9999999998963 	4.395086288109512e-12 	101324.9999999904
-0.1313813813813818 	299.999999999994 	5.261717146632961e-13 	101324.9999999903
-0.1288788788788793 	299.9999999999533 	3.802726216941005e-12 	101324.9999999904
-0.1263763763763768 	299.999999999964 	6.65962986074379e-13 	101324.9999999906
-0.1238738738738743 	299.9999999999159 	3.743241572615505e-12 	101324.9999999908
-0.1213713713713717 	299.9999999999752 	6.928529392494865e-13 	101324.9999999906
-0.1188688688688693 	300.0000000000074 	4.497872400970968e-12 	101324.9999999907
-0.1163663663663668 	299.9999999998933 	1.195186680307134e-12 	101324.9999999905
-0.1138638638638643 	299.9999999999856 	4.911691972453377e-12 	101324.9999999906
-0.1113613613613618 	299.9999999999799 	2.045673070806064e-12 	101324.9999999906
-0.1088588588588592 	299.9999999999733 	5.244501519896765e-12 	101324.9999999904
-0.1063563563563568 	299.9999999999438 	1.719432689506407e-12 	101324.9999999903
-0.1038538538538543 	299.9999999999664 	4.334573852076113e-12 	101324.99999999
-0.1013513513513517 	300.000000000019 	5.614293743733128e-13 	101324.9999999898
-0.09884884884884926 	299.999999999931 	4.426392282647935e-12 	101324.9999999897
-0.09634634634634676 	299.9999999998766 	1.1637570850539e-12 	101324.9999999895
-0.09384384384384425 	299.9999999999195 	3.464370973288765e-12 	101324.9999999894
-0.09134134134134177 	300.0000000000285 	8.557522659115598e-13 	101324.9999999897
-0.08883883883883925 	300.000000000005 	3.06684863007551e-12 	101324.9999999897
-0.08633633633633674 	299.9999999999446 	1.983033950538119e-12 	101324.9999999897
-0.08383383383383426 	300.0000000000122 	2.488190470207416e-12 	101324.99999999
-0.08133133133133173 	299.9999999999616 	2.252300751487986e-12 	101324.9999999902
-0.07882882882882926 	299.9999999998652 	2.383496145632046e-12 	101324.9999999901
-0.07632632632632676 	299.9999999999537 	2.228305269395035e-12 	101324.9999999899
-0.07382382382382424 	299.9999999998842 	2.383618093186413e-12 	101324.9999999899
-0.07132132132132173 	300.0000000000138 	2.568819346650569e-12 	101324.9999999899
-0.06881881881881925 	299.999999999952 	2.648260213395025e-12 	101324.9999999896
-0.06631631631631671 	299.9999999998784 	2.298039156494997e-12 	101324.9999999895
-0.06381381381381425 	299.9999999999428 	1.804909686577714e-12 	101324.9999999896
-0.06131131131131173 	299.9999999999462 	1.175343272732018e-12 	101324.9999999897
-0.05880880880880923 	299.9999999999045 	1.501922016216833e-12 	101324.9999999897
-0.05630630630630672 	299.9999999999631 	1.239201768354051e-12 	101324.9999999898
-0.05380380380380424 	300.0000000000189 	1.929910421414324e-12 	101324.9999999899
-0.05130130130130173 	300.0000000000155 	2.13269477981803e-12 	101324.9999999899
-0.04879879879879922 	299.9999999999323 	2.545378944148632e-12 	101324.99999999
-0.04629629629629672 	299.9999999999184 	1.664981793305311e-12 	101324.9999999901
-0.04379379379379422 	299.9999999999059 	1.631184572320531e-12 	101324.9999999901
-0.04129129129129173 	299.9999999999707 	8.337259079080757e-13 	101324.9999999901
-0.03878878878878922 	299.9999999999805 	1.487219072893457e-12 	101324.9999999903
-0.03628628628628671 	299.9999999999806 	1.200328501407685e-12 	101324.9999999903
-0.03378378378378422 	299.9999999999172 	1.458217628061051e-12 	101324.9999999904
-0.03128128128128172 	299.9999999999623 	6.326807866129667e-13 	101324.9999999901
-0.02877877877877922 	299.9999999999616 	1.203539462140475e-12 	101324.9999999902
-0.0262762762762767 	299.9999999998848 	8.028644103063338e-13 	101324.9999999901
-0.02377377377377422 	300.0000000000229 	5.929162924472222e-13 	101324.99999999
-0.0212712712712717 	299.9999999998897 	9.943293598352658e-13 	101324.9999999899
-0.01876876876876921 	299.9999999999677 	5.372204546213836e-13 	101324.9999999897
-0.01626626626626671 	300.0000000000162 	1.513942641561495e-12 	101324.9999999895
-0.0137637637637642 	299.999999999958 	1.216818070014765e-12 	101324.9999999895
-0.0112612612612617 	300.0000000000169 	1.69099920665776e-12 	101324.9999999895
-0.008758758758759198 	299.9999999999978 	1.821445331986391e-12 	101324.9999999895
-0.006256256256256697 	299.9999999998683 	2.197170871116327e-12 	101324.9999999895
-0.003753753753754195 	299.999999999947 	1.118627926906564e-12 	101324.9999999894
-0.001251251251251693 	299.999999999914 	1.484851039971556e-12 	101324.9999999892
0.00125125125125081 	299.9999999999482 	1.059476185570863e-12 	101324.9999999891
0.003753753753753312 	299.9999999999589 	1.630724716527721e-12 	101324.9999999892
0.006256256256255817 	299.9999999998702 	7.499591401111537e-13 	101324.9999999893
0.008758758758758317 	299.9999999999868 	3.759999049644638e-13 	101324.9999999892
0.01126126126126082 	300.0000000000088 	7.992101015339178e-14 	101324.9999999892
0.01376376376376332 	299.9999999999622 	1.089509395808002e-13 	101324.9999999891
0.01626626626626582 	300.0000000000098 	4.410623682229176e-13 	101324.9999999891
0.01876876876876833 	299.999999999946 	5.540402213218674e-13 	101324.9999999891
0.02127127127127083 	299.9999999999616 	1.087545783142132e-12 	101324.9999999891
0.02377377377377332 	299.999999999991 	1.375156416688889e-12 	101324.9999999893
0.02627627627627583 	299.9999999998901 	1.654005318385735e-12 	101324.9999999895
0.02877877877877833 	300.0000000000084 	1.806146304090995e-12 	101324.9999999894
0.03128128128128083 	299.9999999999356 	1.51096629100009e-12 	101324.9999999894
0.03378378378378333 	299.9999999998889 	2.111662564087632e-12 	101324.9999999893
0.03628628628628584 	299.9999999999677 	1.942154102372538e-12 	101324.9999999896
0.03878878878878834 	299.9999999999747 	2.329193320823244e-12 	101324.9999999898
0.04129129129129084 	299.9999999999714 	3.16561446687695e-12 	101324.9999999899
0.04379379379379333 	299.9999999999338 	2.868008690526044e-12 	101324.9999999898
0.04629629629629585 	299.9999999998748 	2.758642310476306e-12 	101324.9999999898
0.04879879879879834 	299.9999999999472 	2.653102009697481e-12 	101324.99999999
0.05130130130130085 	300.0000000000164 	2.555865581601129e-12 	101324.9999999901
0.05380380380380335 	300.0000000000202 	2.018607475983261e-12 	101324.9999999903
0.05630630630630584 	299.9999999999882 	1.829584646748155e-12 	101324.9999999903
0.05880880880880836 	299.9999999999087 	1.213159705647224e-12 	101324.9999999903
0.06131131131131085 	299.9999999999682 	7.175864470199504e-13 	101324.9999999898
0.06381381381381336 	299.9999999999617 	2.225234946282239e-13 	101324.9999999896
0.06631631631631586 	299.999999999875 	3.948767084519498e-14 	101324.9999999898
0.06881881881881835 	299.9999999999416 	7.58729556253345e-13 	101324.9999999896
0.07132132132132088 	299.9999999999876 	7.835703604986181e-13 	101324.9999999898
0.07382382382382337 	299.9999999998884 	1.464450250792719e-12 	101324.9999999898
0.07632632632632587 	299.9999999999682 	1.830324447228298e-12 	101324.9999999901
0.07882882882882837 	299.9999999999298 	1.877323293845599e-12 	101324.9999999901
0.08133133133133086 	299.9999999999817 	1.833835936828734e-12 	101324.9999999903
0.08383383383383337 	299.9999999999798 	1.07040018255126e-12 	101324.9999999904
0.08633633633633589 	299.9999999998884 	1.429694533447105e-12 	101324.9999999902
0.08883883883883838 	300.0000000000151 	1.952328849832215e-12 	101324.9999999902
0.09134134134134086 	299.9999999999889 	1.182836536391063e-12 	101324.99999999
0.09384384384384339 	299.999999999879 	1.477210209991017e-12 	101324.9999999899
0.09634634634634588 	299.9999999999588 	1.898236068837272e-12 	101324.9999999898
0.09884884884884838 	299.9999999999666 	2.036490157072365e-12 	101324.9999999901
0.1013513513513509 	300.0000000000219 	1.803282533739011e-12 	101324.9999999902
0.1038538538538534 	299.9999999999415 	1.515518374685568e-12 	101324.9999999901
0.1063563563563559 	300.0000000000226 	1.953472223529007e-12 	101324.9999999901
0.1088588588588584 	300.0000000000306 	1.838236071763999e-12 	101324.9999999901
0.1113613613613609 	299.9999999998988 	1.690181544219589e-12 	101324.9999999898
0.1138638638638634 	299.9999999999397 	1.8471907976583e-12 	101324.9999999896
0.1163663663663659 	299.999999999935 	2.106263158051766e-12 	101324.9999999898
0.1188688688688684 	299.9999999999664 	2.279972182179811e-12 	101324.9999999897
0.1213713713713709 	299.9999999999915 	1.727075035647892e-12 	101324.9999999899
0.1238738738738734 	299.9999999999152 	1.749354483390287e-12 	101324.9999999899
0.1263763763763759 	299.9999999999837 	1.747285572685139e-12 	101324.9999999899
0.1288788788788784 	299.9999999999867 	1.894186173829575e-12 	101324.9999999898
0.1313813813813809 	299.9999999999859 	1.723568247669103e-12 	101324.9999999897
0.1338838838838834 	299.9999999999698 	2.011499914487161e-12 	101324.9999999894
0.1363863863863859 	300.0000000000292 	2.034982538413289e-12 	101324.9999999892
0.1388888888888884 	300.0000000000543 	2.529369885271587e-12 	101324.9999999893
0.1413913913913909 	300.0000000000015 	1.40758423703516e-12 	101324.9999999893
0.1438938938938934 	299.9999999999931 	1.834236899421203e-12 	101324.9999999893
0.1463963963963959 	299.9999999999539 	2.008969277115371e-13 	101324.9999999893
0.1488988988988985 	299.9999999998947 	1.402328132892558e-12 	101324.9999999892
0.1514014014014009 	299.9999999999663 	5.877443951046684e-13 	101324.9999999894
0.1539039039039035 	299.9999999999557 	1.8175048019911e-12 	101324.9999999893
0.1564064064064059 	299.999999999925 	1.020928853153236e-12 	101324.9999999893
0.1589089089089084 	299.9999999999764 	2.743588058710252e-12 	101324.9999999893
0.1614114114114109 	299.9999999999706 	1.020133488345657e-12 	101324.9999999892
0.1639139139139134 	299.9999999998973 	3.526518589379243e-12 	101324.9999999896
0.166416416416416 	300.0000000000082 	2.849181734867706e-12 	101324.9999999896
0.1689189189189185 	300.0000000000325 	2.965213119729922e-12 	101324.9999999896
0.1714214214214209 	299.999999999995 	3.491010785522826e-12 	101324.9999999898
0.1739239239239235 	299.9999999999845 	1.814530337823214e-12 	101324.9999999902
0.1764264264264259 	299.9999999999627 	3.739321771762556e-12 	101324.99999999
0.1789289289289284 	300.0000000000118 	1.212665772050444e-12 	101324.99999999
0.181431431431431 	299.9999999999588 	4.026459748964495e-12 	101324.99999999
0.1839339339339334 	299.9999999999637 	1.848871503104497e-12 	101324.9999999897
0.186436436436436 	299.9999999999095 	3.342403252914626e-12 	101324.9999999895
0.1889389389389385 	299.9999999999819 	3.009462592831594e-12 	101324.9999999893
0.191441441441441 	299.999999999977 	2.792229721028394e-12 	101324.9999999894
0.1939439439439434 	299.9999999999062 	4.145076308523152e-12 	101324.9999999894
0.196446446446446 	299.999999999935 	2.453369926025935e-12 	101324.9999999892
0.1989489489489485 	299.9999999999567 	5.017509165485614e-12 	101324.9999999891
0.2014514514514509 	299.9999999999765 	2.623152088805057e-12 	101324.9999999888
0.2039539539539535 	299.9999999999941 	4.30528003343398e-12 	101324.9999999887
0.2064564564564559 	299.9999999999532 	3.463556515503235e-12 	101324.999999989
0.2089589589589585 	299.9999999999787 	3.695184519619169e-12 	101324.9999999892
0.211461461461461 	299.9999999999186 	3.765524285395522e-12 	101324.9999999891
0.2139639639639635 	299.9999999999765 	3.093578341716665e-12 	101324.9999999891
0.2164664664664659 	299.999999999994 	4.266181305654483e-12 	101324.9999999894
0.2189689689689684 	299.9999999999898 	2.150652652122021e-12 	101324.9999999894
0.221471471471471 	299.9999999999909 	4.791281879857957e-12 	101324.9999999893
0.2239739739739735 	299.9999999999504 	2.451087804895121e-12 	101324.9999999893
0.226476476476476 	299.9999999999754 	4.271691516143497e-12 	101324.9999999894
0.2289789789789785 	299.9999999999973 	3.115150604758383e-12 	101324.9999999892
0.231481481481481 	299.9999999999856 	2.964544063951028e-12 	101324.999999989
0.2339839839839835 	299.9999999999823 	3.630889781678996e-12 	101324.9999999889
0.236486486486486 	300.0000000000236 	2.399614356931256e-12 	101324.999999989
0.2389889889889885 	300.0000000000069 	3.592324999602509e-12 	101324.9999999889
0.241491491491491 	299.9999999999063 	8.382305969945467e-13 	101324.9999999889
0.2439939939939935 	299.9999999999748 	3.548403100048825e-12 	101324.9999999889
0.246496496496496 	299.999999999988 	8.082285234036932e-13 	101324.999999989
0.2489989989989985 	300.0000000000389 	2.585134451933332e-12 	101324.9999999889
0.251501501501501 	300.0000000000316 	1.188373030537748e-12 	101324.9999999888
0.2540040040040035 	299.9999999999829 	1.356409322964451e-12 	101324.9999999889
0.256506506506506 	300.0000000000283 	1.812159144503029e-12 	101324.999999989
0.2590090090090086 	299.9999999998907 	6.654652546687949e-13 	101324.9999999893
0.261511511511511 	299.9999999999997 	3.102657231052161e-12 	101324.9999999896
0.2640140140140135 	299.9999999999873 	1.015920305325709e-12 	101324.9999999894
0.2665165165165161 	299.9999999999179 	2.49181002350952e-12 	101324.9999999896
0.2690190190190185 	300.0000000000085 	1.759400833845747e-12 	101324.9999999896
0.271521521521521 	300.0000000000122 	1.910884309197568e-12 	101324.9999999895
0.2740240240240235 	300.0000000000195 	1.821917308549639e-12 	101324.9999999893
0.276526526526526 	300.0000000000085 	1.402644834822347e-12 	101324.9999999893
0.2790290290290286 	299.999999999931 	2.48580571048503e-12 	101324.9999999894
0.281531531531531 	299.9999999999137 	1.405221383738835e-12 	101324.9999999897
0.2840340340340335 	299.9999999999739 	2.837546939849929e-12 	101324.9999999898
0.2865365365365361 	299.9999999999505 	1.387037686794377e-12 	101324.9999999898
0.2890390390390385 	299.9999999999974 	1.451324222918561e-12 	101324.9999999898
0.291541541541541 	299.9999999999963 	9.629133166376464e-13 	101324.9999999896
0.2940440440440436 	299.9999999999843 	6.569276796893159e-13 	101324.9999999893
0.296546546546546 	299.9999999999884 	1.714890377498397e-12 	101324.9999999889
0.2990490490490486 	299.9999999999259 	2.379093502413478e-12 	101324.9999999888
0.3015515515515511 	300.0000000000403 	3.288820672981389e-12 	101324.9999999886
0.3040540540540535 	300.0000000000014 	2.981798591363238e-12 	101324.9999999886
0.3065565565565562 	299.9999999999916 	4.088893298222082e-12 	101324.9999999889
0.3090590590590585 	299.9999999999859 	2.505859058582546e-12 	101324.999999989
0.3115615615615611 	299.9999999999262 	3.565586785436942e-12 	101324.9999999892
0.3140640640640635 	300.0000000000057 	1.170431204359045e-12 	101324.9999999892
0.316566566566566 	299.9999999999924 	3.02629514330146e-12 	101324.9999999896
0.3190690690690687 	299.9999999999483 	9.392310599635351e-13 	101324.9999999895
0.3215715715715711 	300.0000000000191 	1.786086647480135e-12 	101324.9999999893
0.3240740740740735 	299.9999999999999 	1.777502247223777e-12 	101324.9999999893
0.326576576576576 	299.9999999998943 	8.552870635133961e-13 	101324.9999999895
0.3290790790790786 	300.0000000000097 	1.330107358102019e-12 	101324.9999999895
0.3315815815815811 	300.0000000000321 	2.210831058525541e-13 	101324.9999999898
0.3340840840840836 	299.9999999999861 	1.456152365824463e-12 	101324.9999999898
0.3365865865865861 	300.0000000000613 	6.776393777119534e-13 	101324.9999999898
0.3390890890890886 	300.0000000000535 	2.039694044454385e-12 	101324.9999999899
0.3415915915915911 	299.9999999999993 	1.04408812868562e-12 	101324.9999999901
0.3440940940940935 	299.9999999999426 	2.790556766855549e-12 	101324.99999999
0.3465965965965962 	300.0000000000362 	9.434827555696978e-13 	101324.9999999899
0.3490990990990985 	300.000000000029 	2.167684051961416e-12 	101324.9999999898
0.3516016016016011 	299.9999999999883 	1.743646417707166e-12 	101324.9999999894
0.3541041041041035 	300.0000000000045 	2.308155800377701e-12 	101324.999999989
0.3566066066066061 	299.9999999999479 	3.298417530000063e-12 	101324.9999999886
0.3591091091091085 	299.9999999999088 	3.042268313104171e-12 	101324.9999999881
0.3616116116116112 	299.9999999999299 	6.589275067197242e-12 	101324.9999999873
0.3641141141141137 	299.9999999999217 	8.285697808146921e-12 	101324.9999999855
0.3666166166166161 	299.9999999999122 	2.042829160083167e-11 	101324.9999999819
0.3691191191191185 	300.0000000000348 	3.382249094679489e-11 	101324.9999999749
0.371621621621621 	299.9999999999898 	7.218835129025793e-11 	101324.9999999614
0.3741241241241237 	300.0000000000095 	1.337030139996989e-10 	101324.9999999357
0.3766266266266261 	299.9999999999451 	2.603705089886224e-10 	101324.9999998869
0.3791291291291286 	299.9999999998143 	4.910728347491628e-10 	101324.9999997946
0.3816316316316311 	299.9999999996013 	9.310628856200309e-10 	101324.9999996217
0.3841341341341336 	299.9999999994291 	1.743209610590292e-09 	101324.9999992995
0.3866366366366362 	299.9999999989085 	3.251492619121636e-09 	101324.999998703
0.3891391391391387 	299.9999999979345 	6.015709738445096e-09 	101324.9999976067
0.391641641641641 	299.9999999962844 	1.106297716729155e-08 	101324.9999956059
0.3941441441441436 	299.9999999932353 	2.020005822245268e-08 	101324.9999919797
0.3966466466466462 	299.9999999877041 	3.663561666416907e-08 	101324.9999854549
0.3991491491491486 	299.9999999777843 	6.597329814076462e-08 	101324.9999737983
0.4016516516516512 	299.9999999602687 	1.179710532089732e-07 	101324.9999531268
0.4041541541541536 	299.9999999295303 	2.09434995369464e-07 	101324.9999167406
0.4066566566566561 	299.9999998757621 	3.691179884360513e-07 	101324.9998531765
0.4091591591591587 	299.999999782614 	6.457456933358966e-07 	101324.9997429879
0.4116616616616612 	299.9999996223177 	1.121231850111301e-06 	101324.9995534663
0.4141641641641635 	299.9999993488277 	1.93201086211287e-06 	101324.9992300871
0.4166666666666662 	299.9999988858305 	3.303312742658849e-06 	101324.9986827788
0.4191691691691687 	299.9999981087295 	5.603468392723831e-06 	101324.9977641317
0.421671671671671 	299.9999968155567 	9.429090049355387e-06 	101324.9962351951
0.4241741741741737 	299.9999946816304 	1.573708574350122e-05 	101324.9937124269
0.4266766766766761 	299.9999911915972 	2.604670062478006e-05 	101324.9895864111
0.4291791791791785 	299.9999855350299 	4.274490776008956e-05 	101324.9828989121
0.4316816816816812 	299.9999764509626 	6.954158151882695e-05 	101324.9721594066
0.4341841841841836 	299.9999620001609 	0.0001121385301404026 	101324.9550751938
0.4366866866866862 	299.9999392340175 	0.0001791976450634433 	101324.9281603633
0.4391891891891885 	299.999903723344 	0.000283719592638008 	101324.886178388
0.4416916916916913 	299.9998488973482 	0.0004449724864899638 	101324.8213613719
0.4441941941941936 	299.9997651368028 	0.0006911390228016908 	101324.7223371475
0.4466966966966961 	299.999638552365 	0.001062873414514665 	101324.5726856093
0.4491991991991987 	299.9994493801204 	0.001617969286238446 	101324.3490413277
0.4517017017017012 	299.9991699270521 	0.00243732227846526 	101324.0186658181
0.4542042042042035 	299.9987620250769 	0.003632309975452976 	101323.5364370071
0.4567067067067062 	299.9981739894663 	0.005353583842394143 	101322.8412545655
0.4592092092092087 	299.9973371569492 	0.007801048143284472 	101321.851948432
0.4617117117117112 	299.9961621928123 	0.01123446363739136 	101320.462914576
0.4642142142142137 	299.9945355170299 	0.01598364064137323 	101318.5398948952
0.4667167167167162 	299.9923164170195 	0.02245657412304956 	101315.9165686425
0.4692192192192187 	299.9893356580041 	0.03114314959151451 	101312.3929206318
0.4717217217217212 	299.9853966784746 	0.04261128330761325 	101307.7366682865
0.4742242242242236 	299.9802806911853 	0.05749168242574765 	101301.6893131233
0.4767267267267262 	299.9737571616916 	0.07644701404258665 	101293.9785529497
0.4792292292292287 	299.9656010929998 	0.1001214108377799 	101284.338744051
0.4817317317317312 	299.9556182285899 	0.1290672045424953 	101272.5407178711
0.4842342342342336 	299.9436785782084 	0.1636478444032587 	101258.4314186687
0.4867367367367362 	299.9297575157218 	0.203919324955188 	101241.9824546283
0.4892392392392387 	299.9139820686963 	0.2494971636360966 	101223.3447262189
0.4917417417417412 	299.896677974946 	0.2994221283818799 	101202.9038819143
0.4942442442442437 	299.8784101496545 	0.3520494009231936 	101181.3279014252
0.4967467467467462 	299.8600000728372 	0.4050143724605246 	101159.587354307
0.4992492492492487 	299.8424868938139 	0.4553519549958194 	101138.9092018778
0.5017517517517511 	299.8270182207443 	0.4997986169880733 	101120.6477148639
0.5042542542542537 	299.8146953529726 	0.5352271218565517 	101106.1018638789
0.5067567567567562 	299.806400921205 	0.5591343080546709 	101096.3122030824
0.5092592592592589 	299.8026374341798 	0.5701016469113895 	101091.8703308609
0.5117617617617611 	299.8034019035862 	0.5681520983817018 	101092.7714550978
0.5142642642642637 	299.808118144514 	0.5549269236831236 	101098.3390337702
0.5167667667667663 	299.8156701757716 	0.5336267595161404 	101107.2543201528
0.5192692692692688 	299.8244997131818 	0.5087017414405937 	101117.6769873348
0.5217717717717714 	299.8328109533492 	0.4852311197813148 	101127.4883645976
0.5242742742742736 	299.8389179345586 	0.4679336247812963 	101134.6978727956
0.5267767767767763 	299.841678729816 	0.459998270291927 	101137.9574125507
0.5292792792792789 	299.8408196422525 	0.4622087475958157 	101136.94381496
0.5317817817817813 	299.8369993449261 	0.4727476472839368 	101132.432543893
0.5342842842842837 	299.8316102399394 	0.4877075206038361 	101126.0697151155
0.5367867867867864 	299.8264198332557 	0.5021484379478399 	101119.9424649661
0.5392892892892888 	299.823060805703 	0.5115491350853513 	101115.977275133
0.5417917917917912 	299.8224785655576 	0.5132852452944296 	101115.2896729034
0.5442942942942938 	299.82461216643 	0.5074958443863749 	101117.8080777838
0.5467967967967964 	299.8284572369459 	0.4969374419450726 	101122.3482778727
0.5492992992992988 	299.8324566235904 	0.4859185806038869 	101127.0697179966
0.5518018018018012 	299.8350733865095 	0.4786576610065247 	101130.1588734563
0.5543043043043039 	299.8354197240342 	0.4775897574561909 	101130.5680226641
0.5568068068068063 	299.8336270553499 	0.4823823828080296 	101128.4517287195
0.5593093093093087 	299.8307443218513 	0.4901874330588892 	101125.0477341931
0.5618118118118114 	299.8282374090272 	0.4970075705306005 	101122.0882860269
0.5643143143143137 	299.827305228799 	0.4995918485586744 	101120.9876677844
0.5668168168168163 	299.8282910620182 	0.4969893604371521 	101122.1510921156
0.5693193193193188 	299.8305496342741 	0.4909158021236653 	101124.8182074509
0.5718218218218213 	299.8328340074245 	0.48473775052011 	101127.5150061703
0.5743243243243239 	299.833966507554 	0.4816224229578577 	101128.8521320162
0.5768268268268262 	299.8334894482138 	0.4828118987770036 	101128.2891825111
0.5793293293293288 	299.8318953792065 	0.4870135269964772 	101126.406753062
0.5818318318318314 	299.8302868678072 	0.4912868782451466 	101124.5078288092
0.5843343343343338 	299.8296953130399 	0.4928858801666964 	101123.8092580633
0.5868368368368363 	299.8304425054644 	0.4909371295925125 	101124.690986461
0.5893393393393387 	299.8319754230575 	0.4868798962727079 	101126.5014089322
0.5918418418418413 	299.8332808578904 	0.4833936295632111 	101128.0425257928
0.5943443443443439 	299.8335735449131 	0.4825531858245086 	101128.3880284832
0.5968468468468463 	299.8328232367267 	0.4844569847192352 	101127.5025325628
0.5993493493493487 	299.8317317065663 	0.4872834502420147 	101126.2134950411
0.6018518518518514 	299.8311850871075 	0.4887131776779712 	101125.5679551519
0.6043543543543537 	299.8315973782421 	0.4876524274423864 	101126.0547017432
0.6068568568568564 	299.8326286746311 	0.4849636745687175 	101127.2724817393
0.6093593593593587 	299.8334978309126 	0.4826693497596831 	101128.2985972498
0.6118618618618614 	299.8336161815085 	0.4822999415450669 	101128.4385278226
0.6143643643643638 	299.8330454137767 	0.4837158072403636 	101127.7647030941
0.6168668668668662 	299.8324020561266 	0.4853427435764258 	101127.0048742337
0.6193693693693688 	299.8323072495794 	0.4855814463114566 	101126.8929284801
0.6218718718718714 	299.8328615808236 	0.4841575836252826 	101127.5474861453
0.6243743743743737 	299.8335965924331 	0.4822522142364432 	101128.4154252048
0.6268768768768762 	299.8339293066989 	0.481352010094926 	101128.8082927338
0.629379379379379 	299.8336903159736 	0.4819008940279229 	101128.5261449836
0.6318818818818812 	299.8332476673257 	0.4829823115725075 	101128.0033438656
0.6343843843843838 	299.8331228941739 	0.4832799168448114 	101127.8557096915
0.6368868868868864 	299.8334867294545 	0.4823496767310985 	101128.2852435399
0.6393893893893888 	299.8340240698582 	0.4809682576142912 	101128.9198744649
0.6418918918918912 	299.8342823291659 	0.4802702555460934 	101129.2247028591
0.6443943943943939 	299.8341299180081 	0.4805954738937057 	101129.0447613034
0.6468968968968963 	299.8338632945301 	0.4812190162796994 	101128.729934114
0.6493993993993988 	299.8338655292133 	0.4811890638569544 	101128.7325677955
0.6519019019019012 	299.8342001885252 	0.4803355439531364 	101129.1276869433
0.6544044044044038 	299.8345727587129 	0.4793748087040304 	101129.5675822555
0.6569069069069065 	299.8346789823411 	0.4790588222698801 	101129.6930884982
0.6594094094094087 	299.8345367930269 	0.4793559176561596 	101129.5253121617
0.6619119119119113 	299.8344373300035 	0.4795624013705501 	101129.4075753149
0.664414414414414 	299.8345917368702 	0.4791562489263546 	101129.5897484809
0.6669169169169162 	299.8348990913166 	0.4783704496570553 	101129.9528598869
0.6694194194194188 	299.8350937390427 	0.477847628424085 	101130.1824644495
0.6719219219219214 	299.8350704145243 	0.4778488484458043 	101130.1549940488
0.674424424424424 	299.8349947393348 	0.4779849467193341 	101130.0657877882
0.6769269269269262 	299.8350764913881 	0.4777517093104328 	101130.1621692752
0.679429429429429 	299.8353091036269 	0.4771544234472773 	101130.4368144142
0.6819319319319311 	299.8355007972008 	0.4766456598731288 	101130.6632673735
0.6844344344344341 	299.8355333545281 	0.4765124939855466 	101130.7015787373
0.686936936936936 	299.8355036878992 	0.4765327823010245 	101130.6664857931
0.6894394394394392 	299.8355771191786 	0.4763160291553087 	101130.7532017448
0.6919419419419413 	299.8357651364228 	0.4758277373000264 	101130.9751463892
0.694444444444444 	299.835927058888 	0.4753936928455177 	101131.1663452082
0.6969469469469463 	299.8359739701349 	0.4752263284544918 	101131.2218112621
0.6994494494494489 	299.8359827730703 	0.4751531092795715 	101131.2321609758
0.7019519519519515 	299.8360727136183 	0.4748964413363319 	101131.3382545158
0.7044544544544538 	299.8362361475207 	0.4744673352511796 	101131.5312289406
0.7069569569569564 	299.8363639321682 	0.4741150810822312 	101131.6821589453
0.7094594594594589 	299.8364109498777 	0.4739480748755925 	101131.7376308226
0.7119619619619615 	299.8364529510102 	0.4737971021753846 	101131.7871421936
0.7144644644644638 	299.8365629705113 	0.4734929143649973 	101131.9171449141
0.7169669669669665 	299.8367054114144 	0.4731121235860313 	101132.0853098147
0.7194694694694688 	299.8368013604056 	0.4728335568515525 	101132.1984861424
0.7219719719719715 	299.836851393158 	0.4726597856095373 	101132.2576520785
0.7244744744744737 	299.8369253906235 	0.4724360667450217 	101132.3449553669
0.7269769769769764 	299.8370471387742 	0.4721054434631586 	101132.4886266762
0.7294794794794791 	299.8371636513866 	0.471783103570249 	101132.6262917282
0.7319819819819813 	299.8372373110403 	0.4715553207568889 	101132.7132863044
0.7344844844844839 	299.8373028532114 	0.4713484291029069 	101132.7905163796
0.7369869869869864 	299.8374028375586 	0.4710666021291294 	101132.9086520643
0.739489489489489 	299.8375189348712 	0.4707477491938792 	101133.0456956209
0.7419919919919914 	299.8376089980065 	0.4704841663393757 	101133.1520047672
0.7444944944944939 	299.8376792417906 	0.4702648805592226 	101133.2349811835
0.7469969969969963 	299.8377677294455 	0.4700080217697274 	101133.3393425831
0.7494994994994989 	299.8378764625023 	0.469706436570036 	101133.4677256892
0.7520020020020015 	299.8379730012768 	0.4694291650230219 	101133.5818802006
0.7545045045045039 	299.8380503852016 	0.4691940572619152 	101133.6730634805
0.7570070070070062 	299.8381351004347 	0.4689446227330317 	101133.7730184751
0.7595095095095092 	299.8382370671644 	0.4686578846434287 	101133.8936164395
0.7620120120120112 	299.8383347493631 	0.4683794815579373 	101134.0088893974
0.7645145145145138 	299.8384171190459 	0.4681337433143867 	101134.1059287214
0.7670170170170165 	299.8385017645668 	0.4678838113636581 	101134.2059903333
0.7695195195195191 	299.838599692987 	0.4676063614187697 	101134.3216674733
0.7720220220220213 	299.8386960425904 	0.4673315016969388 	101134.4353459325
0.7745245245245239 	299.8387809383614 	0.467080234882378 	101134.535557897
0.7770270270270263 	299.8388669930774 	0.4668274358598909 	101134.6371824374
0.779529529529529 	299.8389626296454 	0.4665550754573872 	101134.7501220096
0.7820320320320313 	299.8390570704727 	0.4662846644472141 	101134.8615074711
0.784534534534534 	299.8391431624484 	0.4660309917229553 	101134.9632179382
0.7870370370370364 	299.8392306780092 	0.4657751477388036 	101135.0666250463
0.7895395395395389 	299.8393251299319 	0.4655056740976304 	101135.1779780017
0.7920420420420413 	299.8394175233541 	0.4652395153765814 	101135.2870770795
0.794544544544544 	299.8395041432107 	0.4649848223256391 	101135.3895341949
0.7970470470470463 	299.8395932778803 	0.4647263365327619 	101135.4945405915
0.799549549549549 	299.8396866215231 	0.4644590925950515 	101135.6046922659
0.8020520520520515 	299.8397770901271 	0.4641966556076019 	101135.7117885369
0.8045545545545539 	299.8398645963619 	0.4639410880641537 	101135.8149026474
0.8070570570570563 	299.8399546612321 	0.4636806248939301 	101135.921170818
0.8095595595595589 	299.8400467415472 	0.4634156883837259 	101136.0300412663
0.8120620620620614 	299.8401361685229 	0.4631560896293562 	101136.135561825
0.8145645645645638 	299.8402242595835 	0.4628993650658948 	101136.2395149597
0.8170670670670666 	299.8403148552963 	0.4626378613266186 	101136.3465407687
0.8195695695695689 	299.8404058862384 	0.4623755479720382 	101136.4539530774
0.8220720720720714 	299.8404944655508 	0.4621177751065733 	101136.5585304022
0.8245745745745739 	299.8405833116069 	0.4618597151108523 	101136.6634615019
0.8270770770770765 	299.8406740521851 	0.4615983079547215 	101136.7705242229
0.8295795795795788 	299.8407637398477 	0.4613385551468427 	101136.876462857
0.8320820820820815 	299.8408521321467 	0.4610813778179915 	101136.9808445534
0.834584584584584 	299.8409417191276 	0.4608222411567165 	101137.0865771592
0.8370870870870865 	299.8410318587852 	0.4605620582463018 	101137.1929815199
0.8395895895895891 	299.8411206436132 	0.4603042949223662 	101137.2978501109
0.8420920920920915 	299.8412094175091 	0.4600467967382023 	101137.4026195909
0.844594594594594 	299.841299178619 	0.4597875298996814 	101137.5085720054
0.8470970970970964 	299.8413884708192 	0.4595291452150426 	101137.6139520443
0.8495995995995991 	299.8414769182884 	0.4592721840050898 	101137.7184458606
0.8521021021021015 	299.8415659562301 	0.4590141993218765 	101137.8236810483
0.8546046046046039 	299.8416555180086 	0.4587559255485127 	101137.929165914
0.8571071071071066 	299.8417440799832 	0.4584990532916846 	101138.0337623323
0.8596096096096089 	299.841832532878 	0.4582420640379893 	101138.1384450843
0.8621121121121116 	299.8419218307725 	0.4579842911990756 	101138.2436716045
0.8646146146146139 	299.8420106259967 	0.4577273736904967 	101138.3483781059
0.8671171171171166 	299.8420988174008 	0.4574710175842062 	101138.4527588432
0.8696196196196189 	299.84218771644 	0.457214062493648 	101138.5576121285
0.8721221221221216 	299.842276498946 	0.4569574019832033 	101138.6623242756
0.874624624624624 	299.8423646520586 	0.4567014374573808 	101138.7665776677
0.8771271271271264 	299.8424532157183 	0.4564451776928481 	101138.871071395
0.879629629629629 	299.8425418889753 	0.45618888390153 	101138.9756364193
0.8821321321321317 	299.8426299762097 	0.4559332357201189 	101139.0797920171
0.8846346346346339 	299.8427182703967 	0.4556776071943424 	101139.1839969264
0.8871371371371364 	299.8428066988807 	0.4554218118538994 	101139.288358995
0.8896396396396391 	299.8428947846048 	0.4551664838040181 	101139.3924195823
0.8921421421421414 	299.8429829725111 	0.4549113725838608 	101139.4964002445
0.8946446446446441 	299.8430711048251 	0.4546561412725071 	101139.6005314575
0.8971471471471464 	299.8431590811892 	0.4544012293337 	101139.7044628328
0.8996496496496489 	299.8432471055528 	0.4541465661431835 	101139.8082536473
0.9021521521521517 	299.8433350479463 	0.4538918317650961 	101139.9121530668
0.9046546546546541 	299.8434228939089 	0.4536373643658294 	101140.0159246433
0.9071571571571564 	299.8435107667479 	0.4533831780381155 	101140.1195445055
0.9096596596596589 	299.8435985242517 	0.4531289581997723 	101140.2232325564
0.9121621621621616 	299.8436862527662 	0.4528748787114745 	101140.3268306141
0.9146646646646639 	299.8437739873457 	0.4526210643066776 	101140.4302769788
0.9171671671671666 	299.8438615460564 	0.452367397859538 	101140.5337542985
0.9196696696696689 	299.8439490563239 	0.4521138972806047 	101140.6371666285
0.9221721721721714 	299.8440367839569 	0.4518605262920604 	101140.7404494106
0.9246746746746741 	299.8441241410152 	0.4516072461351759 	101140.8437401542
0.9271771771771765 	299.8442114299148 	0.4513542001745848 	101140.9469657651
0.9296796796796791 	299.8442989386294 	0.4511013410684442 	101141.0500679359
0.9321821821821816 	299.8443862608964 	0.4508485049452635 	101141.1531572089
0.9346846846846838 	299.8444733946822 	0.4505958613883737 	101141.2561857729
0.9371871871871866 	299.8445606601842 	0.4503434924022496 	101141.3591172744
0.9396896896896891 	299.8446478771523 	0.4500911960724688 	101141.4620371433
0.9421921921921914 	299.8447349587871 	0.4498390329634098 	101141.564893443
0.9446946946946939 	299.844822015979 	0.4495870948842626 	101141.6676503436
0.9471971971971965 	299.8449089710038 	0.4493352340870762 	101141.7703702715
0.9496996996996991 	299.8449959042194 	0.4490835282331269 	101141.8730182213
0.9522022022022016 	299.8450828904354 	0.4488320643319131 	101141.9755899818
0.9547047047047038 	299.8451696460602 	0.4485807041288694 	101142.0781358016
0.9572072072072064 	299.84525643338 	0.4483294720252684 	101142.1806141921
0.9597097097097093 	299.8453432750949 	0.4480784124201271 	101142.2830196084
0.9622122122122114 	299.8454299272224 	0.4478274882911379 	101142.3853795911
0.964714714714714 	299.845516484333 	0.4475767518354305 	101142.4876612443
0.9672172172172167 	299.8456031960189 	0.4473261962576807 	101142.5898801173
0.969719719719719 	299.8456897020419 	0.4470757776974359 	101142.6920569023
0.9722222222222214 	299.8457760905411 	0.4468255022818528 	101142.7941631244
0.9747247247247239 	299.8458626763363 	0.4465753889951217 	101142.8962114781
0.9772272272272267 	299.8459490491516 	0.4463254164572357 	101142.9982030203
0.9797297297297292 	299.8460352244657 	0.446075546062311 	101143.1001192864
0.9822322322322313 	299.8461215980612 	0.4458258732104913 	101143.2019824926
0.9847347347347344 	299.846207912925 	0.4455764576747728 	101143.3037910548
0.9872372372372363 	299.8462939505381 	0.4453271332162128 	101143.4055359565
0.9897397397397389 	299.8463801455272 	0.4450778506633131 	101143.5072289104
0.9922422422422417 	299.8464662836279 	0.4448288126759935 	101143.6088557128
0.9947447447447441 	299.8465522360378 	0.4445800121411291 	101143.7104160132
0.9972472472472468 	299.8466382645124 	0.4443312880241571 	101143.8119206052
0.999749749749749 	299.8467241615067 	0.4440826869310686 	101143.9133620178
1.002252252252252 	299.8468099252219 	0.4438342809285012 	101144.014749052
1.004754754754754 	299.8468959110422 	0.4435860390713985 	101144.1160813986
1.007257257257256 	299.846981714951 	0.4433379460517261 	101144.2173479857
1.009759759759759 	299.8470672355704 	0.443090046915955 	101144.3185536627
1.012262262262261 	299.8471530315227 	0.4428423109251473 	101144.4196962261
1.014764764764764 	299.8472387724673 	0.4425946513007056 	101144.520780161
1.017267267267267 	299.8473241827318 	0.4423471661379548 	101144.6218124421
1.019769769769769 	299.8474097235937 	0.4420998812668487 	101144.7227841264
1.022272272272272 	299.8474953104132 	0.4418527429749847 	101144.8236933686
1.024774774774774 	299.8475805765901 	0.4416058258399796 	101144.9245391827
1.027277277277277 	299.8476659395835 	0.4413590512144561 	101145.0253229314
1.029779779779779 	299.8477513888712 	0.4411123346059047 	101145.1260528502
1.032282282282282 	299.8478366102953 	0.4408657636224455 	101145.2267269188
1.034784784784784 	299.8479217936606 	0.4406194657926774 	101145.3273436012
1.037287287287286 	299.8480070238954 	0.4403733969265393 	101145.4279002397
1.039789789789789 	299.8480921279964 	0.4401273634292234 	101145.5283920218
1.042292292292291 	299.8481771313336 	0.4398814445146121 	101145.6288228614
1.044794794794794 	299.8482622261035 	0.4396358545306906 	101145.7291955719
1.047297297297296 	299.8483472309742 	0.4393904638756037 	101145.8295129972
1.049799799799799 	299.8484320323 	0.4391450928875578 	101145.9297745637
1.052302302302302 	299.8485170102188 	0.438899855956088 	101146.0299750658
1.054804804804804 	299.8486019095314 	0.4386548326635117 	101146.130115351
1.057307307307306 	299.8486864698237 	0.4384099989137282 	101146.2301957376
1.059809809809809 	299.8487712626194 	0.4381653170778507 	101146.3302162967
1.062312312312312 	299.8488560563847 	0.43792082202694 	101146.4301779295
1.064814814814814 	299.8489405750414 	0.4376765599533068 	101146.5300810994
1.067317317317317 	299.849025126997 	0.4374324193723637 	101146.6299283143
1.069819819819819 	299.8491097199714 	0.4371884013871264 	101146.7297187628
1.072322322322321 	299.849194170203 	0.4369446115772619 	101146.8294511386
1.074824824824824 	299.8492785306048 	0.4367009678387187 	101146.929124207
1.077327327327327 	299.8493629800377 	0.4364574651576735 	101147.0287366374
1.079829829829829 	299.8494473582627 	0.4362142877396286 	101147.1282902274
1.082332332332332 	299.8495315115775 	0.4359713804715162 	101147.2277863975
1.084834834834834 	299.8496158378645 	0.4357285358047458 	101147.327226152
1.087337337337337 	299.8497001275326 	0.4354856967308551 	101147.4266084189
1.089839839839839 	299.8497840922462 	0.4352430981632224 	101147.5259312648
1.092342342342342 	299.8498681825346 	0.4350009085981608 	101147.6251942576
1.094844844844844 	299.8499522846164 	0.4347588359281986 	101147.7243973344
1.097347347347347 	299.8500362182956 	0.4345167756981366 	101147.8235421359
1.099849849849849 	299.8501200196559 	0.4342749646541522 	101147.9226306196
1.102352352352352 	299.8502040299064 	0.4340334396624458 	101148.021664491
1.104854854854854 	299.8502879941433 	0.4337921200845467 	101148.1206432531
1.107357357357357 	299.8503716298133 	0.4335509326635307 	101148.2195641187
1.109859859859859 	299.8504553715175 	0.4333099097540385 	101148.3184246808
1.112362362362362 	299.8505391698945 	0.4330691507251049 	101148.4172244396
1.114864864864865 	299.8506227945562 	0.4328285216128871 	101148.5159662481
1.117367367367367 	299.8507063140632 	0.4325880140698041 	101148.6146530751
1.119869869869869 	299.8507899143123 	0.4323478725227645 	101148.7132856312
1.122372372372372 	299.8508734578324 	0.4321080219813037 	101148.8118621495
1.124874874874874 	299.8509567996235 	0.4318682471639659 	101148.9103806931
1.127377377377377 	299.8510402767928 	0.4316285292470324 	101149.0088414151
1.129879879879879 	299.8511237302944 	0.4313889671783816 	101149.1072458821
1.132382382382382 	299.8512069679197 	0.4311497804162273 	101149.2055959591
1.134884884884884 	299.8512901462287 	0.4309109426310691 	101149.3038911603
1.137387387387387 	299.8513733709348 	0.4306721589376897 	101149.4021284936
1.139889889889889 	299.8514566049776 	0.4304335085388209 	101149.5003052477
1.142392392392392 	299.8515397603369 	0.4301951595836801 	101149.5984227548
1.144894894894894 	299.8516228443059 	0.4299570686046256 	101149.6964859116
1.147397397397397 	299.8517058763053 	0.4297191925146843 	101149.7944984876
1.149899899899899 	299.8517888597447 	0.4294814063971147 	101149.8924600075
1.152402402402402 	299.851871753059 	0.4292438864286128 	101149.9903670324
1.154904904904904 	299.8519547055579 	0.4290068258229005 	101150.0882171028
1.157407407407407 	299.8520376145389 	0.4287699767326746 	101150.1860098293
1.159909909909909 	299.8521203637363 	0.4285331673336604 	101150.2837458513
1.162412412412412 	299.8522031059375 	0.4282964965861969 	101150.3814259375
1.164914914914914 	299.8522858043359 	0.4280600959384454 	101150.4790512812
1.167417417417417 	299.8523684716408 	0.4278240454595224 	101150.5766238718
1.169919919919919 	299.8524510454296 	0.4275883852766797 	101150.6741463201
1.172422422422422 	299.8525336377907 	0.4273529263163839 	101150.7716197819
1.174924924924925 	299.8526162878653 	0.4271175745827884 	101150.8690419936
1.177427427427427 	299.8526988508619 	0.4268825125379487 	101150.9664092574
1.179929929929929 	299.8527812581688 	0.4266476510917453 	101151.0637203123
1.182432432432432 	299.8528636184935 	0.4264130721584565 	101151.1609772975
1.184934934934934 	299.8529460115118 	0.4261789461151583 	101151.2581831068
1.187437437437437 	299.8530284560111 	0.4259449512817947 	101151.3553393219
1.189939939939939 	299.8531107094345 	0.4257110621877855 	101151.4524466052
1.192442442442442 	299.8531927463348 	0.4254775152942891 	101151.5495055455
1.194944944944944 	299.8532750105747 	0.4252442360585797 	101151.6465157607
1.197447447447447 	299.8533573487963 	0.4250112517164449 	101151.7434755136
1.199949949949949 	299.853439629381 	0.4247786877696139 	101151.8403831658
1.202452452452452 	299.8535216825231 	0.424546248897181 	101151.9372385966
1.204954954954955 	299.8536035684048 	0.4243139697773204 	101152.0340437348
1.207457457457457 	299.8536855739731 	0.4240820863889432 	101152.130802764
1.20995995995996 	299.8537676789816 	0.4238505883117192 	101152.2275204931
1.212462462462462 	299.8538497353608 	0.4236187484925128 	101152.3241983805
1.214964964964964 	299.8539318409881 	0.4233883875581962 	101152.4208341169
1.217467467467467 	299.854013825577 	0.4231556868497041 	101152.5174207939
1.219969969969969 	299.8540955380404 	0.4229292062890826 	101152.613957372
1.222472472472472 	299.8541773663138 	0.4226861490409836 	101152.7104348405
1.224974974974975 	299.8542592794935 	0.4224888245286392 	101152.806891862
1.227477477477477 	299.8543411746479 	0.4221402210403981 	101152.9032466446
1.229979979979979 	299.8544234009884 	0.4222359570025406 	101152.9999397072
1.232482482482482 	299.8545048734019 	0.4209626717231127 	101153.0955173568
1.234984984984984 	299.8545863503576 	0.422151481150199 	101153.1921397262
1.237487487487487 	299.8546705695333 	0.4203505567651892 	101153.2883271518
1.239989989989989 	299.8547466937921 	0.4211726815328487 	101153.3826493783
1.242492492492492 	299.8548335984864 	0.4218233405799446 	101153.4821675003
1.244994994994994 	299.8523316142826 	0.4188562826038064 	101153.575748467
1.247497497497497 	299.1671270890097 	0.4206914607354457 	101153.6723047363
1.249999999999999 	301.4391527294245 	0.4201582077060015 	101153.7693914918
