-1.25 	300 	0.1182877302594517 	101372.5528258148
-1.247497497497497 	300.0382472251803 	0.1110587817432693 	101370.4683203515
-1.244994994994995 	300.0354626295633 	0.1016820444335227 	101366.9259993315
-1.242492492492492 	300.0319132944124 	0.09296191698853876 	101362.7328856188
-1.23998998998999 	300.0277586537595 	0.08016176425087843 	101357.8201899933
-1.237487487487487 	300.0231038384063 	0.06679429160107336 	101352.3161436477
-1.234984984984985 	300.0181204032241 	0.05227282891406751 	101346.4237936104
-1.232482482482482 	300.012774197167 	0.03684861762046401 	101340.1027665221
-1.22997997997998 	300.0071777970534 	0.02066221893825835 	101333.4862133258
-1.227477477477477 	300.0014796086044 	0.008183230810563123 	101326.7496211689
-1.224974974974975 	299.9957730461707 	0.01232833682215646 	101320.0034522867
-1.222472472472472 	299.9900991969834 	0.02873436290097618 	101313.2962605367
-1.21996996996997 	299.9845601581578 	0.04471618630771194 	101306.7487247445
-1.217467467467467 	299.9793223911511 	0.05986406131251552 	101300.5575874216
-1.214964964964965 	299.9744605975263 	0.07392888244056335 	101294.8110808709
-1.212462462462462 	299.970029721156 	0.08671131941878742 	101289.5741004
-1.20995995995996 	299.9661611951652 	0.09786982183908921 	101285.0019229459
-1.207457457457457 	299.9629731845619 	0.1070964825149023 	101281.2341290062
-1.204954954954955 	299.9604873959934 	0.1142960751196294 	101278.296317232
-1.202452452452452 	299.9587021459732 	0.1194445663451724 	101276.1864053361
-1.19994994994995 	299.9576590481572 	0.1224463724452038 	101274.9535958413
-1.197447447447447 	299.9573942865119 	0.1232042816774654 	101274.6406771177
-1.194944944944945 	299.9579177853559 	0.1216771301416127 	101275.2592866593
-1.192442442442442 	299.9592377822038 	0.1178491391419536 	101276.8191651062
-1.18993993993994 	299.9613427236172 	0.1117582275349385 	101279.3067116762
-1.187437437437437 	299.9641873799491 	0.1035358319819434 	101282.6685257786
-1.184934934934935 	299.9677008944971 	0.09338965805854763 	101286.8209379906
-1.182432432432432 	299.9717852432439 	0.08159136729291638 	101291.6481549623
-1.17992992992993 	299.9763383119196 	0.06842485964924375 	101297.0295492504
-1.177427427427427 	299.9812820717909 	0.05411873059610679 	101302.8729577922
-1.174924924924925 	299.9865526415625 	0.03887427456636845 	101309.10292109
-1.172422422422422 	299.9920687341344 	0.02293064227247268 	101315.6234024865
-1.16991991991992 	299.997727649646 	0.007787287390752412 	101322.3130386296
-1.167417417417417 	300.0034437026529 	0.00997419059932167 	101329.0705434303
-1.164914914914915 	300.0091504742155 	0.02646732117208819 	101335.8174079377
-1.162412412412412 	300.0147350718989 	0.04257275818413333 	101342.4201626378
-1.15990990990991 	300.0200075211117 	0.0577819498914776 	101348.6541549663
-1.157407407407407 	300.0248091196115 	0.07169267457168767 	101354.3316769019
-1.154904904904904 	300.0291469129361 	0.08429719925576977 	101359.4609783174
-1.152402402402403 	300.033113862173 	0.09576350200988022 	101364.1519370598
-1.1498998998999 	300.0366390678823 	0.1058503261555335 	101368.3206868129
-1.147397397397397 	300.0394111435652 	0.1137525659915179 	101371.598945157
-1.144894894894895 	300.0411320894563 	0.1187362975290903 	101373.6342173133
-1.142392392392392 	300.0418348619301 	0.1209028889361339 	101374.4653925113
-1.13988988988989 	300.0418792379464 	0.1211561844652802 	101374.5179074448
-1.137387387387387 	300.0415946577789 	0.1203169105211984 	101374.1814065265
-1.134884884884885 	300.0409461867878 	0.118280504346609 	101373.4145852493
-1.132382382382382 	300.0395399277687 	0.1140124213860478 	101371.7516532038
-1.12987987987988 	300.0369185123326 	0.1063147209149195 	101368.6517800729
-1.127377377377377 	300.0328978933568 	0.0947290909523702 	101363.8973683977
-1.124874874874875 	300.0277377192411 	0.07999075111642662 	101357.7955802265
-1.122372372372372 	300.0220607357924 	0.06380271480523984 	101351.0829142522
-1.11986986986987 	300.0165785823447 	0.04811823890445392 	101344.6008716346
-1.117367367367367 	300.0118186662034 	0.03442835394055633 	101338.9729979648
-1.114864864864865 	300.0080249557205 	0.0234610698775757 	101334.4876489915
-1.112362362362362 	300.0052085658409 	0.0152807311431813 	101331.157872199
-1.10985985985986 	300.0032414723366 	0.009542237484477424 	101328.8322413829
-1.107357357357357 	300.0019394935494 	0.005728480939338639 	101327.2929682227
-1.104854854854855 	300.0011183618116 	0.00331389941156269 	101326.3221842767
-1.102352352352353 	300.0006227692928 	0.001851204765403506 	101325.7362704141
-1.09984984984985 	300.00033552334 	0.001000429726257774 	101325.3966739826
-1.097347347347347 	300.0001751790473 	0.0005239028529350002 	101325.2071066964
-1.094844844844845 	300.0000887657542 	0.0002662494764361951 	101325.1049442252
-1.092342342342342 	300.0000437109594 	0.0001314861398310109 	101325.0516778723
-1.08983983983984 	300.0000209431044 	6.317573568805846e-05 	101325.0247603476
-1.087337337337337 	300.0000097740835 	2.956510974570292e-05 	101325.0115556187
-1.084834834834835 	300.0000044476813 	1.348985042776847e-05 	101325.0052583845
-1.082332332332332 	300.0000019752327 	6.006725542874363e-06 	101325.0023352721
-1.07982982982983 	300.0000008568527 	2.612432306589954e-06 	101325.0010130272
-1.077327327327327 	300.0000003633644 	1.110646541695457e-06 	101325.0004295843
-1.074824824824825 	300.0000001507397 	4.619043224390136e-07 	101325.0001782133
-1.072322322322323 	300.0000000612184 	1.880517241324366e-07 	101325.000072376
-1.06981981981982 	300.0000000243651 	7.499525231616514e-08 	101325.0000287932
-1.067317317317317 	300.0000000094983 	2.931578912853799e-08 	101325.0000112274
-1.064814814814815 	300.0000000036247 	1.123926833872562e-08 	101325.0000042933
-1.062312312312312 	300.0000000013589 	4.229097800046778e-09 	101325.0000016106
-1.05980980980981 	300.0000000004973 	1.563100528305849e-09 	101325.0000005927
-1.057307307307307 	300.0000000001641 	5.677353882608649e-10 	101325.0000002136
-1.054804804804805 	300.0000000000496 	2.028098706426934e-10 	101325.0000000749
-1.052302302302302 	300.0000000000138 	7.160414044030489e-11 	101325.000000025
-1.0497997997998 	300.000000000004 	2.493345319952353e-11 	101325.0000000075
-1.047297297297297 	300.0000000000108 	8.638058400911287e-12 	101325.0000000014
-1.044794794794795 	300.0000000000055 	3.373651027064269e-12 	101324.9999999995
-1.042292292292292 	300.0000000000015 	1.770361973533399e-12 	101324.9999999989
-1.03978978978979 	299.9999999999922 	1.18121638922905e-12 	101324.9999999988
-1.037287287287287 	299.999999999991 	9.070888102585458e-13 	101324.9999999989
-1.034784784784785 	299.9999999999982 	1.096726663648851e-12 	101324.9999999989
-1.032282282282283 	299.9999999999998 	1.160348139959571e-12 	101324.9999999988
-1.02977977977978 	299.9999999999989 	1.151243171772741e-12 	101324.9999999986
-1.027277277277277 	299.9999999999847 	7.271999813681959e-13 	101324.9999999986
-1.024774774774775 	299.9999999999836 	4.860272048525031e-13 	101324.9999999985
-1.022272272272272 	299.9999999999897 	3.889559823424959e-13 	101324.9999999984
-1.01976976976977 	299.9999999999897 	5.679832857952469e-13 	101324.9999999985
-1.017267267267267 	299.9999999999831 	3.706336529707196e-13 	101324.9999999986
-1.014764764764765 	299.9999999999844 	6.744936588590977e-13 	101324.9999999986
-1.012262262262262 	299.9999999999891 	6.46865135804683e-13 	101324.9999999985
-1.00975975975976 	299.9999999999899 	1.303191806904921e-12 	101324.9999999984
-1.007257257257257 	299.9999999999901 	1.416453922551977e-12 	101324.9999999985
-1.004754754754755 	300 	1.009050148318552e-12 	101324.9999999984
-1.002252252252252 	299.9999999999981 	5.268550192391578e-13 	101324.9999999986
-0.9997497497497498 	299.9999999999955 	7.773040530897665e-13 	101324.9999999988
-0.9972472472472473 	299.9999999999977 	1.34365690423687e-12 	101324.9999999987
-0.9947447447447449 	299.9999999999901 	1.093697197736369e-12 	101324.9999999988
-0.9922422422422421 	299.9999999999928 	1.183827232518066e-12 	101324.9999999987
-0.9897397397397399 	299.9999999999935 	7.484844339687932e-13 	101324.9999999985
-0.9872372372372376 	299.9999999999949 	1.197122521970744e-12 	101324.9999999984
-0.9847347347347346 	299.9999999999872 	1.129170533187688e-12 	101324.9999999982
-0.9822322322322323 	299.9999999999874 	9.769556445365486e-13 	101324.9999999981
-0.9797297297297296 	299.9999999999949 	7.171566389074556e-13 	101324.9999999981
-0.9772272272272275 	299.9999999999994 	6.274998330782912e-13 	101324.9999999982
-0.9747247247247248 	300.0000000000014 	1.026320263230675e-12 	101324.9999999983
-0.9722222222222224 	299.999999999986 	9.322740478132458e-13 	101324.9999999983
-0.9697197197197196 	299.9999999999822 	9.217327074895468e-13 	101324.9999999984
-0.9672172172172175 	299.9999999999859 	9.359979457961109e-13 	101324.9999999984
-0.9647147147147147 	299.9999999999903 	6.631167215751365e-13 	101324.9999999985
-0.9622122122122124 	299.999999999992 	7.152326920430323e-13 	101324.9999999987
-0.9597097097097099 	299.9999999999955 	6.302878032395551e-13 	101324.9999999987
-0.9572072072072073 	299.9999999999935 	1.116544607957566e-12 	101324.9999999986
-0.9547047047047047 	300.0000000000009 	1.298200260794911e-12 	101324.9999999984
-0.9522022022022023 	299.9999999999962 	8.985399144550348e-13 	101324.9999999983
-0.9496996996996998 	299.999999999995 	8.805703797952786e-13 	101324.9999999984
-0.9471971971971973 	299.9999999999978 	1.596241040621648e-12 	101324.9999999983
-0.9446946946946947 	299.9999999999846 	1.359333714109928e-12 	101324.9999999983
-0.9421921921921923 	299.9999999999932 	9.279326435816768e-13 	101324.9999999982
-0.93968968968969 	300.0000000000003 	8.455610305091233e-13 	101324.9999999983
-0.9371871871871872 	299.9999999999969 	4.944637326204266e-13 	101324.9999999983
-0.9346846846846848 	299.9999999999899 	4.33072702816703e-13 	101324.9999999984
-0.9321821821821823 	299.9999999999944 	5.369443279581377e-13 	101324.9999999985
-0.9296796796796799 	300.0000000000003 	6.086236732529293e-13 	101324.9999999984
-0.9271771771771771 	299.999999999996 	7.184055848585996e-13 	101324.9999999983
-0.9246746746746748 	299.9999999999926 	1.168265759586067e-12 	101324.9999999982
-0.9221721721721724 	299.9999999999984 	1.250715112012732e-12 	101324.9999999983
-0.9196696696696698 	299.9999999999973 	1.090610340756912e-12 	101324.9999999982
-0.9171671671671672 	299.9999999999881 	1.046619557702544e-12 	101324.9999999982
-0.9146646646646649 	299.9999999999944 	5.850700554701611e-13 	101324.9999999981
-0.9121621621621623 	300.0000000000011 	2.8017445537122e-13 	101324.9999999981
-0.9096596596596597 	299.9999999999936 	3.586145130032671e-13 	101324.9999999981
-0.9071571571571573 	299.9999999999976 	4.805998093613882e-13 	101324.9999999982
-0.9046546546546547 	300.0000000000027 	5.562912134382866e-13 	101324.9999999983
-0.9021521521521524 	299.9999999999936 	7.096848956596399e-13 	101324.9999999983
-0.8996496496496498 	299.9999999999972 	7.379824882541827e-13 	101324.9999999982
-0.8971471471471473 	300.000000000001 	6.920682606668013e-13 	101324.999999998
-0.894644644644645 	299.999999999999 	7.56976713551457e-13 	101324.999999998
-0.892142142142142 	300.0000000000003 	7.375745465634133e-13 	101324.9999999979
-0.8896396396396397 	300.0000000000026 	1.804138700392443e-12 	101324.999999998
-0.8871371371371374 	299.9999999999915 	1.31663218921936e-12 	101324.9999999981
-0.8846346346346349 	299.999999999987 	2.604219742438044e-12 	101324.9999999982
-0.8821321321321324 	299.9999999999869 	1.440838474221779e-12 	101324.9999999982
-0.8796296296296297 	299.999999999989 	2.26730426439588e-12 	101324.999999998
-0.8771271271271271 	299.9999999999897 	1.595192208095968e-12 	101324.9999999977
-0.8746246246246248 	299.9999999999976 	1.720076109769417e-12 	101324.9999999976
-0.8721221221221224 	300.0000000000011 	9.644043491379113e-13 	101324.9999999976
-0.8696196196196196 	299.999999999993 	1.362037409718429e-12 	101324.9999999975
-0.8671171171171175 	299.9999999999974 	1.079692662867007e-12 	101324.9999999975
-0.8646146146146148 	299.9999999999875 	1.244192556911096e-12 	101324.9999999977
-0.8621121121121121 	299.9999999999947 	9.613090197406614e-13 	101324.9999999978
-0.8596096096096097 	300.0000000000044 	9.862557160359082e-13 	101324.9999999978
-0.857107107107107 	299.9999999999916 	1.604465052540751e-12 	101324.9999999977
-0.8546046046046049 	299.9999999999969 	1.444644003166757e-12 	101324.9999999978
-0.8521021021021022 	299.9999999999996 	1.219978267256575e-12 	101324.9999999979
-0.8495995995995997 	299.9999999999972 	1.213403441753671e-12 	101324.999999998
-0.8470970970970974 	299.9999999999856 	1.114868783016897e-12 	101324.9999999979
-0.8445945945945946 	299.9999999999889 	1.470484540866314e-12 	101324.999999998
-0.8420920920920922 	300 	8.420803390480777e-13 	101324.9999999979
-0.8395895895895897 	299.9999999999966 	1.65376507057976e-12 	101324.9999999978
-0.8370870870870872 	299.9999999999986 	1.222785947605154e-12 	101324.9999999979
-0.8345845845845846 	300.0000000000011 	1.305466955418351e-12 	101324.999999998
-0.8320820820820823 	299.9999999999893 	7.354039775162032e-13 	101324.9999999982
-0.8295795795795798 	299.9999999999808 	9.621125284520693e-13 	101324.9999999982
-0.8270770770770772 	299.9999999999889 	1.561044992704868e-12 	101324.9999999982
-0.8245745745745746 	299.9999999999836 	1.047203412949708e-12 	101324.9999999981
-0.8220720720720721 	299.9999999999878 	8.589168506516677e-13 	101324.9999999982
-0.8195695695695699 	299.9999999999975 	7.934508316357536e-13 	101324.9999999983
-0.817067067067067 	299.9999999999895 	1.417381974637438e-12 	101324.9999999983
-0.8145645645645651 	299.9999999999827 	1.386400756362628e-12 	101324.9999999984
-0.8120620620620621 	299.9999999999962 	8.146586353770132e-13 	101324.9999999983
-0.8095595595595597 	300.0000000000011 	5.442352361741501e-13 	101324.9999999983
-0.8070570570570572 	299.9999999999863 	3.304478223194449e-13 	101324.9999999983
-0.8045545545545546 	299.9999999999858 	3.179111567956161e-13 	101324.9999999984
-0.8020520520520523 	299.999999999997 	1.146154678986577e-12 	101324.9999999983
-0.7995495495495494 	300.0000000000038 	1.653886792152704e-12 	101324.9999999984
-0.7970470470470474 	299.9999999999995 	1.940901228018339e-12 	101324.9999999983
-0.7945445445445446 	300.0000000000003 	2.206385584831425e-12 	101324.9999999981
-0.7920420420420423 	300.0000000000015 	1.475229078368081e-12 	101324.9999999981
-0.7895395395395397 	300.0000000000025 	2.373449489517857e-12 	101324.9999999982
-0.7870370370370371 	300 	1.284625429778992e-12 	101324.9999999981
-0.7845345345345348 	299.9999999999911 	1.606805772785642e-12 	101324.9999999982
-0.7820320320320323 	299.9999999999919 	8.602341923591722e-13 	101324.9999999982
-0.7795295295295296 	299.9999999999831 	2.167708999164786e-12 	101324.9999999982
-0.7770270270270272 	299.99999999998 	1.443524541267273e-12 	101324.9999999981
-0.7745245245245247 	299.9999999999796 	1.619188908081129e-12 	101324.9999999981
-0.7720220220220222 	299.9999999999892 	1.300930409918329e-12 	101324.9999999983
-0.7695195195195199 	299.9999999999895 	9.231510329653284e-13 	101324.9999999983
-0.767017017017017 	299.9999999999949 	1.439100176236883e-12 	101324.9999999984
-0.7645145145145147 	300.0000000000032 	1.157538110158646e-12 	101324.9999999985
-0.7620120120120122 	300.0000000000052 	1.810780499281549e-12 	101324.9999999985
-0.7595095095095097 	299.9999999999838 	2.226536131652613e-12 	101324.9999999986
-0.7570070070070072 	299.9999999999837 	3.600985970066816e-12 	101324.9999999985
-0.7545045045045048 	299.9999999999965 	2.618097156401233e-12 	101324.9999999983
-0.7520020020020022 	299.9999999999902 	3.209828680473959e-12 	101324.9999999983
-0.7494994994994997 	299.999999999989 	1.586038137045686e-12 	101324.9999999984
-0.7469969969969972 	299.9999999999973 	2.079368182890744e-12 	101324.9999999985
-0.7444944944944945 	299.999999999996 	1.07684774153576e-12 	101324.9999999985
-0.7419919919919924 	299.9999999999964 	1.57004574552752e-12 	101324.9999999986
-0.7394894894894897 	299.9999999999894 	2.209635819883527e-12 	101324.9999999985
-0.7369869869869872 	299.9999999999973 	1.985578322993085e-12 	101324.9999999983
-0.7344844844844846 	299.9999999999931 	2.664476200424179e-12 	101324.9999999982
-0.7319819819819822 	300.0000000000005 	1.480753424772862e-12 	101324.9999999983
-0.7294794794794797 	299.9999999999985 	2.718974666133585e-12 	101324.9999999984
-0.7269769769769773 	300.000000000002 	2.190294935687158e-12 	101324.9999999983
-0.7244744744744747 	300.0000000000026 	2.174720592033332e-12 	101324.9999999981
-0.721971971971972 	299.9999999999888 	2.15963711852287e-12 	101324.9999999981
-0.7194694694694695 	299.9999999999951 	1.816835124007985e-12 	101324.9999999982
-0.7169669669669674 	299.999999999984 	1.645130069502136e-12 	101324.9999999981
-0.7144644644644647 	299.9999999999921 	1.674705895694539e-12 	101324.9999999982
-0.711961961961962 	300.0000000000023 	1.596166551583424e-12 	101324.9999999981
-0.7094594594594597 	300.0000000000035 	7.955801228919631e-13 	101324.9999999981
-0.7069569569569573 	300.0000000000038 	1.297392099211316e-12 	101324.999999998
-0.7044544544544545 	300.0000000000055 	7.618199941492722e-13 	101324.9999999979
-0.7019519519519523 	300.0000000000013 	5.55252147941154e-13 	101324.9999999978
-0.6994494494494495 	299.9999999999829 	9.752375428412084e-13 	101324.9999999978
-0.6969469469469471 	299.9999999999876 	1.488015447244919e-12 	101324.9999999979
-0.6944444444444446 	299.9999999999927 	1.687829899728887e-12 	101324.9999999979
-0.6919419419419421 	300.0000000000061 	1.890866944979691e-12 	101324.9999999982
-0.6894394394394396 	299.9999999999981 	1.912601912157054e-12 	101324.9999999983
-0.6869369369369374 	300.0000000000016 	2.155521906833545e-12 	101324.9999999984
-0.6844344344344344 	300.0000000000047 	1.648259849031612e-12 	101324.9999999984
-0.6819319319319321 	299.9999999999906 	1.873357498262392e-12 	101324.9999999985
-0.6794294294294296 	299.9999999999865 	1.724390451381283e-12 	101324.9999999984
-0.6769269269269272 	299.9999999999798 	1.737727258824346e-12 	101324.9999999983
-0.6744244244244245 	299.9999999999927 	1.070759938598662e-12 	101324.9999999983
-0.6719219219219222 	299.999999999992 	5.12312123753036e-13 	101324.9999999982
-0.6694194194194195 	299.9999999999996 	5.98798469537674e-13 	101324.9999999983
-0.6669169169169172 	300.000000000004 	4.584623670315168e-13 	101324.9999999984
-0.6644144144144146 	299.9999999999908 	4.109728521902723e-13 	101324.9999999983
-0.661911911911912 	299.9999999999924 	5.899921053143745e-13 	101324.9999999984
-0.6594094094094097 	299.9999999999952 	7.666931716497983e-13 	101324.9999999985
-0.656906906906907 	299.9999999999857 	3.718412030806907e-13 	101324.9999999987
-0.6544044044044046 	299.9999999999857 	7.71135166537387e-13 	101324.9999999986
-0.6519019019019021 	299.9999999999977 	5.26073671861844e-13 	101324.9999999984
-0.6493993993993996 	300.000000000006 	1.599962997155059e-12 	101324.9999999984
-0.6468968968968971 	300.0000000000073 	1.115593773051447e-12 	101324.9999999985
-0.6443943943943946 	299.9999999999979 	1.797668614388894e-12 	101324.9999999984
-0.6418918918918921 	299.9999999999988 	7.516681798790151e-13 	101324.9999999981
-0.6393893893893897 	300.0000000000002 	7.845563877866637e-13 	101324.9999999979
-0.6368868868868871 	299.9999999999936 	6.273850121671515e-13 	101324.999999998
-0.6343843843843846 	300.0000000000007 	5.117382701020108e-13 	101324.9999999981
-0.6318818818818821 	299.9999999999919 	5.11541291479972e-13 	101324.9999999983
-0.6293793793793795 	300.0000000000018 	4.162430962125412e-13 	101324.9999999985
-0.6268768768768773 	300.0000000000048 	4.059569921049657e-13 	101324.9999999984
-0.6243743743743745 	299.9999999999958 	3.581559625482581e-13 	101324.9999999981
-0.6218718718718721 	300.0000000000017 	8.461123500579301e-13 	101324.9999999982
-0.6193693693693696 	299.9999999999856 	5.246520105150235e-13 	101324.9999999982
-0.6168668668668671 	299.9999999999962 	8.045238639283261e-13 	101324.9999999982
-0.6143643643643645 	300.0000000000028 	7.048743048945022e-13 	101324.9999999983
-0.6118618618618621 	299.999999999995 	3.670779888492818e-13 	101324.9999999983
-0.6093593593593596 	299.9999999999945 	3.160560026139679e-13 	101324.9999999981
-0.6068568568568571 	299.9999999999952 	3.614487985603836e-13 	101324.9999999982
-0.6043543543543546 	299.9999999999905 	4.114064082977583e-13 	101324.9999999982
-0.6018518518518521 	299.999999999993 	6.345601784757725e-13 	101324.9999999983
-0.5993493493493496 	299.999999999986 	1.151776369187306e-12 	101324.9999999985
-0.5968468468468471 	299.9999999999893 	1.210017123736524e-12 	101324.9999999984
-0.5943443443443446 	299.9999999999971 	1.672075192665013e-12 	101324.9999999985
-0.591841841841842 	299.9999999999888 	1.109449459441703e-12 	101324.9999999983
-0.5893393393393397 	299.9999999999898 	1.060399802416386e-12 	101324.9999999983
-0.5868368368368371 	299.9999999999969 	8.779544468294223e-13 	101324.9999999982
-0.5843343343343346 	299.9999999999982 	1.229049996591477e-12 	101324.9999999982
-0.5818318318318321 	300.0000000000054 	1.336812933175315e-12 	101324.9999999983
-0.5793293293293297 	299.9999999999965 	1.152926840132561e-12 	101324.9999999982
-0.5768268268268271 	300.0000000000001 	9.475664252292008e-13 	101324.9999999981
-0.5743243243243245 	300.0000000000044 	9.513306654959948e-13 	101324.999999998
-0.5718218218218221 	300.0000000000048 	9.409867431171105e-13 	101324.9999999981
-0.5693193193193196 	300.0000000000098 	1.239877098502284e-12 	101324.9999999982
-0.5668168168168171 	299.9999999999966 	1.874516975286966e-12 	101324.9999999982
-0.5643143143143147 	299.9999999999869 	1.124632517267706e-12 	101324.9999999981
-0.5618118118118121 	300.000000000003 	1.84241552093902e-12 	101324.9999999983
-0.5593093093093094 	300.0000000000083 	1.155843572084039e-12 	101324.9999999984
-0.5568068068068072 	300.000000000004 	2.015660620738099e-12 	101324.9999999984
-0.5543043043043046 	300.000000000005 	1.905266669617124e-12 	101324.9999999985
-0.551801801801802 	299.9999999999898 	1.819460811076033e-12 	101324.9999999985
-0.5492992992992995 	300.0000000000003 	1.255404267795963e-12 	101324.9999999984
-0.5467967967967969 	300.0000000000044 	1.2524668462186e-12 	101324.9999999983
-0.5442942942942947 	300.0000000000013 	1.502671090847271e-12 	101324.9999999983
-0.5417917917917919 	299.9999999999892 	1.625314765256123e-12 	101324.9999999982
-0.5392892892892895 	299.9999999999869 	1.405468485151929e-12 	101324.9999999983
-0.536786786786787 	299.9999999999899 	1.489718093996284e-12 	101324.9999999983
-0.5342842842842846 	299.9999999999909 	1.419905402317699e-12 	101324.9999999983
-0.531781781781782 	299.9999999999839 	1.612393665759465e-12 	101324.9999999981
-0.5292792792792794 	299.9999999999812 	1.199211300160338e-12 	101324.9999999982
-0.526776776776777 	299.9999999999798 	2.162659498703647e-12 	101324.9999999986
-0.5242742742742745 	299.9999999999942 	6.844942376170016e-13 	101324.9999999985
-0.521771771771772 	300.0000000000015 	2.348002465992288e-12 	101324.9999999987
-0.5192692692692695 	299.99999999999 	1.88002030502139e-12 	101324.9999999986
-0.516766766766767 	299.9999999999993 	2.148291787276148e-12 	101324.9999999986
-0.5142642642642645 	299.9999999999928 	1.381268465161054e-12 	101324.9999999985
-0.511761761761762 	299.9999999999892 	1.630768882769963e-12 	101324.9999999984
-0.5092592592592596 	299.9999999999949 	7.908755742691694e-13 	101324.9999999983
-0.506756756756757 	299.9999999999893 	1.170390367821254e-12 	101324.9999999982
-0.5042542542542544 	299.9999999999987 	6.440990205158923e-13 	101324.9999999983
-0.5017517517517521 	300.0000000000065 	1.311148484745e-12 	101324.9999999982
-0.4992492492492494 	300.0000000000067 	9.026483415873879e-13 	101324.9999999981
-0.496746746746747 	299.999999999997 	8.600676010898584e-13 	101324.9999999982
-0.4942442442442445 	299.9999999999849 	3.030258431843457e-13 	101324.9999999982
-0.4917417417417421 	299.9999999999857 	1.890786987428662e-13 	101324.9999999982
-0.4892392392392395 	299.9999999999895 	5.205932127564981e-13 	101324.9999999984
-0.486736736736737 	299.9999999999888 	4.944587483140825e-13 	101324.9999999985
-0.4842342342342345 	299.9999999999814 	1.259723771332742e-12 	101324.9999999986
-0.481731731731732 	300.0000000000091 	8.022715143713832e-13 	101324.9999999988
-0.4792292292292296 	300.0000000000066 	8.788128401810252e-13 	101324.999999999
-0.4767267267267268 	299.9999999999916 	1.214681500610478e-12 	101324.9999999988
-0.4742242242242246 	300.0000000000001 	1.532011509248487e-12 	101324.9999999986
-0.471721721721722 	299.9999999999906 	8.371437445270398e-13 	101324.9999999987
-0.4692192192192195 	299.9999999999959 	1.539100854170586e-12 	101324.9999999989
-0.4667167167167169 	299.9999999999791 	1.235870618040166e-12 	101324.999999999
-0.4642142142142145 	299.9999999999988 	2.090960408494335e-12 	101324.9999999989
-0.461711711711712 	300.0000000000056 	1.171669043823117e-12 	101324.9999999988
-0.4592092092092094 	300.0000000000025 	1.230107574907075e-12 	101324.9999999986
-0.456706706706707 	300.0000000000117 	5.044028876639862e-13 	101324.9999999986
-0.4542042042042045 	299.9999999999871 	1.194500757603787e-13 	101324.9999999988
-0.451701701701702 	299.9999999999901 	2.793970342673394e-13 	101324.9999999988
-0.4491991991991995 	299.9999999999916 	1.403263864093804e-13 	101324.9999999987
-0.4466966966966969 	299.9999999999908 	9.728343640357516e-14 	101324.9999999986
-0.4441941941941945 	299.9999999999984 	4.522192463893917e-13 	101324.9999999986
-0.441691691691692 	299.9999999999917 	4.74225000965333e-13 	101324.9999999986
-0.4391891891891895 	299.9999999999969 	1.117424611186637e-12 	101324.9999999985
-0.436686686686687 	299.999999999994 	1.072416343457037e-12 	101324.9999999985
-0.4341841841841846 	299.9999999999992 	2.037420735559836e-12 	101324.9999999984
-0.431681681681682 	299.9999999999899 	5.964330106523114e-13 	101324.9999999983
-0.4291791791791794 	299.9999999999824 	2.069362933444006e-12 	101324.9999999984
-0.426676676676677 	299.9999999999819 	1.998889941812802e-12 	101324.9999999982
-0.4241741741741744 	299.9999999999926 	2.548815969590343e-12 	101324.9999999982
-0.421671671671672 	300.0000000000017 	1.909067429684044e-12 	101324.9999999983
-0.4191691691691694 	300.0000000000107 	1.779514686695804e-12 	101324.9999999983
-0.4166666666666669 	300.0000000000127 	1.404242980388744e-12 	101324.9999999984
-0.4141641641641645 	299.9999999999878 	1.662353917659525e-12 	101324.9999999983
-0.411661661661662 	299.9999999999999 	2.509783244531625e-12 	101324.9999999983
-0.4091591591591594 	300.0000000000021 	2.000794489532597e-12 	101324.9999999985
-0.406656656656657 	299.9999999999898 	2.47988460815264e-12 	101324.9999999987
-0.4041541541541545 	300.0000000000051 	2.420048795551692e-12 	101324.999999999
-0.401651651651652 	299.9999999999848 	1.984310018163267e-12 	101324.999999999
-0.3991491491491494 	300.0000000000015 	3.016087397195756e-12 	101324.9999999992
-0.396646646646647 	299.9999999999906 	1.247937241482568e-12 	101324.9999999993
-0.3941441441441444 	299.999999999995 	3.211336423376516e-12 	101324.9999999992
-0.3916416416416419 	299.9999999999852 	1.0689668382925e-12 	101324.9999999989
-0.3891391391391395 	299.9999999999923 	1.730856064349971e-12 	101324.9999999989
-0.3866366366366368 	299.999999999992 	1.004427587998663e-12 	101324.9999999987
-0.3841341341341344 	300.000000000001 	2.075808108523945e-12 	101324.9999999985
-0.381631631631632 	299.9999999999896 	2.504822706956318e-12 	101324.9999999985
-0.3791291291291294 	300.0000000000014 	2.504069881168782e-12 	101324.9999999988
-0.3766266266266269 	300.0000000000045 	2.372021127116635e-12 	101324.999999999
-0.3741241241241244 	300.0000000000053 	1.551921449434735e-12 	101324.9999999991
-0.371621621621622 	300.0000000000056 	2.279750756485984e-12 	101324.9999999989
-0.3691191191191194 	300.0000000000038 	4.710329519759428e-13 	101324.9999999991
-0.366616616616617 	300.0000000000034 	2.007931787766017e-12 	101324.9999999989
-0.3641141141141143 	299.999999999994 	9.01871876462391e-13 	101324.9999999988
-0.3616116116116119 	299.9999999999857 	1.181183329865868e-12 	101324.9999999987
-0.3591091091091095 	299.9999999999945 	4.961462071199991e-13 	101324.9999999985
-0.356606606606607 	299.9999999999953 	3.026725320272497e-13 	101324.9999999984
-0.3541041041041044 	299.9999999999994 	2.861595265019997e-13 	101324.9999999985
-0.3516016016016019 	300.0000000000041 	1.849384362270892e-13 	101324.9999999985
-0.3490990990990994 	299.9999999999994 	8.895293169275245e-13 	101324.9999999986
-0.346596596596597 	300.0000000000077 	4.195606649733672e-13 	101324.9999999987
-0.3440940940940944 	300.000000000009 	9.301819960141774e-13 	101324.9999999988
-0.3415915915915919 	300.0000000000068 	9.522883256051608e-13 	101324.9999999986
-0.3390890890890895 	299.9999999999962 	3.036393380429167e-13 	101324.9999999985
-0.3365865865865869 	300.0000000000034 	6.13537941232794e-13 	101324.9999999985
-0.3340840840840844 	299.9999999999974 	2.947217160512717e-13 	101324.9999999984
-0.3315815815815819 	300.0000000000064 	3.755706172037786e-13 	101324.9999999985
-0.3290790790790794 	300.0000000000079 	5.416407315690705e-13 	101324.9999999985
-0.3265765765765769 	299.9999999999884 	2.957746108127175e-13 	101324.9999999987
-0.3240740740740744 	300.000000000002 	5.564965355018526e-13 	101324.9999999989
-0.3215715715715718 	300.0000000000047 	5.308911712654064e-13 	101324.999999999
-0.3190690690690695 	299.9999999999889 	2.957087972613343e-13 	101324.9999999989
-0.3165665665665668 	299.9999999999973 	3.379633202569952e-13 	101324.9999999986
-0.3140640640640644 	299.9999999999981 	1.746741813318996e-13 	101324.9999999987
-0.311561561561562 	299.9999999999854 	7.937723660832341e-13 	101324.9999999987
-0.3090590590590593 	299.9999999999999 	8.590028576740979e-13 	101324.9999999985
-0.3065565565565568 	300.000000000002 	2.003263028678035e-12 	101324.9999999986
-0.3040540540540545 	299.9999999999994 	1.055710572157708e-12 	101324.9999999987
-0.3015515515515518 	300.0000000000047 	1.828748177084538e-12 	101324.9999999989
-0.2990490490490494 	299.9999999999856 	8.280375226597338e-13 	101324.9999999988
-0.2965465465465469 	300.0000000000001 	1.495309306284373e-12 	101324.9999999988
-0.2940440440440444 	299.9999999999984 	1.546102097369076e-12 	101324.9999999989
-0.2915415415415418 	300.0000000000043 	1.357936489478898e-12 	101324.999999999
-0.2890390390390395 	300.0000000000045 	1.722220758023532e-12 	101324.9999999989
-0.2865365365365368 	299.9999999999931 	1.148275263333162e-12 	101324.9999999987
-0.2840340340340343 	299.9999999999973 	2.009166505228343e-12 	101324.9999999988
-0.2815315315315318 	299.9999999999828 	6.137079837675493e-13 	101324.9999999986
-0.2790290290290295 	299.9999999999916 	1.320430718119383e-12 	101324.9999999986
-0.2765265265265269 	300.000000000001 	7.205863214947063e-13 	101324.9999999986
-0.2740240240240244 	300.000000000006 	1.283382865195694e-12 	101324.9999999986
-0.2715215215215219 	300.0000000000061 	1.501840943023929e-12 	101324.9999999983
-0.2690190190190194 	299.9999999999854 	1.163816188074017e-12 	101324.9999999985
-0.2665165165165169 	299.9999999999984 	1.618005758545386e-12 	101324.9999999985
-0.2640140140140144 	300.0000000000003 	1.308746902615803e-12 	101324.9999999983
-0.2615115115115119 	299.9999999999999 	2.219228648462249e-12 	101324.9999999984
-0.2590090090090094 	299.9999999999823 	1.010252444652126e-12 	101324.9999999984
-0.2565065065065068 	299.9999999999962 	1.114959369432265e-12 	101324.9999999984
-0.2540040040040044 	299.9999999999947 	9.762420357150501e-13 	101324.9999999984
-0.2515015015015019 	300.0000000000038 	1.389907352921916e-12 	101324.9999999985
-0.2489989989989994 	300.0000000000075 	2.688068487517818e-12 	101324.9999999985
-0.2464964964964968 	299.9999999999939 	2.219132652131346e-12 	101324.9999999984
-0.2439939939939944 	299.9999999999951 	3.136747415684094e-12 	101324.9999999985
-0.2414914914914919 	299.9999999999901 	1.543549386963442e-12 	101324.9999999987
-0.2389889889889893 	299.9999999999959 	2.982595116938999e-12 	101324.9999999986
-0.2364864864864869 	300.0000000000067 	2.021255266188313e-12 	101324.9999999986
-0.2339839839839843 	299.9999999999918 	3.113923103522685e-12 	101324.9999999985
-0.2314814814814819 	299.9999999999926 	1.583054323769072e-12 	101324.9999999984
-0.2289789789789792 	299.9999999999803 	2.865949797519767e-12 	101324.9999999983
-0.2264764764764769 	299.9999999999854 	1.749214575761122e-12 	101324.9999999984
-0.2239739739739743 	299.9999999999969 	2.125926386807743e-12 	101324.9999999986
-0.2214714714714718 	299.9999999999853 	2.050069384752816e-12 	101324.9999999984
-0.2189689689689693 	299.9999999999925 	1.329814878281589e-12 	101324.9999999985
-0.2164664664664669 	299.9999999999938 	2.144987154078492e-12 	101324.9999999985
-0.2139639639639643 	299.9999999999852 	8.297245615966177e-13 	101324.9999999985
-0.2114614614614618 	299.9999999999943 	1.58955565542881e-12 	101324.9999999985
-0.2089589589589593 	300.000000000001 	1.381947646782219e-12 	101324.9999999983
-0.2064564564564568 	300 	1.675129835715934e-12 	101324.9999999981
-0.2039539539539543 	299.9999999999839 	2.123340229019851e-12 	101324.9999999982
-0.2014514514514518 	299.9999999999798 	7.369288209591165e-13 	101324.9999999982
-0.1989489489489494 	299.9999999999942 	1.672911587793724e-12 	101324.9999999982
-0.1964464464464468 	300.0000000000014 	3.869596246276667e-13 	101324.9999999981
-0.1939439439439443 	300.0000000000014 	1.32802875421293e-12 	101324.999999998
-0.1914414414414418 	299.9999999999886 	3.985361353077715e-13 	101324.999999998
-0.1889389389389393 	299.9999999999973 	5.097869151885594e-13 	101324.9999999979
-0.1864364364364368 	300.0000000000014 	5.949985249194328e-13 	101324.999999998
-0.1839339339339343 	299.9999999999964 	5.7684071287039e-13 	101324.9999999981
-0.1814314314314318 	299.9999999999956 	1.183180065618137e-12 	101324.999999998
-0.1789289289289293 	299.9999999999798 	1.011798845323812e-12 	101324.9999999982
-0.1764264264264268 	299.9999999999912 	6.646489705580307e-13 	101324.9999999983
-0.1739239239239243 	299.999999999979 	3.295877948715898e-13 	101324.9999999981
-0.1714214214214218 	299.9999999999968 	1.082778744012216e-13 	101324.999999998
-0.1689189189189193 	299.9999999999865 	7.089181795081898e-13 	101324.9999999981
-0.1664164164164168 	299.9999999999974 	1.379763007642829e-13 	101324.9999999979
-0.1639139139139143 	299.9999999999981 	1.086226398677289e-12 	101324.9999999977
-0.1614114114114118 	300.0000000000016 	8.771795327917235e-13 	101324.9999999978
-0.1589089089089093 	299.999999999999 	2.559391079318899e-12 	101324.999999998
-0.1564064064064068 	299.9999999999919 	1.647346448364403e-12 	101324.9999999979
-0.1539039039039043 	300.0000000000024 	2.863627637084145e-12 	101324.9999999978
-0.1514014014014018 	300.0000000000048 	6.28625403201406e-13 	101324.9999999978
-0.1488988988988993 	300.0000000000043 	3.358709451706525e-12 	101324.9999999979
-0.1463963963963968 	300.0000000000013 	1.224524902493296e-12 	101324.9999999978
-0.1438938938938943 	299.9999999999957 	3.231232145345499e-12 	101324.9999999977
-0.1413913913913918 	299.9999999999813 	1.290432117403782e-12 	101324.9999999977
-0.1388888888888893 	299.9999999999919 	2.011548967227389e-12 	101324.9999999979
-0.1363863863863868 	299.9999999999751 	1.671141248752105e-12 	101324.9999999976
-0.1338838838838843 	299.9999999999893 	2.093412728608557e-12 	101324.9999999976
-0.1313813813813818 	299.9999999999974 	2.335266374608556e-12 	101324.9999999973
-0.1288788788788793 	299.9999999999894 	2.738221298064747e-12 	101324.9999999972
-0.1263763763763768 	299.9999999999956 	2.077357151566706e-12 	101324.9999999972
-0.1238738738738743 	299.9999999999887 	1.939081893415571e-12 	101324.9999999974
-0.1213713713713717 	299.9999999999995 	8.072948517942224e-13 	101324.9999999975
-0.1188688688688693 	300.0000000000065 	1.729292872712896e-12 	101324.9999999973
-0.1163663663663668 	299.9999999999754 	3.937766982465404e-13 	101324.9999999974
-0.1138638638638643 	299.9999999999972 	1.593390239666494e-12 	101324.9999999974
-0.1113613613613618 	299.9999999999987 	6.635352562597668e-13 	101324.9999999974
-0.1088588588588592 	299.9999999999983 	2.521045574054806e-12 	101324.9999999974
-0.1063563563563568 	299.9999999999917 	3.127137989369351e-13 	101324.9999999973
-0.1038538538538543 	299.9999999999997 	1.549773478502909e-12 	101324.999999997
-0.1013513513513517 	300.0000000000007 	8.585691400461779e-13 	101324.9999999971
-0.09884884884884926 	299.9999999999902 	1.45588433058737e-12 	101324.9999999971
-0.09634634634634676 	299.9999999999819 	1.13921320591804e-12 	101324.9999999972
-0.09384384384384425 	299.9999999999793 	6.989440561077773e-13 	101324.9999999969
-0.09134134134134177 	300.0000000000015 	7.683820024011617e-14 	101324.999999997
-0.08883883883883925 	300.0000000000006 	4.18582645224349e-13 	101324.9999999968
-0.08633633633633674 	299.9999999999889 	8.321574408486354e-13 	101324.9999999969
-0.08383383383383426 	299.9999999999978 	5.467342836192157e-13 	101324.9999999968
-0.08133133133133173 	299.99999999999 	8.396140829682401e-13 	101324.9999999968
-0.07882882882882926 	299.9999999999757 	8.045264159535089e-13 	101324.999999997
-0.07632632632632676 	299.9999999999952 	1.091100145435727e-12 	101324.9999999973
-0.07382382382382424 	299.9999999999761 	1.033811146301607e-12 	101324.9999999975
-0.07132132132132173 	299.9999999999992 	6.809747803803169e-13 	101324.9999999976
-0.06881881881881925 	299.9999999999902 	9.831170629302655e-13 	101324.9999999976
-0.06631631631631671 	299.9999999999761 	1.127939796910118e-12 	101324.9999999977
-0.06381381381381425 	299.9999999999891 	1.441723682782244e-12 	101324.9999999976
-0.06131131131131173 	299.999999999989 	1.940717911215175e-12 	101324.9999999975
-0.05880880880880923 	299.9999999999848 	1.651338648738609e-12 	101324.9999999976
-0.05630630630630672 	299.9999999999907 	1.201819704180406e-12 	101324.9999999977
-0.05380380380380424 	300.0000000000061 	1.210006109500014e-12 	101324.9999999976
-0.05130130130130173 	300.0000000000012 	1.503311633450495e-12 	101324.9999999975
-0.04879879879879922 	299.9999999999877 	1.301886046692408e-12 	101324.9999999973
-0.04629629629629672 	299.9999999999869 	4.417480487499203e-13 	101324.9999999972
-0.04379379379379422 	299.9999999999773 	2.055619172855364e-13 	101324.999999997
-0.04129129129129173 	299.9999999999956 	3.92695170460071e-13 	101324.999999997
-0.03878878878878922 	299.9999999999985 	1.018368830237257e-12 	101324.9999999972
-0.03628628628628671 	299.9999999999957 	1.435372761123193e-12 	101324.9999999972
-0.03378378378378422 	299.999999999986 	2.290361838671899e-12 	101324.9999999974
-0.03128128128128172 	299.9999999999919 	1.913225528967595e-12 	101324.9999999976
-0.02877877877877922 	299.9999999999915 	2.223000166553984e-12 	101324.9999999973
-0.0262762762762767 	299.9999999999771 	1.570254064565765e-12 	101324.9999999972
-0.02377377377377422 	300.0000000000045 	1.197678187212057e-12 	101324.9999999972
-0.0212712712712717 	299.9999999999772 	9.563408090214959e-13 	101324.999999997
-0.01876876876876921 	299.9999999999942 	1.528761096706015e-13 	101324.9999999968
-0.01626626626626671 	299.999999999999 	6.064374684597021e-13 	101324.999999997
-0.0137637637637642 	299.9999999999899 	9.537227517428032e-14 	101324.999999997
-0.0112612612612617 	300.0000000000015 	1.199577691251226e-13 	101324.999999997
-0.008758758758759198 	299.9999999999975 	1.439393904454047e-13 	101324.9999999966
-0.006256256256256697 	299.9999999999741 	1.322553809796436e-13 	101324.9999999967
-0.003753753753754195 	299.9999999999882 	1.974342709839363e-13 	101324.9999999968
-0.001251251251251693 	299.9999999999839 	1.535799076958249e-13 	101324.9999999969
0.00125125125125081 	299.9999999999877 	4.027671305405202e-15 	101324.9999999969
0.003753753753753312 	299.9999999999908 	3.282671861380836e-13 	101324.9999999967
0.006256256256255817 	299.9999999999745 	1.903816398262087e-13 	101324.9999999968
0.008758758758758317 	299.999999999996 	1.138205228303617e-13 	101324.9999999964
0.01126126126126082 	299.9999999999985 	4.220027199756074e-13 	101324.9999999965
0.01376376376376332 	299.9999999999906 	2.978581315993643e-13 	101324.9999999965
0.01626626626626582 	300.0000000000006 	1.765512483117613e-13 	101324.9999999965
0.01876876876876833 	299.9999999999881 	3.61838543143984e-13 	101324.9999999967
0.02127127127127083 	299.9999999999932 	3.002436290578422e-13 	101324.9999999971
0.02377377377377332 	299.9999999999979 	6.343042613802894e-13 	101324.9999999971
0.02627627627627583 	299.99999999998 	7.22488975318454e-13 	101324.9999999972
0.02877877877877833 	299.9999999999986 	2.637323720104854e-13 	101324.9999999972
0.03128128128128083 	299.9999999999874 	5.252249649474754e-13 	101324.9999999969
0.03378378378378333 	299.999999999975 	2.910849028430961e-13 	101324.9999999968
0.03628628628628584 	299.9999999999968 	1.749558273339971e-13 	101324.9999999968
0.03878878878878834 	299.9999999999969 	3.526720136019971e-13 	101324.999999997
0.04129129129129084 	299.9999999999936 	2.747821029898527e-13 	101324.9999999971
0.04379379379379333 	299.9999999999852 	7.286834172193436e-13 	101324.9999999972
0.04629629629629585 	299.9999999999744 	1.277972093721164e-12 	101324.9999999971
0.04879879879879834 	299.9999999999895 	1.931347719735427e-12 	101324.9999999971
0.05130130130130085 	299.9999999999994 	2.150629673558856e-12 	101324.9999999974
0.05380380380380335 	300.0000000000065 	1.876327294662351e-12 	101324.9999999973
0.05630630630630584 	299.9999999999965 	1.461434406961677e-12 	101324.9999999972
0.05880880880880836 	299.999999999986 	1.057897855882829e-12 	101324.9999999971
0.06131131131131085 	299.9999999999926 	1.280363135327022e-12 	101324.9999999972
0.06381381381381336 	299.9999999999881 	9.879184597479697e-13 	101324.9999999974
0.06631631631631586 	299.9999999999732 	6.924048567233493e-13 	101324.9999999973
0.06881881881881835 	299.9999999999874 	4.179264440678809e-13 	101324.9999999975
0.07132132132132088 	300.0000000000027 	1.910018745837408e-13 	101324.9999999974
0.07382382382382337 	299.9999999999783 	3.107836669092636e-13 	101324.9999999975
0.07632632632632587 	299.9999999999903 	8.01624168316815e-13 	101324.9999999973
0.07882882882882837 	299.9999999999829 	8.925820357077443e-13 	101324.9999999973
0.08133133133133086 	299.9999999999992 	1.645176487504563e-12 	101324.9999999972
0.08383383383383337 	300.000000000003 	1.732386059904757e-12 	101324.9999999974
0.08633633633633589 	299.9999999999769 	2.307154954214282e-12 	101324.9999999975
0.08883883883883838 	300.000000000003 	2.771227079182455e-12 	101324.9999999974
0.09134134134134086 	299.9999999999978 	2.190240476524883e-12 	101324.9999999971
0.09384384384384339 	299.9999999999793 	2.365355315691667e-12 	101324.999999997
0.09634634634634588 	299.9999999999939 	2.087880587017491e-12 	101324.9999999972
0.09884884884884838 	299.9999999999945 	1.67473137059083e-12 	101324.9999999972
0.1013513513513509 	300.0000000000082 	1.814590096328913e-12 	101324.9999999974
0.1038538538538534 	299.999999999984 	2.304676589183046e-12 	101324.9999999974
0.1063563563563559 	300.0000000000014 	2.656712636640868e-12 	101324.9999999977
0.1088588588588584 	300.0000000000021 	2.205631977589865e-12 	101324.9999999975
0.1113613613613609 	299.9999999999939 	1.939899158699033e-12 	101324.9999999975
0.1138638638638634 	299.9999999999911 	1.026113690386749e-12 	101324.9999999974
0.1163663663663659 	299.9999999999855 	1.474244914811515e-12 	101324.9999999973
0.1188688688688684 	299.9999999999918 	1.802624674243809e-12 	101324.9999999976
0.1213713713713709 	299.9999999999967 	1.661148216534736e-12 	101324.9999999975
0.1238738738738734 	299.9999999999803 	1.450930201181301e-12 	101324.9999999974
0.1263763763763759 	299.9999999999996 	1.542115610165119e-12 	101324.9999999976
0.1288788788788784 	299.9999999999985 	1.314696673779778e-12 	101324.9999999977
0.1313813813813809 	299.9999999999968 	1.680825595067925e-12 	101324.9999999974
0.1338838838838834 	299.9999999999895 	1.822778786769036e-12 	101324.9999999977
0.1363863863863859 	300.0000000000042 	1.413962665471749e-12 	101324.9999999976
0.1388888888888884 	300.0000000000055 	6.689203406506761e-13 	101324.9999999976
0.1413913913913909 	299.9999999999987 	1.813903341794149e-13 	101324.9999999976
0.1438938938938934 	299.9999999999939 	3.043415359949575e-16 	101324.9999999974
0.1463963963963959 	299.99999999999 	3.141674480911662e-14 	101324.9999999974
0.1488988988988985 	299.9999999999815 	4.798477878602613e-13 	101324.9999999976
0.1514014014014009 	299.9999999999922 	9.978426455872514e-13 	101324.9999999976
0.1539039039039035 	299.9999999999897 	2.099003428566979e-12 	101324.9999999976
0.1564064064064059 	299.9999999999922 	1.605606185749858e-12 	101324.9999999975
0.1589089089089084 	299.9999999999919 	3.018137465978451e-12 	101324.9999999976
0.1614114114114109 	299.9999999999908 	1.72356720623579e-12 	101324.9999999975
0.1639139139139134 	299.9999999999832 	2.621371902364497e-12 	101324.9999999976
0.166416416416416 	299.9999999999976 	2.214771508201443e-12 	101324.9999999979
0.1689189189189185 	300.0000000000068 	1.265532746717671e-12 	101324.9999999978
0.1714214214214209 	299.999999999998 	1.23977128238333e-12 	101324.9999999978
0.1739239239239235 	299.999999999999 	9.157722494208705e-13 	101324.9999999979
0.1764264264264259 	299.9999999999878 	1.769419579415714e-12 	101324.9999999976
0.1789289289289284 	300.0000000000024 	7.593661559911623e-13 	101324.9999999977
0.181431431431431 	299.9999999999946 	2.325167250551828e-12 	101324.9999999978
0.1839339339339334 	299.999999999996 	1.643807500839375e-12 	101324.9999999979
0.186436436436436 	299.9999999999906 	2.545825561870715e-12 	101324.9999999982
0.1889389389389385 	299.9999999999952 	2.188734717950039e-12 	101324.9999999983
0.191441441441441 	299.999999999993 	1.498961771844429e-12 	101324.9999999983
0.1939439439439434 	299.9999999999828 	1.970598955903444e-12 	101324.9999999981
0.196446446446446 	299.999999999992 	1.348584291602808e-12 	101324.9999999981
0.1989489489489485 	299.9999999999927 	2.139726080185593e-12 	101324.9999999983
0.2014514514514509 	299.9999999999968 	1.043970428916546e-12 	101324.9999999983
0.2039539539539535 	299.9999999999955 	1.867672040268319e-12 	101324.9999999983
0.2064564564564559 	299.999999999989 	1.671324125441776e-12 	101324.9999999984
0.2089589589589585 	299.9999999999969 	1.947058115766067e-12 	101324.9999999983
0.211461461461461 	299.999999999989 	2.226957652670597e-12 	101324.9999999984
0.2139639639639635 	299.9999999999991 	2.609088576278835e-12 	101324.9999999982
0.2164664664664659 	300.0000000000048 	2.848671156434916e-12 	101324.9999999984
0.2189689689689684 	300.0000000000048 	2.272850346021179e-12 	101324.9999999985
0.221471471471471 	300.0000000000007 	3.418011826407811e-12 	101324.9999999985
0.2239739739739735 	299.9999999999908 	2.319103584056837e-12 	101324.9999999984
0.226476476476476 	300.0000000000005 	2.978107556486344e-12 	101324.9999999984
0.2289789789789785 	300.0000000000012 	2.284191359790834e-12 	101324.9999999984
0.231481481481481 	299.9999999999971 	1.928634321663933e-12 	101324.9999999985
0.2339839839839835 	299.9999999999948 	1.75887174777263e-12 	101324.9999999985
0.236486486486486 	300.0000000000062 	1.404171985094136e-12 	101324.9999999984
0.2389889889889885 	299.9999999999997 	1.927753782683299e-12 	101324.9999999985
0.241491491491491 	299.9999999999842 	1.141704135142702e-12 	101324.9999999984
0.2439939939939935 	299.9999999999978 	2.612227945468172e-12 	101324.9999999984
0.246496496496496 	299.999999999998 	1.191109538275724e-12 	101324.9999999987
0.2489989989989985 	300.0000000000039 	1.484614435617969e-12 	101324.9999999987
0.251501501501501 	300.0000000000036 	8.851561223243815e-13 	101324.9999999985
0.2540040040040035 	299.9999999999981 	1.134698784328413e-12 	101324.9999999985
0.256506506506506 	300.0000000000035 	1.295469823660733e-12 	101324.9999999986
0.2590090090090086 	299.9999999999845 	6.284021478538481e-13 	101324.9999999985
0.261511511511511 	300.0000000000053 	2.102976667366185e-12 	101324.9999999987
0.2640140140140135 	299.9999999999959 	7.981927078965289e-13 	101324.9999999987
0.2665165165165161 	299.9999999999893 	1.395463260422705e-12 	101324.9999999986
0.2690190190190185 	300.0000000000088 	6.384336018066092e-13 	101324.9999999986
0.271521521521521 	300.0000000000013 	6.019606685263493e-13 	101324.9999999983
0.2740240240240235 	300.000000000003 	7.65117124827558e-13 	101324.9999999984
0.276526526526526 	299.9999999999985 	4.961128820149554e-13 	101324.9999999983
0.2790290290290286 	299.9999999999897 	1.099671168974504e-12 	101324.9999999986
0.281531531531531 	299.9999999999816 	3.248548518580159e-13 	101324.9999999987
0.2840340340340335 	299.9999999999976 	1.239642949759388e-12 	101324.9999999989
0.2865365365365361 	299.9999999999935 	8.143504872980447e-13 	101324.9999999988
0.2890390390390385 	299.9999999999986 	1.715577870553555e-12 	101324.9999999989
0.291541541541541 	299.9999999999989 	9.66371970289763e-13 	101324.9999999989
0.2940440440440436 	299.9999999999986 	7.649710103949892e-13 	101324.9999999988
0.296546546546546 	299.9999999999969 	3.336013742634162e-13 	101324.9999999986
0.2990490490490486 	299.9999999999836 	6.029652427307211e-13 	101324.9999999984
0.3015515515515511 	300.0000000000055 	1.205575821464188e-12 	101324.9999999983
0.3040540540540535 	299.9999999999964 	1.339557835749297e-12 	101324.9999999985
0.3065565565565562 	299.9999999999997 	1.55550820921894e-12 	101324.9999999985
0.3090590590590585 	299.9999999999965 	1.069441755985235e-12 	101324.9999999986
0.3115615615615611 	299.9999999999861 	5.960466572891098e-13 	101324.9999999988
0.3140640640640635 	300.0000000000003 	2.672766399407438e-13 	101324.9999999988
0.316566566566566 	299.9999999999978 	6.547252472725054e-13 	101324.9999999987
0.3190690690690687 	299.9999999999894 	4.710395064052589e-13 	101324.9999999985
0.3215715715715711 	300.0000000000007 	8.384091293004335e-13 	101324.9999999987
0.3240740740740735 	299.9999999999973 	5.266679064999569e-13 	101324.9999999987
0.326576576576576 	299.9999999999771 	6.873592416227917e-13 	101324.9999999986
0.3290790790790786 	299.999999999999 	1.099217771826911e-12 	101324.9999999986
0.3315815815815811 	300.0000000000094 	4.400252082415837e-13 	101324.9999999989
0.3340840840840836 	300.0000000000018 	1.921571384510789e-13 	101324.9999999989
0.3365865865865861 	300.0000000000142 	3.426820505752933e-13 	101324.9999999989
0.3390890890890886 	300.0000000000093 	1.000190300437626e-12 	101324.9999999988
0.3415915915915911 	300.0000000000005 	1.016282565011157e-12 	101324.9999999988
0.3440940940940935 	299.9999999999889 	1.742834513627344e-12 	101324.9999999989
0.3465965965965962 	300.0000000000084 	5.564046470281651e-13 	101324.9999999991
0.3490990990990985 	300.0000000000064 	1.461072868229961e-12 	101324.9999999991
0.3516016016016011 	299.999999999997 	7.707797078213894e-13 	101324.9999999991
0.3541041041041035 	300.0000000000028 	1.058284234757989e-12 	101324.9999999992
0.3566066066066061 	299.9999999999923 	1.173251725163763e-12 	101324.9999999989
0.3591091091091085 	299.9999999999856 	9.412536894427084e-13 	101324.9999999986
0.3616116116116112 	299.9999999999869 	1.285429128786533e-12 	101324.9999999986
0.3641141141141137 	299.9999999999843 	5.686081891642028e-13 	101324.9999999985
0.3666166166166161 	299.9999999999825 	1.003484067130852e-12 	101324.9999999986
0.3691191191191185 	300.0000000000055 	1.590821837266301e-12 	101324.9999999986
0.371621621621621 	300.0000000000037 	7.138854257860549e-13 	101324.9999999987
0.3741241241241237 	300.0000000000117 	4.162694606154103e-13 	101324.999999999
0.3766266266266261 	300.0000000000034 	4.813839490195379e-13 	101324.9999999989
0.3791291291291286 	299.9999999999973 	4.699868953663664e-13 	101324.999999999
0.3816316316316311 	299.9999999999851 	1.127207667205113e-12 	101324.9999999989
0.3841341341341336 	300.0000000000018 	1.052389705927032e-12 	101324.999999999
0.3866366366366362 	299.9999999999984 	1.4682221735336e-12 	101324.9999999989
0.3891391391391387 	299.9999999999899 	1.346016058001566e-12 	101324.9999999987
0.391641641641641 	299.999999999999 	1.725515564197795e-12 	101324.9999999986
0.3941441441441436 	300.0000000000005 	2.192114474210537e-12 	101324.9999999983
0.3966466466466462 	299.9999999999986 	2.402161905685347e-12 	101324.9999999982
0.3991491491491486 	299.9999999999887 	2.397450863057278e-12 	101324.9999999983
0.4016516516516512 	299.9999999999806 	2.314612041556012e-12 	101324.9999999983
0.4041541541541536 	299.9999999999912 	1.291289377077922e-12 	101324.9999999982
0.4066566566566561 	299.9999999999907 	2.059605624459219e-12 	101324.9999999985
0.4091591591591587 	299.9999999999999 	6.307699869411208e-13 	101324.9999999984
0.4116616616616612 	300.0000000000035 	1.432800377447646e-12 	101324.9999999983
0.4141641641641635 	300.0000000000082 	3.843862437525712e-13 	101324.9999999983
0.4166666666666662 	299.999999999999 	1.061995381693838e-12 	101324.9999999983
0.4191691691691687 	299.9999999999874 	1.465011568633116e-12 	101324.999999998
0.421671671671671 	300.0000000000044 	1.48254952592125e-12 	101324.9999999982
0.4241741741741737 	299.9999999999965 	2.763820390028694e-12 	101324.9999999981
0.4266766766766761 	299.9999999999917 	1.503914034762174e-12 	101324.9999999982
0.4291791791791785 	300.0000000000031 	2.826864865887454e-12 	101324.9999999982
0.4316816816816812 	299.9999999999974 	4.812181546444864e-13 	101324.9999999982
0.4341841841841836 	299.9999999999952 	2.130587481279668e-12 	101324.9999999983
0.4366866866866862 	299.9999999999867 	8.209722338297503e-13 	101324.9999999984
0.4391891891891885 	299.9999999999972 	1.588524563295164e-12 	101324.9999999984
0.4416916916916913 	299.9999999999984 	1.888083983714205e-12 	101324.9999999984
0.4441941941941936 	299.9999999999961 	2.218785306675352e-12 	101324.9999999985
0.4466966966966961 	299.9999999999843 	2.034151581110678e-12 	101324.9999999986
0.4491991991991987 	299.9999999999975 	1.56482261541665e-12 	101324.9999999986
0.4517017017017012 	299.9999999999961 	1.78098895374754e-12 	101324.9999999986
0.4542042042042035 	299.9999999999958 	1.526998308835129e-12 	101324.9999999986
0.4567067067067062 	299.9999999999958 	2.294525003268325e-12 	101324.9999999986
0.4592092092092087 	299.9999999999845 	1.891224964606581e-12 	101324.9999999985
0.4617117117117112 	300.0000000000018 	2.094149492905195e-12 	101324.9999999984
0.4642142142142137 	299.9999999999919 	2.158690339284111e-12 	101324.9999999982
0.4667167167167162 	299.9999999999953 	2.106628623733938e-12 	101324.9999999982
0.4692192192192187 	299.9999999999889 	2.049153798023443e-12 	101324.9999999984
0.4717217217217212 	300.0000000000039 	1.886135024973359e-12 	101324.9999999985
0.4742242242242236 	299.9999999999895 	1.748360205188704e-12 	101324.9999999985
0.4767267267267262 	299.9999999999978 	1.056986739148847e-12 	101324.9999999985
0.4792292292292287 	300.0000000000019 	8.111549428027421e-13 	101324.9999999983
0.4817317317317312 	300.0000000000045 	6.270689079032068e-13 	101324.9999999984
0.4842342342342336 	299.9999999999957 	6.042505498918882e-13 	101324.9999999984
0.4867367367367362 	299.9999999999897 	4.578788517750435e-13 	101324.9999999983
0.4892392392392387 	300.0000000000032 	4.705401204045237e-13 	101324.9999999981
0.4917417417417412 	300.0000000000002 	1.282502854057416e-12 	101324.9999999981
0.4942442442442437 	299.9999999999785 	1.068536304353043e-12 	101324.9999999981
0.4967467467467462 	299.9999999999831 	1.303128616662837e-12 	101324.9999999983
0.4992492492492487 	299.9999999999826 	3.846055065201666e-13 	101324.9999999986
0.5017517517517511 	299.999999999989 	7.942412753140466e-13 	101324.9999999984
0.5042542542542537 	299.9999999999931 	3.94669260935637e-13 	101324.9999999983
0.5067567567567562 	299.9999999999859 	4.029657888965881e-13 	101324.9999999981
0.5092592592592589 	299.9999999999916 	3.196423759907716e-13 	101324.999999998
0.5117617617617611 	299.999999999991 	3.830311136664014e-13 	101324.9999999979
0.5142642642642637 	299.9999999999998 	7.589534828658702e-13 	101324.999999998
0.5167667667667663 	299.9999999999961 	9.722500570071026e-13 	101324.9999999981
0.5192692692692688 	299.9999999999832 	1.213403328157543e-12 	101324.999999998
0.5217717717717714 	299.9999999999848 	1.414375230763183e-12 	101324.999999998
0.5242742742742736 	299.999999999985 	1.171490556406411e-12 	101324.9999999979
0.5267767767767763 	299.9999999999912 	6.359868096456718e-13 	101324.9999999981
0.5292792792792789 	299.9999999999874 	5.886033293607363e-13 	101324.999999998
0.5317817817817813 	299.9999999999796 	8.361057323585238e-13 	101324.9999999981
0.5342842842842837 	300.0000000000018 	8.176015340348461e-13 	101324.9999999981
0.5367867867867864 	300 	7.857027313029311e-13 	101324.9999999982
0.5392892892892888 	299.9999999999915 	6.214076286432957e-13 	101324.9999999982
0.5417917917917912 	300.0000000000003 	5.877324877356612e-13 	101324.9999999981
0.5442942942942938 	299.9999999999932 	6.068595079459779e-13 	101324.9999999981
0.5467967967967964 	299.9999999999886 	6.669828136310037e-13 	101324.9999999981
0.5492992992992988 	299.9999999999859 	1.995881554408648e-13 	101324.9999999979
0.5518018018018012 	299.9999999999866 	3.686116476513253e-13 	101324.9999999977
0.5543043043043039 	300.0000000000018 	5.115183193776963e-13 	101324.9999999976
0.5568068068068063 	299.9999999999969 	5.093861586429683e-13 	101324.9999999977
0.5593093093093087 	299.9999999999812 	6.763873422009936e-13 	101324.9999999978
0.5618118118118114 	299.9999999999926 	1.057468673985123e-12 	101324.9999999979
0.5643143143143137 	299.9999999999902 	3.427325102209229e-13 	101324.999999998
0.5668168168168163 	299.9999999999993 	5.587786386754857e-13 	101324.999999998
0.5693193193193188 	300.000000000007 	3.293669438532909e-13 	101324.9999999979
0.5718218218218213 	300.0000000000063 	5.716694203936717e-13 	101324.9999999979
0.5743243243243239 	300.0000000000026 	7.486459470482106e-13 	101324.9999999981
0.5768268268268262 	300 	6.994334253918964e-13 	101324.9999999981
0.5793293293293288 	299.9999999999894 	1.095828627715745e-12 	101324.9999999982
0.5818318318318314 	299.9999999999844 	1.604995476563256e-12 	101324.9999999983
0.5843343343343338 	299.9999999999957 	7.225204348253324e-13 	101324.999999998
0.5868368368368363 	299.9999999999938 	1.505773970557895e-12 	101324.9999999977
0.5893393393393387 	299.9999999999864 	3.659918413980855e-13 	101324.9999999978
0.5918418418418413 	299.999999999989 	7.504457706037886e-13 	101324.9999999978
0.5943443443443439 	300.0000000000019 	1.510946306995833e-12 	101324.9999999978
0.5968468468468463 	300.0000000000017 	1.316894804357017e-12 	101324.9999999977
0.5993493493493487 	300.000000000009 	7.568848348488352e-13 	101324.9999999976
0.6018518518518514 	299.9999999999942 	3.44069635772721e-13 	101324.9999999976
0.6043543543543537 	299.9999999999986 	4.432424377036569e-13 	101324.9999999976
0.6068568568568564 	299.9999999999948 	6.259916560408239e-13 	101324.9999999975
0.6093593593593587 	299.9999999999827 	5.310031762624015e-13 	101324.9999999976
0.6118618618618614 	299.9999999999835 	2.295591949189091e-13 	101324.9999999975
0.6143643643643638 	300.0000000000016 	5.736341625226208e-13 	101324.9999999975
0.6168668668668662 	299.9999999999978 	7.401719125397909e-13 	101324.9999999975
0.6193693693693688 	299.9999999999891 	8.126025269981918e-13 	101324.9999999974
0.6218718718718714 	299.9999999999918 	5.280921823093773e-13 	101324.9999999975
0.6243743743743737 	299.9999999999862 	1.106877011367191e-12 	101324.9999999975
0.6268768768768762 	299.9999999999841 	4.823094261326889e-13 	101324.9999999976
0.629379379379379 	299.999999999989 	4.092546796589932e-13 	101324.9999999977
0.6318818818818812 	299.9999999999914 	8.804400720430318e-13 	101324.9999999977
0.6343843843843838 	300.0000000000016 	1.094924794627611e-12 	101324.9999999977
0.6368868868868864 	299.9999999999951 	1.564201581831789e-12 	101324.9999999978
0.6393893893893888 	299.9999999999841 	1.606027105115746e-12 	101324.9999999977
0.6418918918918912 	299.9999999999991 	9.024758357687979e-13 	101324.9999999978
0.6443943943943939 	299.9999999999964 	2.073117053768403e-12 	101324.9999999979
0.6468968968968963 	299.9999999999939 	7.868539671291923e-13 	101324.9999999978
0.6493993993993988 	299.9999999999924 	1.172569845725843e-12 	101324.9999999977
0.6519019019019012 	299.999999999991 	5.304776449346162e-13 	101324.9999999976
0.6544044044044038 	299.9999999999779 	1.068724690262808e-12 	101324.9999999977
0.6569069069069065 	299.999999999991 	4.614097973934155e-13 	101324.9999999978
0.6594094094094087 	299.9999999999898 	7.373208704429796e-13 	101324.9999999978
0.6619119119119113 	299.9999999999885 	1.332624836732095e-12 	101324.9999999976
0.664414414414414 	299.9999999999972 	6.915460701643825e-13 	101324.9999999975
0.6669169169169162 	300.0000000000014 	5.027290773066446e-13 	101324.9999999978
0.6694194194194188 	299.9999999999961 	2.413190835359127e-13 	101324.9999999979
0.6719219219219214 	299.9999999999872 	1.184941213975245e-13 	101324.999999998
0.674424424424424 	299.9999999999943 	7.288477589511313e-14 	101324.9999999982
0.6769269269269262 	299.9999999999829 	2.554795223427516e-13 	101324.9999999979
0.679429429429429 	300.0000000000007 	4.46113721634757e-13 	101324.999999998
0.6819319319319311 	299.9999999999934 	5.662227306522309e-13 	101324.9999999979
0.6844344344344341 	299.9999999999978 	3.717525585021485e-13 	101324.9999999979
0.686936936936936 	299.9999999999986 	4.549816848072353e-13 	101324.999999998
0.6894394394394392 	299.9999999999992 	5.829287676898434e-13 	101324.9999999978
0.6919419419419413 	299.9999999999969 	8.534904531707627e-13 	101324.9999999978
0.694444444444444 	299.9999999999896 	1.08619681036832e-12 	101324.9999999979
0.6969469469469463 	299.9999999999844 	7.683565918500677e-13 	101324.9999999978
0.6994494494494489 	299.9999999999825 	6.431022474847207e-13 	101324.9999999979
0.7019519519519515 	299.9999999999968 	9.543823576747574e-13 	101324.9999999979
0.7044544544544538 	299.9999999999899 	5.618380247291295e-13 	101324.9999999978
0.7069569569569564 	299.9999999999984 	1.065702257115148e-12 	101324.9999999978
0.7094594594594589 	299.9999999999914 	6.9136858135268e-13 	101324.9999999977
0.7119619619619615 	299.9999999999813 	8.711356574089816e-13 	101324.9999999977
0.7144644644644638 	299.9999999999869 	6.594497801088218e-13 	101324.9999999978
0.7169669669669665 	299.9999999999827 	6.258852879402237e-13 	101324.9999999979
0.7194694694694688 	299.9999999999984 	8.68009564263493e-13 	101324.999999998
0.7219719719719715 	299.9999999999999 	4.263042935302848e-13 	101324.9999999981
0.7244744744744737 	300.0000000000001 	7.676579725148253e-13 	101324.9999999981
0.7269769769769764 	299.999999999999 	7.758532340709021e-13 	101324.999999998
0.7294794794794791 	299.9999999999985 	1.534661194342836e-12 	101324.9999999979
0.7319819819819813 	299.9999999999965 	9.476835991931858e-13 	101324.9999999979
0.7344844844844839 	299.9999999999844 	1.718488601496239e-12 	101324.9999999978
0.7369869869869864 	299.9999999999917 	3.270907301436094e-13 	101324.9999999979
0.739489489489489 	299.9999999999882 	9.119762937521863e-13 	101324.999999998
0.7419919919919914 	299.999999999987 	8.898611351308799e-13 	101324.999999998
0.7444944944944939 	299.999999999994 	7.315552730575557e-13 	101324.9999999979
0.7469969969969963 	299.999999999994 	1.487054721919815e-12 	101324.9999999978
0.7494994994994989 	299.9999999999872 	1.583418847470298e-12 	101324.9999999978
0.7520020020020015 	299.9999999999924 	1.658395577028673e-12 	101324.9999999977
0.7545045045045039 	299.9999999999937 	1.33790690574804e-12 	101324.9999999976
0.7570070070070062 	299.9999999999892 	9.674656983581079e-13 	101324.9999999975
0.7595095095095092 	299.9999999999852 	5.269776004343647e-13 	101324.9999999977
0.7620120120120112 	299.9999999999997 	1.346919321073745e-12 	101324.9999999977
0.7645145145145138 	299.9999999999976 	1.436016606949711e-12 	101324.9999999977
0.7670170170170165 	299.999999999987 	1.001082318389933e-12 	101324.9999999976
0.7695195195195191 	299.9999999999834 	1.688714016812671e-12 	101324.9999999976
0.7720220220220213 	299.9999999999878 	8.568335717664186e-13 	101324.9999999975
0.7745245245245239 	299.9999999999885 	8.357979378188839e-13 	101324.9999999975
0.7770270270270263 	299.9999999999938 	1.499295244392127e-12 	101324.9999999976
0.779529529529529 	299.9999999999937 	1.078740474850341e-12 	101324.9999999977
0.7820320320320313 	299.9999999999909 	1.581748862074667e-12 	101324.9999999977
0.784534534534534 	299.999999999996 	1.442754615614036e-12 	101324.9999999976
0.7870370370370364 	299.9999999999951 	9.038890189087329e-13 	101324.9999999976
0.7895395395395389 	299.9999999999932 	1.069381174938712e-12 	101324.9999999978
0.7920420420420413 	299.9999999999949 	9.491762779258888e-13 	101324.9999999977
0.794544544544544 	299.999999999999 	1.480755650038238e-12 	101324.9999999976
0.7970470470470463 	300.0000000000017 	1.198507800766434e-12 	101324.9999999975
0.799549549549549 	299.999999999997 	1.471215417261682e-12 	101324.9999999976
0.8020520520520515 	299.9999999999973 	1.016261318323052e-12 	101324.9999999976
0.8045545545545539 	299.9999999999887 	2.98000003658871e-13 	101324.9999999976
0.8070570570570563 	299.9999999999985 	1.05595766535284e-13 	101324.9999999975
0.8095595595595589 	299.9999999999919 	2.224900627431043e-13 	101324.9999999976
0.8120620620620614 	299.9999999999849 	4.960760830526382e-13 	101324.9999999974
0.8145645645645638 	299.9999999999959 	7.318289997073388e-13 	101324.9999999974
0.8170670670670666 	299.9999999999965 	1.115751900704429e-12 	101324.9999999976
0.8195695695695689 	299.9999999999948 	1.43112996717399e-12 	101324.9999999978
0.8220720720720714 	299.9999999999876 	1.03278063583804e-12 	101324.9999999979
0.8245745745745739 	299.9999999999986 	5.288282200266732e-13 	101324.9999999978
0.8270770770770765 	299.9999999999934 	9.338386083053861e-13 	101324.9999999979
0.8295795795795788 	299.9999999999898 	4.683670846908501e-13 	101324.9999999979
0.8320820820820815 	300.0000000000042 	6.576371141885832e-13 	101324.9999999978
0.834584584584584 	300.0000000000014 	6.641208979259733e-13 	101324.9999999976
0.8370870870870865 	299.9999999999927 	6.087422587322968e-13 	101324.9999999977
0.8395895895895891 	299.9999999999831 	5.69537762928401e-13 	101324.9999999979
0.8420920920920915 	299.9999999999848 	1.824738617837226e-13 	101324.999999998
0.844594594594594 	299.9999999999844 	4.725397757359486e-14 	101324.9999999981
0.8470970970970964 	299.9999999999877 	1.446890927358143e-13 	101324.9999999981
0.8495995995995991 	299.999999999996 	3.940323241282964e-13 	101324.9999999981
0.8521021021021015 	299.9999999999948 	4.448275867747541e-13 	101324.9999999979
0.8546046046046039 	299.9999999999939 	3.587974342945175e-13 	101324.9999999979
0.8571071071071066 	299.9999999999981 	1.189964949838499e-12 	101324.9999999983
0.8596096096096089 	299.9999999999906 	1.435577714293979e-12 	101324.9999999983
0.8621121121121116 	299.9999999999844 	1.00501349986548e-12 	101324.9999999981
0.8646146146146139 	299.9999999999973 	7.561670277486375e-13 	101324.9999999979
0.8671171171171166 	299.9999999999944 	4.03928636707905e-13 	101324.9999999978
0.8696196196196189 	299.99999999999 	3.994928694635694e-13 	101324.9999999977
0.8721221221221216 	299.9999999999908 	2.5566291830972e-13 	101324.9999999977
0.874624624624624 	299.999999999998 	5.113574432621251e-13 	101324.9999999977
0.8771271271271264 	300.0000000000011 	9.490442165495146e-13 	101324.9999999975
0.879629629629629 	299.9999999999987 	1.129488237178199e-12 	101324.9999999975
0.8821321321321317 	299.9999999999956 	1.369751483868664e-12 	101324.9999999976
0.8846346346346339 	299.9999999999853 	1.318640415356744e-12 	101324.9999999977
0.8871371371371364 	299.9999999999907 	3.610821685951096e-13 	101324.9999999977
0.8896396396396391 	299.9999999999895 	8.211534543875957e-13 	101324.9999999978
0.8921421421421414 	299.9999999999908 	7.861661154742584e-13 	101324.9999999979
0.8946446446446441 	299.9999999999981 	1.612175560791831e-12 	101324.9999999981
0.8971471471471464 	299.9999999999995 	1.646299219341038e-12 	101324.9999999981
0.8996496496496489 	299.999999999993 	1.222955092729317e-12 	101324.9999999981
0.9021521521521517 	299.9999999999899 	1.627929967052111e-12 	101324.999999998
0.9046546546546541 	299.999999999996 	9.821714049451267e-13 	101324.9999999978
0.9071571571571564 	299.9999999999878 	9.139972680837926e-13 	101324.9999999979
0.9096596596596589 	299.9999999999897 	6.768746252465586e-13 	101324.9999999978
0.9121621621621616 	300.0000000000014 	7.230925505413204e-13 	101324.9999999978
0.9146646646646639 	299.9999999999947 	6.196872870130176e-13 	101324.9999999977
0.9171671671671666 	299.9999999999881 	7.67908534961501e-13 	101324.9999999978
0.9196696696696689 	299.9999999999984 	1.280848187271804e-12 	101324.999999998
0.9221721721721714 	299.9999999999997 	1.208318112312661e-12 	101324.9999999982
0.9246746746746741 	299.9999999999876 	1.003122497709955e-12 	101324.9999999983
0.9271771771771765 	299.9999999999865 	6.947794647885778e-13 	101324.9999999983
0.9296796796796791 	299.999999999997 	7.682397581312844e-13 	101324.999999998
0.9321821821821816 	299.9999999999965 	3.280193245066663e-13 	101324.9999999977
0.9346846846846838 	299.9999999999914 	3.166672667662799e-13 	101324.9999999978
0.9371871871871866 	300.0000000000022 	5.266566270511824e-13 	101324.9999999978
0.9396896896896891 	300.0000000000035 	8.031695756009823e-13 	101324.9999999979
0.9421921921921914 	300.000000000002 	1.071482879766112e-12 	101324.9999999979
0.9446946946946939 	299.9999999999923 	1.402537715968707e-12 	101324.9999999981
0.9471971971971965 	299.9999999999835 	1.016601809458526e-12 	101324.9999999982
0.9496996996996991 	299.9999999999884 	4.528034372538998e-13 	101324.9999999983
0.9522022022022016 	299.9999999999898 	7.223957086217287e-13 	101324.9999999983
0.9547047047047038 	299.9999999999934 	4.103786717254804e-13 	101324.9999999983
0.9572072072072064 	299.9999999999931 	4.537689155698624e-13 	101324.9999999981
0.9597097097097093 	299.9999999999922 	5.384903937335374e-13 	101324.9999999981
0.9622122122122114 	299.9999999999904 	8.977755664459792e-13 	101324.9999999982
0.964714714714714 	299.9999999999914 	1.10883277047043e-12 	101324.9999999981
0.9672172172172167 	299.9999999999929 	8.466088105008538e-13 	101324.9999999981
0.969719719719719 	299.9999999999974 	9.690911749361602e-13 	101324.999999998
0.9722222222222214 	299.9999999999927 	5.110602422797119e-13 	101324.9999999981
0.9747247247247239 	299.9999999999905 	4.032710426114772e-13 	101324.9999999981
0.9772272272272267 	299.9999999999973 	6.682398137376656e-13 	101324.9999999981
0.9797297297297292 	299.9999999999957 	1.168618637880185e-12 	101324.9999999981
0.9822322322322313 	299.9999999999989 	1.281161875214226e-12 	101324.9999999981
0.9847347347347344 	299.9999999999993 	1.442056848642788e-12 	101324.9999999981
0.9872372372372363 	299.9999999999912 	1.212724199663888e-12 	101324.9999999979
0.9897397397397389 	299.9999999999953 	5.270839518694564e-13 	101324.9999999978
0.9922422422422417 	299.9999999999895 	5.195286071583074e-13 	101324.9999999979
0.9947447447447441 	299.999999999987 	5.690710134477347e-13 	101324.9999999978
0.9972472472472468 	299.9999999999915 	9.201791218486474e-13 	101324.9999999978
0.999749749749749 	299.9999999999907 	7.340323651936537e-13 	101324.9999999978
1.002252252252252 	299.9999999999932 	7.921525674933835e-13 	101324.9999999979
1.004754754754754 	299.9999999999943 	1.053596672015253e-12 	101324.9999999981
1.007257257257256 	299.9999999999902 	1.213056302299144e-12 	101324.9999999983
1.009759759759759 	299.9999999999878 	1.396280178633444e-12 	101324.9999999984
1.012262262262261 	299.9999999999851 	6.338362823701101e-13 	101324.9999999984
1.014764764764764 	299.9999999999823 	1.471801854136972e-12 	101324.9999999984
1.017267267267267 	299.9999999999824 	1.455436347853754e-12 	101324.9999999984
1.019769769769769 	299.999999999991 	1.174771805698521e-12 	101324.9999999981
1.022272272272272 	299.9999999999935 	7.926228858943723e-13 	101324.9999999981
1.024774774774774 	299.9999999999929 	4.78847905268579e-13 	101324.9999999981
1.027277277277277 	299.9999999999922 	3.812476849295918e-13 	101324.9999999981
1.029779779779779 	299.9999999999965 	4.093250217888548e-13 	101324.9999999981
1.032282282282282 	299.9999999999968 	6.146327499383395e-13 	101324.999999998
1.034784784784784 	299.9999999999969 	4.059491003369233e-13 	101324.9999999981
1.037287287287286 	299.9999999999903 	4.774646495005777e-13 	101324.9999999981
1.039789789789789 	299.9999999999926 	2.8468112090771e-13 	101324.9999999981
1.042292292292291 	300.0000000000008 	7.662852342610088e-13 	101324.9999999981
1.044794794794794 	300.0000000000017 	1.303302448661711e-12 	101324.999999998
1.047297297297296 	300.0000000000042 	1.074450746400258e-12 	101324.9999999981
1.049799799799799 	299.9999999999959 	1.163716396394393e-12 	101324.9999999982
1.052302302302302 	299.9999999999922 	6.505966705382019e-13 	101324.9999999982
1.054804804804804 	299.9999999999891 	9.189066696221425e-13 	101324.9999999982
1.057307307307306 	299.9999999999835 	1.102275755479448e-12 	101324.9999999981
1.059809809809809 	299.9999999999885 	1.56204380334846e-12 	101324.999999998
1.062312312312312 	299.9999999999862 	1.050609929963093e-12 	101324.9999999979
1.064814814814814 	299.9999999999859 	8.826127708506148e-13 	101324.999999998
1.067317317317317 	299.9999999999825 	1.189492533844356e-12 	101324.999999998
1.069819819819819 	299.999999999981 	1.294040902902099e-12 	101324.9999999981
1.072322322322321 	299.9999999999954 	1.091446188074941e-12 	101324.9999999983
1.074824824824824 	300.0000000000033 	5.000476051429824e-13 	101324.9999999985
1.077327327327327 	300.0000000000051 	4.220034989945789e-13 	101324.9999999985
1.079829829829829 	300.0000000000033 	3.46624306845596e-13 	101324.9999999987
1.082332332332332 	299.9999999999983 	8.927294284423805e-13 	101324.9999999988
1.084834834834834 	299.9999999999965 	1.102256564132366e-12 	101324.9999999989
1.087337337337337 	299.9999999999888 	1.57711723154453e-12 	101324.9999999989
1.089839839839839 	299.999999999987 	1.586755425876532e-12 	101324.9999999986
1.092342342342342 	299.999999999996 	1.392321971649325e-12 	101324.9999999986
1.094844844844844 	299.9999999999981 	1.783459039499068e-12 	101324.9999999986
1.097347347347347 	299.9999999999915 	1.856645447465455e-12 	101324.9999999985
1.099849849849849 	299.999999999988 	1.331425717154652e-12 	101324.9999999985
1.102352352352352 	299.9999999999931 	6.415642857372781e-13 	101324.9999999985
1.104854854854854 	299.9999999999978 	7.204677590994281e-13 	101324.9999999985
1.107357357357357 	299.9999999999937 	2.274942176999724e-13 	101324.9999999984
1.109859859859859 	299.9999999999894 	1.105797375963492e-12 	101324.9999999984
1.112362362362362 	300.0000000000045 	1.201840027820466e-12 	101324.9999999985
1.114864864864865 	300.0000000000044 	1.550875329145005e-12 	101324.9999999985
1.117367367367367 	299.9999999999914 	2.061282573235271e-12 	101324.9999999986
1.119869869869869 	299.9999999999843 	1.525510042463997e-12 	101324.9999999988
1.122372372372372 	299.9999999999903 	1.706708241615579e-12 	101324.9999999988
1.124874874874874 	299.9999999999898 	9.436957774280484e-13 	101324.9999999987
1.127377377377377 	299.9999999999952 	1.122398289935529e-12 	101324.9999999986
1.129879879879879 	300.0000000000069 	7.701213868686249e-13 	101324.9999999985
1.132382382382382 	300.0000000000044 	5.452744141396817e-13 	101324.9999999985
1.134884884884884 	299.9999999999982 	7.53236598596329e-13 	101324.9999999985
1.137387387387387 	300.0000000000009 	7.512805411242021e-13 	101324.9999999987
1.139889889889889 	299.9999999999907 	1.01354023679967e-12 	101324.9999999987
1.142392392392392 	299.9999999999898 	8.200465297633316e-13 	101324.9999999987
1.144894894894894 	300.000000000001 	3.122416370971126e-13 	101324.9999999989
1.147397397397397 	299.9999999999982 	2.307519670890239e-13 	101324.999999999
1.149899899899899 	299.9999999999857 	7.041856193073827e-13 	101324.999999999
1.152402402402402 	299.9999999999833 	7.958184563651012e-13 	101324.999999999
1.154904904904904 	299.9999999999928 	1.240943008459502e-12 	101324.999999999
1.157407407407407 	299.9999999999959 	1.142587605568172e-12 	101324.999999999
1.159909909909909 	299.9999999999918 	9.963784722871281e-13 	101324.9999999992
1.162412412412412 	299.9999999999883 	1.0534735965432e-12 	101324.9999999994
1.164914914914914 	299.9999999999911 	5.655335918048135e-13 	101324.9999999996
1.167417417417417 	299.9999999999887 	1.11025771189432e-12 	101324.9999999997
1.169919919919919 	299.9999999999986 	7.578806570221902e-13 	101324.9999999996
1.172422422422422 	300.0000000000047 	7.470142497377455e-13 	101324.9999999994
1.174924924924925 	299.9999999999937 	9.280313234652193e-13 	101324.9999999992
1.177427427427427 	299.9999999999868 	1.644031374753537e-12 	101324.9999999991
1.179929929929929 	299.999999999996 	1.603071166675509e-12 	101324.999999999
1.182432432432432 	300.0000000000016 	1.102912220915214e-12 	101324.999999999
1.184934934934934 	299.9999999999986 	1.598205315920557e-12 	101324.9999999989
1.187437437437437 	299.9999999999948 	1.509721238048814e-12 	101324.9999999988
1.189939939939939 	299.9999999999911 	1.807409135012635e-12 	101324.9999999989
1.192442442442442 	299.9999999999839 	1.5935321031659e-12 	101324.9999999989
1.194944944944944 	299.9999999999849 	2.130414977229938e-12 	101324.9999999989
1.197447447447447 	299.9999999999961 	1.693335459368833e-12 	101324.9999999991
1.199949949949949 	299.9999999999978 	1.240397531093472e-12 	101324.9999999992
1.202452452452452 	299.9999999999875 	1.244904745819073e-12 	101324.999999999
1.204954954954955 	299.9999999999875 	9.544708572081841e-13 	101324.999999999
1.207457457457457 	299.9999999999938 	1.295585287397254e-12 	101324.9999999992
1.20995995995996 	299.9999999999928 	8.413786465357939e-13 	101324.9999999992
1.212462462462462 	299.9999999999944 	1.154029639223349e-12 	101324.999999999
1.214964964964964 	299.9999999999948 	1.073640732504487e-12 	101324.9999999989
1.217467467467467 	299.9999999999962 	1.376295447585172e-12 	101324.9999999988
1.219969969969969 	299.9999999999966 	1.089361945110553e-12 	101324.9999999988
1.222472472472472 	300.0000000000048 	1.39777531618729e-12 	101324.9999999989
1.224974974974975 	300.0000000000066 	1.440642916121278e-12 	101324.9999999988
1.227477477477477 	299.9999999999995 	7.640996246540108e-13 	101324.9999999989
1.229979979979979 	299.9999999999962 	9.668893331440121e-13 	101324.999999999
1.232482482482482 	299.9999999999881 	5.288856344150132e-13 	101324.999999999
1.234984984984984 	299.9999999999886 	1.4270591472814e-12 	101324.9999999988
1.237487487487487 	299.9999999999908 	1.362305750672877e-12 	101324.9999999988
1.239989989989989 	299.9999999999912 	1.736518320981839e-12 	101324.9999999988
1.242492492492492 	299.9999999999993 	1.68539385442064e-12 	101324.9999999989
1.244994994994994 	299.9999999999947 	7.021498979813735e-13 	101324.999999999
1.247497497497497 	299.9999999999955 	8.73055185503577e-13 	101324.999999999
1.249999999999999 	300 	5.971818322818369e-13 	101324.9999999991
