-1.25 	300 	0.1034853052090819 	101282.7836037249
-1.247497497497497 	299.9634622367177 	0.10257930565723 	101283.1476854307
-1.244994994994995 	299.9648939580051 	0.1015396184286065 	101283.5229234904
-1.242492492492492 	299.9652344414304 	0.1007884266975864 	101283.9057386808
-1.23998998998999 	299.9655644515902 	0.09973208230448227 	101284.2965693709
-1.237487487487487 	299.9659012670595 	0.09879538218395506 	101284.694670383
-1.234984984984985 	299.9662440510784 	0.09780029596240611 	101285.099803062
-1.232482482482482 	299.9665933202597 	0.09678498751750665 	101285.5126004436
-1.22997997997998 	299.9669487405533 	0.09575399720533821 	101285.9326690728
-1.227477477477477 	299.9673103653478 	0.09470864808724073 	101286.3600721162
-1.224974974974975 	299.9676780986701 	0.09364546771380262 	101286.7946959032
-1.222472472472472 	299.9680513595107 	0.09256293669874208 	101287.2358537622
-1.21996996996997 	299.9684306047872 	0.09146000131329084 	101287.6840854694
-1.217467467467467 	299.9688160064006 	0.09034073806193457 	101288.1395940941
-1.214964964964965 	299.9692070235799 	0.0892132049990924 	101288.6017421354
-1.212462462462462 	299.9696034049681 	0.08806770341273112 	101289.0702316858
-1.20995995995996 	299.9700053895776 	0.08690252913914807 	101289.5453448827
-1.207457457457457 	299.9704130011191 	0.08571771830615997 	101290.0271098973
-1.204954954954955 	299.9708262735402 	0.08451703364857341 	101290.5155669493
-1.202452452452452 	299.9712452266216 	0.08330814975649048 	101291.010740401
-1.19994994994995 	299.9716689694718 	0.08208234372658289 	101291.5115762335
-1.197447447447447 	299.9720977825496 	0.08083860030357895 	101292.0184058773
-1.194944944944945 	299.972532142939 	0.07957724147140256 	101292.5317933555
-1.192442442442442 	299.9729713309484 	0.07830250184724372 	101293.0508885013
-1.18993993993994 	299.97341537677 	0.07702078637303453 	101293.5757282814
-1.187437437437437 	299.9738642547187 	0.07572322455960342 	101294.106281341
-1.184934934934935 	299.9743177360429 	0.07440880096656258 	101294.6422770173
-1.182432432432432 	299.9747765197973 	0.07307874330728044 	101295.1845413189
-1.17992992992993 	299.9752403378401 	0.07173482652074922 	101295.7327574192
-1.177427427427427 	299.9757080563024 	0.07038011227131985 	101296.285586936
-1.174924924924925 	299.9761801710933 	0.06901092130493738 	101296.8436149247
-1.172422422422422 	299.9766570625339 	0.06762919772931729 	101297.4072890107
-1.16991991991992 	299.9771379804527 	0.0662360215419153 	101297.9757232523
-1.167417417417417 	299.9776231676548 	0.06483103858544 	101298.5492072183
-1.164914914914915 	299.9781127127868 	0.06341478721764057 	101299.1278473863
-1.162412412412412 	299.9786054100588 	0.06198688946976295 	101299.7102168222
-1.15990990990991 	299.9791020835511 	0.06054845468538551 	101300.2972862977
-1.157407407407407 	299.9796041233852 	0.05909660145117292 	101300.8906965414
-1.154904904904904 	299.9801095425535 	0.05763230512489067 	101301.4881009757
-1.152402402402403 	299.9806169555799 	0.05615830026804841 	101302.0878679301
-1.1498998998999 	299.9811284374512 	0.05467301895177437 	101302.6924532759
-1.147397397397397 	299.9816448879442 	0.05317771927460546 	101303.3029176175
-1.144894894894895 	299.9821644270509 	0.05167531807488901 	101303.9170334314
-1.142392392392392 	299.9826856730048 	0.05016670463659655 	101304.533165129
-1.13988988988989 	299.9832098296109 	0.04864564801212118 	101305.1527340404
-1.137387387387387 	299.9837390181122 	0.04711187779141187 	101305.7782459642
-1.134884884884885 	299.9842720452955 	0.0455730884683018 	101306.4082941839
-1.132382382382382 	299.9848059353806 	0.0440279101433547 	101307.0393659566
-1.12987987987988 	299.9853414559141 	0.04247366324067037 	101307.6723705232
-1.127377377377377 	299.9858806683042 	0.04090730461856615 	101308.3097447433
-1.124874874874875 	299.9864232454163 	0.03933108845397809 	101308.9511011765
-1.122372372372372 	299.9869694372684 	0.03775216780514051 	101309.5967347199
-1.11986986986987 	299.9875182994368 	0.03616711558149301 	101310.2455297294
-1.117367367367367 	299.9880674203148 	0.034575195636785 	101310.8946343459
-1.114864864864865 	299.9886171176789 	0.03297744539897583 	101311.5444232506
-1.112362362362362 	299.9891688890912 	0.03137813560398812 	101312.196667998
-1.10985985985986 	299.9897234063014 	0.02977616848478101 	101312.8521643254
-1.107357357357357 	299.9902829168831 	0.02815815972509292 	101313.5135663657
-1.104854854854855 	299.9908467856393 	0.02652460329341757 	101314.1801221234
-1.102352352352353 	299.9914114037088 	0.02488325627776846 	101314.8475637152
-1.09984984984985 	299.9919739096939 	0.02325103831498014 	101315.5125092164
-1.097347347347347 	299.9925333195004 	0.02163617030527895 	101316.1737995735
-1.094844844844845 	299.9930908878623 	0.02002024854476312 	101316.8329197932
-1.092342342342342 	299.9936526353732 	0.01839064625621296 	101317.4969852882
-1.08983983983984 	299.9942220998726 	0.01673951064410057 	101318.1701772457
-1.087337337337337 	299.9947981277897 	0.01507096862996781 	101318.8511290846
-1.084834834834835 	299.9953767681168 	0.01339993344066224 	101319.5351694818
-1.082332332332332 	299.9959537205671 	0.01173121557604789 	101320.217215994
-1.07982982982983 	299.9965261546212 	0.01007079583594225 	101320.8939233379
-1.077327327327327 	299.9970946190397 	0.008422410828166185 	101321.5659407808
-1.074824824824825 	299.9976594787623 	0.006785646516565748 	101322.2337013925
-1.072322322322323 	299.9982223119684 	0.005154520143442641 	101322.8990718818
-1.06981981981982 	299.998787117118 	0.003517086674391448 	101323.56677869
-1.067317317317317 	299.9993572357185 	0.001865748623784863 	101324.2407715423
-1.064814814814815 	299.9999330797365 	0.0007871984263841869 	101324.9215346463
-1.062312312312312 	300.0005112201673 	0.001473463694844422 	101325.6050131755
-1.05980980980981 	300.0010886113848 	0.003145711855717975 	101326.2876082762
-1.057307307307307 	300.0016645933133 	0.004814277665697541 	101326.9685404842
-1.054804804804805 	300.002239330406 	0.006479285827753759 	101327.6480043258
-1.052302302302302 	300.0028130247574 	0.008141266357950719 	101328.3262387336
-1.0497997997998 	300.0033858046905 	0.009800581506230069 	101329.0033954973
-1.047297297297297 	300.0039577207215 	0.0114573794078213 	101329.6795340238
-1.044794794794795 	300.0045287641148 	0.01311163950348423 	101330.3546438188
-1.042292292292292 	300.0050988863661 	0.01476322572517147 	101331.0286679327
-1.03978978978979 	300.0056680150794 	0.01641193115181171 	101331.7015208562
-1.037287287287287 	300.0062360644287 	0.01805750755791501 	101332.373100521
-1.034784784784785 	300.0068029405643 	0.01969968261769187 	101333.0432956799
-1.032282282282283 	300.0073685445449 	0.02133817214253877 	101333.7119901534
-1.02977977977978 	300.007932775536 	0.02297268583625991 	101334.3790652215
-1.027277277277277 	300.0084955330815 	0.02460292911051067 	101335.0444009101
-1.024774774774775 	300.0090567158667 	0.02622860667084941 	101335.7078766959
-1.022272272272272 	300.0096162206933 	0.02784942342018329 	101336.3693718893
-1.01976976976977 	300.0101739443824 	0.02946508308983604 	101337.0287657969
-1.017267267267267 	300.0107297862557 	0.03107529017563071 	101337.6859378867
-1.014764764764765 	300.0112836466523 	0.0326797505901614 	101338.3407679038
-1.012262262262262 	300.0118354230341 	0.03427817017176896 	101338.9931359414
-1.00975975975976 	300.0123850113665 	0.03587025613965349 	101339.6429225108
-1.007257257257257 	300.0129323109732 	0.03745571718241937 	101340.2900084979
-1.004754754754755 	300.0134772254073 	0.0390342621353446 	101340.9342752105
-1.002252252252252 	300.0140196570451 	0.04060560136173964 	101341.5756044592
-0.9997497497497498 	300.0145595026444 	0.04216944708113003 	101342.2138785578
-0.9972472472472473 	300.0150966578675 	0.04372551218899068 	101342.848980418
-0.9947447447447449 	300.0156310250909 	0.04527351135674074 	101343.480793562
-0.9922422422422421 	300.0161625136648 	0.04681316102890614 	101344.1092020674
-0.9897397397397399 	300.0166910307868 	0.04834417833428897 	101344.7340906185
-0.9872372372372376 	300.0172164743473 	0.04986628245796517 	101345.3553444919
-0.9847347347347346 	300.017738738321 	0.05137919449312265 	101345.9728496341
-0.9822322322322323 	300.0182577239979 	0.05288263642905423 	101346.5864927487
-0.9797297297297296 	300.0187733445928 	0.05437633256322086 	101347.1961612134
-0.9772272272272275 	300.0192855170078 	0.05586000948338365 	101347.801743159
-0.9747247247247248 	300.0197941490414 	0.05733339459157679 	101348.403127487
-0.9722222222222224 	300.0202991367402 	0.0587962174963417 	101349.0002037901
-0.9697197197197196 	300.0208003743996 	0.06024821046997318 	101349.5928625118
-0.9672172172172175 	300.0212977673672 	0.06168910699640161 	101350.1809949399
-0.9647147147147147 	300.0217912352557 	0.06311864271350709 	101350.764493144
-0.9622122122122124 	300.0222807027471 	0.06453655585448385 	101351.3432501289
-0.9597097097097099 	300.0227660865742 	0.0659425863043686 	101351.9171597115
-0.9572072072072073 	300.0232472895038 	0.06733647612029069 	101352.4861164741
-0.9547047047047047 	300.0237242073983 	0.06871796957249963 	101353.0500159581
-0.9522022022022023 	300.0241967407279 	0.07008681278011547 	101353.6087545666
-0.9496996996996998 	300.0246648035227 	0.07144275475450178 	101354.1622296573
-0.9471971971971973 	300.0251283226131 	0.072785546810002 	101354.7103396706
-0.9446946946946947 	300.0255872285599 	0.07411494186116431 	101355.2529838335
-0.9421921921921923 	300.0260414463255 	0.07543069616258906 	101355.7900623517
-0.93968968968969 	300.0264908897932 	0.07673256874288613 	101356.321476738
-0.9371871871871872 	300.0269354641444 	0.0780203204392594 	101356.8471295066
-0.9346846846846848 	300.0273750734807 	0.07929371525663409 	101357.3669241911
-0.9321821821821823 	300.0278096275878 	0.08055251995835042 	101357.8807654628
-0.9296796796796799 	300.0282390454535 	0.08179650332574517 	101358.3885588804
-0.9271771771771771 	300.028663254933 	0.08302543740257763 	101358.8902112409
-0.9246746746746748 	300.0290821899339 	0.08423909729617086 	101359.3856307728
-0.9221721721721724 	300.0294957858096 	0.08543726036270818 	101359.8747265696
-0.9196696696696698 	300.0299039747661 	0.08661970712644898 	101360.357408807
-0.9171671671671672 	300.0303066845677 	0.08778622092493972 	101360.8335890678
-0.9146646646646649 	300.0307038384492 	0.0889365876967407 	101361.3031798423
-0.9121621621621623 	300.0310953575961 	0.09007059670078903 	101361.7660948316
-0.9096596596596597 	300.0314811643369 	0.0911880401613199 	101362.2222493806
-0.9071571571571573 	300.0318611825801 	0.09228871332678037 	101362.6715598231
-0.9046546546546547 	300.0322353385874 	0.0933724145925784 	101363.1139435648
-0.9021521521521524 	300.0326035613797 	0.09443894504266737 	101363.5493195675
-0.8996496496496498 	300.0329657823627 	0.095488108682787 	101363.9776077228
-0.8971471471471473 	300.0333219348535 	0.09651971288650507 	101364.3987290512
-0.894644644644645 	300.0336719542929 	0.0975335687191235 	101364.8126066075
-0.892142142142142 	300.0340157778589 	0.09852949091050875 	101365.2191647478
-0.8896396396396397 	300.0343533432913 	0.09950729683955331 	101365.6183285985
-0.8871371371371374 	300.0346845895976 	0.1004668068105474 	101366.0100249086
-0.8846346346346349 	300.0350094570616 	0.101407844711268 	101366.3941817613
-0.8821321321321324 	300.0353278861879 	0.1023302371518614 	101366.7707280674
-0.8796296296296297 	300.0356398190988 	0.1032338145474756 	101367.1395946235
-0.8771271271271271 	300.0359451992655 	0.1041184119513534 	101367.5007141531
-0.8746246246246248 	300.036243970846 	0.1049838670635599 	101367.8540201507
-0.8721221221221224 	300.0365360789784 	0.1058300205496626 	101368.1994474972
-0.8696196196196196 	300.0368214705192 	0.1066567180717102 	101368.5369332532
-0.8671171171171175 	300.0371000934547 	0.1074638081485132 	101368.8664155429
-0.8646146146146148 	300.0373718960149 	0.1082511416659182 	101369.1878332663
-0.8621121121121121 	300.0376368283771 	0.1090185737936575 	101369.5011272231
-0.8596096096096097 	300.0378948419232 	0.1097659631295488 	101369.8062398168
-0.857107107107107 	300.0381458884786 	0.1104931712624215 	101370.1031143072
-0.8546046046046049 	300.0383899219339 	0.1112000642171984 	101370.3916957755
-0.8521021021021022 	300.0386268978936 	0.1118865130389755 	101370.6719318253
-0.8495995995995997 	300.0388567732477 	0.1125523928822785 	101370.9437714629
-0.8470970970970974 	300.0390795055291 	0.1131975811976854 	101371.2071643357
-0.8445945945945946 	300.0392950535515 	0.113821958604715 	101371.4620617213
-0.8420920920920922 	300.0395033782448 	0.1144254111711158 	101371.7084172035
-0.8395895895895897 	300.0397044410431 	0.1150078280907276 	101371.9461854468
-0.8370870870870872 	300.0398982042934 	0.115569100349801 	101372.1753217292
-0.8345845845845846 	300.0400846325867 	0.1161091254805614 	101372.3957840874
-0.8320820820820823 	300.0402636927894 	0.116627806823185 	101372.6075334475
-0.8295795795795798 	300.0404353515437 	0.1171250470430178 	101372.8105300903
-0.8270770770770772 	300.0405995750884 	0.1176007506272606 	101373.0047342093
-0.8245745745745746 	300.0407563339555 	0.1180548316358931 	101373.1901109006
-0.8220720720720721 	300.0409056010818 	0.1184872092532073 	101373.3666280903
-0.8195695695695699 	300.0410473466426 	0.1188977990188485 	101373.5342505084
-0.817067067067067 	300.0411815423366 	0.1192865214713425 	101373.692944656
-0.8145645645645651 	300.0413081670781 	0.1196533124387974 	101373.8426856125
-0.8120620620620621 	300.0414271996569 	0.1199981075767236 	101373.9834480944
-0.8095595595595597 	300.0415386124048 	0.1203208318408219 	101374.1151995056
-0.8070570570570572 	300.0416423830724 	0.1206214235659826 	101374.237913625
-0.8045545545545546 	300.0417385001428 	0.120899841937256 	101374.3515765457
-0.8020520520520523 	300.0418269457877 	0.1211560336698561 	101374.4561672847
-0.7995495495495494 	300.0419076932045 	0.1213899306491252 	101374.5516540862
-0.7970470470470474 	300.0419807283789 	0.1216014931492172 	101374.6380204473
-0.7945445445445446 	300.0420460505081 	0.1217907064688575 	101374.7152653908
-0.7920420420420423 	300.0421036437053 	0.1219575258221017 	101374.7833700119
-0.7895395395395397 	300.0421534807211 	0.1221018881130285 	101374.8423022108
-0.7870370370370371 	300.0421955591419 	0.1222237824507608 	101374.8920590338
-0.7845345345345348 	300.0422298920368 	0.122323227598912 	101374.9326559439
-0.7820320320320323 	300.0422564632612 	0.122400182188947 	101374.9640738458
-0.7795295295295296 	300.0422752418485 	0.1224545798894318 	101374.9862761433
-0.7770270270270272 	300.04228623736 	0.1224864402165961 	101374.9992741338
-0.7745245245245247 	300.0422894802048 	0.1224958198110332 	101375.0031031854
-0.7720220220220222 	300.0422849506151 	0.1224826733998218 	101374.9977404989
-0.7695195195195199 	300.0422726054157 	0.1224469171454554 	101374.9831360371
-0.767017017017017 	300.0422524686242 	0.1223886056146621 	101374.9593169105
-0.7645145145145147 	300.0422245977496 	0.122307860573004 	101374.9263511104
-0.7620120120120122 	300.0421889766561 	0.1222046466603119 	101374.8842198097
-0.7595095095095097 	300.0421455430837 	0.1220788393765411 	101374.8328494515
-0.7570070070070072 	300.0420943231686 	0.1219305070459203 	101374.7722710126
-0.7545045045045048 	300.0420354139688 	0.1217598594804712 	101374.7025992272
-0.7520020020020022 	300.0419688161311 	0.1215668948874885 	101374.6238348574
-0.7494994994994997 	300.0418944305397 	0.1213514106802996 	101374.5358604198
-0.7469969969969972 	300.041812260838 	0.1211134383979614 	101374.4386805544
-0.7444944944944945 	300.0417224565937 	0.1208533139968413 	101374.3324724041
-0.7419919919919924 	300.0416250758504 	0.1205711589776474 	101374.2173044595
-0.7394894894894897 	300.0415199797506 	0.1202666766822441 	101374.093012354
-0.7369869869869872 	300.041407094415 	0.1199397358812716 	101373.9595085579
-0.7344844844844846 	300.0412866062285 	0.1195907734706444 	101373.8170137574
-0.7319819819819822 	300.0411587018011 	0.119220200515532 	101373.6657486488
-0.7294794794794797 	300.0410232532071 	0.118827732481046 	101373.5055622564
-0.7269769769769773 	300.0408800308263 	0.1184128898999722 	101373.3361829952
-0.7244744744744747 	300.0407291527395 	0.1179759809623816 	101373.1577504787
-0.721971971971972 	300.0405709927911 	0.117517854219984 	101372.9707064753
-0.7194694694694695 	300.0404056072055 	0.1170386178594141 	101372.7751172021
-0.7169669669669674 	300.0402326148517 	0.1165374225025313 	101372.5705324986
-0.7144644644644647 	300.0400518313917 	0.1160139081397151 	101372.3567349771
-0.711961961961962 	300.039863689892 	0.1154691047191966 	101372.1342370398
-0.7094594594594597 	300.0396686812346 	0.1149041179517096 	101371.9036185187
-0.7069569569569573 	300.0394665861722 	0.1143184185605787 	101371.6646192042
-0.7044544544544545 	300.0392567543403 	0.1137105499063213 	101371.4164701418
-0.7019519519519523 	300.0390391566881 	0.1130805352768621 	101371.159138162
-0.6994494494494495 	300.0388146234772 	0.1124303423381961 	101370.893605896
-0.6969469469469471 	300.038583738884 	0.1117612897202014 	101370.6205637159
-0.6944444444444446 	300.0383459225629 	0.1110719870258625 	101370.3393245318
-0.6919419419419421 	300.0381001758461 	0.1103601541164073 	101370.0487070253
-0.6894394394394396 	300.0378466153326 	0.1096261785397979 	101369.7488498457
-0.6869369369369374 	300.0375865819767 	0.1088732612064729 	101369.441338752
-0.6844344344344344 	300.0373209271106 	0.1081033468649993 	101369.1271802402
-0.6819319319319321 	300.0370487277909 	0.107314186948978 	101368.8052828295
-0.6794294294294296 	300.0367683739101 	0.1065020217234607 	101368.4737432814
-0.6769269269269272 	300.036479826843 	0.1056669181948787 	101368.1325172566
-0.6744244244244245 	300.0361850282235 	0.1048136051123189 	101367.7839006694
-0.6719219219219222 	300.0358856188407 	0.103945944317886 	101367.4298320819
-0.6694194194194195 	300.0355807143019 	0.1030616853663594 	101367.0692635937
-0.6669169169169172 	300.03526774345 	0.1021546375961193 	101366.6991551069
-0.6644144144144146 	300.0349456496022 	0.1012224218730728 	101366.31825971
-0.661911911911912 	300.0346165862841 	0.1002704360237749 	101365.9291261273
-0.6594094094094097 	300.0342837402844 	0.09930642868351552 	101365.5355225747
-0.656906906906907 	300.0339475548487 	0.09833132291499261 	101365.1379710331
-0.6544044044044046 	300.0336048453437 	0.09733721984156449 	101364.7327040555
-0.6519019019019021 	300.033252213028 	0.09631588540611564 	101364.3157037885
-0.6493993993993996 	300.0328901468878 	0.09526876742258658 	101363.887550843
-0.6468968968968971 	300.0325230631843 	0.09420691511588057 	101363.4534680673
-0.6443943943943946 	300.0321548228366 	0.09313980001438901 	101363.0180184158
-0.6418918918918921 	300.0317843719774 	0.09206459205261755 	101362.5799521454
-0.6393893893893897 	300.0314063679829 	0.09096789543572856 	101362.1329511704
-0.6368868868868871 	300.0310165469401 	0.08983922355745393 	101361.6719769615
-0.6343843843843846 	300.0306164817254 	0.08868280541975668 	101361.1988939681
-0.6318818818818821 	300.0302126729052 	0.08751512932056704 	101360.721390674
-0.6293793793793795 	300.0298104780649 	0.08634959078741086 	101360.2457991069
-0.6268768768768773 	300.0294086637848 	0.08518283008228723 	101359.7706551255
-0.6243743743743745 	300.0289999525555 	0.08399646115290162 	101359.2874391015
-0.6218718718718721 	300.0285777597252 	0.08277355952288279 	101358.7882194855
-0.6193693693693696 	300.0281423973341 	0.08151512813016591 	101358.2733285531
-0.6168668668668671 	300.0277014446114 	0.08024110055001669 	101357.7518911567
-0.6143643643643645 	300.027263761242 	0.07897409435164686 	101357.2343509935
-0.6118618618618621 	300.0268315998981 	0.07771963136894658 	101356.723339909
-0.6093593593593596 	300.0263981901782 	0.07646005599974925 	101356.2108480106
-0.6068568568568571 	300.0259529329705 	0.07516796976228352 	101355.6843435222
-0.6043543543543546 	300.0254900525411 	0.07382862610478028 	101355.1370027824
-0.6018518518518521 	300.0250137325713 	0.07245317108013459 	101354.5737788448
-0.5993493493493496 	300.0245354926446 	0.07107174397307589 	101354.0082946775
-0.5968468468468471 	300.0240656862267 	0.06971131143056955 	101353.4527880601
-0.5943443443443446 	300.0236055830903 	0.06837500627063565 	101352.9087531612
-0.591841841841842 	300.0231459964079 	0.06703854824953664 	101352.3653225011
-0.5893393393393397 	300.0226734880526 	0.06566656684782009 	101351.8066076265
-0.5868368368368371 	300.0221797631993 	0.06423735506372845 	101351.2228072155
-0.5843343343343346 	300.0216677380641 	0.06275885928245648 	101350.6173773379
-0.5818318318318321 	300.0211501293566 	0.061264925551168 	101350.0053580282
-0.5793293293293297 	300.0206415040698 	0.05979425289260014 	101349.4039705642
-0.5768268268268271 	300.020149033909 	0.05836584250554368 	101348.8216869837
-0.5743243243243245 	300.0196678379933 	0.05696653373575594 	101348.2527285418
-0.5718218218218221 	300.0191836436188 	0.05555803976835943 	101347.680216267
-0.5693193193193196 	300.018680976256 	0.05409887350677989 	101347.0858565041
-0.5668168168168171 	300.0181520446951 	0.05256822840938311 	101346.460445202
-0.5643143143143147 	300.0176013542326 	0.05097840689065411 	101345.8093174358
-0.5618118118118121 	300.0170436164829 	0.04936922665064822 	101345.1498718265
-0.5593093093093094 	300.0164962482404 	0.04778784134479082 	101344.5026995634
-0.5568068068068072 	300.0159705808674 	0.04626497676483693 	101343.8811912146
-0.5543043043043046 	300.0154662819363 	0.04479969781255485 	101343.28494503
-0.551801801801802 	300.0149714767587 	0.04335957869501646 	101342.6999150204
-0.5492992992992995 	300.0144681112949 	0.04189523308060598 	101342.1047539949
-0.5467967967967969 	300.0139398392878 	0.04036190318984091 	101341.4801399242
-0.5442942942942947 	300.0133789797733 	0.03873859290362224 	101340.8169994611
-0.5417917917917919 	300.0127897798236 	0.03703707906543799 	101340.1203624057
-0.5392892892892895 	300.0121868727965 	0.03529773062868433 	101339.4075353284
-0.536786786786787 	300.0115897865273 	0.03357448168538783 	101338.7016066175
-0.5342842842842846 	300.0110158702186 	0.03191539552808982 	101338.0230840646
-0.531781781781782 	300.0104744020046 	0.03034628334431042 	101337.3829297266
-0.5292792792792794 	300.0099637422208 	0.02886265256250674 	101336.7791970341
-0.526776776776777 	300.0094720761292 	0.02743159911499596 	101336.1979115689
-0.5242742742742745 	300.0089810581158 	0.02600179349106857 	101335.617380926
-0.521771771771772 	300.0084708556161 	0.02451757200654269 	101335.0141588018
-0.5192692692692695 	300.0079251075471 	0.02293292402787311 	101334.3689065537
-0.516766766766767 	300.0073346831079 	0.02122215121593788 	101333.6708353898
-0.5142642642642645 	300.0066995888376 	0.01938530892335254 	101332.9199605102
-0.511761761761762 	300.0060288484191 	0.01744790624761011 	101332.1269564105
-0.5092592592592596 	300.0053385949859 	0.01545555960835046 	101331.3109007371
-0.506756756756757 	300.0046489547327 	0.01346525215234898 	101330.4955892066
-0.5042542542542544 	300.0039805186059 	0.01153552245743618 	101329.7053638294
-0.5017517517517521 	300.0033513710761 	0.009718166364849942 	101328.9616016652
-0.4992492492492494 	300.0027753594629 	0.008053113325543379 	101328.2806693082
-0.496746746746747 	300.0022614606572 	0.006566434959416569 	101327.6731750798
-0.4942442442442445 	300.0018139117079 	0.005270624262633729 	101327.1441240162
-0.4917417417417421 	300.0014328378587 	0.004166337870508466 	101326.6936607473
-0.4892392392392395 	300.0011151465993 	0.003244926661876895 	101326.3181267698
-0.486736736736737 	300.0008554987239 	0.002491208313057178 	101326.0112083369
-0.4842342342342345 	300.0006472208897 	0.001886088228796015 	101325.7650152499
-0.481731731731732 	300.0004830784814 	0.001408788916911763 	101325.5709940763
-0.4792292292292296 	300.0003558708546 	0.001038577470619288 	101325.4206326023
-0.4767267267267268 	300.0002588485111 	0.0007559784820467929 	101325.3059518404
-0.4742242242242246 	300.0001859679081 	0.0005435222938578927 	101325.2198073493
-0.471721721721722 	300.0001320141898 	0.0003861126659173755 	101325.1560349736
-0.4692192192192195 	300.0000926269261 	0.0002711082112403477 	101325.109480225
-0.4667167167167169 	300.0000642573658 	0.0001882082790508264 	101325.0759484634
-0.4642142142142145 	300.0000440866918 	0.0001292201810806859 	101325.0521074892
-0.461711711711712 	300.0000299233926 	8.776854343226737e-05 	101325.0353671868
-0.4592092092092094 	300.0000200977805 	5.899010580421693e-05 	101325.0237539041
-0.456706706706707 	300.0000133607188 	3.924281096150947e-05 	101325.0157911015
-0.4542042042042045 	300.0000087932684 	2.584548923367406e-05 	101325.0103928807
-0.451701701701702 	300.0000057308627 	1.685586891658601e-05 	101325.0067733481
-0.4491991991991995 	300.0000036993429 	1.08880972320831e-05 	101325.0043722769
-0.4466966966966969 	300.0000023656477 	6.967485066490995e-06 	101325.002795999
-0.4441941941941945 	300.0000014990014 	4.417806471946344e-06 	101325.0017716395
-0.441691691691692 	300.0000009412639 	2.776037415115805e-06 	101325.0011125062
-0.4391891891891895 	300.0000005858944 	1.729043704801557e-06 	101325.0006924593
-0.436686686686687 	300.0000003615131 	1.067643600689807e-06 	101325.0004272909
-0.4341841841841846 	300.0000002212082 	6.536549120289488e-07 	101325.0002614322
-0.431681681681682 	300.0000001341637 	3.968739837712995e-07 	101325.0001586231
-0.4291791791791794 	300.0000000806716 	2.389929644055015e-07 	101325.000095457
-0.426676676676677 	300.0000000481232 	1.427690935071946e-07 	101325.0000569821
-0.4241741741741744 	300.0000000285222 	8.460984990520253e-08 	101325.0000337453
-0.421671671671672 	300.0000000167936 	4.97584784941255e-08 	101325.0000198278
-0.4191691691691694 	300.0000000098461 	2.903667285074095e-08 	101325.0000115601
-0.4166666666666669 	300.0000000057346 	1.682139128298531e-08 	101325.0000066875
-0.4141641641641645 	300.000000003179 	9.670522214318166e-09 	101325.0000038387
-0.411661661661662 	300.0000000018653 	5.521797568073866e-09 	101325.0000021857
-0.4091591591591594 	300.0000000010522 	3.128141159069488e-09 	101325.0000012338
-0.406656656656657 	300.0000000005171 	1.761832150149279e-09 	101325.0000006894
-0.4041541541541545 	300.0000000003469 	9.828493565276217e-10 	101325.0000003803
-0.401651651651652 	300.0000000000904 	5.482820584442889e-10 	101325.0000002061
-0.3991491491491494 	300.000000000095 	2.985441160148217e-10 	101325.0000001085
-0.396646646646647 	300.0000000000018 	1.668180804707188e-10 	101325.0000000549
-0.3941441441441444 	300.0000000000001 	8.706403419885274e-11 	101325.0000000252
-0.3916416416416419 	299.9999999999374 	5.033939441146497e-11 	101325.000000009
-0.3891391391391395 	299.9999999999584 	2.425462865345237e-11 	101325.0000000005
-0.3866366366366368 	299.999999999956 	1.489688192689825e-11 	101324.9999999958
-0.3841341341341344 	300.0000000000013 	6.447380342675459e-12 	101324.9999999934
-0.381631631631632 	299.9999999999465 	4.581499311408321e-12 	101324.9999999919
-0.3791291291291294 	300.0000000000055 	1.787990847821391e-12 	101324.9999999911
-0.3766266266266269 	300.000000000022 	1.227972741403077e-12 	101324.9999999903
-0.3741241241241244 	300.0000000000268 	2.085474539427247e-12 	101324.9999999898
-0.371621621621622 	300.0000000000194 	9.391012129438095e-13 	101324.9999999895
-0.3691191191191194 	300.0000000000032 	3.31302824113186e-12 	101324.9999999895
-0.366616616616617 	300.0000000000092 	1.191825137068796e-12 	101324.9999999895
-0.3641141141141143 	299.9999999999548 	2.92935281442096e-12 	101324.9999999895
-0.3616116116116119 	299.9999999999361 	1.050677821195936e-12 	101324.9999999896
-0.3591091091091095 	299.9999999999858 	2.544883943591696e-12 	101324.9999999898
-0.356606606606607 	299.9999999999733 	2.070786531830193e-12 	101324.9999999899
-0.3541041041041044 	299.9999999999779 	1.843394597604371e-12 	101324.99999999
-0.3516016016016019 	299.999999999999 	2.742054627776844e-12 	101324.9999999902
-0.3490990990990994 	299.9999999999829 	1.730912601845959e-12 	101324.99999999
-0.346596596596597 	300.0000000000496 	4.448571193821228e-12 	101324.9999999902
-0.3440940940940944 	300.0000000000607 	1.448069631434841e-12 	101324.9999999904
-0.3415915915915919 	300.0000000000196 	3.561568892287597e-12 	101324.9999999906
-0.3390890890890895 	299.999999999974 	9.488962913526608e-13 	101324.9999999908
-0.3365865865865869 	300.0000000000231 	2.352792860185412e-12 	101324.9999999907
-0.3340840840840844 	300.0000000000091 	7.740176310421804e-13 	101324.9999999908
-0.3315815815815819 	300.0000000000284 	2.241249431581577e-12 	101324.9999999912
-0.3290790790790794 	300.0000000000189 	1.229624511425673e-12 	101324.9999999913
-0.3265765765765769 	299.9999999999178 	3.238558288247081e-12 	101324.9999999911
-0.3240740740740744 	299.9999999999934 	1.385234826169416e-12 	101324.9999999908
-0.3215715715715718 	300.0000000000069 	3.874768625941776e-12 	101324.9999999908
-0.3190690690690695 	299.9999999999143 	1.566871035727845e-12 	101324.9999999905
-0.3165665665665668 	299.9999999999905 	3.883446285497861e-12 	101324.9999999907
-0.3140640640640644 	300.0000000000051 	7.047616888018705e-13 	101324.9999999907
-0.311561561561562 	299.9999999999141 	4.676297086752636e-12 	101324.9999999909
-0.3090590590590593 	299.9999999999926 	1.651000648919474e-12 	101324.9999999908
-0.3065565565565568 	300.0000000000027 	6.105819926317146e-12 	101324.9999999909
-0.3040540540540545 	300.0000000000233 	1.716084899349794e-12 	101324.9999999908
-0.3015515515515518 	300.0000000000438 	6.532685977886051e-12 	101324.9999999908
-0.2990490490490494 	299.9999999999356 	2.421437589201268e-12 	101324.9999999911
-0.2965465465465469 	299.9999999999804 	4.941939076637577e-12 	101324.9999999913
-0.2940440440440444 	300.0000000000004 	2.431817742200482e-12 	101324.9999999911
-0.2915415415415418 	299.9999999999982 	2.87940815738879e-12 	101324.999999991
-0.2890390390390395 	299.9999999999985 	1.926218479899423e-12 	101324.9999999911
-0.2865365365365368 	299.9999999999758 	1.20588651372242e-12 	101324.9999999912
-0.2840340340340343 	300.000000000004 	2.236396241714647e-12 	101324.9999999913
-0.2815315315315318 	299.9999999999173 	5.998871606209686e-13 	101324.9999999915
-0.2790290290290295 	299.9999999999554 	1.74881218334442e-12 	101324.9999999916
-0.2765265265265269 	300.0000000000183 	1.001051633558712e-12 	101324.9999999916
-0.2740240240240244 	300.000000000037 	1.446086882294912e-12 	101324.9999999915
-0.2715215215215219 	300.0000000000192 	1.578417132318129e-12 	101324.9999999914
-0.2690190190190194 	299.9999999999368 	1.3341067312253e-12 	101324.9999999911
-0.2665165165165169 	299.9999999999985 	2.040892024953927e-12 	101324.9999999908
-0.2640140140140144 	299.9999999999633 	1.372545823074389e-12 	101324.9999999907
-0.2615115115115119 	299.9999999999997 	3.258305860609118e-12 	101324.9999999903
-0.2590090090090094 	299.9999999999249 	1.80613529793081e-12 	101324.9999999903
-0.2565065065065068 	299.9999999999964 	2.217686125395485e-12 	101324.9999999903
-0.2540040040040044 	300.0000000000046 	2.363875910886595e-12 	101324.9999999906
-0.2515015015015019 	300.0000000000485 	1.981780323821133e-12 	101324.9999999908
-0.2489989989989994 	300.0000000000561 	4.317102197576082e-12 	101324.9999999905
-0.2464964964964968 	299.9999999999932 	1.371505573070738e-12 	101324.9999999901
-0.2439939939939944 	299.9999999999986 	5.73396441874432e-12 	101324.9999999902
-0.2414914914914919 	299.9999999999739 	1.817017659060476e-12 	101324.9999999902
-0.2389889889889893 	300.000000000005 	6.792422093316521e-12 	101324.9999999903
-0.2364864864864869 	300.0000000000244 	2.864420323257293e-12 	101324.9999999906
-0.2339839839839843 	299.9999999999162 	7.400792923117545e-12 	101324.9999999903
-0.2314814814814819 	299.9999999999783 	2.655313645555371e-12 	101324.9999999904
-0.2289789789789792 	299.9999999999118 	5.906572516676117e-12 	101324.9999999905
-0.2264764764764769 	299.9999999999386 	2.351895669926357e-12 	101324.9999999907
-0.2239739739739743 	299.9999999999499 	3.8458545369429e-12 	101324.9999999908
-0.2214714714714718 	299.9999999999275 	2.642023005191241e-12 	101324.999999991
-0.2189689689689693 	299.9999999999658 	2.516177723170263e-12 	101324.9999999911
-0.2164664664664669 	299.9999999999775 	3.89369779474874e-12 	101324.999999991
-0.2139639639639643 	299.9999999999177 	2.435563265413546e-12 	101324.999999991
-0.2114614614614618 	299.9999999999689 	3.082836172472559e-12 	101324.999999991
-0.2089589589589593 	299.9999999999937 	3.435320569453869e-12 	101324.999999991
-0.2064564564564568 	299.9999999999922 	3.943314189287828e-12 	101324.999999991
-0.2039539539539543 	299.999999999892 	5.392506914874308e-12 	101324.9999999913
-0.2014514514514518 	299.9999999999472 	2.607930998219286e-12 	101324.9999999909
-0.1989489489489494 	299.9999999999746 	5.401246412783767e-12 	101324.9999999907
-0.1964464464464468 	299.9999999999918 	1.428763458372995e-12 	101324.9999999905
-0.1939439439439443 	299.9999999999858 	4.542400537356973e-12 	101324.9999999909
-0.1914414414414418 	299.9999999999075 	1.764045202219148e-12 	101324.9999999906
-0.1889389389389393 	300.0000000000056 	3.892271736321404e-12 	101324.9999999908
-0.1864364364364368 	300.0000000000463 	2.239498516244637e-12 	101324.9999999908
-0.1839339339339343 	299.9999999999695 	4.380267291462979e-12 	101324.9999999913
-0.1814314314314318 	299.9999999999965 	2.822851039156987e-12 	101324.9999999913
-0.1789289289289293 	299.9999999998913 	5.001611434793472e-12 	101324.999999991
-0.1764264264264268 	299.9999999999752 	2.025255607386927e-12 	101324.9999999906
-0.1739239239239243 	299.9999999998806 	6.583078305359287e-12 	101324.9999999905
-0.1714214214214218 	299.999999999988 	1.642065714959831e-12 	101324.9999999904
-0.1689189189189193 	299.9999999999461 	6.899166872151613e-12 	101324.9999999903
-0.1664164164164168 	300.0000000000064 	8.880606087681699e-13 	101324.9999999903
-0.1639139139139143 	299.9999999999885 	8.384701206728398e-12 	101324.9999999903
-0.1614114114114118 	300.0000000000337 	1.881615648655994e-12 	101324.99999999
-0.1589089089089093 	300.0000000000019 	9.841266962559957e-12 	101324.9999999897
-0.1564064064064068 	299.9999999999827 	2.641369613105143e-12 	101324.9999999894
-0.1539039039039043 	299.9999999999903 	1.083176783965219e-11 	101324.9999999892
-0.1514014014014018 	300.0000000000294 	1.889775704609763e-12 	101324.9999999895
-0.1488988988988993 	299.9999999999924 	1.011746839635178e-11 	101324.9999999895
-0.1463963963963968 	299.9999999999993 	7.765077949792522e-13 	101324.9999999896
-0.1438938938938943 	299.9999999999432 	8.612539622911218e-12 	101324.9999999899
-0.1413913913913918 	299.9999999999137 	6.799084517262477e-13 	101324.99999999
-0.1388888888888893 	299.9999999999765 	5.572636335923258e-12 	101324.9999999899
-0.1363863863863868 	299.9999999998722 	8.472999729523443e-13 	101324.9999999899
-0.1338838838838843 	299.9999999999091 	2.891226143971882e-12 	101324.9999999902
-0.1313813813813818 	299.9999999999913 	1.669833924979335e-12 	101324.9999999902
-0.1288788788788793 	299.9999999999611 	2.292452013254024e-12 	101324.9999999903
-0.1263763763763768 	299.9999999999656 	1.954527527925116e-12 	101324.9999999902
-0.1238738738738743 	299.9999999999182 	2.207837905660682e-12 	101324.9999999904
-0.1213713713713717 	299.9999999999729 	2.197566972661712e-12 	101324.9999999904
-0.1188688688688693 	300.0000000000051 	3.617477942476711e-12 	101324.9999999905
-0.1163663663663668 	299.9999999998929 	1.95508690606227e-12 	101324.9999999906
-0.1138638638638643 	299.9999999999908 	4.065942292030344e-12 	101324.9999999904
-0.1113613613613618 	299.9999999999865 	2.552272474447544e-12 	101324.9999999904
-0.1088588588588592 	299.9999999999745 	4.709885848445154e-12 	101324.9999999903
-0.1063563563563568 	299.9999999999432 	1.783119941520453e-12 	101324.9999999902
-0.1038538538538543 	299.9999999999681 	4.740396397278345e-12 	101324.9999999904
-0.1013513513513517 	300.0000000000165 	7.490356990784094e-13 	101324.9999999903
-0.09884884884884926 	299.9999999999344 	4.941958959338219e-12 	101324.99999999
-0.09634634634634676 	299.9999999998763 	1.705749735377533e-12 	101324.9999999898
-0.09384384384384425 	299.9999999999195 	3.973418944277475e-12 	101324.9999999896
-0.09134134134134177 	300.0000000000297 	1.499308302573049e-12 	101324.9999999894
-0.08883883883883925 	300.0000000000046 	3.302125970537971e-12 	101324.9999999892
-0.08633633633633674 	299.9999999999522 	1.827803281404885e-12 	101324.9999999894
-0.08383383383383426 	300.0000000000089 	2.535996989953232e-12 	101324.9999999893
-0.08133133133133173 	299.9999999999583 	2.529010166815226e-12 	101324.9999999893
-0.07882882882882926 	299.9999999998664 	2.345881746523426e-12 	101324.9999999895
-0.07632632632632676 	299.9999999999501 	1.301797870886954e-12 	101324.9999999894
-0.07382382382382424 	299.9999999998775 	4.161494250740526e-13 	101324.9999999897
-0.07132132132132173 	300.000000000014 	9.744018907814592e-14 	101324.9999999899
-0.06881881881881925 	299.9999999999531 	9.084964061051882e-14 	101324.9999999898
-0.06631631631631671 	299.9999999998816 	1.94370800337478e-13 	101324.9999999899
-0.06381381381381425 	299.9999999999501 	5.552049141976386e-14 	101324.99999999
-0.06131131131131173 	299.9999999999528 	2.686718727013847e-13 	101324.9999999898
-0.05880880880880923 	299.9999999998997 	3.853801313338224e-13 	101324.9999999899
-0.05630630630630672 	299.9999999999618 	1.117851084646164e-13 	101324.99999999
-0.05380380380380424 	300.0000000000193 	1.059598950060752e-12 	101324.9999999901
-0.05130130130130173 	300.0000000000131 	1.706761512731774e-12 	101324.9999999899
-0.04879879879879922 	299.9999999999346 	1.946526745748845e-12 	101324.9999999895
-0.04629629629629672 	299.9999999999237 	1.517366483993384e-12 	101324.9999999895
-0.04379379379379422 	299.9999999999055 	2.119482733869308e-12 	101324.9999999896
-0.04129129129129173 	299.9999999999783 	1.285901034443207e-12 	101324.9999999896
-0.03878878878878922 	299.9999999999832 	1.530944842888635e-12 	101324.9999999896
-0.03628628628628671 	299.999999999981 	1.409903972343836e-12 	101324.9999999898
-0.03378378378378422 	299.9999999999084 	1.970937783991579e-12 	101324.9999999897
-0.03128128128128172 	299.9999999999587 	1.143598933919958e-12 	101324.9999999896
-0.02877877877877922 	299.9999999999591 	1.614156462726967e-12 	101324.9999999894
-0.0262762762762767 	299.9999999998894 	4.587895851873877e-13 	101324.9999999899
-0.02377377377377422 	300.0000000000252 	5.561020030164274e-13 	101324.99999999
-0.0212712712712717 	299.9999999998905 	4.666508223629441e-13 	101324.99999999
-0.01876876876876921 	299.9999999999644 	8.117652864142893e-14 	101324.99999999
-0.01626626626626671 	300.0000000000177 	8.310779233978311e-13 	101324.99999999
-0.0137637637637642 	299.9999999999588 	3.907802086917755e-13 	101324.99999999
-0.0112612612612617 	300.0000000000209 	4.047204429612428e-13 	101324.9999999902
-0.008758758758759198 	299.9999999999907 	4.527108949436186e-13 	101324.9999999903
-0.006256256256256697 	299.9999999998688 	1.859948922050943e-13 	101324.9999999903
-0.003753753753754195 	299.9999999999508 	9.994103860085973e-13 	101324.9999999902
-0.001251251251251693 	299.9999999999206 	1.323040693793128e-12 	101324.9999999904
0.00125125125125081 	299.9999999999528 	1.217839100263204e-12 	101324.9999999904
0.003753753753753312 	299.9999999999576 	5.499961154075884e-13 	101324.9999999909
0.006256256256255817 	299.999999999875 	1.255724613762317e-12 	101324.9999999908
0.008758758758758317 	299.9999999999856 	1.261277301825559e-12 	101324.999999991
0.01126126126126082 	300.0000000000065 	9.465556661419293e-13 	101324.9999999909
0.01376376376376332 	299.999999999967 	6.452242890442627e-13 	101324.9999999908
0.01626626626626582 	300.0000000000146 	4.808444069385509e-13 	101324.9999999909
0.01876876876876833 	299.9999999999504 	4.310436807743538e-14 	101324.9999999905
0.02127127127127083 	299.9999999999602 	4.237991645618948e-13 	101324.9999999904
0.02377377377377332 	299.9999999999969 	8.881561044827333e-13 	101324.9999999903
0.02627627627627583 	299.9999999998843 	8.960066848456289e-13 	101324.9999999901
0.02877877877877833 	300.0000000000101 	1.209283835560921e-12 	101324.9999999905
0.03128128128128083 	299.9999999999397 	3.54694092788764e-13 	101324.9999999905
0.03378378378378333 	299.9999999998882 	1.70818744359549e-12 	101324.9999999907
0.03628628628628584 	299.9999999999638 	1.162447831246995e-12 	101324.9999999909
0.03878878878878834 	299.9999999999794 	8.714919243664618e-13 	101324.9999999906
0.04129129129129084 	299.9999999999768 	8.549153262664762e-13 	101324.9999999905
0.04379379379379333 	299.9999999999392 	1.210995069286447e-12 	101324.9999999903
0.04629629629629585 	299.9999999998712 	6.78664049299215e-13 	101324.9999999902
0.04879879879879834 	299.9999999999503 	1.27970039176118e-12 	101324.9999999902
0.05130130130130085 	300.0000000000153 	1.124799565218255e-12 	101324.9999999902
0.05380380380380335 	300.0000000000242 	1.194495915132566e-12 	101324.9999999901
0.05630630630630584 	299.9999999999952 	8.758439738742413e-13 	101324.9999999902
0.05880880880880836 	299.9999999999097 	1.651709199751746e-12 	101324.9999999902
0.06131131131131085 	299.9999999999643 	1.899902704933821e-12 	101324.9999999903
0.06381381381381336 	299.9999999999545 	2.684613987563763e-12 	101324.9999999904
0.06631631631631586 	299.9999999998748 	2.629464286881738e-12 	101324.9999999906
0.06881881881881835 	299.9999999999495 	2.836864712397904e-12 	101324.9999999905
0.07132132132132088 	299.9999999999825 	2.146780329656184e-12 	101324.9999999908
0.07382382382382337 	299.9999999998826 	1.885443866249656e-12 	101324.9999999905
0.07632632632632587 	299.9999999999704 	1.367297382832038e-12 	101324.9999999906
0.07882882882882837 	299.9999999999297 	1.190425940418726e-12 	101324.9999999907
0.08133133133133086 	299.999999999979 	1.066468678724385e-12 	101324.9999999909
0.08383383383383337 	299.9999999999839 	3.239733413231356e-13 	101324.9999999909
0.08633633633633589 	299.9999999998913 	4.764643790689687e-13 	101324.9999999912
0.08883883883883838 	300.0000000000055 	7.214602643018202e-13 	101324.999999991
0.09134134134134086 	299.9999999999731 	9.522741580558733e-13 	101324.9999999907
0.09384384384384339 	299.9999999998766 	2.296050623126516e-12 	101324.9999999906
0.09634634634634588 	299.9999999999567 	2.762437366241779e-12 	101324.9999999905
0.09884884884884838 	299.9999999999737 	2.743989603576338e-12 	101324.9999999904
0.1013513513513509 	300.0000000000224 	2.242603870487133e-12 	101324.9999999906
0.1038538538538534 	299.9999999999536 	1.881106520127988e-12 	101324.9999999906
0.1063563563563559 	300.0000000000085 	1.654325006493476e-12 	101324.9999999906
0.1088588588588584 	300.0000000000295 	1.424434594578374e-12 	101324.9999999906
0.1113613613613609 	299.9999999999094 	1.384927854521257e-12 	101324.9999999906
0.1138638638638634 	299.9999999999393 	1.701163418262998e-12 	101324.9999999904
0.1163663663663659 	299.9999999999407 	2.242429194524694e-12 	101324.9999999906
0.1188688688688684 	299.9999999999718 	2.773575726048022e-12 	101324.9999999902
0.1213713713713709 	299.9999999999967 	2.136793225623516e-12 	101324.9999999903
0.1238738738738734 	299.9999999999175 	2.452775733000921e-12 	101324.9999999905
0.1263763763763759 	299.9999999999805 	1.888160450209632e-12 	101324.9999999903
0.1288788788788784 	299.9999999999833 	1.331871027772944e-12 	101324.9999999903
0.1313813813813809 	299.9999999999772 	6.592449956758491e-13 	101324.9999999901
0.1338838838838834 	299.9999999999715 	1.384078623999212e-12 	101324.9999999901
0.1363863863863859 	300.0000000000197 	1.405724407063798e-12 	101324.9999999899
0.1388888888888884 	300.0000000000546 	2.655398735857138e-12 	101324.9999999898
0.1413913913913909 	300.0000000000045 	1.624439221846816e-12 	101324.9999999897
0.1438938938938934 	299.9999999999943 	2.026024975984167e-12 	101324.9999999897
0.1463963963963959 	299.9999999999496 	2.957626379052406e-13 	101324.9999999895
0.1488988988988985 	299.9999999999003 	1.735653569490831e-12 	101324.9999999895
0.1514014014014009 	299.9999999999665 	9.49572790619399e-13 	101324.9999999895
0.1539039039039035 	299.9999999999624 	1.259491274887856e-12 	101324.9999999897
0.1564064064064059 	299.999999999915 	1.87092303598372e-12 	101324.9999999897
0.1589089089089084 	299.9999999999698 	1.939161904106691e-12 	101324.99999999
0.1614114114114109 	299.9999999999639 	9.256990346192109e-13 	101324.9999999901
0.1639139139139134 	299.9999999998974 	1.553829713298805e-12 	101324.9999999901
0.166416416416416 	300.0000000000075 	4.493123684162904e-13 	101324.9999999901
0.1689189189189185 	300.0000000000356 	7.801000588159455e-13 	101324.9999999898
0.1714214214214209 	300.0000000000022 	1.240065608242997e-12 	101324.9999999892
0.1739239239239235 	299.999999999988 	1.707760433983347e-13 	101324.9999999895
0.1764264264264259 	299.9999999999666 	2.01604982953654e-12 	101324.9999999896
0.1789289289289284 	300.0000000000057 	7.186009822962689e-13 	101324.9999999897
0.181431431431431 	299.9999999999548 	3.774915625510086e-12 	101324.9999999897
0.1839339339339334 	299.9999999999604 	2.761485736512729e-12 	101324.9999999897
0.186436436436436 	299.9999999999225 	4.805051853955739e-12 	101324.9999999899
0.1889389389389385 	299.9999999999742 	4.312618766715018e-12 	101324.9999999899
0.191441441441441 	299.9999999999714 	4.326351687104019e-12 	101324.9999999901
0.1939439439439434 	299.9999999999056 	5.282169050454206e-12 	101324.9999999901
0.196446446446446 	299.9999999999401 	3.468116326123361e-12 	101324.9999999905
0.1989489489489485 	299.9999999999558 	5.280530026386146e-12 	101324.9999999902
0.2014514514514509 	299.999999999982 	3.33955411853993e-12 	101324.9999999902
0.2039539539539535 	299.9999999999924 	4.56886615642782e-12 	101324.9999999902
0.2064564564564559 	299.9999999999488 	3.544983877752588e-12 	101324.9999999903
0.2089589589589585 	299.9999999999853 	3.875561759810143e-12 	101324.9999999901
0.211461461461461 	299.9999999999136 	3.500447976102666e-12 	101324.99999999
0.2139639639639635 	299.9999999999698 	2.488418654242937e-12 	101324.9999999899
0.2164664664664659 	300.0000000000019 	3.218808975151149e-12 	101324.9999999897
0.2189689689689684 	300.000000000002 	7.440647666053563e-13 	101324.9999999897
0.221471471471471 	299.999999999995 	3.136935186263283e-12 	101324.9999999898
0.2239739739739735 	299.9999999999516 	1.38111537753586e-12 	101324.9999999899
0.226476476476476 	299.9999999999737 	3.054803738457467e-12 	101324.99999999
0.2289789789789785 	299.9999999999914 	1.565474902390012e-12 	101324.99999999
0.231481481481481 	299.999999999988 	1.99224166032609e-12 	101324.9999999898
0.2339839839839835 	299.9999999999839 	2.306203145404937e-12 	101324.9999999898
0.236486486486486 	300.0000000000308 	1.805240065990527e-12 	101324.9999999896
0.2389889889889885 	300.0000000000077 	2.798288852919017e-12 	101324.9999999895
0.241491491491491 	299.9999999999059 	5.836163298107988e-13 	101324.9999999894
0.2439939939939935 	299.9999999999765 	2.994942809092451e-12 	101324.9999999893
0.246496496496496 	299.9999999999885 	9.208143690098836e-13 	101324.9999999894
0.2489989989989985 	300.0000000000413 	2.408593513193179e-12 	101324.9999999896
0.251501501501501 	300.0000000000363 	1.194918385985989e-12 	101324.9999999897
0.2540040040040035 	299.999999999994 	1.125839106402038e-12 	101324.9999999897
0.256506506506506 	300.0000000000343 	1.792852590259074e-12 	101324.99999999
0.2590090090090086 	299.9999999999039 	5.17600831132505e-13 	101324.9999999901
0.261511511511511 	300.0000000000013 	2.576758271312448e-12 	101324.9999999899
0.2640140140140135 	299.9999999999906 	8.43839952934374e-13 	101324.9999999899
0.2665165165165161 	299.9999999999174 	9.813421426924512e-13 	101324.9999999897
0.2690190190190185 	300.000000000019 	1.175934975347511e-13 	101324.9999999897
0.271521521521521 	300.0000000000238 	5.190733278870836e-13 	101324.9999999898
0.2740240240240235 	300.0000000000265 	1.210321893088073e-12 	101324.9999999898
0.276526526526526 	300.0000000000163 	6.311802458584073e-13 	101324.9999999898
0.2790290290290286 	299.9999999999339 	1.738448931102607e-12 	101324.9999999899
0.281531531531531 	299.9999999999224 	7.733623743183892e-13 	101324.99999999
0.2840340340340335 	299.9999999999824 	2.729142004651681e-12 	101324.99999999
0.2865365365365361 	299.9999999999545 	1.763443444098735e-12 	101324.9999999897
0.2890390390390385 	299.9999999999981 	2.09491812586121e-12 	101324.9999999895
0.291541541541541 	299.9999999999975 	2.108883734636639e-12 	101324.9999999893
0.2940440440440436 	299.9999999999906 	1.852462489123024e-12 	101324.9999999894
0.296546546546546 	299.9999999999915 	4.209700861784667e-12 	101324.999999989
0.2990490490490486 	299.9999999999272 	2.036222702224978e-12 	101324.9999999889
0.3015515515515511 	300.000000000041 	5.642857460542794e-12 	101324.9999999886
0.3040540540540535 	299.9999999999985 	1.404035185462386e-12 	101324.9999999888
0.3065565565565562 	299.9999999999979 	6.321962492822514e-12 	101324.9999999887
0.3090590590590585 	299.9999999999897 	1.09411217469391e-12 	101324.9999999889
0.3115615615615611 	299.9999999999336 	5.136406800324532e-12 	101324.9999999888
0.3140640640640635 	300.0000000000097 	1.163532922310412e-12 	101324.9999999888
0.316566566566566 	299.9999999999989 	4.072388900403424e-12 	101324.9999999891
0.3190690690690687 	299.9999999999457 	8.339527415967371e-13 	101324.9999999894
0.3215715715715711 	300.0000000000136 	3.508181577162609e-12 	101324.9999999897
0.3240740740740735 	299.9999999999947 	8.105921867831352e-13 	101324.9999999895
0.326576576576576 	299.9999999998864 	2.513569988860132e-12 	101324.9999999894
0.3290790790790786 	300.0000000000142 	7.316516334204946e-13 	101324.9999999895
0.3315815815815811 	300.0000000000421 	2.211486958110401e-12 	101324.9999999894
0.3340840840840836 	299.9999999999836 	6.274473816746619e-13 	101324.9999999896
0.3365865865865861 	300.0000000000606 	1.504752671718065e-12 	101324.9999999898
0.3390890890890886 	300.0000000000543 	7.00607973962013e-13 	101324.9999999898
0.3415915915915911 	300.0000000000027 	8.622326749969786e-13 	101324.9999999895
0.3440940940940935 	299.9999999999513 	1.318444864829738e-12 	101324.9999999893
0.3465965965965962 	300.0000000000395 	8.297646530927539e-13 	101324.9999999892
0.3490990990990985 	300.0000000000314 	1.124602620013807e-12 	101324.9999999891
0.3516016016016011 	299.9999999999903 	2.654156723314585e-13 	101324.9999999892
0.3541041041041035 	300.000000000008 	3.006199744919207e-13 	101324.9999999891
0.3566066066066061 	299.9999999999524 	7.030334000772105e-13 	101324.9999999894
0.3591091091091085 	299.9999999999116 	1.310090431638199e-12 	101324.9999999896
0.3616116116116112 	299.9999999999357 	1.389459453948108e-12 	101324.9999999899
0.3641141141141137 	299.9999999999268 	1.92095762568341e-12 	101324.9999999902
0.3666166166166161 	299.999999999916 	2.697815170175726e-12 	101324.9999999904
0.3691191191191185 	300.0000000000438 	2.569668698465877e-12 	101324.9999999903
0.371621621621621 	300.0000000000165 	3.080759021042911e-12 	101324.99999999
0.3741241241241237 	300.0000000000591 	1.354189528570164e-12 	101324.9999999899
0.3766266266266261 	300.0000000000355 	2.885250035891034e-12 	101324.9999999896
0.3791291291291286 	299.9999999999832 	5.994345765336837e-13 	101324.9999999894
0.3816316316316311 	299.9999999999087 	2.224039820007244e-12 	101324.9999999893
0.3841341341341336 	300.0000000000173 	1.143899171958147e-12 	101324.9999999893
0.3866366366366362 	300.0000000000015 	2.052566864839421e-12 	101324.9999999891
0.3891391391391387 	299.9999999999567 	4.04805127271899e-13 	101324.9999999892
0.391641641641641 	299.9999999999964 	1.660445072132689e-12 	101324.9999999892
0.3941441441441436 	300.0000000000088 	5.704967375789531e-13 	101324.9999999895
0.3966466466466462 	299.9999999999989 	1.669232032937378e-12 	101324.9999999897
0.3991491491491486 	299.9999999999415 	5.353078996488735e-13 	101324.9999999897
0.4016516516516512 	299.9999999999038 	1.910431419465248e-12 	101324.9999999899
0.4041541541541536 	299.9999999999459 	7.402610722924132e-13 	101324.99999999
0.4066566566566561 	299.9999999999393 	2.794055786903495e-12 	101324.9999999901
0.4091591591591587 	299.9999999999798 	1.760266551994164e-12 	101324.9999999902
0.4116616616616612 	299.9999999999928 	2.952366607372804e-12 	101324.99999999
0.4141641641641635 	300.0000000000525 	2.332434600723497e-12 	101324.9999999901
0.4166666666666662 	299.9999999999984 	2.338001204722776e-12 	101324.9999999899
0.4191691691691687 	299.999999999937 	2.905953918920561e-12 	101324.99999999
0.421671671671671 	300.0000000000151 	1.108252676312817e-12 	101324.9999999899
0.4241741741741737 	299.9999999999792 	3.314223754538949e-12 	101324.99999999
0.4266766766766761 	299.9999999999507 	2.737239935401103e-12 	101324.9999999898
0.4291791791791785 	300.0000000000239 	3.461719707958381e-12 	101324.9999999899
0.4316816816816812 	300.0000000000174 	2.620382914192189e-12 	101324.9999999898
0.4341841841841836 	299.9999999999865 	4.136737872621506e-12 	101324.9999999897
0.4366866866866862 	299.99999999991 	8.707325869618511e-13 	101324.9999999899
0.4391891891891885 	299.9999999999835 	3.508191734703421e-12 	101324.99999999
0.4416916916916913 	299.999999999976 	1.122690668038258e-12 	101324.99999999
0.4441941941941936 	299.999999999986 	3.101907526293378e-12 	101324.9999999899
0.4466966966966961 	299.9999999999055 	1.13494669747723e-12 	101324.9999999896
0.4491991991991987 	299.9999999999746 	1.645798613290223e-12 	101324.9999999893
0.4517017017017012 	299.9999999999742 	5.184091448108473e-13 	101324.9999999894
0.4542042042042035 	299.9999999999922 	7.594611487057251e-14 	101324.9999999892
0.4567067067067062 	299.9999999999925 	9.818703484233235e-14 	101324.9999999892
0.4592092092092087 	299.9999999999178 	4.512715642932339e-13 	101324.9999999894
0.4617117117117112 	300.0000000000205 	4.510815351011649e-13 	101324.9999999894
0.4642142142142137 	299.9999999999565 	7.486486667497676e-13 	101324.9999999895
0.4667167167167162 	299.999999999986 	5.185621526220498e-13 	101324.9999999898
0.4692192192192187 	299.9999999999511 	4.714741653411079e-14 	101324.9999999898
0.4717217217217212 	300.0000000000146 	2.145044721974173e-13 	101324.9999999897
0.4742242242242236 	299.9999999999506 	4.527077657166663e-13 	101324.9999999895
0.4767267267267262 	299.9999999999728 	5.524388095494636e-13 	101324.9999999894
0.4792292292292287 	300.0000000000164 	5.59668533863884e-13 	101324.9999999896
0.4817317317317312 	300.000000000033 	3.842972090302734e-13 	101324.9999999898
0.4842342342342336 	299.9999999999867 	3.3949925269483e-13 	101324.99999999
0.4867367367367362 	299.99999999995 	9.728987187970022e-13 	101324.9999999903
0.4892392392392387 	300.0000000000305 	1.143829284145668e-12 	101324.9999999905
0.4917417417417412 	300.0000000000085 	9.007619313579877e-13 	101324.9999999904
0.4942442442442437 	299.9999999999039 	1.30429945242458e-12 	101324.9999999902
0.4967467467467462 	299.9999999999218 	1.417925140285682e-12 	101324.9999999902
0.4992492492492487 	299.9999999999108 	9.710709660785123e-13 	101324.9999999899
0.5017517517517511 	299.9999999999486 	6.671721604104005e-13 	101324.9999999895
0.5042542542542537 	299.9999999999628 	1.907807553271446e-12 	101324.9999999893
0.5067567567567562 	299.999999999943 	2.647136807592846e-12 	101324.9999999895
0.5092592592592589 	299.999999999967 	2.991185127849577e-12 	101324.9999999897
0.5117617617617611 	299.9999999999549 	4.152756685533396e-12 	101324.9999999899
0.5142642642642637 	299.9999999999818 	2.534286425355104e-12 	101324.99999999
0.5167667667667663 	299.9999999999658 	4.367987734055937e-12 	101324.9999999898
0.5192692692692688 	299.9999999999126 	1.541222113997974e-12 	101324.9999999899
0.5217717717717714 	299.9999999999368 	5.15143066045958e-12 	101324.9999999898
0.5242742742742736 	299.9999999999323 	1.535886767810612e-12 	101324.9999999897
0.5267767767767763 	299.9999999999524 	4.524628808961391e-12 	101324.9999999897
0.5292792792792789 	299.9999999999341 	1.214415354419151e-12 	101324.9999999899
0.5317817817817813 	299.9999999999014 	4.193699430043825e-12 	101324.99999999
0.5342842842842837 	300.0000000000131 	1.856913492395204e-12 	101324.9999999901
0.5367867867867864 	300.0000000000011 	3.497111138769326e-12 	101324.99999999
0.5392892892892888 	299.9999999999573 	1.608509686973922e-12 	101324.9999999899
0.5417917917917912 	300.0000000000045 	2.803040149008005e-12 	101324.9999999901
0.5442942942942938 	299.9999999999843 	1.435353076688775e-12 	101324.9999999903
0.5467967967967964 	299.9999999999482 	3.168443734597667e-12 	101324.9999999904
0.5492992992992988 	299.9999999999416 	2.534860361127743e-12 	101324.9999999906
0.5518018018018012 	299.9999999999405 	3.934706881256163e-12 	101324.9999999908
0.5543043043043039 	300.0000000000217 	3.025540616019509e-12 	101324.9999999909
0.5568068068068063 	299.9999999999928 	3.871284495395633e-12 	101324.999999991
0.5593093093093087 	299.9999999999044 	2.797391980497356e-12 	101324.9999999911
0.5618118118118114 	299.9999999999567 	4.969132190166361e-12 	101324.9999999912
0.5643143143143137 	299.9999999999433 	3.911658428072644e-12 	101324.9999999913
0.5668168168168163 	299.9999999999938 	4.570083634038114e-12 	101324.9999999912
0.5693193193193188 	300.0000000000362 	3.700670653231042e-12 	101324.9999999911
0.5718218218218213 	300.0000000000294 	2.873871894266528e-12 	101324.9999999911
0.5743243243243239 	300.0000000000089 	3.886064640194892e-12 	101324.9999999911
0.5768268268268262 	300.0000000000036 	2.513902116709214e-12 	101324.999999991
0.5793293293293288 	299.9999999999388 	4.631640215021567e-12 	101324.9999999908
0.5818318318318314 	299.9999999999104 	1.95351106698918e-12 	101324.9999999905
0.5843343343343338 	299.9999999999803 	6.022726158685809e-12 	101324.9999999906
0.5868368368368363 	299.9999999999735 	2.633473431202802e-12 	101324.9999999908
0.5893393393393387 	299.999999999941 	6.196151497546922e-12 	101324.9999999907
0.5918418418418413 	299.9999999999384 	3.672711066900466e-12 	101324.9999999908
0.5943443443443439 	300.0000000000174 	5.614994236516549e-12 	101324.999999991
0.5968468468468463 	300.00000000002 	3.231082888883877e-12 	101324.9999999909
0.5993493493493487 	300.0000000000382 	4.809005192606301e-12 	101324.9999999907
0.6018518518518514 	299.9999999999831 	3.289009662722109e-12 	101324.9999999905
0.6043543543543537 	299.9999999999961 	5.03902805211497e-12 	101324.9999999904
0.6068568568568564 	299.9999999999822 	4.301425792903464e-12 	101324.9999999905
0.6093593593593587 	299.9999999999278 	6.654524307272821e-12 	101324.9999999908
0.6118618618618614 	299.999999999924 	6.120997268895125e-12 	101324.9999999908
0.6143643643643638 	300.00000000002 	7.353711687994486e-12 	101324.9999999913
0.6168668668668662 	299.9999999999909 	5.160947537331227e-12 	101324.9999999912
0.6193693693693688 	299.9999999999619 	6.033507714569298e-12 	101324.9999999912
0.6218718718718714 	299.9999999999634 	4.420098060376306e-12 	101324.9999999912
0.6243743743743737 	299.9999999999295 	6.77653257565463e-12 	101324.999999991
0.6268768768768762 	299.9999999999235 	5.429973418316029e-12 	101324.9999999911
0.629379379379379 	299.9999999999607 	6.215118776981649e-12 	101324.999999991
0.6318818818818812 	299.9999999999776 	5.410512025052694e-12 	101324.9999999909
0.6343843843843838 	300.0000000000197 	4.440999127943802e-12 	101324.9999999908
0.6368868868868864 	299.9999999999832 	3.924837447161673e-12 	101324.9999999909
0.6393893893893888 	299.9999999999159 	2.066148392679888e-12 	101324.999999991
0.6418918918918912 	300.0000000000026 	4.615562230332868e-12 	101324.9999999912
0.6443943943943939 	299.9999999999728 	2.782933392464899e-12 	101324.9999999916
0.6468968968968963 	299.9999999999827 	5.684560906344493e-12 	101324.9999999918
0.6493993993993988 	299.9999999999762 	2.837041863609318e-12 	101324.999999992
0.6519019019019012 	299.9999999999794 	6.602395036634876e-12 	101324.9999999919
0.6544044044044038 	299.999999999898 	3.963477984003541e-12 	101324.999999992
0.6569069069069065 	299.999999999943 	7.521373154351648e-12 	101324.9999999922
0.6594094094094087 	299.9999999999599 	5.167061742604339e-12 	101324.9999999924
0.6619119119119113 	299.9999999999561 	7.277856312490433e-12 	101324.9999999926
0.664414414414414 	300.0000000000085 	5.046655946851468e-12 	101324.9999999929
0.6669169169169162 	300.000000000023 	7.120952066358512e-12 	101324.9999999929
0.6694194194194188 	299.9999999999869 	5.966812484701853e-12 	101324.9999999932
0.6719219219219214 	299.9999999999178 	7.18190459361497e-12 	101324.9999999933
0.674424424424424 	299.9999999999686 	5.82206174936562e-12 	101324.999999993
0.6769269269269262 	299.9999999999135 	7.083746978812933e-12 	101324.9999999929
0.679429429429429 	300.0000000000014 	6.022146208685273e-12 	101324.9999999928
0.6819319319319311 	299.9999999999828 	6.40274447074797e-12 	101324.9999999927
0.6844344344344341 	299.9999999999974 	5.514237023567671e-12 	101324.9999999925
0.686936936936936 	299.999999999993 	6.712292814079407e-12 	101324.9999999927
0.6894394394394392 	299.9999999999889 	5.787905477673978e-12 	101324.9999999927
0.6919419419419413 	299.9999999999845 	5.742680637679421e-12 	101324.9999999926
0.694444444444444 	299.9999999999198 	5.368039949200268e-12 	101324.9999999925
0.6969469469469463 	299.9999999999227 	4.87790790539358e-12 	101324.9999999926
0.6994494494494489 	299.9999999999228 	5.385507551581543e-12 	101324.9999999925
0.7019519519519515 	299.9999999999877 	4.283023027708924e-12 	101324.9999999926
0.7044544544544538 	299.9999999999524 	5.638391106652974e-12 	101324.9999999926
0.7069569569569564 	300.000000000002 	3.437261869526325e-12 	101324.9999999928
0.7094594594594589 	299.9999999999681 	5.84045710856702e-12 	101324.9999999929
0.7119619619619615 	299.9999999999093 	3.311782756275451e-12 	101324.9999999927
0.7144644644644638 	299.9999999999513 	5.239940695872461e-12 	101324.9999999927
0.7169669669669665 	299.999999999922 	4.761665625515593e-12 	101324.9999999926
0.7194694694694688 	299.9999999999958 	7.126541648944543e-12 	101324.9999999926
0.7219719719719715 	299.999999999989 	7.57541810423877e-12 	101324.9999999926
0.7244744744744737 	300.0000000000053 	8.459575732527027e-12 	101324.9999999924
0.7269769769769764 	299.9999999999989 	9.06869346579306e-12 	101324.9999999924
0.7294794794794791 	299.9999999999868 	7.979222140214818e-12 	101324.9999999925
0.7319819819819813 	299.9999999999782 	9.882352818611591e-12 	101324.9999999923
0.7344844844844839 	299.9999999999135 	7.829484876519033e-12 	101324.9999999924
0.7369869869869864 	299.9999999999475 	8.441752943727675e-12 	101324.9999999925
0.739489489489489 	299.9999999999378 	7.263239302608108e-12 	101324.9999999924
0.7419919919919914 	299.9999999999223 	7.19919069245204e-12 	101324.9999999922
0.7444944944944939 	299.9999999999782 	8.284624893944794e-12 	101324.9999999922
0.7469969969969963 	299.999999999975 	6.746311626716196e-12 	101324.9999999924
0.7494994994994989 	299.9999999999377 	8.915851924173516e-12 	101324.9999999927
0.7520020020020015 	299.9999999999673 	6.113061249499467e-12 	101324.9999999928
0.7545045045045039 	299.9999999999644 	9.244075806875111e-12 	101324.999999993
0.7570070070070062 	299.9999999999393 	6.723223155642507e-12 	101324.9999999933
0.7595095095095092 	299.9999999999302 	9.391414101317773e-12 	101324.9999999933
0.7620120120120112 	300.0000000000082 	8.860967025275828e-12 	101324.9999999933
0.7645145145145138 	299.9999999999911 	9.221231426954281e-12 	101324.9999999935
0.7670170170170165 	299.9999999999294 	9.845648267195777e-12 	101324.9999999938
0.7695195195195191 	299.9999999999203 	9.039520985233201e-12 	101324.9999999943
0.7720220220220213 	299.9999999999301 	1.105295019759323e-11 	101324.9999999944
0.7745245245245239 	299.9999999999246 	8.84919740663634e-12 	101324.9999999944
0.7770270270270263 	299.9999999999644 	1.032075409236104e-11 	101324.9999999942
0.779529529529529 	299.9999999999829 	9.475652601449899e-12 	101324.9999999938
0.7820320320320313 	299.9999999999708 	1.035995150023072e-11 	101324.9999999939
0.784534534534534 	300.0000000000073 	1.023432851086893e-11 	101324.999999994
0.7870370370370364 	299.9999999999964 	9.606020644257769e-12 	101324.9999999939
0.7895395395395389 	299.9999999999804 	1.098743363041263e-11 	101324.9999999938
0.7920420420420413 	299.9999999999819 	1.008797405974439e-11 	101324.9999999938
0.794544544544544 	299.9999999999778 	1.20038118254092e-11 	101324.9999999937
0.7970470470470463 	300.0000000000031 	1.008671449674091e-11 	101324.9999999937
0.799549549549549 	299.9999999999856 	1.334787874994622e-11 	101324.9999999938
0.8020520520520515 	299.9999999999821 	1.029268992083526e-11 	101324.9999999938
0.8045545545545539 	299.9999999999394 	1.237973258184326e-11 	101324.999999994
0.8070570570570563 	299.9999999999807 	1.106317483663241e-11 	101324.9999999943
0.8095595595595589 	299.9999999999525 	1.183683285866572e-11 	101324.9999999944
0.8120620620620614 	299.9999999999386 	1.170516588773656e-11 	101324.9999999944
0.8145645645645638 	300.0000000000009 	1.116156295318452e-11 	101324.9999999943
0.8170670670670666 	299.9999999999985 	1.132331382898063e-11 	101324.9999999942
0.8195695695695689 	299.9999999999778 	9.271404171016714e-12 	101324.9999999941
0.8220720720720714 	299.9999999999404 	1.149291021922185e-11 	101324.9999999939
0.8245745745745739 	299.9999999999969 	9.045403107604454e-12 	101324.9999999942
0.8270770770770765 	299.9999999999721 	1.101628532402055e-11 	101324.9999999943
0.8295795795795788 	299.9999999999528 	9.9897775186237e-12 	101324.9999999943
0.8320820820820815 	300.0000000000155 	1.099006791699155e-11 	101324.9999999944
0.834584584584584 	300.0000000000059 	1.029905135561444e-11 	101324.9999999943
0.8370870870870865 	299.9999999999617 	1.010330765756457e-11 	101324.9999999944
0.8395895895895891 	299.9999999999259 	1.093246419049588e-11 	101324.9999999945
0.8420920920920915 	299.9999999999472 	1.047955236782418e-11 	101324.9999999945
0.844594594594594 	299.9999999999383 	1.088107218462737e-11 	101324.9999999946
0.8470970970970964 	299.9999999999454 	1.104772537143525e-11 	101324.9999999947
0.8495995995995991 	299.9999999999942 	1.087350442246846e-11 	101324.999999995
0.8521021021021015 	299.9999999999801 	1.148908720269839e-11 	101324.9999999951
0.8546046046046039 	299.9999999999674 	1.07496270210465e-11 	101324.9999999952
0.8571071071071066 	299.9999999999959 	1.227761149390375e-11 	101324.9999999953
0.8596096096096089 	299.9999999999608 	1.071042988277311e-11 	101324.9999999952
0.8621121121121116 	299.9999999999293 	1.40230620593457e-11 	101324.9999999951
0.8646146146146139 	299.9999999999971 	1.161414084108244e-11 	101324.999999995
0.8671171171171166 	299.9999999999774 	1.29380096254873e-11 	101324.9999999949
0.8696196196196189 	299.9999999999482 	1.164242137761984e-11 	101324.9999999949
0.8721221221221216 	299.9999999999795 	1.20272234342611e-11 	101324.9999999951
0.874624624624624 	300.0000000000094 	1.121101865254226e-11 	101324.9999999955
0.8771271271271264 	300.0000000000032 	1.044609476373335e-11 	101324.9999999959
0.879629629629629 	300.0000000000042 	1.115938520586115e-11 	101324.9999999961
0.8821321321321317 	299.999999999984 	9.394126704161914e-12 	101324.9999999964
0.8846346346346339 	299.9999999999243 	1.1815318430594e-11 	101324.9999999968
0.8871371371371364 	299.9999999999595 	9.456625478375378e-12 	101324.9999999968
0.8896396396396391 	299.9999999999678 	1.159739557886152e-11 	101324.9999999965
0.8921421421421414 	299.9999999999728 	1.030983005741681e-11 	101324.9999999962
0.8946446446446441 	299.9999999999876 	1.166913231533002e-11 	101324.999999996
0.8971471471471464 	300.000000000006 	1.149056143840917e-11 	101324.9999999959
0.8996496496496489 	299.9999999999785 	1.128147703946712e-11 	101324.9999999962
0.9021521521521517 	299.9999999999598 	1.229809498087974e-11 	101324.9999999962
0.9046546546546541 	299.9999999999928 	1.110952372433193e-11 	101324.9999999961
0.9071571571571564 	299.9999999999467 	1.158796117644096e-11 	101324.9999999962
0.9096596596596589 	299.9999999999439 	1.108210172118312e-11 	101324.9999999964
0.9121621621621616 	300.000000000007 	1.093166399227146e-11 	101324.9999999969
0.9146646646646639 	299.99999999998 	1.075914586262741e-11 	101324.9999999969
0.9171671671671666 	299.9999999999491 	1.095510375445128e-11 	101324.9999999968
0.9196696696696689 	300.0000000000018 	1.216645846446745e-11 	101324.9999999967
0.9221721721721714 	299.9999999999997 	1.093545183609119e-11 	101324.9999999967
0.9246746746746741 	299.9999999999417 	1.377120807643144e-11 	101324.9999999967
0.9271771771771765 	299.9999999999542 	1.186884064940723e-11 	101324.9999999965
0.9296796796796791 	299.9999999999951 	1.444454457541839e-11 	101324.9999999962
0.9321821821821816 	299.9999999999617 	1.349639935866029e-11 	101324.9999999962
0.9346846846846838 	299.999999999946 	1.495230458654682e-11 	101324.9999999962
0.9371871871871866 	300.0000000000154 	1.429755705476555e-11 	101324.9999999961
0.9396896896896891 	300.0000000000161 	1.406257056813323e-11 	101324.9999999962
0.9421921921921914 	300.0000000000144 	1.452574718349997e-11 	101324.9999999965
0.9446946946946939 	299.999999999971 	1.362943349857636e-11 	101324.9999999968
0.9471971971971965 	299.999999999922 	1.623768377652521e-11 	101324.9999999969
0.9496996996996991 	299.9999999999584 	1.380008063046058e-11 	101324.999999997
0.9522022022022016 	299.9999999999784 	1.556653811731721e-11 	101324.9999999968
0.9547047047047038 	299.9999999999803 	1.424022586942683e-11 	101324.9999999968
0.9572072072072064 	299.9999999999638 	1.537141997117269e-11 	101324.9999999968
0.9597097097097093 	299.9999999999623 	1.506332411160489e-11 	101324.9999999966
0.9622122122122114 	299.9999999999549 	1.50840535224679e-11 	101324.9999999967
0.964714714714714 	299.99999999995 	1.605542176897529e-11 	101324.9999999968
0.9672172172172167 	299.9999999999567 	1.491800288913881e-11 	101324.9999999967
0.969719719719719 	299.9999999999839 	1.583487261876278e-11 	101324.999999997
0.9722222222222214 	299.9999999999754 	1.556552069427258e-11 	101324.9999999971
0.9747247247247239 	299.9999999999716 	1.598686230644716e-11 	101324.9999999971
0.9772272272272267 	300.0000000000068 	1.560474232908445e-11 	101324.9999999972
0.9797297297297292 	299.9999999999872 	1.485726956325168e-11 	101324.999999997
0.9822322322322313 	299.9999999999876 	1.545292757088521e-11 	101324.999999997
0.9847347347347344 	299.9999999999893 	1.432452397179562e-11 	101324.9999999973
0.9872372372372363 	299.9999999999463 	1.737260373493151e-11 	101324.9999999973
0.9897397397397389 	299.9999999999725 	1.534955432439841e-11 	101324.9999999972
0.9922422422422417 	299.9999999999528 	1.752945862507417e-11 	101324.9999999972
0.9947447447447441 	299.9999999999558 	1.632395117395365e-11 	101324.9999999971
0.9972472472472468 	299.9999999999707 	1.739046673597791e-11 	101324.9999999971
0.999749749749749 	299.9999999999627 	1.66005934879344e-11 	101324.9999999973
1.002252252252252 	299.9999999999695 	1.695696324428805e-11 	101324.9999999977
1.004754754754754 	299.9999999999915 	1.674762945231788e-11 	101324.9999999978
1.007257257257256 	299.9999999999745 	1.55633076687772e-11 	101324.9999999977
1.009759759759759 	299.9999999999586 	1.744187620442696e-11 	101324.9999999975
1.012262262262261 	299.99999999995 	1.573080186890046e-11 	101324.9999999969
1.014764764764764 	299.9999999999275 	1.825192663545318e-11 	101324.999999997
1.017267267267267 	299.9999999999226 	1.738168626560241e-11 	101324.9999999972
1.019769769769769 	299.9999999999649 	1.881835056385776e-11 	101324.9999999972
1.022272272272272 	299.9999999999776 	1.871373380312675e-11 	101324.9999999969
1.024774774774774 	299.9999999999808 	1.881988696478896e-11 	101324.9999999968
1.027277277277277 	299.9999999999758 	1.946680634343182e-11 	101324.9999999967
1.029779779779779 	300.0000000000074 	1.829567099861771e-11 	101324.9999999969
1.032282282282282 	300.0000000000075 	1.938803770588434e-11 	101324.9999999972
1.034784784784784 	299.9999999999983 	1.915028756650338e-11 	101324.9999999973
1.037287287287286 	299.999999999969 	1.966576731102188e-11 	101324.9999999973
1.039789789789789 	299.9999999999723 	1.934631711027181e-11 	101324.9999999969
1.042292292292291 	300.0000000000053 	1.972935271543704e-11 	101324.9999999968
1.044794794794794 	300.0000000000265 	2.014324232447037e-11 	101324.9999999971
1.047297297297296 	300.00000000005 	1.90789284585648e-11 	101324.9999999973
1.049799799799799 	299.9999999999939 	2.072477751990062e-11 	101324.9999999973
1.052302302302302 	299.9999999999503 	1.836592119000997e-11 	101324.9999999976
1.054804804804804 	299.9999999999306 	2.037465646296241e-11 	101324.9999999978
1.057307307307306 	299.9999999999217 	1.933633351708765e-11 	101324.9999999979
1.059809809809809 	299.9999999999606 	2.027275589689859e-11 	101324.9999999983
1.062312312312312 	299.9999999999548 	1.910989761397138e-11 	101324.9999999985
1.064814814814814 	299.9999999999498 	1.915710576843692e-11 	101324.9999999985
1.067317317317317 	299.9999999999249 	1.858377887540746e-11 	101324.9999999985
1.069819819819819 	299.9999999999245 	1.813480831155667e-11 	101324.9999999984
1.072322322322321 	299.9999999999959 	1.985873768305943e-11 	101324.9999999982
1.074824824824824 	300.000000000028 	1.751653536948579e-11 	101324.9999999983
1.077327327327327 	300.000000000046 	1.886205522660395e-11 	101324.9999999986
1.079829829829829 	300.0000000000484 	1.711848247085644e-11 	101324.9999999987
1.082332332332332 	300.0000000000102 	1.803501510121681e-11 	101324.9999999986
1.084834834834834 	299.9999999999826 	1.79069507437607e-11 	101324.9999999986
1.087337337337337 	299.9999999999441 	1.838972662436003e-11 	101324.9999999985
1.089839839839839 	299.9999999999294 	2.035976458753449e-11 	101324.9999999982
1.092342342342342 	299.999999999971 	1.945636539794218e-11 	101324.9999999981
1.094844844844844 	299.9999999999695 	2.123669240591855e-11 	101324.9999999981
1.097347347347347 	299.9999999999361 	2.005773408673072e-11 	101324.999999998
1.099849849849849 	299.9999999999185 	2.318490634169556e-11 	101324.999999998
1.102352352352352 	299.999999999949 	2.074100476245417e-11 	101324.999999998
1.104854854854854 	299.9999999999774 	2.300862329652993e-11 	101324.9999999979
1.107357357357357 	299.9999999999652 	2.143912458285707e-11 	101324.9999999981
1.109859859859859 	299.9999999999525 	2.332555153513954e-11 	101324.9999999984
1.112362362362362 	300.0000000000133 	2.227112325156698e-11 	101324.9999999984
1.114864864864865 	300.0000000000143 	2.272566880066313e-11 	101324.9999999984
1.117367367367367 	299.9999999999632 	2.430374266776073e-11 	101324.9999999985
1.119869869869869 	299.999999999924 	2.28215434494288e-11 	101324.9999999987
1.122372372372372 	299.9999999999607 	2.414221015059265e-11 	101324.9999999989
1.124874874874874 	299.9999999999676 	2.274135939354152e-11 	101324.999999999
1.127377377377377 	299.999999999982 	2.391673296378507e-11 	101324.9999999992
1.129879879879879 	300.0000000000251 	2.273956472056892e-11 	101324.9999999992
1.132382382382382 	300.0000000000382 	2.295488421298273e-11 	101324.9999999992
1.134884884884884 	300.000000000009 	2.211031577955701e-11 	101324.9999999992
1.137387387387387 	300.0000000000201 	2.180516822618051e-11 	101324.9999999992
1.139889889889889 	299.9999999999668 	2.311663583126519e-11 	101324.9999999992
1.142392392392392 	299.9999999999574 	2.184587150896354e-11 	101324.999999999
1.144894894894894 	300.0000000000237 	2.337771676463055e-11 	101324.9999999988
1.147397397397397 	300.0000000000053 	2.138796016004515e-11 	101324.9999999988
1.149899899899899 	299.9999999999395 	2.191757200666119e-11 	101324.9999999985
1.152402402402402 	299.999999999925 	2.114958851413212e-11 	101324.9999999985
1.154904904904904 	299.9999999999686 	2.21550289157456e-11 	101324.9999999986
1.157407407407407 	299.9999999999699 	2.175395353680426e-11 	101324.9999999987
1.159909909909909 	299.9999999999378 	2.229465565056892e-11 	101324.9999999986
1.162412412412412 	299.9999999999304 	2.40885452451566e-11 	101324.9999999984
1.164914914914914 	299.9999999999652 	2.26131632155939e-11 	101324.9999999985
1.167417417417417 	299.9999999999591 	2.453647868098603e-11 	101324.9999999988
1.169919919919919 	300.0000000000038 	2.320596085393202e-11 	101324.9999999991
1.172422422422422 	300.0000000000455 	2.425020140258399e-11 	101324.999999999
1.174924924924925 	299.9999999999919 	2.301315219479658e-11 	101324.9999999988
1.177427427427427 	299.9999999999648 	2.389777751391366e-11 	101324.9999999987
1.179929929929929 	300.00000000002 	2.46785293773635e-11 	101324.9999999988
1.182432432432432 	300.0000000000508 	2.242679197020403e-11 	101324.9999999987
1.184934934934934 	300.0000000000167 	2.337581748386085e-11 	101324.9999999989
1.187437437437437 	299.9999999999901 	2.203003419559232e-11 	101324.9999999993
1.189939939939939 	299.9999999999782 	2.329922398455811e-11 	101324.9999999993
1.192442442442442 	299.9999999999363 	2.273767061903931e-11 	101324.9999999995
1.194944944944944 	299.9999999999376 	2.414134801100328e-11 	101324.9999999997
1.197447447447447 	299.999999999998 	2.336921086390341e-11 	101324.9999999996
1.199949949949949 	300.0000000000125 	2.419778008564798e-11 	101324.9999999997
1.202452452452452 	299.9999999999568 	2.591617076721058e-11 	101324.9999999995
1.204954954954955 	299.999999999951 	2.444120864114196e-11 	101324.9999999994
1.207457457457457 	299.9999999999821 	2.564577355951412e-11 	101324.9999999993
1.20995995995996 	299.9999999999779 	2.487007887767225e-11 	101324.9999999992
1.212462462462462 	299.9999999999916 	2.673529506465294e-11 	101324.9999999992
1.214964964964964 	299.9999999999897 	2.566829227722938e-11 	101324.9999999994
1.217467467467467 	299.9999999999812 	2.700049090182103e-11 	101324.9999999996
1.219969969969969 	299.9999999999701 	2.663949224947848e-11 	101324.9999999996
1.222472472472472 	300.0000000000249 	2.706999595473933e-11 	101324.9999999996
1.224974974974975 	300.0000000000533 	2.724591154970137e-11 	101324.9999999994
1.227477477477477 	299.9999999999962 	2.470060696078766e-11 	101324.9999999992
1.229979979979979 	299.9999999999801 	2.61047163641984e-11 	101324.9999999992
1.232482482482482 	299.9999999999523 	2.495747945623514e-11 	101324.9999999996
1.234984984984984 	299.9999999999541 	2.663766490673376e-11 	101324.9999999999
1.237487487487487 	299.9999999999808 	2.489859726270103e-11 	101324.9999999999
1.239989989989989 	299.9999999999824 	2.542175344187739e-11 	101325.0000000001
1.242492492492492 	300.0000000000166 	2.608543153018551e-11 	101325.0000000003
1.244994994994994 	299.9999999999859 	2.411600063130717e-11 	101325.0000000003
1.247497497497497 	299.9999999999839 	2.550897951192654e-11 	101325.0000000003
1.249999999999999 	300 	2.487163905694052e-11 	101325.0000000002
