-1.25 	300 	0.0006743511403684069 	101325
-1.247497497497497 	299.9936319438993 	0.01323318649651661 	101318.0919798873
-1.244994994994995 	299.9887901920465 	0.03428475953675941 	101311.7427505339
-1.242492492492492 	299.9832493808511 	0.04916928855459834 	101305.1986867354
-1.23998998998999 	299.9780696889293 	0.06333287150550881 	101299.0768571944
-1.237487487487487 	299.9732964497821 	0.07722993501437644 	101293.4350131154
-1.234984984984985 	299.9690385392698 	0.08951900144512338 	101288.4025203015
-1.232482482482482 	299.965335058436 	0.1002436291082949 	101284.0254449121
-1.22997997997998 	299.9622600966981 	0.1091468838335138 	101280.3912647002
-1.227477477477477 	299.9599498447026 	0.1158545327325442 	101277.6609182985
-1.224974974974975 	299.9583659843657 	0.1203809163973967 	101275.7890102056
-1.222472472472472 	299.9575018459122 	0.1228326346842689 	101274.7676957411
-1.21996996996997 	299.9574220698125 	0.1230743054965909 	101274.6734113003
-1.217467467467467 	299.9581392325705 	0.121006413173718 	101275.5208859812
-1.214964964964965 	299.9596554895044 	0.116643169533191 	101277.3127061539
-1.212462462462462 	299.9619607910664 	0.1099381350311133 	101280.0370515124
-1.20995995995996 	299.9650003448953 	0.101138504420356 	101283.6292215515
-1.207457457457457 	299.968670784463 	0.09061260217374431 	101287.9671341315
-1.204954954954955 	299.9728490607198 	0.0785437248530321 	101292.9054010462
-1.202452452452452 	299.9775031633773 	0.06506759110785315 	101298.4062644023
-1.19994994994995 	299.9825896223238 	0.05033307628496848 	101304.4184123701
-1.197447447447447 	299.9879895039073 	0.03467613055286627 	101310.8012871674
-1.194944944944945 	299.9935867750839 	0.01849750213968882 	101317.417818766
-1.192442442442442 	299.9992747426105 	0.008163272450034138 	101324.1418989684
-1.18993993993994 	300.004980639213 	0.01443730123486218 	101330.8874836472
-1.187437437437437 	300.010611569289 	0.03066161015290887 	101337.5447792617
-1.184934934934935 	300.0160737156258 	0.04646780939502693 	101344.0028215466
-1.182432432432432 	300.0212783238161 	0.06152238224786004 	101350.1566662044
-1.17992992992993 	300.0261021823745 	0.07547490894241926 	101355.8605802215
-1.177427427427427 	300.0304280734326 	0.08797663011942784 	101360.9758661262
-1.174924924924925 	300.034174126873 	0.0987824320586998 	101365.4056872773
-1.172422422422422 	300.037272425126 	0.1077739013502133 	101369.0696219256
-1.16991991991992 	300.0396840512452 	0.1147804177888782 	101371.9216145925
-1.167417417417417 	300.0413996216304 	0.119719772145751 	101373.9505212247
-1.164914914914915 	300.0423827568418 	0.1224844087549599 	101375.1132356982
-1.162412412412412 	300.0425758957973 	0.1229815439066409 	101375.3416743952
-1.15990990990991 	300.0419535035504 	0.1212038566491811 	101374.6056884921
-1.157407407407407 	300.0405220821314 	0.1170916754679926 	101372.9130106311
-1.154904904904904 	300.0383148425693 	0.1107374491219425 	101370.3028835387
-1.152402402402403 	300.0353982386138 	0.102292744735786 	101366.8538834498
-1.1498998998999 	300.0318415378329 	0.09199398843791173 	101362.6480584324
-1.147397397397397 	300.0277137638346 	0.08012864706160933 	101357.7670809369
-1.144894894894895 	300.0230931118758 	0.06678247747418344 	101352.3034573037
-1.142392392392392 	300.0180586758312 	0.05218864080194161 	101346.3508180447
-1.13988988988989 	300.012700861891 	0.03664999407248612 	101340.0160555798
-1.137387387387387 	300.0071275328538 	0.02048162061001002 	101333.4267904278
-1.134884884884885 	300.0014348566851 	0.007769373684763763 	101326.6967250486
-1.132382382382382 	299.9957113638803 	0.01245021845234832 	101319.9305270754
-1.12987987987988 	299.9900355816625 	0.02888612559781064 	101313.2210686852
-1.127377377377377 	299.9844975561211 	0.04489461815948944 	101306.6747200739
-1.124874874874875 	299.9792242682848 	0.06010940784839333 	101300.4415979896
-1.122372372372372 	299.9743559625049 	0.07411809199322165 	101294.6873948993
-1.11986986986987 	299.9699883941194 	0.0867200806475127 	101289.5252299267
-1.117367367367367 	299.9662003247419 	0.09772423550529309 	101285.0481584386
-1.114864864864865 	299.9630347137536 	0.1069567775834468 	101281.3068286534
-1.112362362362362 	299.9605164912217 	0.1142393805066235 	101278.3306927008
-1.10985985985986 	299.9587049706057 	0.1193821665989555 	101276.1897244607
-1.107357357357357 	299.9576742349221 	0.1223489751784552 	101274.9715110519
-1.104854854854855 	299.9574457068181 	0.1230066303462293 	101274.701419608
-1.102352352352353 	299.9580333271041 	0.1213243157718727 	101275.3958104534
-1.09984984984985 	299.9594101176187 	0.1173505103318989 	101277.0228080716
-1.097347347347347 	299.9615299447362 	0.1111407661664218 	101279.5279514137
-1.094844844844845 	299.9643551757238 	0.1029738288833728 	101282.8668166572
-1.092342342342342 	299.9678368057672 	0.09299117611657276 	101286.9815460532
-1.08983983983984 	299.9718841973652 	0.08130242475271442 	101291.7650876479
-1.087337337337337 	299.9764525649837 	0.06809789236105007 	101297.1645692014
-1.084834834834835 	299.9814570770992 	0.053588311499159 	101303.0797874102
-1.082332332332332 	299.9867845380306 	0.0381704249797053 	101309.3770113793
-1.07982982982983 	299.9923197590409 	0.02218839436158214 	101315.9201213788
-1.077327327327327 	299.9979460495578 	0.007217861722343101 	101322.5712046074
-1.074824824824825 	300.0036153306424 	0.0105263714196785 	101329.2734294066
-1.072322322322323 	300.0092648593588 	0.02684381599299701 	101335.9526334046
-1.06981981981982 	300.0147677180248 	0.04273054057610699 	101342.4587467589
-1.067317317317317 	300.0199973080711 	0.05784091376368614 	101348.6420577055
-1.064814814814815 	300.0248541541291 	0.07188563111277692 	101354.3849037393
-1.062312312312312 	300.0292598626859 	0.08463301566347495 	101359.5945225959
-1.05980980980981 	300.0331507213003 	0.09588323316809616 	101364.1955257644
-1.057307307307307 	300.0364545221146 	0.1054098566399808 	101368.1024536393
-1.054804804804805 	300.0390915560039 	0.1130245659942205 	101371.220982961
-1.052302302302302 	300.0410009391586 	0.1185372981797742 	101373.4790719564
-1.0497997997998 	300.0421388662097 	0.1218141720709299 	101374.8248595768
-1.047297297297297 	300.0424833513742 	0.1228151327287091 	101375.2322890514
-1.044794794794795 	300.0420379771423 	0.1215128706868784 	101374.7056270821
-1.042292292292292 	300.0408129074748 	0.1179580501014012 	101373.2569730958
-1.03978978978979 	300.038825332499 	0.1122255905885194 	101370.9066003882
-1.037287287287287 	300.0361156831821 	0.104379252785427 	101367.7023386328
-1.034784784784785 	300.0327283382093 	0.09458662029172217 	101363.6967555073
-1.032282282282283 	300.0287248631503 	0.08303402939289957 	101358.9627171035
-1.02977977977978 	300.0241952588005 	0.06993679099262079 	101353.6067164401
-1.027277277277277 	300.0192330779051 	0.05559122769369299 	101347.7394322981
-1.024774774774775 	300.0139292395319 	0.04027018117859186 	101341.4684376087
-1.022272272272272 	300.0083914557127 	0.02426031691238218 	101334.9211225167
-1.01976976976977 	300.002707647778 	0.007828474672413153 	101328.2014594066
-1.017267267267267 	299.9969687295779 	0.00967342422485091 	101321.4169720554
-1.014764764764765 	299.9912665596734 	0.02531516683376501 	101314.676231737
-1.012262262262262 	299.9857103659538 	0.04136511702953929 	101308.1083527023
-1.00975975975976 	299.9804209699083 	0.05662521916332447 	101301.8561337272
-1.007257257257257 	299.9754998448401 	0.07085985042781841 	101296.0394374326
-1.004754754754755 	299.9710231093172 	0.08381031972120302 	101290.7482240091
-1.002252252252252 	299.9670705743277 	0.09520021773374682 	101286.0767163888
-0.9997497497497498 	299.9637330357694 	0.1048290416455852 	101282.1321787431
-0.9972472472472473 	299.9610583996185 	0.1125357885310397 	101278.971187379
-0.9947447447447449 	299.9590932120122 	0.1182494204252996 	101276.6486145942
-0.9922422422422421 	299.9578905594716 	0.1217857534276668 	101275.2272235364
-0.9897397397397399 	299.9574964159569 	0.1228936166975389 	101274.761399137
-0.9872372372372376 	299.9579383900143 	0.1215609890696891 	101275.2836671796
-0.9847347347347346 	299.9592094134197 	0.1179294770176491 	101276.7856743272
-0.9822322322322323 	299.961184134374 	0.1122861720740255 	101279.1193373132
-0.9797297297297296 	299.9637812742274 	0.1047761909522785 	101282.1886362609
-0.9772272272272275 	299.9669954155625 	0.09538529156270492 	101285.9872043975
-0.9747247247247248 	299.9708529200045 	0.08415200519831305 	101290.5462671528
-0.9722222222222224 	299.9753251199258 	0.07120628549799889 	101295.8320297589
-0.9697197197197196 	299.9803120602228 	0.05698720644659057 	101301.7264293347
-0.9672172172172175 	299.9855663644531 	0.041874639158664 	101307.9371234861
-0.9647147147147147 	299.9909410986091 	0.02624391558233031 	101314.2904619422
-0.9622122122122124 	299.9963698305647 	0.01047719047859959 	101320.7079172617
-0.9597097097097099 	300.0018809721846 	0.008924517907348339 	101327.2230833686
-0.9572072072072073 	300.007562462177 	0.02197550457730956 	101333.9399562478
-0.9547047047047047 	300.0133219991642 	0.03855742192016923 	101340.7494395802
-0.9522022022022023 	300.0188822931158 	0.0545464914109926 	101347.3237016618
-0.9496996996996998 	300.023934884685 	0.06910268766588398 	101353.2979705196
-0.9471971971971973 	300.0282812593588 	0.08168317000495146 	101358.4374098237
-0.9446946946946947 	300.031911055069 	0.09224787543950044 	101362.7296680576
-0.9421921921921923 	300.0349676597691 	0.101163871984641 	101366.3442159176
-0.93968968968969 	300.0376193274771 	0.1088659310131418 	101369.479982926
-0.9371871871871872 	300.0399228742098 	0.1154940287346095 	101372.2041468589
-0.9346846846846848 	300.0417620243557 	0.1207221726510992 	101374.3791759238
-0.9321821821821823 	300.0428815796814 	0.1238453733097346 	101375.7032528142
-0.9296796796796799 	300.0429859173043 	0.1240479982236715 	101375.8266502295
-0.9271771771771771 	300.0418525536537 	0.1207206049397284 	101374.4864359211
-0.9246746746746748 	300.0394214606951 	0.1137073622206433 	101371.6116415236
-0.9221721721721724 	300.0358321505232 	0.1034082771368719 	101367.3671762164
-0.9196696696696698 	300.0314000184493 	0.090712360909616 	101362.1261299431
-0.9171671671671672 	300.0265425328185 	0.07679136449152767 	101356.3822788279
-0.9146646646646649 	300.0216802262427 	0.06282865097045311 	101350.6329275095
-0.9121621621621623 	300.0171503452543 	0.0497860678710086 	101345.2768323849
-0.9096596596596597 	300.0131678431493 	0.03828970496606462 	101340.5681026235
-0.9071571571571573 	300.0098315043188 	0.02863570013561158 	101336.6234738568
-0.9046546546546547 	300.0071501533751 	0.02085983516159041 	101333.4533217863
-0.9021521521521524 	300.0050726979101 	0.01482276708134858 	101330.9971950756
-0.8996496496496498 	300.0035152360879 	0.01028790330036292 	101329.1558676354
-0.8971471471471473 	300.002382112932 	0.006982397592672748 	101327.8162312744
-0.894644644644645 	300.0015801909071 	0.0046388458079288 	101326.8681633914
-0.892142142142142 	300.0010270643886 	0.003019569643198161 	101326.2142349097
-0.8896396396396397 	300.0006546201334 	0.001927405679534789 	101325.7739170979
-0.8871371371371374 	300.0004094622594 	0.001207324457375472 	101325.4840823374
-0.8846346346346349 	300.0002515195301 	0.0007426746201181216 	101325.297356535
-0.8821321321321324 	300.0001518232431 	0.0004489238930754124 	101325.1794917677
-0.8796296296296297 	300.0000901087526 	0.0002668088945940069 	101325.1065304639
-0.8771271271271271 	300.0000526128737 	0.0001559968741567403 	101325.0622013072
-0.8746246246246248 	300.0000302364517 	8.977119575253266e-05 	101325.0357469294
-0.8721221221221224 	300.0000171113826 	5.087049052665177e-05 	101325.020229888
-0.8696196196196196 	300.000009539875 	2.839823956003052e-05 	101325.0112785206
-0.8671171171171175 	300.0000052418102 	1.562391906222603e-05 	101325.0061971352
-0.8646146146146148 	300.0000028396246 	8.474758125135512e-06 	101325.0033571849
-0.8621121121121121 	300.0000015172139 	4.533764146360973e-06 	101325.0017937435
-0.8596096096096097 	300.0000007998151 	2.39293976658505e-06 	101325.0009455674
-0.857107107107107 	300.0000004160863 	1.24647712046893e-06 	101325.0004919373
-0.8546046046046049 	300.000000213708 	6.40985168271474e-07 	101325.0002526633
-0.8521021021021022 	300.0000001083969 	3.254966646742631e-07 	101325.0001281482
-0.8495995995995997 	300.0000000543003 	1.632677250166956e-07 	101325.0000642
-0.8470970970970974 	300.0000000268474 	8.091267019916378e-08 	101325.000031777
-0.8445945945945946 	300.0000000131278 	3.9629508615813e-08 	101325.0000155432
-0.8420920920920922 	300.000000006366 	1.918654764720012e-08 	101325.0000075142
-0.8395895895895897 	300.0000000030377 	9.186808463100762e-09 	101325.0000035907
-0.8370870870870872 	300.000000001435 	4.349689061444606e-09 	101325.0000016957
-0.8345845845845846 	300.0000000006748 	2.038678362924557e-09 	101325.000000791
-0.8320820820820823 	300.000000000285 	9.454188576279801e-10 	101325.000000364
-0.8295795795795798 	300.0000000000933 	4.344673082775283e-10 	101325.0000001647
-0.8270770770770772 	300.0000000000365 	1.979272295070744e-10 	101325.0000000726
-0.8245745745745746 	299.9999999999895 	8.912534304236851e-11 	101325.0000000303
-0.8220720720720721 	299.9999999999856 	4.04345297984189e-11 	101325.0000000112
-0.8195695695695699 	300.0000000000005 	1.804016775118038e-11 	101325.0000000024
-0.817067067067067 	299.9999999999764 	9.846586487304525e-12 	101324.9999999983
-0.8145645645645651 	299.9999999999575 	4.609127778734271e-12 	101324.9999999964
-0.8120620620620621 	299.9999999999919 	2.715678760676386e-12 	101324.9999999957
-0.8095595595595597 	300.0000000000052 	2.069343823502278e-12 	101324.9999999956
-0.8070570570570572 	299.9999999999665 	1.058108267351941e-12 	101324.9999999955
-0.8045545545545546 	299.999999999964 	1.408629704360782e-12 	101324.9999999957
-0.8020520520520523 	299.9999999999949 	1.644823351021325e-12 	101324.9999999958
-0.7995495495495494 	300.0000000000128 	2.848396577156639e-12 	101324.9999999958
-0.7970470470470474 	299.9999999999981 	3.327784412005664e-12 	101324.9999999957
-0.7945445445445446 	300.0000000000023 	3.575785823332835e-12 	101324.9999999956
-0.7920420420420423 	300.0000000000065 	3.322162061079879e-12 	101324.9999999954
-0.7895395395395397 	300.0000000000063 	4.362097867457259e-12 	101324.9999999954
-0.7870370370370371 	300.0000000000014 	3.240538526585319e-12 	101324.9999999954
-0.7845345345345348 	299.9999999999813 	3.799149386427514e-12 	101324.9999999953
-0.7820320320320323 	299.999999999982 	3.060916521011709e-12 	101324.9999999954
-0.7795295295295296 	299.9999999999584 	4.111681445393362e-12 	101324.9999999955
-0.7770270270270272 	299.9999999999472 	3.760682003834991e-12 	101324.9999999957
-0.7745245245245247 	299.9999999999453 	4.025432881952567e-12 	101324.9999999957
-0.7720220220220222 	299.9999999999698 	3.238917760384228e-12 	101324.9999999958
-0.7695195195195199 	299.9999999999715 	3.50580884331187e-12 	101324.9999999959
-0.767017017017017 	299.9999999999871 	3.817164710695636e-12 	101324.999999996
-0.7645145145145147 	300.0000000000066 	3.91503757277598e-12 	101324.999999996
-0.7620120120120122 	300.0000000000093 	4.345208023216085e-12 	101324.9999999959
-0.7595095095095097 	299.9999999999586 	4.883537489939845e-12 	101324.999999996
-0.7570070070070072 	299.9999999999618 	5.635087988517e-12 	101324.9999999962
-0.7545045045045048 	299.9999999999919 	5.414691608591212e-12 	101324.9999999964
-0.7520020020020022 	299.9999999999758 	4.828521022838728e-12 	101324.9999999963
-0.7494994994994997 	299.9999999999732 	3.989400129581866e-12 	101324.9999999962
-0.7469969969969972 	299.9999999999959 	3.332111763387883e-12 	101324.9999999962
-0.7444944944944945 	299.9999999999915 	2.250302602878084e-12 	101324.999999996
-0.7419919919919924 	299.9999999999916 	1.707765166575108e-12 	101324.999999996
-0.7394894894894897 	299.9999999999719 	1.168736648638784e-12 	101324.999999996
-0.7369869869869872 	299.9999999999911 	3.115259666100099e-13 	101324.9999999962
-0.7344844844844846 	299.9999999999794 	8.428611252297175e-14 	101324.9999999961
-0.7319819819819822 	300.0000000000024 	1.065211331884664e-12 	101324.9999999961
-0.7294794794794797 	299.9999999999992 	1.324760711729321e-12 	101324.9999999961
-0.7269769769769773 	300.0000000000072 	6.877572607319893e-13 	101324.999999996
-0.7244744744744747 	300.0000000000117 	1.463788876780619e-12 	101324.9999999962
-0.721971971971972 	299.9999999999733 	1.280516087056949e-12 	101324.999999996
-0.7194694694694695 	299.9999999999892 	1.523434329587199e-12 	101324.9999999959
-0.7169669669669674 	299.9999999999604 	1.506428179450648e-12 	101324.9999999957
-0.7144644644644647 	299.9999999999856 	1.15984639911178e-12 	101324.9999999955
-0.711961961961962 	300.000000000006 	8.478534361806257e-13 	101324.9999999953
-0.7094594594594597 	300.0000000000102 	8.276293244669154e-13 	101324.9999999952
-0.7069569569569573 	300.000000000015 	9.970888318303303e-13 	101324.9999999955
-0.7044544544544545 	300.0000000000165 	6.448889709269203e-13 	101324.9999999958
-0.7019519519519523 	300.0000000000048 	6.248645897128518e-13 	101324.999999996
-0.6994494494494495 	299.999999999958 	2.915963277957945e-13 	101324.9999999959
-0.6969469469469471 	299.9999999999641 	7.801672149173928e-13 	101324.999999996
-0.6944444444444446 	299.9999999999722 	1.009000825129294e-12 	101324.9999999962
-0.6919419419419421 	300.0000000000147 	1.870879716545366e-12 	101324.9999999962
-0.6894394394394396 	299.9999999999982 	2.086641859252268e-12 	101324.9999999961
-0.6869369369369374 	300.0000000000065 	2.830702025947038e-12 	101324.9999999961
-0.6844344344344344 	300.000000000011 	2.049565639083749e-12 	101324.9999999964
-0.6819319319319321 	299.9999999999759 	2.203828223832551e-12 	101324.9999999966
-0.6794294294294296 	299.9999999999666 	1.989736477342753e-12 	101324.9999999965
-0.6769269269269272 	299.9999999999512 	2.110525429469971e-12 	101324.9999999965
-0.6744244244244245 	299.9999999999801 	2.245755087621486e-12 	101324.9999999966
-0.6719219219219222 	299.9999999999748 	2.203757748713543e-12 	101324.9999999965
-0.6694194194194195 	299.9999999999985 	2.174923935813176e-12 	101324.9999999962
-0.6669169169169172 	300.0000000000094 	1.433643113424558e-12 	101324.9999999959
-0.6644144144144146 	299.9999999999781 	1.857141427932751e-12 	101324.9999999958
-0.661911911911912 	299.9999999999793 	1.281848837482097e-12 	101324.9999999956
-0.6594094094094097 	299.9999999999837 	1.29374030224726e-12 	101324.9999999956
-0.656906906906907 	299.9999999999637 	5.436984020965824e-13 	101324.9999999954
-0.6544044044044046 	299.9999999999661 	1.897351882628033e-12 	101324.9999999953
-0.6519019019019021 	299.9999999999915 	7.155549961168784e-13 	101324.9999999955
-0.6493993993993996 	300.0000000000131 	2.187386255186708e-12 	101324.9999999957
-0.6468968968968971 	300.0000000000187 	1.679526372008114e-12 	101324.9999999961
-0.6443943943943946 	299.9999999999971 	2.464155203740647e-12 	101324.9999999962
-0.6418918918918921 	299.9999999999962 	1.00664055409626e-12 	101324.9999999962
-0.6393893893893897 	299.9999999999985 	1.64681887044652e-12 	101324.9999999962
-0.6368868868868871 	299.999999999985 	1.123750558117339e-12 	101324.9999999962
-0.6343843843843846 	299.9999999999974 	1.500442810005085e-12 	101324.9999999963
-0.6318818818818821 	299.9999999999715 	1.267469645480971e-12 	101324.9999999963
-0.6293793793793795 	300.0000000000035 	1.371954694253749e-12 	101324.9999999962
-0.6268768768768773 	300.0000000000118 	1.557881293458295e-12 	101324.999999996
-0.6243743743743745 	299.9999999999868 	1.360253190356735e-12 	101324.999999996
-0.6218718718718721 	300.0000000000017 	2.572842765917741e-12 	101324.9999999959
-0.6193693693693696 	299.999999999963 	1.960928228690225e-12 	101324.9999999958
-0.6168668668668671 	299.9999999999898 	2.497468408027062e-12 	101324.9999999957
-0.6143643643643645 	300.0000000000095 	1.741874294752019e-12 	101324.9999999961
-0.6118618618618621 	299.9999999999928 	2.218975484161212e-12 	101324.9999999963
-0.6093593593593596 	299.999999999993 	1.512562500488343e-12 	101324.9999999966
-0.6068568568568571 	299.9999999999926 	1.461408844237628e-12 	101324.9999999967
-0.6043543543543546 	299.999999999977 	1.235600497191847e-12 	101324.9999999968
-0.6018518518518521 	299.9999999999818 	1.604323334460611e-12 	101324.9999999968
-0.5993493493493496 	299.9999999999668 	1.137516695370772e-12 	101324.9999999968
-0.5968468468468471 	299.9999999999735 	1.640802822019033e-12 	101324.9999999967
-0.5943443443443446 	299.9999999999966 	8.322497783659628e-13 	101324.9999999965
-0.591841841841842 	299.9999999999761 	2.00322658485022e-12 	101324.9999999962
-0.5893393393393397 	299.9999999999707 	1.030020598397745e-12 	101324.9999999962
-0.5868368368368371 	299.9999999999938 	1.965022476578731e-12 	101324.9999999961
-0.5843343343343346 	299.9999999999998 	2.287689163277939e-12 	101324.999999996
-0.5818318318318321 	300.0000000000189 	2.098933610806903e-12 	101324.9999999961
-0.5793293293293297 	299.9999999999928 	1.742438035554404e-12 	101324.999999996
-0.5768268268268271 	300.0000000000013 	2.071903168171642e-12 	101324.9999999958
-0.5743243243243245 	300.0000000000138 	9.091347263022984e-13 	101324.9999999959
-0.5718218218218221 	300.0000000000132 	6.879585774569205e-13 	101324.999999996
-0.5693193193193196 	300.0000000000273 	2.62180909532334e-13 	101324.999999996
-0.5668168168168171 	299.9999999999919 	7.941860116068706e-13 	101324.9999999961
-0.5643143143143147 	299.9999999999687 	8.362301507418334e-13 	101324.9999999962
-0.5618118118118121 	300.0000000000082 	7.98148567923763e-13 	101324.9999999962
-0.5593093093093094 	300.0000000000214 	4.44861957220542e-13 	101324.9999999964
-0.5568068068068072 	300.0000000000101 	9.828844503774059e-13 	101324.9999999963
-0.5543043043043046 	300.0000000000109 	7.10473065860307e-13 	101324.9999999962
-0.551801801801802 	299.9999999999728 	4.165620389315957e-13 	101324.999999996
-0.5492992992992995 	299.9999999999987 	5.974287210396441e-13 	101324.9999999959
-0.5467967967967969 	300.0000000000092 	6.247608955603215e-13 	101324.9999999959
-0.5442942942942947 	300.0000000000055 	3.356864855999152e-13 	101324.999999996
-0.5417917917917919 	299.9999999999767 	5.609930839626336e-13 	101324.9999999961
-0.5392892892892895 	299.9999999999587 	5.5688339279811e-13 	101324.999999996
-0.536786786786787 	299.9999999999734 	3.727447183291622e-13 	101324.999999996
-0.5342842842842846 	299.9999999999779 	1.383902923728079e-12 	101324.9999999958
-0.531781781781782 	299.9999999999621 	4.052901385272691e-13 	101324.9999999959
-0.5292792792792794 	299.9999999999581 	2.658345586028601e-12 	101324.9999999958
-0.526776776776777 	299.9999999999483 	1.340073712235808e-12 	101324.9999999959
-0.5242742742742745 	299.9999999999862 	4.260798548388592e-12 	101324.9999999959
-0.521771771771772 	300.0000000000088 	2.660664084110386e-12 	101324.9999999958
-0.5192692692692695 	299.999999999977 	4.492426893073186e-12 	101324.9999999957
-0.516766766766767 	300.0000000000019 	3.37342678133259e-12 	101324.9999999957
-0.5142642642642645 	299.9999999999813 	3.785566798940243e-12 	101324.9999999957
-0.511761761761762 	299.9999999999714 	2.491719850088256e-12 	101324.9999999959
-0.5092592592592596 	299.9999999999839 	2.955687452705585e-12 	101324.9999999959
-0.506756756756757 	299.9999999999666 	1.876934520578541e-12 	101324.9999999957
-0.5042542542542544 	299.9999999999974 	2.507605372814599e-12 	101324.9999999956
-0.5017517517517521 	300.0000000000171 	9.820994486425672e-13 	101324.9999999955
-0.4992492492492494 	300.0000000000198 	2.712613874113588e-12 	101324.9999999957
-0.496746746746747 	299.9999999999942 	1.771701410620182e-12 	101324.9999999958
-0.4942442442442445 	299.9999999999653 	2.712509041566626e-12 	101324.999999996
-0.4917417417417421 	299.9999999999657 	2.15556165307434e-12 	101324.9999999961
-0.4892392392392395 	299.9999999999743 	2.672952236350439e-12 	101324.999999996
-0.486736736736737 	299.9999999999748 	1.13167818655143e-12 	101324.9999999958
-0.4842342342342345 	299.9999999999553 	1.695994686233001e-12 	101324.9999999957
-0.481731731731732 	300.0000000000211 	9.125042218678255e-13 	101324.9999999958
-0.4792292292292296 	300.0000000000121 	1.501298073000245e-12 	101324.9999999956
-0.4767267267267268 	299.9999999999757 	2.229888431001292e-12 	101324.9999999956
-0.4742242242242246 	299.9999999999992 	2.611652292809114e-12 	101324.9999999957
-0.471721721721722 	299.9999999999757 	1.660347710552521e-12 	101324.9999999958
-0.4692192192192195 	299.9999999999894 	2.26375982602254e-12 	101324.9999999958
-0.4667167167167169 	299.9999999999496 	9.631315762927476e-13 	101324.9999999958
-0.4642142142142145 	299.9999999999964 	1.759870031902353e-12 	101324.9999999961
-0.461711711711712 	300.0000000000102 	6.371568392455154e-13 	101324.9999999962
-0.4592092092092094 	300.0000000000048 	1.29355476922157e-12 	101324.9999999964
-0.456706706706707 	300.0000000000301 	5.188925821759262e-13 	101324.9999999966
-0.4542042042042045 	299.9999999999669 	5.346840205484121e-13 	101324.9999999966
-0.451701701701702 	299.9999999999724 	3.033924237277289e-13 	101324.9999999965
-0.4491991991991995 	299.9999999999773 	3.590698259890446e-13 	101324.9999999967
-0.4466966966966969 	299.9999999999791 	6.824320065165495e-13 	101324.9999999967
-0.4441941941941945 	299.9999999999984 	4.357334836064076e-13 	101324.9999999965
-0.441691691691692 	299.9999999999775 	1.848500705098404e-12 	101324.9999999962
-0.4391891891891895 	299.9999999999917 	1.445493546641198e-12 	101324.9999999959
-0.436686686686687 	299.9999999999826 	2.453184595710008e-12 	101324.9999999957
-0.4341841841841846 	299.9999999999984 	2.481798226804676e-12 	101324.9999999954
-0.431681681681682 	299.9999999999708 	1.841453966211486e-12 	101324.9999999953
-0.4291791791791794 	299.9999999999617 	1.938884632087549e-12 	101324.9999999955
-0.426676676676677 	299.9999999999509 	1.267092482180984e-12 	101324.9999999956
-0.4241741741741744 	299.9999999999828 	1.451545351488159e-12 	101324.9999999956
-0.421671671671672 	300.0000000000031 	6.168625831048681e-13 	101324.9999999955
-0.4191691691691694 	300.0000000000268 	7.656916832360219e-13 	101324.9999999955
-0.4166666666666669 	300.0000000000314 	8.373838228103915e-13 	101324.9999999953
-0.4141641641641645 	299.999999999965 	6.468137675407571e-13 	101324.9999999952
-0.411661661661662 	299.9999999999997 	3.541764084538388e-13 	101324.9999999952
-0.4091591591591594 	300.0000000000057 	1.498310151734641e-13 	101324.9999999953
-0.406656656656657 	299.9999999999715 	2.220361516526927e-13 	101324.9999999955
-0.4041541541541545 	300.0000000000075 	1.143526414351789e-12 	101324.9999999954
-0.401651651651652 	299.9999999999582 	7.366244860596147e-13 	101324.9999999954
-0.3991491491491494 	300.0000000000033 	1.730373230699263e-12 	101324.9999999954
-0.396646646646647 	299.9999999999741 	2.039797788473016e-12 	101324.9999999953
-0.3941441441441444 	299.9999999999886 	2.496129829112729e-12 	101324.9999999952
-0.3916416416416419 	299.9999999999634 	1.727016890042421e-12 	101324.9999999954
-0.3891391391391395 	299.9999999999746 	1.802026342116158e-12 	101324.9999999956
-0.3866366366366368 	299.9999999999758 	1.058857851298448e-12 	101324.9999999955
-0.3841341341341344 	300.0000000000002 	1.132996562363127e-12 	101324.9999999958
-0.381631631631632 	299.9999999999716 	7.722875004918916e-13 	101324.9999999956
-0.3791291291291294 	299.9999999999998 	1.061449607860466e-12 	101324.9999999956
-0.3766266266266269 	300.0000000000116 	1.155421555501414e-12 	101324.9999999955
-0.3741241241241244 	300.0000000000123 	5.787303553743237e-13 	101324.9999999955
-0.371621621621622 	300.0000000000123 	7.220721354546774e-13 	101324.9999999956
-0.3691191191191194 	300.0000000000042 	2.394199425426078e-12 	101324.9999999953
-0.366616616616617 	300.0000000000034 	9.819707716220801e-13 	101324.9999999954
-0.3641141141141143 	299.9999999999859 	2.306537567206399e-12 	101324.9999999953
-0.3616116116116119 	299.9999999999671 	1.039232560640695e-12 	101324.9999999953
-0.3591091091091095 	299.9999999999873 	1.093936660842353e-12 	101324.9999999952
-0.356606606606607 	299.9999999999918 	5.866476245391814e-13 	101324.9999999953
-0.3541041041041044 	299.9999999999961 	9.024827010216438e-13 	101324.9999999956
-0.3516016016016019 	300.0000000000113 	1.743003857827389e-12 	101324.9999999958
-0.3490990990990994 	299.9999999999974 	8.67493808398831e-13 	101324.999999996
-0.346596596596597 	300.0000000000177 	3.08226525097786e-12 	101324.9999999961
-0.3440940940940944 	300.0000000000206 	1.746554491853468e-12 	101324.9999999956
-0.3415915915915919 	300.0000000000164 	4.033910102073579e-12 	101324.9999999954
-0.3390890890890895 	299.9999999999897 	2.540719026914893e-12 	101324.9999999951
-0.3365865865865869 	300.0000000000093 	3.411423099945277e-12 	101324.9999999948
-0.3340840840840844 	299.9999999999945 	2.826728664060666e-12 	101324.999999995
-0.3315815815815819 	300.0000000000107 	3.324605400243147e-12 	101324.9999999951
-0.3290790790790794 	300.0000000000117 	3.441160474956187e-12 	101324.9999999954
-0.3265765765765769 	299.9999999999605 	3.309713329194691e-12 	101324.9999999955
-0.3240740740740744 	300.0000000000006 	2.188688132388086e-12 	101324.9999999953
-0.3215715715715718 	300.0000000000074 	3.279496111399881e-12 	101324.9999999954
-0.3190690690690695 	299.9999999999644 	2.713244767021828e-12 	101324.9999999955
-0.3165665665665668 	299.9999999999937 	3.858749499302859e-12 	101324.9999999955
-0.3140640640640644 	299.9999999999989 	2.412789195567942e-12 	101324.9999999955
-0.311561561561562 	299.99999999996 	4.15670288672916e-12 	101324.9999999955
-0.3090590590590593 	299.9999999999993 	1.063613575887047e-12 	101324.9999999955
-0.3065565565565568 	300.0000000000034 	4.928368064667822e-12 	101324.9999999956
-0.3040540540540545 	299.9999999999998 	1.304256244387669e-12 	101324.9999999955
-0.3015515515515518 	300.0000000000179 	4.573498448242586e-12 	101324.9999999954
-0.2990490490490494 	299.9999999999655 	2.577481767775506e-12 	101324.9999999955
-0.2965465465465469 	299.9999999999937 	4.003655227764868e-12 	101324.9999999953
-0.2940440440440444 	299.9999999999941 	3.416660506006549e-12 	101324.9999999954
-0.2915415415415418 	300.0000000000054 	3.284821865398966e-12 	101324.9999999953
-0.2890390390390395 	300.0000000000076 	3.460503524068244e-12 	101324.9999999952
-0.2865365365365368 	299.9999999999845 	2.096580192828938e-12 	101324.9999999952
-0.2840340340340343 	299.9999999999997 	3.930867336136329e-12 	101324.9999999954
-0.2815315315315318 	299.9999999999548 	1.922310058668996e-12 	101324.9999999955
-0.2790290290290295 	299.9999999999832 	3.36753575561515e-12 	101324.9999999956
-0.2765265265265269 	300.0000000000085 	2.530495882299445e-12 	101324.9999999956
-0.2740240240240244 	300.000000000011 	3.043289273857458e-12 	101324.9999999953
-0.2715215215215219 	300.0000000000077 	3.160663002714125e-12 	101324.9999999953
-0.2690190190190194 	299.9999999999691 	3.031193370837127e-12 	101324.9999999951
-0.2665165165165169 	299.999999999996 	3.282151399161663e-12 	101324.9999999952
-0.2640140140140144 	299.9999999999853 	2.089317435147905e-12 	101324.999999995
-0.2615115115115119 	299.9999999999965 	3.554059618764107e-12 	101324.9999999949
-0.2590090090090094 	299.9999999999587 	2.31508497666631e-12 	101324.9999999948
-0.2565065065065068 	299.9999999999962 	3.960928555472787e-12 	101324.9999999949
-0.2540040040040044 	299.9999999999928 	3.847615886332427e-12 	101324.9999999947
-0.2515015015015019 	300.0000000000159 	3.745679728980177e-12 	101324.999999995
-0.2489989989989994 	300.0000000000236 	5.569650408458337e-12 	101324.9999999949
-0.2464964964964968 	299.9999999999899 	4.417022469076205e-12 	101324.9999999946
-0.2439939939939944 	299.9999999999914 	6.801193515876228e-12 	101324.9999999949
-0.2414914914914919 	299.9999999999779 	3.754066550763612e-12 	101324.9999999948
-0.2389889889889893 	299.9999999999976 	6.522831154036215e-12 	101324.9999999948
-0.2364864864864869 	300.0000000000113 	3.934720676375969e-12 	101324.9999999949
-0.2339839839839843 	299.9999999999668 	6.696743831872912e-12 	101324.9999999946
-0.2314814814814819 	299.9999999999845 	3.218666553657625e-12 	101324.9999999946
-0.2289789789789792 	299.9999999999566 	5.329394581274594e-12 	101324.9999999944
-0.2264764764764769 	299.9999999999661 	3.67494567122834e-12 	101324.9999999942
-0.2239739739739743 	299.9999999999799 	5.19474245418381e-12 	101324.9999999943
-0.2214714714714718 	299.9999999999678 	4.65121199963791e-12 	101324.9999999945
-0.2189689689689693 	299.9999999999792 	3.816225093343434e-12 	101324.9999999946
-0.2164664664664669 	299.999999999987 	4.853594742344826e-12 	101324.9999999944
-0.2139639639639643 	299.9999999999616 	3.329494781963649e-12 	101324.9999999942
-0.2114614614614618 	299.9999999999822 	3.821856819758342e-12 	101324.9999999939
-0.2089589589589593 	299.9999999999969 	3.018608970542564e-12 	101324.999999994
-0.2064564564564568 	299.9999999999972 	2.938630470349267e-12 	101324.9999999943
-0.2039539539539543 	299.9999999999523 	3.860036670506916e-12 	101324.9999999944
-0.2014514514514518 	299.9999999999619 	1.805435236709637e-12 	101324.9999999942
-0.1989489489489494 	299.999999999984 	4.764237066697819e-12 	101324.9999999945
-0.1964464464464468 	300.0000000000002 	2.598883388258805e-12 	101324.9999999947
-0.1939439439439443 	299.9999999999969 	5.551573640842581e-12 	101324.9999999948
-0.1914414414414418 	299.9999999999592 	3.96753058475922e-12 	101324.9999999948
-0.1889389389389393 	299.9999999999989 	5.027725550550913e-12 	101324.9999999946
-0.1864364364364368 	300.0000000000165 	4.956971880386048e-12 	101324.9999999943
-0.1839339339339343 	299.9999999999847 	4.894357747979777e-12 	101324.9999999943
-0.1814314314314318 	299.9999999999935 	4.260000274016581e-12 	101324.9999999943
-0.1789289289289293 	299.9999999999437 	4.245372146904043e-12 	101324.9999999941
-0.1764264264264268 	299.9999999999875 	3.468839952510655e-12 	101324.9999999942
-0.1739239239239243 	299.9999999999451 	3.841642136054071e-12 	101324.9999999941
-0.1714214214214218 	299.9999999999917 	2.765862380472103e-12 	101324.9999999941
-0.1689189189189193 	299.9999999999709 	4.838114618740608e-12 	101324.999999994
-0.1664164164164168 	299.9999999999986 	2.526592993519278e-12 	101324.9999999941
-0.1639139139139143 	299.9999999999912 	6.188153006322371e-12 	101324.9999999941
-0.1614114114114118 	300.0000000000101 	1.634225422253896e-12 	101324.9999999943
-0.1589089089089093 	299.9999999999972 	8.07635650803831e-12 	101324.9999999946
-0.1564064064064068 	299.9999999999863 	9.357581747917431e-13 	101324.9999999945
-0.1539039039039043 	299.9999999999961 	8.562811313037121e-12 	101324.9999999948
-0.1514014014014018 	300.0000000000124 	1.609157034775695e-12 	101324.9999999948
-0.1488988988988993 	299.9999999999969 	7.788017416737257e-12 	101324.9999999946
-0.1463963963963968 	300.0000000000019 	1.946477835906908e-12 	101324.9999999945
-0.1438938938938943 	299.9999999999795 	6.582312284113995e-12 	101324.9999999945
-0.1413913913913918 	299.9999999999594 	2.754764858673924e-12 	101324.9999999947
-0.1388888888888893 	299.9999999999861 	4.610820064164392e-12 	101324.9999999947
-0.1363863863863868 	299.9999999999418 	3.218827735073688e-12 	101324.9999999946
-0.1338838838838843 	299.9999999999603 	3.910275022485965e-12 	101324.9999999944
-0.1313813813813818 	299.9999999999937 	2.840532887328773e-12 	101324.9999999946
-0.1288788788788793 	299.9999999999764 	3.403178361445308e-12 	101324.9999999945
-0.1263763763763768 	299.9999999999841 	2.549827028740985e-12 	101324.9999999946
-0.1238738738738743 	299.9999999999648 	3.781772798801244e-12 	101324.9999999945
-0.1213713713713717 	299.9999999999939 	2.125378738332851e-12 	101324.9999999946
-0.1188688688688693 	300.0000000000085 	4.596423197405097e-12 	101324.9999999946
-0.1163663663663668 	299.9999999999495 	1.90753512584653e-12 	101324.9999999948
-0.1138638638638643 	299.9999999999943 	4.888852104473874e-12 	101324.9999999948
-0.1113613613613618 	299.9999999999932 	1.393513663943941e-12 	101324.999999995
-0.1088588588588592 	299.9999999999887 	5.58339449932049e-12 	101324.9999999949
-0.1063563563563568 	299.9999999999775 	1.671739826422721e-12 	101324.9999999948
-0.1038538538538543 	299.9999999999901 	4.739175157930189e-12 	101324.9999999948
-0.1013513513513517 	300.0000000000071 	2.575689060718201e-12 	101324.9999999947
-0.09884884884884926 	299.9999999999727 	4.132769245580595e-12 	101324.9999999948
-0.09634634634634676 	299.9999999999476 	2.692274156603398e-12 	101324.9999999949
-0.09384384384384425 	299.999999999955 	3.000148845189139e-12 	101324.999999995
-0.09134134134134177 	300.000000000009 	2.295984568394627e-12 	101324.9999999951
-0.08883883883883925 	300.0000000000059 	3.231886366482618e-12 	101324.999999995
-0.08633633633633674 	299.9999999999735 	3.714518026374148e-12 	101324.999999995
-0.08383383383383426 	300.000000000003 	3.891272884157395e-12 	101324.9999999951
-0.08133133133133173 	299.9999999999843 	4.166665217201282e-12 	101324.9999999951
-0.07882882882882926 	299.9999999999414 	3.694047484367913e-12 	101324.9999999949
-0.07632632632632676 	299.9999999999774 	3.881307737798198e-12 	101324.999999995
-0.07382382382382424 	299.9999999999441 	4.54586029710274e-12 	101324.999999995
-0.07132132132132173 	300.0000000000074 	3.99099678261197e-12 	101324.9999999947
-0.06881881881881925 	299.9999999999803 	3.24477677685571e-12 	101324.9999999948
-0.06631631631631671 	299.9999999999438 	2.777720056837915e-12 	101324.9999999946
-0.06381381381381425 	299.9999999999775 	2.173345578365448e-12 	101324.9999999945
-0.06131131131131173 	299.9999999999779 	2.124974496367703e-12 	101324.9999999943
-0.05880880880880923 	299.9999999999584 	2.044865762263484e-12 	101324.9999999944
-0.05630630630630672 	299.9999999999822 	1.927040356982152e-12 	101324.9999999945
-0.05380380380380424 	300.0000000000071 	1.97028058134274e-12 	101324.9999999945
-0.05130130130130173 	300.0000000000069 	2.037465429172762e-12 	101324.9999999947
-0.04879879879879922 	299.9999999999706 	1.922575108977493e-12 	101324.9999999949
-0.04629629629629672 	299.9999999999629 	1.179727009813498e-12 	101324.9999999953
-0.04379379379379422 	299.9999999999538 	1.355250562012412e-12 	101324.9999999952
-0.04129129129129173 	299.9999999999902 	8.598599915548832e-13 	101324.9999999952
-0.03878878878878922 	299.9999999999902 	1.420742145261588e-12 	101324.9999999951
-0.03628628628628671 	299.9999999999909 	1.259668555643498e-12 	101324.9999999951
-0.03378378378378422 	299.9999999999603 	1.823633635977963e-12 	101324.999999995
-0.03128128128128172 	299.9999999999821 	8.312620886378885e-13 	101324.9999999949
-0.02877877877877922 	299.9999999999818 	1.041856932813784e-12 	101324.9999999948
-0.0262762762762767 	299.999999999947 	2.188531960501459e-13 	101324.999999995
-0.02377377377377422 	300.0000000000105 	9.872009589527281e-14 	101324.9999999949
-0.0212712712712717 	299.9999999999471 	1.572239226860606e-13 	101324.999999995
-0.01876876876876921 	299.9999999999842 	2.672698957957004e-13 	101324.9999999952
-0.01626626626626671 	300.0000000000063 	4.869531919045699e-13 	101324.9999999952
-0.0137637637637642 	299.9999999999794 	1.592306784094474e-14 	101324.9999999953
-0.0112612612612617 	300.0000000000072 	1.014544727263399e-13 	101324.9999999954
-0.008758758758759198 	299.999999999997 	1.705229730829707e-13 	101324.9999999955
-0.006256256256256697 	299.9999999999407 	1.061752510970774e-13 	101324.9999999955
-0.003753753753754195 	299.9999999999756 	4.209203364770655e-13 	101324.9999999956
-0.001251251251251693 	299.9999999999596 	5.551633409880458e-13 	101324.9999999955
0.00125125125125081 	299.9999999999749 	1.60549150772942e-12 	101324.9999999951
0.003753753753753312 	299.9999999999802 	1.176786809515104e-12 	101324.999999995
0.006256256256255817 	299.9999999999404 	1.121512662128352e-12 	101324.9999999951
0.008758758758758317 	299.9999999999944 	1.032536740079821e-12 	101324.9999999953
0.01126126126126082 	300.0000000000068 	1.154825871382462e-12 	101324.9999999953
0.01376376376376332 	299.9999999999807 	1.745116332209311e-12 	101324.9999999952
0.01626626626626582 	300.0000000000046 	1.91806381762208e-12 	101324.9999999951
0.01876876876876833 	299.9999999999775 	1.92208430256466e-12 	101324.9999999948
0.02127127127127083 	299.9999999999837 	2.33528056110742e-12 	101324.9999999953
0.02377377377377332 	299.9999999999981 	2.038841241981499e-12 	101324.9999999952
0.02627627627627583 	299.9999999999501 	1.658888388228534e-12 	101324.9999999949
0.02877877877877833 	300.0000000000019 	2.056526966391364e-12 	101324.9999999947
0.03128128128128083 	299.9999999999689 	1.551904474849039e-12 	101324.9999999949
0.03378378378378333 	299.9999999999468 	1.672748761917062e-12 	101324.9999999947
0.03628628628628584 	299.9999999999869 	1.055694285135534e-12 	101324.9999999946
0.03878878878878834 	299.9999999999903 	8.591659994645758e-13 	101324.999999995
0.04129129129129084 	299.9999999999866 	1.057670834463446e-12 	101324.999999995
0.04379379379379333 	299.9999999999662 	1.015885407689506e-12 	101324.999999995
0.04629629629629585 	299.9999999999413 	9.020040429087633e-13 	101324.9999999948
0.04879879879879834 	299.9999999999736 	1.13623998569135e-12 	101324.9999999947
0.05130130130130085 	300.0000000000059 	9.086204831240893e-13 	101324.9999999946
0.05380380380380335 	300.0000000000098 	1.298901800391593e-12 	101324.9999999947
0.05630630630630584 	299.9999999999935 	2.073625849529126e-12 	101324.9999999947
0.05880880880880836 	299.9999999999586 	2.286219558328775e-12 	101324.9999999949
0.06131131131131085 	299.9999999999855 	2.330963950878226e-12 	101324.9999999951
0.06381381381381336 	299.9999999999781 	2.087465869490803e-12 	101324.9999999952
0.06631631631631586 	299.9999999999403 	1.985843971766036e-12 	101324.9999999952
0.06881881881881835 	299.9999999999702 	2.562233496459374e-12 	101324.999999995
0.07132132132132088 	299.9999999999955 	2.422483591935601e-12 	101324.9999999954
0.07382382382382337 	299.9999999999498 	2.566322620042815e-12 	101324.9999999953
0.07632632632632587 	299.9999999999826 	3.585709663512705e-12 	101324.9999999953
0.07882882882882837 	299.999999999967 	3.531459430555768e-12 	101324.999999995
0.08133133133133086 	299.9999999999932 	3.555265334460837e-12 	101324.9999999949
0.08383383383383337 	299.9999999999936 	2.866070382484708e-12 	101324.9999999948
0.08633633633633589 	299.9999999999498 	3.010167814664765e-12 	101324.9999999951
0.08883883883883838 	300.0000000000042 	3.365179252524377e-12 	101324.999999995
0.09134134134134086 	299.9999999999925 	2.26372114633104e-12 	101324.9999999951
0.09384384384384339 	299.9999999999452 	2.577201542105501e-12 	101324.999999995
0.09634634634634588 	299.9999999999819 	2.753309867961608e-12 	101324.999999995
0.09884884884884838 	299.9999999999849 	2.942017941250804e-12 	101324.9999999949
0.1013513513513509 	300.0000000000134 	3.532832702376916e-12 	101324.9999999951
0.1038538538538534 	299.999999999972 	3.928276791976989e-12 	101324.9999999952
0.1063563563563559 	300.0000000000047 	4.542273952910232e-12 	101324.9999999947
0.1088588588588584 	300.0000000000132 	3.895498850719677e-12 	101324.9999999947
0.1113613613613609 	299.9999999999636 	4.682804457396402e-12 	101324.9999999943
0.1138638638638634 	299.9999999999705 	4.859065026912922e-12 	101324.9999999942
0.1163663663663659 	299.9999999999691 	4.524231282505809e-12 	101324.9999999942
0.1188688688688684 	299.9999999999808 	4.391307144190876e-12 	101324.9999999943
0.1213713713713709 	299.9999999999965 	4.315266408180099e-12 	101324.9999999944
0.1238738738738734 	299.9999999999575 	4.192177200666951e-12 	101324.9999999946
0.1263763763763759 	299.9999999999914 	4.270515585095748e-12 	101324.9999999947
0.1288788788788784 	299.9999999999919 	3.728564226036872e-12 	101324.9999999949
0.1313813813813809 	299.9999999999911 	4.255130271917239e-12 	101324.9999999949
0.1338838838838834 	299.9999999999856 	3.776971630240342e-12 	101324.999999995
0.1363863863863859 	300.0000000000131 	3.543815392971824e-12 	101324.9999999949
0.1388888888888884 	300.0000000000232 	2.651952226322072e-12 	101324.999999995
0.1413913913913909 	299.9999999999994 	1.915027185484874e-12 	101324.9999999951
0.1438938938938934 	299.9999999999958 	1.717880014641341e-12 	101324.9999999952
0.1463963963963959 	299.9999999999793 	1.93552347859369e-12 	101324.9999999952
0.1488988988988985 	299.9999999999528 	3.097970348353944e-12 	101324.9999999949
0.1514014014014009 	299.9999999999791 	3.553146090396575e-12 	101324.9999999948
0.1539039039039035 	299.9999999999759 	5.009546729267409e-12 	101324.9999999947
0.1564064064064059 	299.9999999999744 	3.33614165577243e-12 	101324.9999999944
0.1589089089089084 	299.9999999999874 	6.007545030292692e-12 	101324.9999999944
0.1614114114114109 	299.9999999999858 	3.575089086052092e-12 	101324.9999999948
0.1639139139139134 	299.9999999999515 	4.708810150335062e-12 	101324.9999999951
0.166416416416416 	299.9999999999999 	3.858509969644621e-12 	101324.9999999951
0.1689189189189185 	300.0000000000133 	3.401582666133521e-12 	101324.9999999949
0.1714214214214209 	299.9999999999929 	3.455481347619852e-12 	101324.9999999949
0.1739239239239235 	299.9999999999902 	2.3471320968563e-12 	101324.9999999951
0.1764264264264259 	299.9999999999794 	3.830302183477972e-12 	101324.9999999951
0.1789289289289284 	300.0000000000014 	1.663387843407738e-12 	101324.999999995
0.181431431431431 	299.9999999999797 	4.29525017053095e-12 	101324.999999995
0.1839339339339334 	299.9999999999835 	2.438661632502247e-12 	101324.9999999948
0.186436436436436 	299.9999999999629 	3.917446026202041e-12 	101324.9999999947
0.1889389389389385 	299.9999999999901 	3.760007446383555e-12 	101324.9999999945
0.191441441441441 	299.9999999999889 	3.48092877889331e-12 	101324.9999999945
0.1939439439439434 	299.9999999999586 	4.809424501315259e-12 	101324.9999999945
0.196446446446446 	299.9999999999744 	3.002696688297288e-12 	101324.9999999943
0.1989489489489485 	299.9999999999814 	4.505545900832189e-12 	101324.9999999943
0.2014514514514509 	299.9999999999884 	2.654097988094724e-12 	101324.9999999945
0.2039539539539535 	299.9999999999937 	4.324474479713343e-12 	101324.9999999945
0.2064564564564559 	299.9999999999764 	3.615586422043253e-12 	101324.9999999943
0.2089589589589585 	299.9999999999904 	3.744481392744067e-12 	101324.9999999945
0.211461461461461 	299.9999999999657 	3.546642456208448e-12 	101324.9999999947
0.2139639639639635 	299.9999999999935 	3.488979340237235e-12 	101324.9999999948
0.2164664664664659 	300.0000000000003 	4.307439588184027e-12 	101324.9999999949
0.2189689689689684 	299.9999999999965 	2.982211704684341e-12 	101324.9999999949
0.221471471471471 	299.9999999999948 	4.767726635903523e-12 	101324.9999999945
0.2239739739739735 	299.9999999999754 	2.498620947966766e-12 	101324.9999999943
0.226476476476476 	299.9999999999909 	3.750299136452225e-12 	101324.9999999945
0.2289789789789785 	299.9999999999973 	3.353839508560849e-12 	101324.9999999943
0.231481481481481 	299.999999999992 	3.708216316109897e-12 	101324.9999999945
0.2339839839839835 	299.9999999999909 	4.70702067385114e-12 	101324.9999999943
0.236486486486486 	300.000000000009 	4.001734304516362e-12 	101324.9999999942
0.2389889889889885 	299.9999999999981 	4.954827216685047e-12 	101324.9999999943
0.241491491491491 	299.9999999999589 	2.658045224264882e-12 	101324.9999999946
0.2439939939939935 	299.9999999999887 	4.598701391662813e-12 	101324.9999999948
0.246496496496496 	299.9999999999911 	2.572829794061518e-12 	101324.9999999946
0.2489989989989985 	300.0000000000143 	4.309176184667558e-12 	101324.9999999949
0.251501501501501 	300.00000000001 	3.533111774097067e-12 	101324.9999999948
0.2540040040040035 	299.9999999999925 	3.411907439002094e-12 	101324.9999999949
0.256506506506506 	300.00000000001 	3.646018934156288e-12 	101324.9999999947
0.2590090090090086 	299.9999999999513 	2.668836882432815e-12 	101324.9999999946
0.261511511511511 	300.0000000000015 	5.087180355502956e-12 	101324.9999999947
0.2640140140140135 	299.9999999999927 	3.073230936350338e-12 	101324.9999999949
0.2665165165165161 	299.9999999999633 	4.593579819829703e-12 	101324.999999995
0.2690190190190185 	300.0000000000052 	3.434202117019151e-12 	101324.9999999949
0.271521521521521 	299.9999999999996 	3.5235059871607e-12 	101324.9999999949
0.2740240240240235 	300.0000000000047 	3.398487575795344e-12 	101324.9999999948
0.276526526526526 	300.0000000000008 	2.991683631946609e-12 	101324.999999995
0.2790290290290286 	299.9999999999674 	4.296911384587196e-12 	101324.9999999948
0.281531531531531 	299.9999999999588 	2.829948341298033e-12 	101324.9999999949
0.2840340340340335 	299.9999999999907 	4.211194536872538e-12 	101324.9999999953
0.2865365365365361 	299.9999999999773 	2.548356050448639e-12 	101324.9999999952
0.2890390390390385 	299.999999999996 	3.519059537234929e-12 	101324.9999999951
0.291541541541541 	299.9999999999955 	3.286842065739833e-12 	101324.999999995
0.2940440440440436 	299.9999999999932 	3.345061647330478e-12 	101324.9999999948
0.296546546546546 	299.9999999999931 	3.702149026457901e-12 	101324.9999999948
0.2990490490490486 	299.9999999999618 	2.218544068870094e-12 	101324.9999999948
0.3015515515515511 	300.0000000000146 	4.589964360280689e-12 	101324.999999995
0.3040540540540535 	299.9999999999915 	1.475880783829632e-12 	101324.9999999953
0.3065565565565562 	299.9999999999968 	5.330961025654592e-12 	101324.9999999953
0.3090590590590585 	299.9999999999922 	1.00628663298723e-12 	101324.9999999953
0.3115615615615611 	299.9999999999642 	4.187552499437201e-12 	101324.9999999953
0.3140640640640635 	299.9999999999993 	2.111096090566087e-12 	101324.9999999954
0.316566566566566 	299.9999999999931 	3.215658172379725e-12 	101324.9999999954
0.3190690690690687 	299.9999999999744 	1.965180126948618e-12 	101324.9999999954
0.3215715715715711 	300.0000000000051 	3.056755989599014e-12 	101324.9999999952
0.3240740740740735 	299.9999999999959 	1.468805592918008e-12 	101324.9999999949
0.326576576576576 	299.9999999999465 	1.785620733437153e-12 	101324.9999999949
0.3290790790790786 	299.9999999999996 	1.141245212260138e-12 	101324.9999999951
0.3315815815815811 	300.0000000000209 	1.328082166548984e-12 	101324.9999999953
0.3340840840840836 	299.9999999999959 	1.312056967700203e-12 	101324.9999999953
0.3365865865865861 	300.0000000000304 	1.940513552502382e-12 	101324.9999999954
0.3390890890890886 	300.0000000000246 	9.204670893561537e-13 	101324.9999999955
0.3415915915915911 	300.0000000000003 	1.243643339380778e-12 	101324.9999999955
0.3440940940940935 	299.9999999999719 	8.737107107098351e-13 	101324.9999999957
0.3465965965965962 	300.0000000000189 	1.144181739927643e-12 	101324.9999999954
0.3490990990990985 	300.0000000000144 	3.088549066660784e-13 	101324.9999999954
0.3516016016016011 	299.9999999999922 	3.814840075624907e-13 	101324.9999999952
0.3541041041041035 	300.0000000000031 	1.999640487446494e-13 	101324.999999995
0.3566066066066061 	299.9999999999773 	5.181659570987486e-13 	101324.9999999951
0.3591091091091085 	299.9999999999586 	7.588770995889423e-13 	101324.9999999948
0.3616116116116112 	299.9999999999673 	1.2776727007572e-12 	101324.9999999949
0.3641141141141137 	299.9999999999618 	1.207074224684282e-12 	101324.9999999951
0.3666166166166161 	299.9999999999609 	1.781957934942067e-12 	101324.9999999952
0.3691191191191185 	300.0000000000169 	2.194910124089897e-12 	101324.9999999954
0.371621621621621 	300.0000000000078 	1.172352720631587e-12 	101324.9999999954
0.3741241241241237 	300.0000000000256 	1.690147648151993e-12 	101324.9999999954
0.3766266266266261 	300.0000000000116 	6.286506041032664e-13 	101324.9999999954
0.3791291291291286 	299.9999999999921 	1.082142189538659e-12 	101324.9999999954
0.3816316316316311 	299.9999999999588 	8.414072299432368e-13 	101324.9999999952
0.3841341341341336 	300.0000000000027 	8.123834429122209e-13 	101324.9999999954
0.3866366366366362 	299.9999999999969 	5.247313879809639e-13 	101324.9999999952
0.3891391391391387 	299.9999999999778 	2.687419674677403e-13 	101324.9999999954
0.391641641641641 	299.9999999999968 	7.199826957533297e-13 	101324.9999999956
0.3941441441441436 	300.0000000000038 	4.535765699932931e-13 	101324.9999999958
0.3966466466466462 	300.0000000000002 	7.241750803169345e-13 	101324.9999999959
0.3991491491491486 	299.9999999999753 	4.624022411750937e-13 	101324.9999999959
0.4016516516516512 	299.999999999959 	1.237395457080766e-12 	101324.9999999957
0.4041541541541536 	299.9999999999762 	6.779534668884523e-13 	101324.9999999953
0.4066566566566561 	299.9999999999749 	2.473096025762047e-12 	101324.9999999951
0.4091591591591587 	299.9999999999968 	1.080049034501376e-12 	101324.9999999948
0.4116616616616612 	300.0000000000038 	2.925789691894829e-12 	101324.9999999948
0.4141641641641635 	300.0000000000193 	1.74610774200165e-12 	101324.9999999951
0.4166666666666662 	299.9999999999989 	2.436229870071097e-12 	101324.9999999953
0.4191691691691687 	299.99999999997 	2.673023622612092e-12 	101324.9999999952
0.421671671671671 	300.0000000000044 	1.807562943754315e-12 	101324.9999999954
0.4241741741741737 	299.999999999986 	3.514040900011204e-12 	101324.9999999956
0.4266766766766761 	299.9999999999725 	9.608167395245789e-13 	101324.9999999956
0.4291791791791785 	300.0000000000123 	3.760322124476382e-12 	101324.9999999957
0.4316816816816812 	300.0000000000046 	1.383013399790595e-12 	101324.9999999953
0.4341841841841836 	299.9999999999887 	3.91118308257488e-12 	101324.9999999953
0.4366866866866862 	299.9999999999603 	1.597997809999695e-12 	101324.9999999954
0.4391891891891885 	299.9999999999978 	3.50371442601427e-12 	101324.9999999952
0.4416916916916913 	299.9999999999924 	2.318800326664007e-12 	101324.9999999952
0.4441941941941936 	299.9999999999941 	2.957050457219819e-12 	101324.999999995
0.4466966966966961 	299.9999999999608 	2.197746179976861e-12 	101324.9999999954
0.4491991991991987 	299.9999999999937 	1.503796303150424e-12 	101324.9999999956
0.4517017017017012 	299.9999999999931 	1.864995264366427e-12 	101324.9999999959
0.4542042042042035 	299.9999999999937 	1.344807308131558e-12 	101324.9999999959
0.4567067067067062 	299.9999999999992 	2.296094772082821e-12 	101324.9999999962
0.4592092092092087 	299.9999999999649 	1.994817667967581e-12 	101324.9999999962
0.4617117117117112 	300.0000000000094 	1.967651410238668e-12 	101324.9999999961
0.4642142142142137 	299.9999999999816 	1.215349059738801e-12 	101324.9999999957
0.4667167167167162 	299.9999999999961 	7.01161742471276e-13 	101324.9999999956
0.4692192192192187 	299.9999999999789 	7.759651105079655e-13 	101324.9999999954
0.4717217217217212 	300.000000000006 	9.554883940375106e-13 	101324.9999999954
0.4742242242242236 	299.9999999999771 	1.625044598428346e-12 	101324.9999999953
0.4767267267267262 	299.9999999999865 	1.357480330473557e-12 	101324.9999999954
0.4792292292292287 	300.0000000000081 	1.802202721058713e-12 	101324.9999999956
0.4817317317317312 	300.0000000000147 	2.063228076333266e-12 	101324.9999999957
0.4842342342342336 	299.9999999999931 	2.282962741888726e-12 	101324.9999999958
0.4867367367367362 	299.9999999999781 	2.895299755331554e-12 	101324.999999996
0.4892392392392387 	300.0000000000155 	2.645567564540471e-12 	101324.999999996
0.4917417417417412 	300.0000000000023 	3.27624874395129e-12 	101324.9999999959
0.4942442442442437 	299.9999999999523 	2.141915393307675e-12 	101324.9999999956
0.4967467467467462 	299.9999999999618 	3.213791676525174e-12 	101324.9999999956
0.4992492492492487 	299.9999999999586 	1.464756258475419e-12 	101324.9999999954
0.5017517517517511 	299.999999999977 	3.009619793409164e-12 	101324.9999999954
0.5042542542542537 	299.9999999999823 	2.146532567394057e-12 	101324.9999999954
0.5067567567567562 	299.9999999999744 	2.328978188856548e-12 	101324.9999999955
0.5092592592592589 	299.9999999999864 	2.273564044004748e-12 	101324.9999999955
0.5117617617617611 	299.9999999999798 	1.863884101410944e-12 	101324.9999999957
0.5142642642642637 	299.9999999999944 	3.004719146204064e-12 	101324.9999999959
0.5167667667667663 	299.9999999999873 	1.995671594097727e-12 	101324.999999996
0.5192692692692688 	299.9999999999613 	4.215398517786191e-12 	101324.999999996
0.5217717717717714 	299.9999999999677 	1.462382965405897e-12 	101324.9999999959
0.5242742742742736 	299.9999999999674 	3.59836718954071e-12 	101324.9999999958
0.5267767767767763 	299.9999999999813 	1.31195302011236e-12 	101324.9999999956
0.5292792792792789 	299.9999999999716 	3.691515184945438e-12 	101324.9999999955
0.5317817817817813 	299.9999999999553 	1.979300255911661e-12 	101324.9999999956
0.5342842842842837 	300.0000000000094 	2.407440828972223e-12 	101324.9999999957
0.5367867867867864 	300.0000000000018 	1.731930320255465e-12 	101324.9999999958
0.5392892892892888 	299.9999999999792 	1.429151633244295e-12 	101324.999999996
0.5417917917917912 	300.0000000000027 	1.82524447937695e-12 	101324.999999996
0.5442942942942938 	299.9999999999891 	2.606518123322715e-12 	101324.9999999959
0.5467967967967964 	299.9999999999745 	2.293447625282279e-12 	101324.9999999959
0.5492992992992988 	299.9999999999662 	2.362522281317601e-12 	101324.9999999957
0.5518018018018012 	299.999999999967 	2.381422797340924e-12 	101324.9999999956
0.5543043043043039 	300.0000000000096 	2.872917705257866e-12 	101324.9999999956
0.5568068068068063 	299.9999999999949 	3.016566309814045e-12 	101324.9999999955
0.5593093093093087 	299.9999999999524 	3.498681345728853e-12 	101324.9999999956
0.5618118118118114 	299.9999999999794 	1.535988804286396e-12 	101324.9999999955
0.5643143143143137 	299.999999999972 	2.460283531417765e-12 	101324.9999999958
0.5668168168168163 	299.9999999999951 	1.54907117977718e-12 	101324.999999996
0.5693193193193188 	300.0000000000183 	2.040761463076448e-12 	101324.9999999961
0.5718218218218213 	300.0000000000146 	2.478851615557402e-12 	101324.9999999959
0.5743243243243239 	300.0000000000049 	2.276208004138842e-12 	101324.9999999958
0.5768268268268262 	300.0000000000024 	2.933337017632888e-12 	101324.9999999958
0.5793293293293288 	299.9999999999761 	1.327962111460396e-12 	101324.9999999958
0.5818318318318314 	299.9999999999596 	3.236803665231229e-12 	101324.9999999956
0.5843343343343338 	299.9999999999879 	1.266169664869071e-12 	101324.9999999954
0.5868368368368363 	299.9999999999845 	3.088139916746792e-12 	101324.9999999953
0.5893393393393387 	299.9999999999678 	1.255176323665974e-12 	101324.9999999955
0.5918418418418413 	299.9999999999698 	2.329011796720825e-12 	101324.9999999956
0.5943443443443439 	300.000000000009 	1.143260666664073e-12 	101324.9999999954
0.5968468468468463 	300.0000000000102 	1.920672145784795e-12 	101324.9999999953
0.5993493493493487 	300.0000000000221 	1.457204761759428e-12 	101324.9999999953
0.6018518518518514 	299.9999999999892 	1.725359825842668e-12 	101324.9999999952
0.6043543543543537 	299.9999999999957 	1.649092539526371e-12 	101324.9999999953
0.6068568568568564 	299.9999999999893 	1.967921305414527e-12 	101324.9999999953
0.6093593593593587 	299.9999999999637 	1.692151929526997e-12 	101324.9999999952
0.6118618618618614 	299.9999999999617 	1.624999990668377e-12 	101324.9999999954
0.6143643643643638 	300.0000000000049 	1.301730281772684e-12 	101324.9999999957
0.6168668668668662 	299.9999999999919 	1.868540801297966e-12 	101324.9999999958
0.6193693693693688 	299.9999999999787 	1.101298323610135e-12 	101324.9999999959
0.6218718718718714 	299.9999999999825 	2.395075753644323e-12 	101324.9999999959
0.6243743743743737 	299.9999999999656 	9.444018663781008e-13 	101324.9999999958
0.6268768768768762 	299.9999999999613 	1.984413080149704e-12 	101324.9999999955
0.629379379379379 	299.9999999999732 	1.054973767796158e-12 	101324.9999999954
0.6318818818818812 	299.9999999999847 	2.051294127618262e-12 	101324.9999999954
0.6343843843843838 	300.0000000000067 	1.971876437823275e-12 	101324.9999999954
0.6368868868868864 	299.999999999989 	2.105010294369335e-12 	101324.9999999953
0.6393893893893888 	299.9999999999601 	2.586331188988121e-12 	101324.9999999951
0.6418918918918912 	300.0000000000039 	1.478617914687563e-12 	101324.999999995
0.6443943943943939 	299.9999999999956 	3.384862902800136e-12 	101324.9999999951
0.6468968968968963 	299.9999999999905 	1.504930714327304e-12 	101324.9999999951
0.6493993993993988 	299.9999999999869 	3.931073481934152e-12 	101324.9999999951
0.6519019019019012 	299.9999999999819 	2.142207407672034e-12 	101324.9999999952
0.6544044044044038 	299.9999999999483 	3.59151879120453e-12 	101324.9999999952
0.6569069069069065 	299.9999999999791 	1.684944382925157e-12 	101324.9999999952
0.6594094094094087 	299.9999999999777 	2.744670709669334e-12 	101324.9999999955
0.6619119119119113 	299.9999999999739 	1.549022282735928e-12 	101324.9999999955
0.664414414414414 	299.999999999999 	2.378527869067298e-12 	101324.9999999955
0.6669169169169162 	300.0000000000077 	1.890011877533745e-12 	101324.9999999955
0.6694194194194188 	299.9999999999925 	2.503883828002993e-12 	101324.9999999954
0.6719219219219214 	299.9999999999661 	2.005346881657797e-12 	101324.9999999954
0.674424424424424 	299.9999999999892 	1.846747655118118e-12 	101324.9999999955
0.6769269269269262 	299.9999999999577 	1.137436080363556e-12 	101324.9999999956
0.679429429429429 	300.0000000000032 	9.557647151180788e-13 	101324.9999999955
0.6819319319319311 	299.9999999999864 	5.528382073410501e-13 	101324.9999999954
0.6844344344344341 	299.999999999995 	1.092191763851366e-12 	101324.9999999953
0.686936936936936 	299.9999999999932 	6.18687127204929e-13 	101324.9999999953
0.6894394394394392 	299.9999999999915 	9.866931490852415e-13 	101324.9999999954
0.6919419419419413 	299.9999999999936 	7.384755509431723e-13 	101324.9999999955
0.694444444444444 	299.9999999999775 	9.99302683767639e-13 	101324.9999999955
0.6969469469469463 	299.9999999999634 	1.117907818019128e-12 	101324.9999999954
0.6994494494494489 	299.9999999999549 	9.647838344450292e-13 	101324.9999999953
0.7019519519519515 	299.9999999999891 	1.607416392831237e-12 	101324.9999999952
0.7044544544544538 	299.9999999999736 	9.717531001652361e-13 	101324.999999995
0.7069569569569564 	299.9999999999967 	2.089294061144347e-12 	101324.9999999949
0.7094594594594589 	299.9999999999816 	9.3449183825234e-13 	101324.9999999948
0.7119619619619615 	299.999999999954 	1.976849107670438e-12 	101324.9999999947
0.7144644644644638 	299.9999999999703 	8.11163264464285e-13 	101324.9999999948
0.7169669669669665 	299.9999999999584 	1.16927812758104e-12 	101324.9999999948
0.7194694694694688 	299.9999999999954 	5.176766946872388e-13 	101324.9999999948
0.7219719719719715 	299.9999999999941 	8.902404415622943e-13 	101324.9999999949
0.7244744744744737 	299.9999999999997 	7.687826863423987e-13 	101324.999999995
0.7269769769769764 	299.9999999999956 	8.311459986727049e-13 	101324.9999999949
0.7294794794794791 	299.9999999999921 	1.672340421592702e-12 	101324.9999999948
0.7319819819819813 	299.9999999999902 	1.215842639930458e-12 	101324.9999999948
0.7344844844844839 	299.9999999999598 	1.188710397799326e-12 	101324.9999999947
0.7369869869869864 	299.999999999975 	5.345643441999334e-13 	101324.9999999947
0.739489489489489 	299.999999999969 	4.800398274570408e-13 	101324.9999999947
0.7419919919919914 	299.9999999999644 	7.091360606828438e-13 	101324.9999999949
0.7444944944944939 	299.9999999999877 	1.488990067567861e-12 	101324.999999995
0.7469969969969963 	299.9999999999846 	1.818287099844721e-12 	101324.9999999951
0.7494994994994989 	299.9999999999701 	2.119006720314906e-12 	101324.9999999951
0.7520020020020015 	299.9999999999812 	2.322587001846874e-12 	101324.9999999951
0.7545045045045039 	299.9999999999825 	1.836732919063004e-12 	101324.999999995
0.7570070070070062 	299.999999999971 	1.270711859838585e-12 	101324.9999999948
0.7595095095095092 	299.9999999999631 	1.344500797506643e-12 	101324.9999999947
0.7620120120120112 	299.9999999999999 	7.589425476321896e-13 	101324.9999999946
0.7645145145145138 	299.9999999999917 	4.883090116986613e-13 	101324.9999999945
0.7670170170170165 	299.9999999999663 	1.355520161214716e-12 	101324.9999999944
0.7695195195195191 	299.9999999999588 	1.836769582714193e-12 	101324.9999999945
0.7720220220220213 	299.9999999999655 	1.358055692289605e-12 	101324.9999999944
0.7745245245245239 	299.9999999999678 	2.150030804046843e-12 	101324.9999999945
0.7770270270270263 	299.9999999999834 	6.073524213380413e-13 	101324.9999999947
0.779529529529529 	299.9999999999869 	1.02030188006539e-12 	101324.9999999948
0.7820320320320313 	299.9999999999845 	2.710616080492265e-13 	101324.9999999949
0.784534534534534 	299.9999999999994 	5.399055845134514e-13 	101324.999999995
0.7870370370370364 	299.9999999999962 	1.075351909646053e-12 	101324.9999999951
0.7895395395395389 	299.9999999999878 	1.022123936735584e-12 	101324.999999995
0.7920420420420413 	299.9999999999872 	1.708904816036387e-12 	101324.9999999948
0.794544544544544 	299.9999999999915 	2.336600191223697e-12 	101324.9999999947
0.7970470470470463 	300.000000000003 	1.791043984722114e-12 	101324.9999999948
0.799549549549549 	299.9999999999911 	2.296681758135859e-12 	101324.9999999947
0.8020520520520515 	299.9999999999941 	1.222303467259537e-12 	101324.9999999942
0.8045545545545539 	299.9999999999706 	2.086627411159434e-12 	101324.9999999933
0.8070570570570563 	299.9999999999895 	8.055508955962636e-12 	101324.9999999912
0.8095595595595589 	299.999999999974 	2.00240788765197e-11 	101324.9999999864
0.8120620620620614 	299.9999999999505 	4.856794508974673e-11 	101324.9999999751
0.8145645645645638 	299.9999999999561 	1.146644849325602e-10 	101324.9999999494
0.8170670670670666 	299.9999999999046 	2.638071213435171e-10 	101324.9999998915
0.8195695695695689 	299.9999999997887 	5.990128197027771e-10 	101324.9999997615
0.8220720720720714 	299.9999999995297 	1.33850656874731e-09 	101324.9999994731
0.8245745745745739 	299.9999999990222 	2.963682928838302e-09 	101324.9999988399
0.8270770770770765 	299.9999999978477 	6.484663999622799e-09 	101324.999997465
0.8295795795795788 	299.9999999953368 	1.404018070135291e-08 	101324.9999945124
0.8320820820820815 	299.9999999900668 	3.006545986869341e-08 	101324.9999882418
0.834584584584584 	299.9999999789268 	6.367351775433133e-08 	101324.9999750763
0.8370870870870865 	299.9999999557986 	1.333336612334827e-07 	101324.9999477553
0.8395895895895891 	299.9999999083869 	2.760096110174363e-07 	101324.9998917292
0.8420920920920915 	299.9999998123911 	5.646933155204323e-07 	101324.9997782303
0.844594594594594 	299.999999620315 	1.141556068155102e-06 	101324.9995511498
0.8470970970970964 	299.9999992409071 	2.279637378972228e-06 	101324.9991025851
0.8495995995995991 	299.9999985011934 	4.495710852642754e-06 	101324.9982280273
0.8521021021021015 	299.9999970781738 	8.753228271079301e-06 	101324.9965456578
0.8546046046046039 	299.9999943782304 	1.682058418977007e-05 	101324.9933536407
0.8571071071071066 	299.9999893276758 	3.189143719130258e-05 	101324.9873826007
0.8596096096096089 	299.9999800169351 	5.963695725611606e-05 	101324.9763749975
0.8621121121121116 	299.9999631091102 	0.0001099520321527235 	101324.9563857656
0.8646146146146139 	299.9999328791533 	0.0001997856650467356 	101324.9206464705
0.8671171171171166 	299.9998796925486 	0.000357612780521076 	101324.8577669111
0.8696196196196189 	299.9997876633425 	0.0006303036496178053 	101324.7489661345
0.8721221221221216 	299.9996311582755 	0.001093350668567078 	101324.5639397309
0.874624624624624 	299.9993697606544 	0.001865559774803031 	101324.2549062489
0.8771271271271264 	299.998941308803 	0.003129292927180937 	101323.7483776101
0.879629629629629 	299.9982527426573 	0.005156980278264276 	101322.9343390568
0.8821321321321317 	299.9971688150291 	0.008343653994823043 	101321.6529065054
0.8846346346346339 	299.9954993581545 	0.01324338559702304 	101319.6792795654
0.8871371371371364 	299.9929868453722 	0.02060444412588804 	101316.7090502567
0.8896396396396391 	299.9892975067042 	0.03139359315628094 	101312.3477256469
0.8921421421421414 	299.9840211777328 	0.04679444174059687 	101306.1105935415
0.8946446446446441 	299.9766870841526 	0.06815904551650054 	101297.4414521015
0.8971471471471464 	299.9668042719072 	0.09688784346947044 	101285.7604976751
0.8996496496496489 	299.9539353854333 	0.1342133961197906 	101270.5516358103
0.9021521521521517 	299.9378096765436 	0.1808719699154276 	101251.4961097196
0.9046546546546541 	299.9184741628654 	0.2366675324640233 	101228.6510610123
0.9071571571571564 	299.8964698651843 	0.299970300599522 	101202.6574347258
0.9096596596596589 	299.8729969000514 	0.3672820506852874 	101174.9343232258
0.9121621621621616 	299.8499612875248 	0.433177217875915 	101147.7332869408
0.9146646646646639 	299.8297417861882 	0.4909772989227318 	101123.8622059732
0.9171671671671666 	299.8146691731274 	0.5341616028776043 	101106.0704968073
0.9196696696696689 	299.8064066272265 	0.5580796455631933 	101096.3183740853
0.9221721721721714 	299.8054276493822 	0.5614211686522219 	101095.1618664499
0.9246746746746741 	299.8107375527649 	0.5470005780639606 	101101.4291783628
0.9271771771771765 	299.819947970422 	0.5215664124339419 	101112.3035527149
0.9296796796796791 	299.8297321518 	0.4944580780830014 	101123.8534461962
0.9321821821821816 	299.836718094553 	0.4749574615094686 	101132.1005737597
0.9346846846846838 	299.8387857519255 	0.4688654258497581 	101134.5422473828
0.9371871871871866 	299.8359959109632 	0.4760952944971272 	101131.2487149943
0.9396896896896891 	299.830478282316 	0.490883055703394 	101124.7333289767
0.9421921921921914 	299.8253996223761 	0.5046180562610278 	101118.7378527673
0.9446946946946939 	299.8234102413595 	0.5101658423708931 	101116.3889128618
0.9471971971971965 	299.8251947798241 	0.505630092074092 	101118.4952324308
0.9496996996996991 	299.8291749812223 	0.4951476260180051 	101123.1949842098
0.9522022022022016 	299.8326044481847 	0.4859997494283506 	101127.243768798
0.9547047047047038 	299.8333767404645 	0.4837526907584359 	101128.1560602489
0.9572072072072064 	299.8314488226448 	0.4885900509106672 	101125.8800740071
0.9597097097097093 	299.8287356807045 	0.4955786184579767 	101122.6761172838
0.9622122122122114 	299.827526372585 	0.4987812196353117 	101121.2482309129
0.964714714714714 	299.8286505446844 	0.4960090286346986 	101122.5751875432
0.9672172172172167 	299.8308949830493 	0.4902948397268534 	101125.2253295631
0.969719719719719 	299.8322226215316 	0.4868133869163189 	101126.7931280443
0.9722222222222214 	299.8316650964534 	0.4880596035134061 	101126.1352208014
0.9747247247247239 	299.8301429442768 	0.4917908535026628 	101124.3375990111
0.9772272272272267 	299.829399806978 	0.4936654793284432 	101123.4599142854
0.9797297297297292 	299.8301736079875 	0.4918028997144057 	101124.3734500267
0.9822322322322313 	299.8315208669287 	0.4884653835617599 	101125.9642765055
0.9847347347347344 	299.8320011865429 	0.4871801595088924 	101126.5315125612
0.9872372372372363 	299.8313277678715 	0.4886992893152109 	101125.7367416215
0.9897397397397389 	299.8305804339251 	0.4904644897079652 	101124.8538910887
0.9922422422422417 	299.8307790456712 	0.4900059660143732 	101125.0881310448
0.9947447447447441 	299.8316490021458 	0.4879184090299166 	101126.1154139746
0.9972472472472468 	299.8321106153222 	0.4867375044606753 	101126.6606043838
0.999749749749749 	299.8317622437061 	0.4874504981537612 	101126.2494277606
1.002252252252252 	299.8313326263353 	0.4884030910547221 	101125.7420033716
1.004754754754754 	299.8315545756021 	0.4878806760388873 	101126.0036891729
1.007257257257256 	299.8321439865936 	0.486484540102477 	101126.699714403
1.009759759759759 	299.8323341308431 	0.4859570399648751 	101126.9245835774
1.012262262262261 	299.8320582440855 	0.4864939459295632 	101126.5986636447
1.014764764764764 	299.831957111251 	0.4866793963926771 	101126.4789193097
1.017267267267267 	299.8323033683829 	0.4858727860935327 	101126.8878916298
1.019769769769769 	299.8326259830645 	0.4850843993168388 	101127.2688914147
1.022272272272272 	299.8325666938291 	0.4851203408204916 	101127.1987930271
1.024774774774774 	299.8324489851585 	0.4853103615074422 	101127.0598696679
1.027277277277277 	299.8326407751717 	0.484850180286212 	101127.2861922056
1.029779779779779 	299.8329213804311 	0.4841786480488035 	101127.6174537206
1.032282282282282 	299.8329526294991 	0.4840187734059277 	101127.6544524062
1.034784784784784 	299.8328950836145 	0.484063296082448 	101127.5864441375
1.037287287287286 	299.8330418616858 	0.4836977759639202 	101127.7595915539
1.039789789789789 	299.8332593112984 	0.4831709723097294 	101128.0164342934
1.042292292292291 	299.8333045213582 	0.4829841190886682 	101128.0698739724
1.044794794794794 	299.8333053962438 	0.4829014547715206 	101128.0707237449
1.047297297297296 	299.8334530368333 	0.4825333727949062 	101128.2449840894
1.049799799799799 	299.8336145095873 	0.4821244075013204 	101128.4358193237
1.052302302302302 	299.8336528903741 	0.4819530868797079 	101128.4809396134
1.054804804804804 	299.8337066970921 	0.4817637150831967 	101128.5443660899
1.057307307307306 	299.8338571828361 	0.4813889697438362 	101128.7222935041
1.059809809809809 	299.8339670466333 	0.4810818942950145 	101128.8518839754
1.062312312312312 	299.8340106684179 	0.4809022614228354 	101128.9032270053
1.064814814814814 	299.8341108994939 	0.4806247387689716 	101129.0216802876
1.067317317317317 	299.8342429524612 	0.4802836786901713 	101129.1776007727
1.069819819819819 	299.8343151569946 	0.4800475117302061 	101129.2627523243
1.072322322322321 	299.8343884850414 	0.4798155310570378 	101129.3493534914
1.074824824824824 	299.8345097814915 	0.4794987969807399 	101129.4926116288
1.077327327327327 	299.8346050901063 	0.4792226745479957 	101129.6050219321
1.079829829829829 	299.8346756104776 	0.4789924825761146 	101129.6882283463
1.082332332332332 	299.8347814346755 	0.4787047129054279 	101129.8132912156
1.084834834834834 	299.8348855831684 	0.4784161207454533 	101129.9360904409
1.087337337337337 	299.8349620177893 	0.4781737780928139 	101130.0262214903
1.089839839839839 	299.8350582426574 	0.4779017356290362 	101130.1400189095
1.092342342342342 	299.8351626927015 	0.4776146835597348 	101130.2632736657
1.094844844844844 	299.835244917842 	0.4773626285248477 	101130.3602574731
1.097347347347347 	299.8353374292285 	0.4770967024453062 	101130.4695426144
1.099849849849849 	299.83543937047 	0.4768148007068392 	101130.5900109172
1.102352352352352 	299.8355252068333 	0.4765573577584614 	101130.6911566122
1.104854854854854 	299.8356171276102 	0.4762927301204425 	101130.799554599
1.107357357357357 	299.8357163164206 	0.4760159358051944 	101130.9168392262
1.109859859859859 	299.8358037730793 	0.4757561828441067 	101131.0200378254
1.112362362362362 	299.8358962694484 	0.4754910197024473 	101131.129098862
1.114864864864865 	299.8359932181664 	0.4752185246210148 	101131.2435820111
1.117367367367367 	299.8360814791229 	0.4749579429453621 	101131.3478443447
1.119869869869869 	299.8361748057586 	0.4746919769837327 	101131.4579337884
1.122372372372372 	299.8362696350458 	0.4744233249747949 	101131.5698427914
1.124874874874874 	299.8363585976649 	0.4741624190074296 	101131.6749802359
1.127377377377377 	299.8364526099168 	0.4738958331246391 	101131.7858404081
1.129879879879879 	299.8365455584793 	0.4736300016658479 	101131.8954630669
1.132382382382382 	299.8366355559151 	0.4733684993165214 	101132.0018044273
1.134884884884884 	299.8367294430151 	0.4731027791292179 	101132.1127181505
1.137387387387387 	299.8368208573917 	0.4728397132767718 	101132.2205923542
1.139889889889889 	299.8369122390831 	0.4725773851339886 	101132.3283733599
1.142392392392392 	299.8370054966782 	0.4723130004962234 	101132.4384130277
1.144894894894894 	299.8370962312459 	0.4720516387072465 	101132.5455007643
1.147397397397397 	299.8371884964245 	0.471789141540935 	101132.6544042114
1.149899899899899 	299.837280517327 	0.4715266748193627 	101132.7630290758
1.152402402402402 	299.837371456121 	0.4712658652016554 	101132.8704144769
1.154904904904904 	299.8374638910909 	0.4710042360561003 	101132.9794340458
1.157407407407407 	299.8375550496684 	0.4707439900310559 	101133.0869688662
1.159909909909909 	299.8376466146401 	0.470483546645822 	101133.1951099328
1.162412412412412 	299.8377383241308 	0.4702230800362203 	101133.3033588497
1.164914914914914 	299.8378293618848 	0.4699637235074869 	101133.4108165437
1.167417417417417 	299.8379211297816 	0.4697042899124668 	101133.5191261814
1.169919919919919 	299.8380121513496 	0.4694460024351413 	101133.6266086694
1.172422422422422 	299.8381035635628 	0.4691878541331437 	101133.7344627311
1.174924924924925 	299.8381949456287 	0.4689299284353537 	101133.8421760887
1.177427427427427 	299.8382860316455 	0.4686727605249091 	101133.9496138219
1.179929929929929 	299.8383772847648 	0.4684157414995161 	101134.0573696735
1.182432432432432 	299.8384681561308 	0.4681596246015911 	101134.1646524338
1.184934934934934 	299.8385593772337 	0.4679041915945668 	101134.2722488926
1.187437437437437 	299.8386504360596 	0.4676492373419175 	101134.3795728612
1.189939939939939 	299.8387413769048 	0.4673946908751015 	101134.4869653147
1.192442442442442 	299.8388321274431 	0.4671408414954155 	101134.5942859894
1.194944944944944 	299.8389230535706 	0.4668877063163366 	101134.7014616815
1.197447447447447 	299.8390141141781 	0.4666353237938586 	101134.8086982607
1.199949949949949 	299.8391049817787 	0.4663840345518515 	101134.9157591661
1.202452452452452 	299.8391957412159 	0.4661332904749654 	101135.0229197384
1.204954954954955 	299.8392862963901 	0.4658833682409931 	101135.1299417877
1.207457457457457 	299.8393770853186 	0.4656345651498708 	101135.2370218111
1.20995995995996 	299.8394678983336 	0.4653866758614343 	101135.3439950082
1.212462462462462 	299.8395586831524 	0.4651390715662183 	101135.4509592824
1.214964964964964 	299.839649501702 	0.4648937706391622 	101135.5578714911
1.217467467467467 	299.8397402004543 	0.464646924985976 	101135.6647734948
1.219969969969969 	299.8398306964447 	0.4644063331847429 	101135.7716760199
1.222472472472472 	299.8399213779546 	0.4641526788993188 	101135.8785569156
1.224974974974975 	299.8400121887757 	0.463937425216732 	101135.9854937923
1.227477477477477 	299.8401030058674 	0.4636193639678621 	101136.0923381988
1.229979979979979 	299.8401940830857 	0.4635700491618606 	101136.199504174
1.232482482482482 	299.8402848508463 	0.4623962914059176 	101136.3059288885
1.234984984984984 	299.8403782447965 	0.4639754014969222 	101136.4167198137
1.237487487487487 	299.8404688907293 	0.4605006044558274 	101136.5203426407
1.239989989989989 	299.84055271686 	0.463550344544398 	101136.6240010185
1.242492492492492 	299.8406566597247 	0.4622772189395151 	101136.7368030668
1.244994994994994 	299.8399814705986 	0.4585612120682868 	101136.8236538259
1.247497497497497 	299.4032970990527 	0.4637764424986074 	101136.9373758695
1.249999999999999 	303.5094709593927 	0.4612708532651306 	101137.0470681222
