-1.25 	334.2273552964344 	0.08167257836132734 	101359.2273552964
-1.247497497497497 	300.1303179786665 	0.08190641623054461 	101358.7473513519
-1.244994994994995 	300.0283043651111 	0.08153729852603527 	101358.2359430051
-1.242492492492492 	300.0276797887032 	0.08020911936282227 	101357.7263433947
-1.23998998998999 	300.0272433523759 	0.07887429533343458 	101357.2105753619
-1.237487487487487 	300.0268021213859 	0.07761461410478407 	101356.6888395862
-1.234984984984985 	300.0263559804055 	0.07631777358866716 	101356.1612988395
-1.232482482482482 	300.0259049664165 	0.07501429118575734 	101355.6279981871
-1.22997997997998 	300.0254492192803 	0.07369431490287931 	101355.0891027453
-1.227477477477477 	300.0249887324818 	0.07236163046503459 	101354.5446049969
-1.224974974974975 	300.024523707886 	0.07101515856317278 	101353.9947436332
-1.222472472472472 	300.0240541057462 	0.06965564558515229 	101353.4394717894
-1.21996996996997 	300.0235801019369 	0.06828320091873046 	101352.8789974699
-1.217467467467467 	300.0231017817159 	0.06689813403572768 	101352.3134214813
-1.214964964964965 	300.0226190864465 	0.06550059449222187 	101351.7426746535
-1.212462462462462 	300.0221324072418 	0.06409110593969242 	101351.1672194229
-1.20995995995996 	300.021641452141 	0.06266953162552254 	101350.5867106839
-1.207457457457457 	300.0211465879082 	0.06123650157929868 	101350.0015821966
-1.204954954954955 	300.020647958353 	0.05979222254012165 	101349.4120038837
-1.202452452452452 	300.0201451566358 	0.05833646698277391 	101348.8174949716
-1.19994994994995 	300.019639010916 	0.05687044122800906 	101348.219034708
-1.197447447447447 	300.019129208441 	0.05539375572047119 	101347.6162531023
-1.194944944944945 	300.0186153967526 	0.05390619214279344 	101347.0087337178
-1.192442442442442 	300.0180987708413 	0.05240964424455348 	101346.397889604
-1.18993993993994 	300.0175788037202 	0.05090330775581618 	101345.7830974341
-1.187437437437437 	300.0170547783794 	0.04938615313563197 	101345.1635095832
-1.184934934934935 	300.0165280693114 	0.04786070458145548 	101344.5407514798
-1.182432432432432 	300.0159989651366 	0.04632766917859791 	101343.9151642586
-1.17992992992993 	300.0154662814455 	0.04478486999628363 	101343.2853472316
-1.177427427427427 	300.014930253434 	0.04323285593961317 	101342.6515786758
-1.174924924924925 	300.0143922776413 	0.0416745442368147 	101342.0155106746
-1.172422422422422 	300.0138521269748 	0.04010900301388916 	101341.3768750129
-1.16991991991992 	300.0133074873245 	0.03853146737391273 	101340.7329341028
-1.167417417417417 	300.0127588044761 	0.03694455755773012 	101340.0842135709
-1.164914914914915 	300.0122119791519 	0.03536158925090582 	101339.437691571
-1.162412412412412 	300.0116688553625 	0.03378405432929785 	101338.7955516114
-1.15990990990991 	300.0111185281046 	0.03218568560089145 	101338.1449011715
-1.157407407407407 	300.0105510581449 	0.03054645240459841 	101337.4739855946
-1.154904904904904 	300.0099785269231 	0.02889797506171223 	101336.7970849571
-1.152402402402403 	300.0094257886489 	0.02729815301089521 	101336.1435841876
-1.1498998998999 	300.0088953640501 	0.0257492274102564 	101335.516467321
-1.147397397397397 	300.0083554855806 	0.02417222959279328 	101334.8781806579
-1.144894894894895 	300.0077736002564 	0.0224891690292725 	101334.1902396017
-1.142392392392392 	300.0071573564147 	0.02072185327223823 	101333.4616846951
-1.13988988988989 	300.0065530224803 	0.01898698829547594 	101332.7472123164
-1.137387387387387 	300.0060011611549 	0.01738673687392737 	101332.0947725518
-1.134884884884885 	300.0054972519443 	0.01590883718885138 	101331.4990185306
-1.132382382382382 	300.0049939508365 	0.01442944025413805 	101330.9039793889
-1.12987987987988 	300.0044367432264 	0.01280476173820913 	101330.2452098086
-1.127377377377377 	300.0038016329104 	0.01097181415230744 	101329.494345525
-1.124874874874875 	300.0031109149753 	0.00899110253836902 	101328.6777484672
-1.122372372372372 	300.0024205752741 	0.007013668310955128 	101327.8616080852
-1.11986986986987 	300.001790826356 	0.005205004524296769 	101327.1171076324
-1.117367367367367 	300.0012623574271 	0.003681051733225802 	101326.4923475932
-1.114864864864865 	300.0008500277151 	0.002486958835690021 	101326.0048916332
-1.112362362362362 	300.000548217749 	0.001609280327471835 	101325.6480940154
-1.10985985985986 	300.0003394931219 	0.0009998524893716743 	101325.4013422883
-1.107357357357357 	300.0002023339865 	0.0005978280629637956 	101325.2391949363
-1.104854854854855 	300.0001162992615 	0.0003447146580094893 	101325.137486299
-1.102352352352353 	300.0000645919065 	0.0001920471457956914 	101325.0763589683
-1.09984984984985 	300.0000347228766 	0.0001035532647154009 	101325.0410484891
-1.097347347347347 	300.0000180951578 	5.412533634417242e-05 	101325.021391604
-1.094844844844845 	300.0000091543618 	2.746182050191331e-05 	101325.0108220314
-1.092342342342342 	300.0000045016129 	1.354273601675508e-05 	101325.0053216827
-1.08983983983984 	300.0000021542138 	6.498907942008496e-06 	101325.0025466624
-1.087337337337337 	300.0000010042831 	3.038068662167697e-06 	101325.0011872473
-1.084834834834835 	300.0000004565603 	1.384863780785612e-06 	101325.0005397423
-1.082332332332332 	300.000000202591 	6.161207696890444e-07 	101325.0002394981
-1.07982982982983 	300.000000087826 	2.677569959571563e-07 	101325.0001038135
-1.077327327327327 	300.000000037224 	1.137572267914075e-07 	101325.0000439928
-1.074824824824825 	300.0000000154306 	4.7281499638738e-08 	101325.0000182391
-1.072322322322323 	300.0000000062639 	1.923987343806704e-08 	101325.0000074029
-1.06981981981982 	300.0000000025008 	7.66991472356903e-09 	101325.0000029432
-1.067317317317317 	300.0000000009705 	2.998215897687455e-09 	101325.0000011466
-1.064814814814815 	300.0000000003633 	1.150081318735532e-09 	101325.0000004376
-1.062312312312312 	300.0000000001349 	4.336324631565662e-10 	101325.0000001633
-1.05980980980981 	300.0000000000459 	1.612793453339908e-10 	101325.000000059
-1.057307307307307 	300 	5.920093266321285e-11 	101325.0000000201
-1.054804804804805 	299.9999999999894 	2.136019450005835e-11 	101325.0000000059
-1.052302302302302 	299.9999999999942 	7.666278206024112e-12 	101325.0000000008
-1.0497997997998 	299.9999999999993 	2.756156826661534e-12 	101324.9999999992
-1.047297297297297 	300.0000000000092 	1.194080128638386e-12 	101324.9999999987
-1.044794794794795 	300.0000000000057 	7.840796022334125e-13 	101324.9999999987
-1.042292292292292 	300.0000000000024 	5.148413759490583e-13 	101324.9999999986
-1.03978978978979 	299.9999999999943 	4.277541757572063e-13 	101324.9999999986
-1.037287287287287 	299.9999999999919 	5.925186892403458e-13 	101324.9999999987
-1.034784784784785 	299.9999999999982 	8.67713726706991e-13 	101324.9999999986
-1.032282282282283 	299.9999999999998 	9.213994732449416e-13 	101324.9999999987
-1.02977977977978 	299.9999999999989 	1.366716814964379e-12 	101324.9999999987
-1.027277277277277 	299.9999999999839 	1.679751060899105e-12 	101324.9999999987
-1.024774774774775 	299.9999999999832 	1.316121926981853e-12 	101324.9999999987
-1.022272272272272 	299.999999999989 	8.914306097965909e-13 	101324.9999999987
-1.01976976976977 	299.9999999999892 	9.501516184810365e-13 	101324.9999999986
-1.017267267267267 	299.9999999999827 	7.273064852904724e-13 	101324.9999999985
-1.014764764764765 	299.9999999999847 	1.12040156324706e-12 	101324.9999999986
-1.012262262262262 	299.9999999999898 	6.818310018258736e-13 	101324.9999999987
-1.00975975975976 	299.9999999999891 	1.027039489571245e-12 	101324.9999999987
-1.007257257257257 	299.9999999999895 	1.442608494117234e-12 	101324.9999999986
-1.004754754754755 	299.9999999999997 	1.212176025685108e-12 	101324.9999999986
-1.002252252252252 	299.9999999999984 	4.825159574310333e-13 	101324.9999999985
-0.9997497497497498 	299.9999999999959 	2.242121506034739e-13 	101324.9999999986
-0.9972472472472473 	299.9999999999973 	4.390395759187228e-13 	101324.9999999986
-0.9947447447447449 	299.9999999999879 	4.754246691890819e-13 	101324.9999999985
-0.9922422422422421 	299.9999999999925 	4.207916390331594e-13 	101324.9999999983
-0.9897397397397399 	299.9999999999938 	6.368622412374948e-13 	101324.9999999981
-0.9872372372372376 	299.9999999999939 	1.501262934499521e-12 	101324.999999998
-0.9847347347347346 	299.9999999999874 	9.297147538912002e-13 	101324.9999999982
-0.9822322322322323 	299.9999999999879 	1.124117336147867e-12 	101324.9999999985
-0.9797297297297296 	299.9999999999952 	1.11494853551999e-12 	101324.9999999986
-0.9772272272272275 	299.9999999999992 	8.318432881709934e-13 	101324.9999999986
-0.9747247247247248 	300.0000000000014 	7.380343765151793e-13 	101324.9999999986
-0.9722222222222224 	299.9999999999868 	6.026708974536577e-13 	101324.9999999987
-0.9697197197197196 	299.9999999999824 	8.541035209207719e-13 	101324.9999999987
-0.9672172172172175 	299.9999999999871 	7.798432822174853e-13 	101324.9999999988
-0.9647147147147147 	299.9999999999919 	5.429938315647179e-13 	101324.999999999
-0.9622122122122124 	299.9999999999931 	9.86390224606705e-13 	101324.9999999989
-0.9597097097097099 	299.9999999999957 	8.313042004512811e-13 	101324.9999999988
-0.9572072072072073 	299.9999999999937 	6.974550426189883e-13 	101324.9999999988
-0.9547047047047047 	300.000000000001 	4.106992474874273e-13 	101324.9999999986
-0.9522022022022023 	299.9999999999958 	5.950410716162657e-13 	101324.9999999985
-0.9496996996996998 	299.9999999999944 	8.473387307178092e-13 	101324.9999999985
-0.9471971971971973 	299.9999999999976 	1.657936459189869e-12 	101324.9999999985
-0.9446946946946947 	299.9999999999845 	1.211729912372244e-12 	101324.9999999984
-0.9421921921921923 	299.9999999999915 	9.221293958333657e-13 	101324.9999999983
-0.93968968968969 	299.9999999999996 	7.053416036160054e-13 	101324.9999999983
-0.9371871871871872 	299.999999999998 	4.569998436642942e-13 	101324.9999999983
-0.9346846846846848 	299.9999999999899 	4.207705847680315e-13 	101324.9999999986
-0.9321821821821823 	299.9999999999931 	8.381623282824516e-13 	101324.9999999985
-0.9296796796796799 	300.0000000000001 	5.85025273865077e-13 	101324.9999999984
-0.9271771771771771 	299.9999999999965 	9.466428147259783e-13 	101324.9999999983
-0.9246746746746748 	299.9999999999931 	1.311034383448419e-12 	101324.9999999983
-0.9221721721721724 	299.9999999999982 	1.100825181496202e-12 	101324.9999999985
-0.9196696696696698 	299.9999999999967 	1.277629212980012e-12 	101324.9999999985
-0.9171671671671672 	299.9999999999878 	7.867082215439317e-13 	101324.9999999984
-0.9146646646646649 	299.9999999999952 	4.277098854306868e-13 	101324.9999999983
-0.9121621621621623 	300.0000000000015 	3.423757952289327e-13 	101324.9999999983
-0.9096596596596597 	299.9999999999938 	6.415267352755218e-13 	101324.9999999982
-0.9071571571571573 	299.9999999999981 	8.052988605553508e-13 	101324.9999999982
-0.9046546546546547 	300.0000000000028 	8.763114632086471e-13 	101324.9999999983
-0.9021521521521524 	299.9999999999936 	7.01886148592365e-13 	101324.9999999983
-0.8996496496496498 	299.9999999999974 	6.037453137214953e-13 	101324.9999999983
-0.8971471471471473 	300.0000000000018 	7.597216349427054e-13 	101324.9999999983
-0.894644644644645 	299.9999999999998 	8.248225169525545e-13 	101324.9999999982
-0.892142142142142 	300.0000000000003 	7.772756037969876e-13 	101324.9999999981
-0.8896396396396397 	300.0000000000024 	1.822667966538022e-12 	101324.9999999981
-0.8871371371371374 	299.9999999999916 	1.250870021518128e-12 	101324.9999999982
-0.8846346346346349 	299.9999999999877 	2.308783487025112e-12 	101324.9999999983
-0.8821321321321324 	299.9999999999868 	1.308855512628362e-12 	101324.9999999983
-0.8796296296296297 	299.9999999999885 	2.373415067228826e-12 	101324.999999998
-0.8771271271271271 	299.9999999999899 	1.433429180587056e-12 	101324.9999999978
-0.8746246246246248 	299.9999999999973 	1.978194443890683e-12 	101324.9999999976
-0.8721221221221224 	300.0000000000009 	1.190693045004166e-12 	101324.9999999975
-0.8696196196196196 	299.9999999999928 	1.425705220704925e-12 	101324.9999999975
-0.8671171171171175 	299.9999999999965 	1.041280734306941e-12 	101324.9999999976
-0.8646146146146148 	299.9999999999875 	1.1175752785978e-12 	101324.9999999976
-0.8621121121121121 	299.9999999999943 	6.655463531064748e-13 	101324.9999999976
-0.8596096096096097 	300.000000000004 	5.63195909486073e-13 	101324.9999999977
-0.857107107107107 	299.9999999999916 	8.581670558267177e-13 	101324.9999999978
-0.8546046046046049 	299.9999999999968 	5.790572168868653e-13 	101324.999999998
-0.8521021021021022 	299.9999999999994 	8.907889862759407e-13 	101324.9999999979
-0.8495995995995997 	299.9999999999969 	1.621331974354197e-12 	101324.9999999979
-0.8470970970970974 	299.999999999986 	1.837548929551479e-12 	101324.9999999979
-0.8445945945945946 	299.9999999999896 	2.042464410969255e-12 	101324.9999999978
-0.8420920920920922 	300.0000000000005 	1.210131486363168e-12 	101324.9999999978
-0.8395895895895897 	299.9999999999964 	2.129469119482707e-12 	101324.9999999979
-0.8370870870870872 	299.9999999999979 	1.279212732175894e-12 	101324.9999999979
-0.8345845845845846 	300.0000000000007 	1.410134791178015e-12 	101324.9999999979
-0.8320820820820823 	299.9999999999892 	9.794835541441599e-13 	101324.999999998
-0.8295795795795798 	299.9999999999804 	1.066466423399478e-12 	101324.999999998
-0.8270770770770772 	299.9999999999882 	1.413482903929955e-12 	101324.999999998
-0.8245745745745746 	299.9999999999828 	9.680643008329532e-13 	101324.999999998
-0.8220720720720721 	299.9999999999873 	1.077709051656492e-12 	101324.9999999981
-0.8195695695695699 	299.9999999999967 	7.548303887291108e-13 	101324.9999999981
-0.817067067067067 	299.9999999999894 	1.060430238786387e-12 	101324.9999999982
-0.8145645645645651 	299.9999999999826 	1.789863995063084e-12 	101324.9999999984
-0.8120620620620621 	299.9999999999967 	8.402670244847431e-13 	101324.9999999985
-0.8095595595595597 	300.0000000000018 	4.379092849065978e-13 	101324.9999999986
-0.8070570570570572 	299.9999999999866 	4.101913346994443e-13 	101324.9999999984
-0.8045545545545546 	299.9999999999859 	6.698305364556206e-13 	101324.9999999983
-0.8020520520520523 	299.9999999999966 	1.262071992091007e-12 	101324.9999999983
-0.7995495495495494 	300.000000000004 	1.760198762627044e-12 	101324.9999999984
-0.7970470470470474 	299.9999999999998 	1.870077449139417e-12 	101324.9999999985
-0.7945445445445446 	300.0000000000001 	1.96009463960944e-12 	101324.9999999985
-0.7920420420420423 	300.0000000000021 	1.784553008857961e-12 	101324.9999999984
-0.7895395395395397 	300.0000000000025 	2.186045481212219e-12 	101324.9999999982
-0.7870370370370371 	300.0000000000005 	1.180936968076859e-12 	101324.9999999982
-0.7845345345345348 	299.9999999999917 	1.815171579237122e-12 	101324.9999999983
-0.7820320320320323 	299.9999999999918 	1.015418336216415e-12 	101324.9999999983
-0.7795295295295296 	299.9999999999825 	2.038866198867439e-12 	101324.9999999982
-0.7770270270270272 	299.9999999999794 	1.425979470047827e-12 	101324.9999999981
-0.7745245245245247 	299.9999999999794 	1.739070598656003e-12 	101324.9999999981
-0.7720220220220222 	299.9999999999894 	1.028621175495616e-12 	101324.9999999982
-0.7695195195195199 	299.9999999999898 	1.068009924590132e-12 	101324.9999999982
-0.767017017017017 	299.9999999999951 	1.246262208802629e-12 	101324.9999999982
-0.7645145145145147 	300.0000000000019 	1.202441733023956e-12 	101324.9999999982
-0.7620120120120122 	300.0000000000041 	2.158295128501299e-12 	101324.9999999983
-0.7595095095095097 	299.999999999984 	2.165537502477001e-12 	101324.9999999985
-0.7570070070070072 	299.9999999999834 	3.22148391051749e-12 	101324.9999999984
-0.7545045045045048 	299.9999999999961 	2.820045111595572e-12 	101324.9999999983
-0.7520020020020022 	299.9999999999906 	3.348133334949705e-12 	101324.9999999983
-0.7494994994994997 	299.9999999999897 	1.542246554076734e-12 	101324.9999999983
-0.7469969969969972 	299.9999999999984 	2.094811989572504e-12 	101324.9999999983
-0.7444944944944945 	299.9999999999961 	1.190649770589245e-12 	101324.9999999984
-0.7419919919919924 	299.999999999996 	1.563275786392214e-12 	101324.9999999986
-0.7394894894894897 	299.9999999999887 	2.007956642807302e-12 	101324.9999999986
-0.7369869869869872 	299.9999999999969 	1.859829042688161e-12 	101324.9999999983
-0.7344844844844846 	299.9999999999931 	2.765366768203411e-12 	101324.9999999981
-0.7319819819819822 	300.0000000000002 	1.785641327442409e-12 	101324.9999999982
-0.7294794794794797 	299.9999999999981 	3.102589535274497e-12 	101324.9999999982
-0.7269769769769773 	300.0000000000024 	2.244214577253526e-12 	101324.9999999982
-0.7244744744744747 	300.0000000000035 	1.977931447290153e-12 	101324.9999999981
-0.721971971971972 	299.9999999999897 	2.049539624885456e-12 	101324.999999998
-0.7194694694694695 	299.9999999999951 	1.90136743063358e-12 	101324.9999999981
-0.7169669669669674 	299.9999999999839 	2.059757453714701e-12 	101324.9999999982
-0.7144644644644647 	299.9999999999923 	2.098186655907646e-12 	101324.9999999984
-0.711961961961962 	300.0000000000021 	1.877463382383014e-12 	101324.9999999982
-0.7094594594594597 	300.0000000000033 	7.987647647352154e-13 	101324.9999999979
-0.7069569569569573 	300.0000000000035 	1.391077525334e-12 	101324.9999999979
-0.7044544544544545 	300.0000000000056 	1.023445337175013e-12 	101324.9999999979
-0.7019519519519523 	300.0000000000016 	7.888336832808491e-13 	101324.9999999979
-0.6994494494494495 	299.9999999999828 	1.006787437146744e-12 	101324.9999999978
-0.6969469469469471 	299.9999999999874 	1.284431447101979e-12 	101324.9999999979
-0.6944444444444446 	299.9999999999923 	1.553431912448993e-12 	101324.9999999982
-0.6919419419419421 	300.0000000000062 	1.648943705701204e-12 	101324.9999999982
-0.6894394394394396 	299.9999999999983 	1.495252004880882e-12 	101324.9999999983
-0.6869369369369374 	300.0000000000014 	1.575912780314738e-12 	101324.9999999983
-0.6844344344344344 	300.0000000000041 	1.119125634107526e-12 	101324.9999999984
-0.6819319319319321 	299.9999999999897 	1.468167702038695e-12 	101324.9999999984
-0.6794294294294296 	299.9999999999863 	1.620972515906823e-12 	101324.9999999983
-0.6769269269269272 	299.9999999999794 	1.9273637965212e-12 	101324.9999999983
-0.6744244244244245 	299.999999999992 	1.138857690052096e-12 	101324.9999999982
-0.6719219219219222 	299.9999999999912 	4.18648334504323e-13 	101324.9999999981
-0.6694194194194195 	299.999999999999 	5.850872573083506e-13 	101324.9999999982
-0.6669169169169172 	300.0000000000031 	4.566775735444412e-13 	101324.9999999982
-0.6644144144144146 	299.9999999999906 	6.972017406664818e-13 	101324.9999999983
-0.661911911911912 	299.9999999999927 	7.751842180632055e-13 	101324.9999999985
-0.6594094094094097 	299.9999999999952 	6.9875887722508e-13 	101324.9999999985
-0.656906906906907 	299.9999999999857 	3.298591176397519e-13 	101324.9999999985
-0.6544044044044046 	299.9999999999859 	7.921938366858653e-13 	101324.9999999984
-0.6519019019019021 	299.9999999999976 	5.276964300129987e-13 	101324.9999999984
-0.6493993993993996 	300.0000000000057 	1.53682684583756e-12 	101324.9999999984
-0.6468968968968971 	300.0000000000073 	8.016738092954587e-13 	101324.9999999984
-0.6443943943943946 	299.9999999999984 	1.937419601936157e-12 	101324.9999999982
-0.6418918918918921 	299.9999999999996 	8.624587584485342e-13 	101324.9999999981
-0.6393893893893897 	299.9999999999998 	7.988263018905179e-13 	101324.9999999981
-0.6368868868868871 	299.9999999999936 	6.420062339528051e-13 	101324.9999999984
-0.6343843843843846 	300.0000000000005 	5.617248003037073e-13 	101324.9999999984
-0.6318818818818821 	299.9999999999913 	7.574661469114721e-13 	101324.9999999984
-0.6293793793793795 	300.0000000000015 	5.618575781132327e-13 	101324.9999999983
-0.6268768768768773 	300.0000000000047 	3.528679860628152e-13 	101324.9999999982
-0.6243743743743745 	299.9999999999959 	5.189548293691971e-13 	101324.9999999982
-0.6218718718718721 	300.0000000000013 	6.823800911671886e-13 	101324.9999999982
-0.6193693693693696 	299.9999999999861 	6.302225899869099e-13 	101324.9999999984
-0.6168668668668671 	299.9999999999964 	1.02927460995198e-12 	101324.9999999983
-0.6143643643643645 	300.0000000000024 	7.082645155981737e-13 	101324.9999999982
-0.6118618618618621 	299.9999999999949 	3.364693616556584e-13 	101324.9999999983
-0.6093593593593596 	299.9999999999945 	2.019859610611291e-13 	101324.9999999982
-0.6068568568568571 	299.9999999999952 	2.491819265695066e-13 	101324.9999999982
-0.6043543543543546 	299.9999999999907 	2.593058685520581e-13 	101324.9999999983
-0.6018518518518521 	299.9999999999931 	4.955248429572642e-13 	101324.9999999984
-0.5993493493493496 	299.9999999999858 	1.065536655569524e-12 	101324.9999999983
-0.5968468468468471 	299.9999999999892 	1.311990339610329e-12 	101324.9999999985
-0.5943443443443446 	299.9999999999974 	1.639862973793553e-12 	101324.9999999987
-0.591841841841842 	299.9999999999899 	1.062329951453988e-12 	101324.9999999986
-0.5893393393393397 	299.9999999999908 	1.208356969032548e-12 	101324.9999999986
-0.5868368368368371 	299.9999999999979 	7.360485192911513e-13 	101324.9999999985
-0.5843343343343346 	299.9999999999986 	1.227314615414685e-12 	101324.9999999985
-0.5818318318318321 	300.0000000000049 	1.34332252467055e-12 	101324.9999999984
-0.5793293293293297 	299.9999999999961 	1.272582073247883e-12 	101324.9999999981
-0.5768268268268271 	300.0000000000005 	7.970408936709848e-13 	101324.9999999979
-0.5743243243243245 	300.0000000000045 	1.202195548436606e-12 	101324.9999999978
-0.5718218218218221 	300.000000000005 	1.152206060567353e-12 	101324.999999998
-0.5693193193193196 	300.0000000000095 	1.469172319607077e-12 	101324.9999999982
-0.5668168168168171 	299.9999999999968 	2.108396586915244e-12 	101324.9999999982
-0.5643143143143147 	299.9999999999873 	1.079654095033952e-12 	101324.9999999982
-0.5618118118118121 	300.0000000000028 	1.906087993204961e-12 	101324.9999999982
-0.5593093093093094 	300.0000000000078 	1.12134442818286e-12 	101324.9999999983
-0.5568068068068072 	300.000000000004 	1.524152819626649e-12 	101324.9999999985
-0.5543043043043046 	300.0000000000052 	1.492399032080705e-12 	101324.9999999985
-0.551801801801802 	299.9999999999897 	1.658112981968631e-12 	101324.9999999984
-0.5492992992992995 	300.0000000000002 	1.064385255357559e-12 	101324.9999999983
-0.5467967967967969 	300.000000000004 	1.040824515711308e-12 	101324.9999999982
-0.5442942942942947 	300.000000000001 	1.454703014802707e-12 	101324.9999999984
-0.5417917917917919 	299.9999999999899 	1.853379798331558e-12 	101324.9999999984
-0.5392892892892895 	299.999999999987 	1.808547404331106e-12 	101324.9999999984
-0.536786786786787 	299.9999999999909 	1.781886580194285e-12 	101324.9999999985
-0.5342842842842846 	299.999999999991 	1.402847194791586e-12 	101324.9999999983
-0.531781781781782 	299.9999999999839 	1.43222023488517e-12 	101324.9999999983
-0.5292792792792794 	299.9999999999811 	1.142005298257207e-12 	101324.9999999984
-0.526776776776777 	299.9999999999797 	1.832280073197347e-12 	101324.9999999986
-0.5242742742742745 	299.9999999999943 	6.765058531940317e-13 	101324.9999999986
-0.521771771771772 	300.0000000000024 	2.713934193389547e-12 	101324.9999999987
-0.5192692692692695 	299.9999999999903 	1.405737963467012e-12 	101324.9999999987
-0.516766766766767 	299.9999999999991 	2.333751072261842e-12 	101324.9999999985
-0.5142642642642645 	299.9999999999925 	1.548886851740437e-12 	101324.9999999984
-0.511761761761762 	299.9999999999876 	1.445820446363925e-12 	101324.9999999983
-0.5092592592592596 	299.9999999999936 	1.024649484639954e-12 	101324.9999999983
-0.506756756756757 	299.9999999999889 	1.008631976056376e-12 	101324.9999999981
-0.5042542542542544 	299.9999999999985 	4.232915807817169e-13 	101324.9999999981
-0.5017517517517521 	300.000000000007 	9.478338197244848e-13 	101324.9999999982
-0.4992492492492494 	300.0000000000075 	9.578200150355502e-13 	101324.9999999982
-0.496746746746747 	299.999999999997 	1.288051239619241e-12 	101324.9999999981
-0.4942442442442445 	299.9999999999851 	6.896139998325737e-13 	101324.9999999982
-0.4917417417417421 	299.999999999986 	2.768673952349582e-13 	101324.9999999983
-0.4892392392392395 	299.9999999999891 	3.48592669129571e-13 	101324.9999999983
-0.486736736736737 	299.9999999999879 	2.704260642563568e-13 	101324.9999999984
-0.4842342342342345 	299.9999999999818 	9.841521482007558e-13 	101324.9999999986
-0.481731731731732 	300.0000000000085 	4.752219451977063e-13 	101324.9999999988
-0.4792292292292296 	300.0000000000058 	9.618225947346029e-13 	101324.9999999986
-0.4767267267267268 	299.9999999999917 	8.883608023391728e-13 	101324.9999999985
-0.4742242242242246 	300.0000000000003 	1.439805853723161e-12 	101324.9999999986
-0.471721721721722 	299.9999999999905 	7.034090723078047e-13 	101324.9999999986
-0.4692192192192195 	299.9999999999948 	1.681407816523486e-12 	101324.9999999988
-0.4667167167167169 	299.9999999999786 	1.4936611256356e-12 	101324.9999999989
-0.4642142142142145 	299.9999999999995 	2.139895083932433e-12 	101324.9999999988
-0.461711711711712 	300.0000000000061 	1.147352058695974e-12 	101324.9999999985
-0.4592092092092094 	300.0000000000024 	1.179598957110188e-12 	101324.9999999984
-0.456706706706707 	300.000000000011 	4.799297046229044e-13 	101324.9999999984
-0.4542042042042045 	299.9999999999862 	2.048664751581048e-13 	101324.9999999986
-0.451701701701702 	299.99999999999 	3.430917038191286e-14 	101324.9999999987
-0.4491991991991995 	299.9999999999914 	3.185883067955875e-14 	101324.9999999986
-0.4466966966966969 	299.9999999999913 	8.199022352828397e-14 	101324.9999999987
-0.4441941941941945 	299.9999999999973 	2.851256260304985e-13 	101324.9999999986
-0.441691691691692 	299.9999999999911 	5.691490638936163e-13 	101324.9999999986
-0.4391891891891895 	299.999999999997 	1.081468479027954e-12 	101324.9999999985
-0.436686686686687 	299.999999999994 	1.0987855051274e-12 	101324.9999999986
-0.4341841841841846 	299.999999999999 	2.217199781012439e-12 	101324.9999999985
-0.431681681681682 	299.9999999999893 	7.265899183188807e-13 	101324.9999999983
-0.4291791791791794 	299.9999999999817 	2.015520445092157e-12 	101324.9999999982
-0.426676676676677 	299.9999999999824 	1.941854286438571e-12 	101324.9999999982
-0.4241741741741744 	299.9999999999928 	2.48656771625325e-12 	101324.9999999983
-0.421671671671672 	300.0000000000009 	1.92642986191075e-12 	101324.9999999982
-0.4191691691691694 	300.0000000000105 	1.903349713903271e-12 	101324.9999999984
-0.4166666666666669 	300.0000000000131 	1.693432334058495e-12 	101324.9999999984
-0.4141641641641645 	299.9999999999886 	1.792550869095876e-12 	101324.9999999985
-0.411661661661662 	300.0000000000001 	2.337865909060909e-12 	101324.9999999985
-0.4091591591591594 	300.0000000000027 	1.607516901251604e-12 	101324.9999999986
-0.406656656656657 	299.9999999999891 	2.186831660452409e-12 	101324.9999999984
-0.4041541541541545 	300.0000000000042 	2.399877366779613e-12 	101324.9999999987
-0.401651651651652 	299.999999999984 	2.120826934560116e-12 	101324.9999999989
-0.3991491491491494 	300.0000000000007 	3.116040610694476e-12 	101324.9999999991
-0.396646646646647 	299.9999999999902 	1.101926930718554e-12 	101324.9999999991
-0.3941441441441444 	299.9999999999943 	3.069440126785191e-12 	101324.9999999992
-0.3916416416416419 	299.9999999999848 	1.152608734118541e-12 	101324.999999999
-0.3891391391391395 	299.999999999992 	2.096109000291761e-12 	101324.9999999989
-0.3866366366366368 	299.9999999999912 	1.399193146258898e-12 	101324.9999999986
-0.3841341341341344 	300.0000000000001 	2.002637057616758e-12 	101324.9999999987
-0.381631631631632 	299.9999999999893 	2.146393998602711e-12 	101324.9999999986
-0.3791291291291294 	300.0000000000013 	2.158764946261022e-12 	101324.9999999988
-0.3766266266266269 	300.0000000000044 	1.903487633728366e-12 	101324.999999999
-0.3741241241241244 	300.0000000000052 	8.253066123210752e-13 	101324.9999999992
-0.371621621621622 	300.0000000000056 	2.034000830754393e-12 	101324.999999999
-0.3691191191191194 	300.0000000000024 	5.574421470440971e-13 	101324.9999999989
-0.366616616616617 	300.0000000000022 	2.220816583195334e-12 	101324.9999999988
-0.3641141141141143 	299.999999999993 	8.322294181065504e-13 	101324.9999999986
-0.3616116116116119 	299.9999999999858 	1.72325742813488e-12 	101324.9999999985
-0.3591091091091095 	299.999999999995 	4.937097217638049e-13 	101324.9999999985
-0.356606606606607 	299.9999999999961 	2.774375876337583e-13 	101324.9999999986
-0.3541041041041044 	300.0000000000002 	9.024648565505235e-14 	101324.9999999986
-0.3516016016016019 	300.0000000000041 	9.599523857593208e-14 	101324.9999999985
-0.3490990990990994 	299.9999999999998 	8.570969388830817e-13 	101324.9999999986
-0.346596596596597 	300.0000000000077 	6.095906793403906e-13 	101324.9999999988
-0.3440940940940944 	300.0000000000088 	7.329153134176526e-13 	101324.9999999987
-0.3415915915915919 	300.0000000000068 	1.133214972227553e-12 	101324.9999999985
-0.3390890890890895 	299.9999999999964 	3.926347725412754e-13 	101324.9999999984
-0.3365865865865869 	300.0000000000034 	5.632236145103008e-13 	101324.9999999986
-0.3340840840840844 	299.9999999999972 	2.241000667474642e-13 	101324.9999999984
-0.3315815815815819 	300.0000000000068 	2.655462307757562e-13 	101324.9999999984
-0.3290790790790794 	300.0000000000084 	4.21496544685706e-13 	101324.9999999985
-0.3265765765765769 	299.9999999999879 	2.936721762263654e-13 	101324.9999999983
-0.3240740740740744 	300.0000000000007 	4.992005867059936e-13 	101324.9999999986
-0.3215715715715718 	300.0000000000045 	5.942323085598095e-13 	101324.9999999987
-0.3190690690690695 	299.9999999999887 	3.889988193097983e-13 	101324.9999999986
-0.3165665665665668 	299.9999999999977 	2.903994875936033e-13 	101324.9999999986
-0.3140640640640644 	299.9999999999977 	9.150319848822034e-14 	101324.9999999984
-0.311561561561562 	299.9999999999853 	1.025570673511666e-12 	101324.9999999985
-0.3090590590590593 	299.9999999999991 	5.555969719992376e-13 	101324.9999999983
-0.3065565565565568 	300.0000000000016 	1.86288519509488e-12 	101324.9999999984
-0.3040540540540545 	299.9999999999995 	1.275228413086579e-12 	101324.9999999988
-0.3015515515515518 	300.0000000000037 	1.858452223842315e-12 	101324.9999999987
-0.2990490490490494 	299.9999999999854 	6.238172799368261e-13 	101324.9999999987
-0.2965465465465469 	300.0000000000001 	9.419740742621662e-13 	101324.9999999987
-0.2940440440440444 	299.9999999999992 	9.846933633874641e-13 	101324.9999999989
-0.2915415415415418 	300.0000000000038 	8.653295193530184e-13 	101324.999999999
-0.2890390390390395 	300.0000000000042 	1.495330283868265e-12 	101324.9999999989
-0.2865365365365368 	299.9999999999931 	1.18178775131194e-12 	101324.9999999989
-0.2840340340340343 	299.9999999999969 	2.12037984269207e-12 	101324.9999999989
-0.2815315315315318 	299.9999999999824 	6.072251004650391e-13 	101324.9999999989
-0.2790290290290295 	299.9999999999921 	9.940568570229867e-13 	101324.9999999987
-0.2765265265265269 	300.0000000000019 	7.255247082194406e-13 	101324.9999999986
-0.2740240240240244 	300.0000000000057 	1.511812838861263e-12 	101324.9999999985
-0.2715215215215219 	300.0000000000057 	1.868970493103626e-12 	101324.9999999987
-0.2690190190190194 	299.9999999999859 	1.353849591063642e-12 	101324.9999999986
-0.2665165165165169 	299.9999999999989 	1.694162554934352e-12 	101324.9999999985
-0.2640140140140144 	300.0000000000009 	1.31978179110623e-12 	101324.9999999983
-0.2615115115115119 	300.0000000000004 	2.593865767860432e-12 	101324.9999999982
-0.2590090090090094 	299.9999999999823 	1.165203181889227e-12 	101324.9999999983
-0.2565065065065068 	299.9999999999955 	1.056412983465401e-12 	101324.9999999984
-0.2540040040040044 	299.9999999999951 	9.31215135486213e-13 	101324.9999999985
-0.2515015015015019 	300.0000000000038 	1.24655752051145e-12 	101324.9999999986
-0.2489989989989994 	300.0000000000074 	2.248893972132811e-12 	101324.9999999987
-0.2464964964964968 	299.9999999999947 	1.56377017718979e-12 	101324.9999999989
-0.2439939939939944 	299.9999999999957 	2.928438877860496e-12 	101324.9999999988
-0.2414914914914919 	299.9999999999903 	1.422961691858704e-12 	101324.9999999987
-0.2389889889889893 	299.9999999999972 	2.903492796342482e-12 	101324.9999999987
-0.2364864864864869 	300.0000000000073 	2.249785899161601e-12 	101324.9999999987
-0.2339839839839843 	299.9999999999919 	3.327526390601294e-12 	101324.9999999985
-0.2314814814814819 	299.9999999999931 	1.786910802781648e-12 	101324.9999999984
-0.2289789789789792 	299.99999999998 	2.985927192311657e-12 	101324.9999999983
-0.2264764764764769 	299.9999999999857 	1.916573443648183e-12 	101324.9999999985
-0.2239739739739743 	299.9999999999966 	2.607971409735002e-12 	101324.9999999985
-0.2214714714714718 	299.9999999999853 	2.655314554579105e-12 	101324.9999999985
-0.2189689689689693 	299.9999999999933 	1.811009148226879e-12 	101324.9999999985
-0.2164664664664669 	299.9999999999935 	2.486704625377476e-12 	101324.9999999986
-0.2139639639639643 	299.9999999999848 	6.17086142542553e-13 	101324.9999999984
-0.2114614614614618 	299.9999999999939 	7.480317554396106e-13 	101324.9999999984
-0.2089589589589593 	300.0000000000016 	6.262735603767824e-13 	101324.9999999983
-0.2064564564564568 	299.9999999999997 	1.039609364496831e-12 	101324.9999999982
-0.2039539539539543 	299.9999999999844 	1.791182462863029e-12 	101324.9999999983
-0.2014514514514518 	299.9999999999798 	1.085683695220522e-12 	101324.9999999982
-0.1989489489489494 	299.9999999999943 	2.176067066004862e-12 	101324.9999999983
-0.1964464464464468 	300.0000000000014 	4.823569721218927e-13 	101324.9999999982
-0.1939439439439443 	300.0000000000009 	1.294625890679261e-12 	101324.9999999979
-0.1914414414414418 	299.9999999999885 	2.924582079984695e-13 	101324.999999998
-0.1889389389389393 	299.9999999999979 	3.769498472399883e-13 	101324.999999998
-0.1864364364364368 	300.000000000002 	9.587639480414337e-13 	101324.9999999982
-0.1839339339339343 	299.9999999999964 	1.340741492636724e-12 	101324.9999999981
-0.1814314314314318 	299.9999999999957 	1.313641096939176e-12 	101324.9999999982
-0.1789289289289293 	299.9999999999802 	8.436927376033973e-13 	101324.9999999983
-0.1764264264264268 	299.9999999999914 	5.27582042931852e-13 	101324.9999999982
-0.1739239239239243 	299.9999999999789 	3.898116090969638e-13 	101324.999999998
-0.1714214214214218 	299.9999999999967 	1.126444248092088e-13 	101324.9999999981
-0.1689189189189193 	299.9999999999857 	6.228452684055319e-13 	101324.999999998
-0.1664164164164168 	299.9999999999984 	1.762389633463591e-13 	101324.9999999978
-0.1639139139139143 	299.9999999999987 	1.234533269905131e-12 	101324.9999999977
-0.1614114114114118 	300.0000000000011 	7.561952689883023e-13 	101324.9999999975
-0.1589089089089093 	299.9999999999995 	2.748440239356601e-12 	101324.9999999975
-0.1564064064064068 	299.999999999991 	1.311035101144854e-12 	101324.9999999977
-0.1539039039039043 	300.0000000000015 	2.932494984719076e-12 	101324.9999999979
-0.1514014014014018 	300.000000000004 	6.190025451930276e-13 	101324.9999999978
-0.1488988988988993 	300.0000000000039 	3.085045302092832e-12 	101324.9999999978
-0.1463963963963968 	300.0000000000016 	7.446615625603484e-13 	101324.999999998
-0.1438938938938943 	299.9999999999966 	3.235631901185883e-12 	101324.9999999978
-0.1413913913913918 	299.9999999999822 	1.566664978588539e-12 	101324.9999999978
-0.1388888888888893 	299.9999999999909 	2.168445727147762e-12 	101324.9999999976
-0.1363863863863868 	299.9999999999754 	1.775612015087531e-12 	101324.9999999975
-0.1338838838838843 	299.9999999999895 	1.78114561558308e-12 	101324.9999999976
-0.1313813813813818 	299.9999999999963 	2.100950190374236e-12 	101324.9999999973
-0.1288788788788793 	299.9999999999891 	2.593424831126047e-12 	101324.9999999974
-0.1263763763763768 	299.9999999999956 	2.142021340577549e-12 	101324.9999999973
-0.1238738738738743 	299.9999999999886 	2.096968381154867e-12 	101324.9999999974
-0.1213713713713717 	299.9999999999992 	5.376177545741957e-13 	101324.9999999972
-0.1188688688688693 	300.0000000000056 	1.300047490367784e-12 	101324.9999999974
-0.1163663663663668 	299.9999999999761 	4.038481583648379e-13 	101324.9999999974
-0.1138638638638643 	299.9999999999967 	1.832593145047913e-12 	101324.9999999975
-0.1113613613613618 	299.9999999999988 	5.845456445626412e-13 	101324.9999999974
-0.1088588588588592 	299.9999999999983 	2.210996541408848e-12 	101324.9999999975
-0.1063563563563568 	299.9999999999925 	1.519589035823889e-13 	101324.9999999973
-0.1038538538538543 	299.9999999999991 	1.178764309557712e-12 	101324.9999999973
-0.1013513513513517 	300.0000000000002 	6.564540622047039e-13 	101324.9999999972
-0.09884884884884926 	299.9999999999899 	1.360722260407305e-12 	101324.9999999972
-0.09634634634634676 	299.9999999999826 	7.50431693058132e-13 	101324.9999999971
-0.09384384384384425 	299.9999999999794 	3.967198706342198e-13 	101324.999999997
-0.09134134134134177 	300.0000000000016 	2.151352902347199e-14 	101324.9999999969
-0.08883883883883925 	300.0000000000013 	8.775989912288366e-13 	101324.999999997
-0.08633633633633674 	299.9999999999886 	1.265701441826574e-12 	101324.9999999969
-0.08383383383383426 	299.9999999999982 	1.036148249570814e-12 	101324.9999999968
-0.08133133133133173 	299.9999999999897 	1.481824823902077e-12 	101324.9999999969
-0.07882882882882926 	299.9999999999743 	1.194015662192343e-12 	101324.9999999971
-0.07632632632632676 	299.9999999999952 	9.56798300584855e-13 	101324.9999999974
-0.07382382382382424 	299.9999999999764 	9.221499722031114e-13 	101324.9999999976
-0.07132132132132173 	299.9999999999993 	6.745165354202836e-13 	101324.9999999977
-0.06881881881881925 	299.9999999999893 	1.16276176262376e-12 	101324.9999999974
-0.06631631631631671 	299.9999999999752 	1.223634428509612e-12 	101324.9999999975
-0.06381381381381425 	299.9999999999884 	1.214931321542923e-12 	101324.9999999977
-0.06131131131131173 	299.9999999999891 	1.547876438200547e-12 	101324.9999999977
-0.05880880880880923 	299.9999999999846 	1.321839204293573e-12 	101324.9999999977
-0.05630630630630672 	299.9999999999916 	1.440953252854232e-12 	101324.9999999977
-0.05380380380380424 	300.000000000006 	1.468126266668648e-12 	101324.9999999976
-0.05130130130130173 	300.0000000000007 	1.236371468775668e-12 	101324.9999999975
-0.04879879879879922 	299.9999999999885 	1.29572242059727e-12 	101324.9999999974
-0.04629629629629672 	299.9999999999862 	6.797604270901623e-13 	101324.9999999972
-0.04379379379379422 	299.9999999999779 	5.317485502796424e-13 	101324.9999999971
-0.04129129129129173 	299.9999999999949 	3.775109543351985e-13 	101324.9999999971
-0.03878878878878922 	299.9999999999984 	8.816223068355067e-13 	101324.9999999972
-0.03628628628628671 	299.9999999999952 	1.359651926893568e-12 	101324.9999999972
-0.03378378378378422 	299.9999999999866 	2.146872944965781e-12 	101324.9999999975
-0.03128128128128172 	299.9999999999919 	1.725961051643123e-12 	101324.9999999973
-0.02877877877877922 	299.9999999999916 	2.093532418723024e-12 	101324.9999999972
-0.0262762762762767 	299.9999999999773 	1.699868068597032e-12 	101324.9999999972
-0.02377377377377422 	300.0000000000038 	1.03746944463073e-12 	101324.9999999971
-0.0212712712712717 	299.9999999999783 	9.553043960623043e-13 	101324.9999999972
-0.01876876876876921 	299.9999999999938 	4.016620873938129e-13 	101324.9999999969
-0.01626626626626671 	299.9999999999991 	8.393073985019933e-13 	101324.999999997
-0.0137637637637642 	299.9999999999899 	3.429126005997107e-13 	101324.9999999971
-0.0112612612612617 	300.000000000001 	2.396883855028585e-13 	101324.999999997
-0.008758758758759198 	299.9999999999986 	1.151253833075478e-13 	101324.9999999967
-0.006256256256256697 	299.9999999999728 	1.184518204119807e-13 	101324.9999999967
-0.003753753753754195 	299.9999999999883 	3.276057681153023e-13 	101324.9999999968
-0.001251251251251693 	299.9999999999844 	8.945089182771231e-14 	101324.9999999968
0.00125125125125081 	299.9999999999874 	3.812392574778344e-13 	101324.9999999969
0.003753753753753312 	299.9999999999916 	8.884014976692219e-14 	101324.9999999969
0.006256256256255817 	299.9999999999742 	2.22444247249286e-13 	101324.9999999967
0.008758758758758317 	299.9999999999958 	1.462732556990931e-13 	101324.9999999967
0.01126126126126082 	299.9999999999993 	6.030345770307978e-13 	101324.9999999965
0.01376376376376332 	299.9999999999903 	1.690756776314087e-13 	101324.9999999964
0.01626626626626582 	299.9999999999998 	1.345398706239121e-13 	101324.9999999965
0.01876876876876833 	299.9999999999878 	8.370340257389832e-13 	101324.9999999968
0.02127127127127083 	299.9999999999933 	4.707648701876457e-13 	101324.999999997
0.02377377377377332 	299.9999999999984 	4.905881555292564e-13 	101324.9999999971
0.02627627627627583 	299.9999999999796 	4.979318800953237e-13 	101324.9999999971
0.02877877877877833 	299.9999999999986 	7.520544571486249e-15 	101324.9999999972
0.03128128128128083 	299.9999999999877 	6.206503567185274e-13 	101324.9999999969
0.03378378378378333 	299.9999999999752 	9.45983702904374e-13 	101324.9999999968
0.03628628628628584 	299.9999999999955 	4.616594505374166e-13 	101324.999999997
0.03878878878878834 	299.9999999999964 	2.465278974630028e-13 	101324.999999997
0.04129129129129084 	299.9999999999934 	1.951586143224518e-13 	101324.9999999971
0.04379379379379333 	299.9999999999858 	6.449454395130033e-13 	101324.9999999972
0.04629629629629585 	299.9999999999744 	1.266022670615814e-12 	101324.999999997
0.04879879879879834 	299.9999999999897 	2.066345720257665e-12 	101324.9999999971
0.05130130130130085 	299.9999999999999 	2.603257734432573e-12 	101324.9999999973
0.05380380380380335 	300.0000000000059 	2.173767624066348e-12 	101324.9999999973
0.05630630630630584 	299.9999999999969 	1.588673527556473e-12 	101324.9999999972
0.05880880880880836 	299.9999999999858 	1.11649475286452e-12 	101324.9999999971
0.06131131131131085 	299.999999999993 	1.165255600882509e-12 	101324.9999999971
0.06381381381381336 	299.9999999999879 	7.479501518938579e-13 	101324.9999999974
0.06631631631631586 	299.9999999999729 	2.525029151441544e-13 	101324.9999999974
0.06881881881881835 	299.9999999999871 	1.770859548430891e-13 	101324.9999999973
0.07132132132132088 	300.0000000000017 	8.319189698546642e-14 	101324.9999999975
0.07382382382382337 	299.9999999999791 	3.068130718424052e-13 	101324.9999999975
0.07632632632632587 	299.9999999999907 	6.80361354006605e-13 	101324.9999999973
0.07882882882882837 	299.9999999999818 	1.086781840074256e-12 	101324.9999999972
0.08133133133133086 	299.999999999999 	1.826369804581729e-12 	101324.9999999972
0.08383383383383337 	300.0000000000023 	1.766280949411528e-12 	101324.9999999972
0.08633633633633589 	299.9999999999765 	2.465425881067199e-12 	101324.9999999973
0.08883883883883838 	300.000000000003 	2.749980986983846e-12 	101324.9999999974
0.09134134134134086 	299.9999999999984 	2.212198717571134e-12 	101324.9999999973
0.09384384384384339 	299.9999999999793 	2.282024660796884e-12 	101324.9999999972
0.09634634634634588 	299.999999999994 	2.197731716522489e-12 	101324.9999999973
0.09884884884884838 	299.9999999999945 	2.095097715583716e-12 	101324.9999999973
0.1013513513513509 	300.0000000000082 	2.168296367670318e-12 	101324.9999999974
0.1038538538538534 	299.9999999999847 	2.048728282429551e-12 	101324.9999999976
0.1063563563563559 	300.0000000000011 	2.111515951192027e-12 	101324.9999999977
0.1088588588588584 	300.0000000000023 	2.028263702201575e-12 	101324.9999999976
0.1113613613613609 	299.9999999999934 	1.990532485185066e-12 	101324.9999999976
0.1138638638638634 	299.9999999999909 	1.650745818026248e-12 	101324.9999999975
0.1163663663663659 	299.9999999999869 	1.744641211994309e-12 	101324.9999999975
0.1188688688688684 	299.999999999993 	1.681176702170524e-12 	101324.9999999975
0.1213713713713709 	299.999999999997 	1.429562285738477e-12 	101324.9999999976
0.1238738738738734 	299.9999999999809 	1.018029112455777e-12 	101324.9999999976
0.1263763763763759 	299.9999999999993 	1.273194939726263e-12 	101324.9999999976
0.1288788788788784 	299.9999999999985 	1.461142095953929e-12 	101324.9999999975
0.1313813813813809 	299.9999999999968 	1.565579798113927e-12 	101324.9999999973
0.1338838838838834 	299.999999999989 	1.291554313607692e-12 	101324.9999999973
0.1363863863863859 	300.0000000000038 	1.065028883594982e-12 	101324.9999999977
0.1388888888888884 	300.0000000000049 	7.416080214272292e-13 	101324.9999999975
0.1413913913913909 	299.9999999999984 	3.101534659759878e-13 	101324.9999999973
0.1438938938938934 	299.9999999999933 	2.779191080106494e-14 	101324.9999999972
0.1463963963963959 	299.9999999999895 	2.287252845185409e-13 	101324.9999999974
0.1488988988988985 	299.9999999999815 	5.722052591957951e-13 	101324.9999999976
0.1514014014014009 	299.9999999999923 	1.00723168647221e-12 	101324.9999999976
0.1539039039039035 	299.9999999999906 	2.420494181870451e-12 	101324.9999999975
0.1564064064064059 	299.9999999999914 	2.048861742402715e-12 	101324.9999999973
0.1589089089089084 	299.9999999999917 	3.270663345297106e-12 	101324.9999999976
0.1614114114114109 	299.999999999991 	1.410011010767836e-12 	101324.9999999976
0.1639139139139134 	299.9999999999829 	1.869932796350666e-12 	101324.9999999976
0.166416416416416 	299.9999999999952 	1.706818651226721e-12 	101324.9999999976
0.1689189189189185 	300.0000000000069 	1.213226725245284e-12 	101324.9999999977
0.1714214214214209 	299.9999999999985 	1.322583080889676e-12 	101324.9999999978
0.1739239239239235 	299.9999999999985 	1.292639368942638e-12 	101324.9999999979
0.1764264264264259 	299.9999999999881 	2.370170050076252e-12 	101324.9999999977
0.1789289289289284 	300.0000000000024 	1.272376895584979e-12 	101324.9999999976
0.181431431431431 	299.9999999999953 	2.465278401626322e-12 	101324.9999999977
0.1839339339339334 	299.9999999999968 	1.451954413938455e-12 	101324.9999999979
0.186436436436436 	299.9999999999903 	2.041255074698351e-12 	101324.9999999981
0.1889389389389385 	299.9999999999948 	1.706864620904525e-12 	101324.9999999983
0.191441441441441 	299.9999999999927 	1.432922151982573e-12 	101324.9999999983
0.1939439439439434 	299.9999999999823 	1.937454895488426e-12 	101324.9999999982
0.196446446446446 	299.9999999999916 	1.3727564127617e-12 	101324.9999999981
0.1989489489489485 	299.999999999992 	2.694313024872247e-12 	101324.9999999984
0.2014514514514509 	299.9999999999966 	1.508054961358897e-12 	101324.9999999981
0.2039539539539535 	299.9999999999966 	2.034881450279376e-12 	101324.9999999983
0.2064564564564559 	299.9999999999886 	1.578613852453384e-12 	101324.9999999984
0.2089589589589585 	299.9999999999972 	1.952209250221314e-12 	101324.9999999983
0.211461461461461 	299.9999999999887 	2.20642243175229e-12 	101324.9999999983
0.2139639639639635 	299.9999999999999 	2.714969169493962e-12 	101324.9999999985
0.2164664664664659 	300.0000000000055 	3.119235522489057e-12 	101324.9999999984
0.2189689689689684 	300.0000000000052 	2.436910032881248e-12 	101324.9999999983
0.221471471471471 	300.0000000000007 	3.171912064154925e-12 	101324.9999999984
0.2239739739739735 	299.9999999999907 	1.6152805973837e-12 	101324.9999999987
0.226476476476476 	300.0000000000003 	2.365320047817544e-12 	101324.9999999985
0.2289789789789785 	300.0000000000009 	2.371002856401804e-12 	101324.9999999984
0.231481481481481 	299.999999999997 	2.330246118749626e-12 	101324.9999999984
0.2339839839839835 	299.9999999999944 	2.55918646625243e-12 	101324.9999999985
0.236486486486486 	300.0000000000063 	2.015793668768304e-12 	101324.9999999986
0.2389889889889885 	299.9999999999997 	2.212541197034583e-12 	101324.9999999986
0.241491491491491 	299.9999999999843 	8.674268376003154e-13 	101324.9999999985
0.2439939939939935 	299.9999999999978 	2.329135171038717e-12 	101324.9999999985
0.246496496496496 	299.9999999999982 	1.311544451205946e-12 	101324.9999999986
0.2489989989989985 	300.0000000000044 	1.516860050275881e-12 	101324.9999999987
0.251501501501501 	300.000000000004 	5.565351372381918e-13 	101324.9999999987
0.2540040040040035 	299.9999999999974 	6.495840631481894e-13 	101324.9999999987
0.256506506506506 	300.000000000004 	1.068521393832935e-12 	101324.9999999987
0.2590090090090086 	299.9999999999847 	4.425521621412993e-13 	101324.9999999986
0.261511511511511 	300.0000000000041 	1.687810960633822e-12 	101324.9999999986
0.2640140140140135 	299.9999999999948 	7.950403220105564e-13 	101324.9999999985
0.2665165165165161 	299.9999999999895 	1.702355591947773e-12 	101324.9999999984
0.2690190190190185 	300.0000000000081 	1.201804873413904e-12 	101324.9999999985
0.271521521521521 	300.0000000000013 	1.268352681979408e-12 	101324.9999999983
0.2740240240240235 	300.000000000003 	9.607739874035212e-13 	101324.9999999984
0.276526526526526 	299.9999999999985 	5.736600001910873e-13 	101324.9999999985
0.2790290290290286 	299.9999999999891 	1.237431253372178e-12 	101324.9999999987
0.281531531531531 	299.9999999999819 	4.15614482556228e-13 	101324.9999999986
0.2840340340340335 	299.9999999999979 	9.586297165345944e-13 	101324.9999999987
0.2865365365365361 	299.9999999999936 	3.77498082484101e-13 	101324.9999999988
0.2890390390390385 	299.9999999999977 	1.358316918570016e-12 	101324.9999999988
0.291541541541541 	299.9999999999978 	6.509057060560166e-13 	101324.9999999987
0.2940440440440436 	299.9999999999982 	6.890490603649012e-13 	101324.9999999988
0.296546546546546 	299.9999999999966 	3.71744501840488e-13 	101324.9999999988
0.2990490490490486 	299.9999999999831 	4.942000793342394e-13 	101324.9999999987
0.3015515515515511 	300.0000000000055 	1.401170009907297e-12 	101324.9999999984
0.3040540540540535 	299.9999999999968 	1.420842935162599e-12 	101324.9999999984
0.3065565565565562 	300 	1.65901757629883e-12 	101324.9999999984
0.3090590590590585 	299.9999999999964 	9.107447790321381e-13 	101324.9999999986
0.3115615615615611 	299.999999999986 	7.690662903623192e-13 	101324.9999999988
0.3140640640640635 	299.9999999999999 	3.962038622785615e-13 	101324.9999999987
0.316566566566566 	299.9999999999982 	4.870911375714549e-13 	101324.9999999988
0.3190690690690687 	299.9999999999888 	3.756104859372673e-13 	101324.9999999987
0.3215715715715711 	300.0000000000013 	8.373761998509928e-13 	101324.9999999988
0.3240740740740735 	299.9999999999966 	5.245168002938616e-13 	101324.9999999988
0.326576576576576 	299.9999999999779 	5.34450402226397e-13 	101324.9999999988
0.3290790790790786 	299.9999999999994 	4.915918684314725e-13 	101324.9999999988
0.3315815815815811 	300.0000000000091 	2.301320729495516e-13 	101324.9999999989
0.3340840840840836 	300.0000000000017 	4.236720222175421e-13 	101324.9999999989
0.3365865865865861 	300.0000000000153 	2.030347717958241e-13 	101324.9999999989
0.3390890890890886 	300.0000000000101 	1.066623938487538e-12 	101324.9999999989
0.3415915915915911 	300.000000000001 	1.032690430328801e-12 	101324.9999999989
0.3440940940940935 	299.9999999999894 	1.622576246805917e-12 	101324.9999999991
0.3465965965965962 	300.0000000000085 	3.262050072403837e-13 	101324.999999999
0.3490990990990985 	300.0000000000064 	1.275075455949961e-12 	101324.9999999991
0.3516016016016011 	299.9999999999973 	1.083162364716675e-12 	101324.9999999989
0.3541041041041035 	300.0000000000027 	1.77508555594331e-12 	101324.9999999989
0.3566066066066061 	299.9999999999924 	1.234082325621429e-12 	101324.9999999987
0.3591091091091085 	299.9999999999851 	7.366254060319229e-13 	101324.9999999986
0.3616116116116112 	299.9999999999866 	1.250693911018118e-12 	101324.9999999987
0.3641141141141137 	299.9999999999842 	6.011065429866435e-13 	101324.9999999986
0.3666166166166161 	299.9999999999826 	1.142444527953638e-12 	101324.9999999986
0.3691191191191185 	300.0000000000057 	1.397769969101248e-12 	101324.9999999985
0.371621621621621 	300.0000000000039 	7.913485472249915e-13 	101324.9999999985
0.3741241241241237 	300.0000000000123 	6.336686944512623e-13 	101324.9999999987
0.3766266266266261 	300.0000000000039 	3.058056771444876e-13 	101324.9999999989
0.3791291291291286 	299.9999999999963 	4.238950529436779e-13 	101324.999999999
0.3816316316316311 	299.999999999985 	1.151582989957088e-12 	101324.999999999
0.3841341341341336 	300.0000000000013 	1.228469575252959e-12 	101324.9999999987
0.3866366366366362 	299.9999999999985 	1.30110335909595e-12 	101324.9999999987
0.3891391391391387 	299.9999999999905 	8.421165228332639e-13 	101324.9999999986
0.391641641641641 	299.9999999999989 	1.143905603988627e-12 	101324.9999999986
0.3941441441441436 	300.0000000000007 	2.044298516734402e-12 	101324.9999999986
0.3966466466466462 	299.9999999999987 	2.733996786954953e-12 	101324.9999999985
0.3991491491491486 	299.9999999999886 	2.780770112185027e-12 	101324.9999999983
0.4016516516516512 	299.9999999999807 	2.849019194237597e-12 	101324.9999999981
0.4041541541541536 	299.999999999991 	1.81300927970764e-12 	101324.9999999981
0.4066566566566561 	299.9999999999902 	2.267269298097658e-12 	101324.9999999984
0.4091591591591587 	299.9999999999996 	6.377064954915565e-13 	101324.9999999984
0.4116616616616612 	300.0000000000038 	1.670323074657118e-12 	101324.9999999985
0.4141641641641635 	300.0000000000089 	6.187463370340486e-13 	101324.9999999983
0.4166666666666662 	299.9999999999997 	1.272640791884176e-12 	101324.9999999984
0.4191691691691687 	299.9999999999876 	1.314850714629719e-12 	101324.9999999982
0.421671671671671 	300.0000000000044 	1.304176943236217e-12 	101324.9999999979
0.4241741741741737 	299.999999999997 	2.422852536845593e-12 	101324.9999999981
0.4266766766766761 	299.9999999999923 	1.09463353658159e-12 	101324.9999999982
0.4291791791791785 	300.0000000000031 	2.576356270286499e-12 	101324.9999999981
0.4316816816816812 	299.9999999999976 	5.121513593915315e-13 	101324.9999999981
0.4341841841841836 	299.9999999999956 	2.207975740108397e-12 	101324.9999999982
0.4366866866866862 	299.9999999999869 	9.479281628040435e-13 	101324.9999999984
0.4391891891891885 	299.9999999999972 	1.625583770885218e-12 	101324.9999999983
0.4416916916916913 	299.9999999999977 	1.816245150746315e-12 	101324.9999999984
0.4441941941941936 	299.999999999996 	2.086433855523095e-12 	101324.9999999984
0.4466966966966961 	299.9999999999846 	1.766236029914806e-12 	101324.9999999985
0.4491991991991987 	299.9999999999986 	1.087404162370126e-12 	101324.9999999987
0.4517017017017012 	299.9999999999977 	1.537592860892673e-12 	101324.9999999989
0.4542042042042035 	299.9999999999957 	1.695522554102487e-12 	101324.999999999
0.4567067067067062 	299.9999999999968 	2.55891132034764e-12 	101324.9999999987
0.4592092092092087 	299.9999999999848 	2.358651800113233e-12 	101324.9999999985
0.4617117117117112 	300.0000000000019 	2.431716961241448e-12 	101324.9999999985
0.4642142142142137 	299.9999999999919 	2.419057219158934e-12 	101324.9999999984
0.4667167167167162 	299.9999999999949 	2.496484507193466e-12 	101324.9999999984
0.4692192192192187 	299.9999999999889 	1.891397141808734e-12 	101324.9999999984
0.4717217217217212 	300.0000000000039 	1.673928689271267e-12 	101324.9999999983
0.4742242242242236 	299.9999999999897 	1.617989544828274e-12 	101324.9999999983
0.4767267267267262 	299.9999999999979 	8.924916604222607e-13 	101324.9999999984
0.4792292292292287 	300.0000000000014 	6.450314144631721e-13 	101324.9999999985
0.4817317317317312 	300.0000000000045 	6.301412591794117e-13 	101324.9999999984
0.4842342342342336 	299.9999999999961 	7.891927808759974e-13 	101324.9999999982
0.4867367367367362 	299.999999999989 	5.985421451645336e-13 	101324.9999999981
0.4892392392392387 	300.0000000000022 	5.761304195961112e-13 	101324.9999999979
0.4917417417417412 	299.9999999999998 	1.410542763476216e-12 	101324.9999999981
0.4942442442442437 	299.9999999999779 	1.295982600422367e-12 	101324.9999999983
0.4967467467467462 	299.9999999999829 	1.638850937807424e-12 	101324.9999999983
0.4992492492492487 	299.999999999982 	3.079570403859141e-13 	101324.9999999983
0.5017517517517511 	299.9999999999889 	4.008349028952615e-13 	101324.9999999983
0.5042542542542537 	299.9999999999927 	1.691245686399235e-13 	101324.9999999983
0.5067567567567562 	299.9999999999858 	1.892435282250405e-13 	101324.9999999982
0.5092592592592589 	299.9999999999918 	3.004866679194388e-13 	101324.9999999981
0.5117617617617611 	299.9999999999913 	6.075442589498098e-13 	101324.9999999979
0.5142642642642637 	299.9999999999987 	6.550576804038113e-13 	101324.999999998
0.5167667667667663 	299.9999999999956 	1.10258746673134e-12 	101324.9999999978
0.5192692692692688 	299.999999999983 	1.313451581037708e-12 	101324.999999998
0.5217717717717714 	299.9999999999853 	1.366637975500699e-12 	101324.9999999981
0.5242742742742736 	299.9999999999848 	1.06046437790183e-12 	101324.9999999979
0.5267767767767763 	299.999999999992 	6.354230594607464e-13 	101324.9999999981
0.5292792792792789 	299.9999999999882 	7.203921870202581e-13 	101324.9999999982
0.5317817817817813 	299.9999999999789 	4.498508051926847e-13 	101324.9999999981
0.5342842842842837 	300.0000000000019 	6.422962630145299e-13 	101324.9999999983
0.5367867867867864 	300.0000000000007 	7.407779851772093e-13 	101324.9999999984
0.5392892892892888 	299.9999999999913 	7.122327909905976e-13 	101324.9999999983
0.5417917917917912 	300 	7.409472724868397e-13 	101324.9999999981
0.5442942942942938 	299.9999999999941 	6.026800992057438e-13 	101324.9999999979
0.5467967967967964 	299.9999999999892 	6.027100868183627e-13 	101324.9999999981
0.5492992992992988 	299.9999999999861 	1.904338713431152e-13 	101324.999999998
0.5518018018018012 	299.9999999999874 	4.653631709118229e-13 	101324.9999999978
0.5543043043043039 	300.0000000000019 	5.110830358730129e-13 	101324.9999999976
0.5568068068068063 	299.9999999999969 	5.646281249158933e-13 	101324.9999999977
0.5593093093093087 	299.9999999999816 	7.995690153884851e-13 	101324.9999999979
0.5618118118118114 	299.9999999999925 	8.23120443021624e-13 	101324.9999999979
0.5643143143143137 	299.9999999999898 	3.857715513744295e-13 	101324.999999998
0.5668168168168163 	299.9999999999995 	5.38748420202546e-13 	101324.9999999979
0.5693193193193188 	300.000000000007 	4.27283449298873e-13 	101324.999999998
0.5718218218218213 	300.0000000000063 	6.854897273705867e-13 	101324.999999998
0.5743243243243239 	300.0000000000019 	7.559811231512803e-13 	101324.9999999978
0.5768268268268262 	299.9999999999995 	9.262747704605501e-13 	101324.9999999981
0.5793293293293288 	299.9999999999886 	8.517065530836408e-13 	101324.9999999982
0.5818318318318314 	299.999999999984 	1.533829000266421e-12 	101324.9999999982
0.5843343343343338 	299.9999999999961 	1.016068881965715e-12 	101324.9999999981
0.5868368368368363 	299.9999999999939 	1.166768721090852e-12 	101324.9999999979
0.5893393393393387 	299.9999999999865 	4.294287566361959e-13 	101324.9999999978
0.5918418418418413 	299.9999999999891 	6.92772817433529e-13 	101324.9999999979
0.5943443443443439 	300.0000000000028 	1.546979014074467e-12 	101324.9999999978
0.5968468468468463 	300.000000000002 	1.361888972487757e-12 	101324.9999999977
0.5993493493493487 	300.0000000000095 	8.064975774083115e-13 	101324.9999999978
0.6018518518518514 	299.9999999999941 	4.50130282075056e-13 	101324.9999999977
0.6043543543543537 	299.9999999999982 	4.873005819836876e-13 	101324.9999999977
0.6068568568568564 	299.9999999999951 	9.937801256837344e-13 	101324.9999999977
0.6093593593593587 	299.9999999999836 	9.88393819185206e-13 	101324.9999999975
0.6118618618618614 	299.9999999999833 	6.097282440207469e-13 	101324.9999999974
0.6143643643643638 	300.0000000000013 	7.151925169653042e-13 	101324.9999999974
0.6168668668668662 	299.9999999999976 	6.235227466834419e-13 	101324.9999999975
0.6193693693693688 	299.999999999989 	8.440116036748269e-13 	101324.9999999975
0.6218718718718714 	299.9999999999921 	6.249283423659624e-13 	101324.9999999976
0.6243743743743737 	299.9999999999861 	9.134392136665627e-13 	101324.9999999976
0.6268768768768762 	299.9999999999843 	4.654688146139209e-13 	101324.9999999977
0.629379379379379 	299.9999999999899 	3.577257360666435e-13 	101324.9999999977
0.6318818818818812 	299.9999999999915 	6.25302422635142e-13 	101324.9999999977
0.6343843843843838 	300.0000000000023 	6.447538549270085e-13 	101324.9999999976
0.6368868868868864 	299.9999999999951 	1.284653233319571e-12 	101324.9999999977
0.6393893893893888 	299.999999999984 	1.749361992703035e-12 	101324.9999999978
0.6418918918918912 	299.9999999999989 	1.031012074172288e-12 	101324.9999999979
0.6443943943943939 	299.9999999999959 	2.017964197531141e-12 	101324.9999999979
0.6468968968968963 	299.9999999999939 	9.559663838156331e-13 	101324.9999999979
0.6493993993993988 	299.9999999999926 	9.488343504863226e-13 	101324.9999999979
0.6519019019019012 	299.999999999991 	5.735314951010589e-13 	101324.9999999977
0.6544044044044038 	299.9999999999779 	1.169973201137594e-12 	101324.9999999976
0.6569069069069065 	299.999999999991 	2.429479535722461e-13 	101324.9999999978
0.6594094094094087 	299.9999999999903 	3.162808040786977e-13 	101324.9999999978
0.6619119119119113 	299.9999999999879 	1.075031852149389e-12 	101324.9999999977
0.664414414414414 	299.9999999999962 	7.593418475697436e-13 	101324.9999999978
0.6669169169169162 	300.0000000000014 	4.9968108475823e-13 	101324.9999999979
0.6694194194194188 	299.9999999999958 	3.380039886254761e-13 	101324.9999999979
0.6719219219219214 	299.9999999999871 	4.212445027648647e-13 	101324.999999998
0.674424424424424 	299.9999999999945 	2.803995552777885e-13 	101324.9999999982
0.6769269269269262 	299.9999999999837 	2.807537621581824e-13 	101324.9999999982
0.679429429429429 	300.0000000000007 	3.438132541858315e-13 	101324.9999999981
0.6819319319319311 	299.999999999993 	3.678986589025457e-13 	101324.999999998
0.6844344344344341 	299.9999999999981 	4.795316080041712e-13 	101324.9999999979
0.686936936936936 	299.9999999999985 	5.21165056524377e-13 	101324.9999999979
0.6894394394394392 	299.9999999999989 	3.609096407584321e-13 	101324.999999998
0.6919419419419413 	299.9999999999976 	5.685084583191126e-13 	101324.999999998
0.694444444444444 	299.9999999999899 	8.476409715950275e-13 	101324.999999998
0.6969469469469463 	299.9999999999846 	6.049688895749104e-13 	101324.999999998
0.6994494494494489 	299.9999999999825 	3.623429304681012e-13 	101324.9999999979
0.7019519519519515 	299.9999999999973 	7.67800649093099e-13 	101324.9999999978
0.7044544544544538 	299.9999999999908 	6.135136601029012e-13 	101324.9999999978
0.7069569569569564 	299.999999999998 	1.226852413458624e-12 	101324.9999999979
0.7094594594594589 	299.9999999999914 	6.352220340573715e-13 	101324.9999999979
0.7119619619619615 	299.9999999999814 	8.520479646276607e-13 	101324.9999999978
0.7144644644644638 	299.9999999999876 	3.600861429294727e-13 	101324.9999999979
0.7169669669669665 	299.9999999999825 	2.322651267837369e-13 	101324.9999999978
0.7194694694694688 	299.9999999999981 	5.876923652527157e-13 	101324.9999999978
0.7219719719719715 	299.9999999999991 	2.571154148055629e-13 	101324.999999998
0.7244744744744737 	299.9999999999994 	4.638899526882658e-13 	101324.999999998
0.7269769769769764 	299.9999999999987 	9.269222139718866e-13 	101324.9999999979
0.7294794794794791 	299.9999999999987 	1.70011525390098e-12 	101324.9999999979
0.7319819819819813 	299.9999999999965 	8.727334202514033e-13 	101324.9999999979
0.7344844844844839 	299.9999999999847 	1.858427251761807e-12 	101324.9999999979
0.7369869869869864 	299.9999999999921 	8.093301385161076e-13 	101324.9999999979
0.739489489489489 	299.9999999999886 	1.092109323240573e-12 	101324.9999999979
0.7419919919919914 	299.9999999999876 	8.73237275803372e-13 	101324.999999998
0.7444944944944939 	299.9999999999944 	9.681867308462941e-13 	101324.9999999979
0.7469969969969963 	299.9999999999944 	1.499719693966365e-12 	101324.9999999979
0.7494994994994989 	299.9999999999873 	1.527634054812981e-12 	101324.9999999977
0.7520020020020015 	299.9999999999928 	1.801025374952756e-12 	101324.9999999977
0.7545045045045039 	299.9999999999937 	1.214111851815559e-12 	101324.9999999977
0.7570070070070062 	299.999999999989 	1.151890352482087e-12 	101324.9999999976
0.7595095095095092 	299.9999999999849 	5.223383505528704e-13 	101324.9999999975
0.7620120120120112 	299.9999999999998 	1.250187647825753e-12 	101324.9999999975
0.7645145145145138 	299.9999999999978 	1.330199061472696e-12 	101324.9999999975
0.7670170170170165 	299.9999999999877 	8.740862719657177e-13 	101324.9999999975
0.7695195195195191 	299.999999999984 	1.565061276328021e-12 	101324.9999999977
0.7720220220220213 	299.9999999999883 	1.102747229777554e-12 	101324.9999999977
0.7745245245245239 	299.9999999999894 	8.421161891223349e-13 	101324.9999999976
0.7770270270270263 	299.9999999999936 	1.634501551805039e-12 	101324.9999999975
0.779529529529529 	299.9999999999933 	1.334806074555238e-12 	101324.9999999976
0.7820320320320313 	299.999999999991 	1.390194123298396e-12 	101324.9999999977
0.784534534534534 	299.9999999999957 	9.985234827580782e-13 	101324.9999999977
0.7870370370370364 	299.9999999999947 	8.942624068125418e-13 	101324.9999999976
0.7895395395395389 	299.9999999999931 	1.145728967772563e-12 	101324.9999999977
0.7920420420420413 	299.9999999999961 	7.022686057506337e-13 	101324.9999999978
0.794544544544544 	300.0000000000001 	1.759068209988494e-12 	101324.9999999977
0.7970470470470463 	300.0000000000013 	1.572951255226556e-12 	101324.9999999975
0.799549549549549 	299.9999999999965 	1.286411985456056e-12 	101324.9999999976
0.8020520520520515 	299.9999999999968 	9.769040120079918e-13 	101324.9999999976
0.8045545545545539 	299.9999999999887 	4.818950192519486e-13 	101324.9999999975
0.8070570570570563 	299.9999999999978 	1.67353856545025e-13 	101324.9999999974
0.8095595595595589 	299.9999999999915 	1.925566803724953e-13 	101324.9999999975
0.8120620620620614 	299.9999999999845 	3.860206833743047e-13 	101324.9999999975
0.8145645645645638 	299.9999999999957 	7.092084122003661e-13 	101324.9999999974
0.8170670670670666 	299.9999999999961 	1.081470950483565e-12 	101324.9999999975
0.8195695695695689 	299.9999999999945 	1.542049141291828e-12 	101324.9999999977
0.8220720720720714 	299.9999999999873 	1.150767108304162e-12 	101324.9999999978
0.8245745745745739 	299.9999999999985 	5.742309950003029e-13 	101324.9999999978
0.8270770770770765 	299.9999999999932 	1.151820870140484e-12 	101324.9999999978
0.8295795795795788 	299.9999999999899 	7.855534545542896e-13 	101324.9999999976
0.8320820820820815 	300.0000000000045 	8.861600148874572e-13 	101324.9999999976
0.834584584584584 	300.0000000000015 	7.046785349710215e-13 	101324.9999999978
0.8370870870870865 	299.9999999999926 	4.833352358938777e-13 	101324.9999999979
0.8395895895895891 	299.9999999999832 	6.242038008955121e-13 	101324.999999998
0.8420920920920915 	299.9999999999853 	3.028563791748833e-13 	101324.9999999982
0.844594594594594 	299.9999999999851 	3.458983074229117e-13 	101324.9999999982
0.8470970970970964 	299.9999999999889 	2.511990457678559e-13 	101324.9999999982
0.8495995995995991 	299.9999999999965 	3.628806991038596e-13 	101324.999999998
0.8521021021021015 	299.9999999999952 	5.544812005841036e-13 	101324.9999999979
0.8546046046046039 	299.9999999999941 	6.779099348802566e-13 	101324.9999999981
0.8571071071071066 	299.9999999999978 	1.110212427457681e-12 	101324.9999999982
0.8596096096096089 	299.9999999999902 	1.430018717473923e-12 	101324.9999999983
0.8621121121121116 	299.9999999999852 	8.03400513869208e-13 	101324.9999999981
0.8646146146146139 	299.9999999999974 	4.732838583684875e-13 	101324.9999999979
0.8671171171171166 	299.9999999999946 	3.773688096440279e-13 	101324.9999999978
0.8696196196196189 	299.9999999999901 	2.132327789863787e-13 	101324.9999999977
0.8721221221221216 	299.9999999999897 	2.366713729567857e-13 	101324.9999999978
0.874624624624624 	299.9999999999974 	4.712525031134892e-13 	101324.9999999977
0.8771271271271264 	300.0000000000014 	8.520561737589812e-13 	101324.9999999975
0.879629629629629 	299.9999999999991 	1.034745899300021e-12 	101324.9999999975
0.8821321321321317 	299.9999999999955 	1.3505160500881e-12 	101324.9999999976
0.8846346346346339 	299.9999999999864 	1.211066219666769e-12 	101324.9999999977
0.8871371371371364 	299.9999999999915 	4.784151049088691e-13 	101324.9999999977
0.8896396396396391 	299.9999999999893 	1.000243048415193e-12 	101324.9999999979
0.8921421421421414 	299.9999999999911 	5.608490956375788e-13 	101324.999999998
0.8946446446446441 	299.9999999999986 	8.334639066653442e-13 	101324.9999999981
0.8971471471471464 	299.9999999999996 	1.087941217415491e-12 	101324.9999999981
0.8996496496496489 	299.9999999999929 	1.042740242559879e-12 	101324.9999999981
0.9021521521521517 	299.999999999989 	1.708164449786618e-12 	101324.9999999981
0.9046546546546541 	299.9999999999945 	1.105435112257912e-12 	101324.9999999981
0.9071571571571564 	299.9999999999867 	1.0375722263135e-12 	101324.9999999979
0.9096596596596589 	299.9999999999894 	6.685636845169135e-13 	101324.9999999978
0.9121621621621616 	300.0000000000013 	6.203072539522326e-13 	101324.9999999978
0.9146646646646639 	299.9999999999951 	4.89427875259712e-13 	101324.9999999978
0.9171671671671666 	299.9999999999884 	7.783224525855087e-13 	101324.9999999979
0.9196696696696689 	299.9999999999993 	1.33157101874624e-12 	101324.999999998
0.9221721721721714 	299.9999999999997 	1.281228605598358e-12 	101324.9999999983
0.9246746746746741 	299.9999999999876 	1.198090420295368e-12 	101324.9999999984
0.9271771771771765 	299.9999999999862 	6.694110708492421e-13 	101324.9999999983
0.9296796796796791 	299.9999999999963 	6.306339200956556e-13 	101324.9999999981
0.9321821821821816 	299.9999999999959 	7.517811223153684e-13 	101324.999999998
0.9346846846846838 	299.9999999999912 	5.332785037599829e-13 	101324.999999998
0.9371871871871866 	300.0000000000017 	4.515161845586648e-13 	101324.9999999981
0.9396896896896891 	300.0000000000029 	8.977226634246757e-13 	101324.9999999982
0.9421921921921914 	300.0000000000015 	1.103149258744288e-12 	101324.9999999982
0.9446946946946939 	299.9999999999916 	1.1595783258369e-12 	101324.9999999982
0.9471971971971965 	299.9999999999836 	1.009166186034789e-12 	101324.9999999981
0.9496996996996991 	299.9999999999877 	5.651976471154386e-13 	101324.9999999981
0.9522022022022016 	299.9999999999901 	7.408998445337447e-13 	101324.9999999982
0.9547047047047038 	299.9999999999936 	4.810255669013457e-13 	101324.9999999983
0.9572072072072064 	299.9999999999944 	5.80859497872683e-13 	101324.9999999983
0.9597097097097093 	299.9999999999926 	7.076497633910848e-13 	101324.9999999981
0.9622122122122114 	299.9999999999904 	9.066435516446625e-13 	101324.9999999981
0.964714714714714 	299.999999999992 	1.22249594959809e-12 	101324.999999998
0.9672172172172167 	299.9999999999923 	1.019029291227694e-12 	101324.9999999982
0.969719719719719 	299.999999999997 	1.279395547668099e-12 	101324.9999999984
0.9722222222222214 	299.9999999999939 	7.469251969485188e-13 	101324.9999999984
0.9747247247247239 	299.9999999999922 	8.122757669312387e-13 	101324.9999999983
0.9772272272272267 	299.9999999999977 	9.087730946853791e-13 	101324.9999999983
0.9797297297297292 	299.9999999999962 	1.00482680443182e-12 	101324.9999999981
0.9822322322322313 	299.9999999999991 	1.429198769452073e-12 	101324.9999999979
0.9847347347347344 	299.9999999999999 	1.314362592474858e-12 	101324.9999999979
0.9872372372372363 	299.9999999999912 	1.249975236661015e-12 	101324.9999999978
0.9897397397397389 	299.9999999999948 	5.641361430491188e-13 	101324.999999998
0.9922422422422417 	299.9999999999898 	1.117759412391374e-12 	101324.9999999982
0.9947447447447441 	299.9999999999885 	9.884188926272101e-13 	101324.9999999983
0.9972472472472468 	299.9999999999932 	1.258743281377483e-12 	101324.9999999983
0.999749749749749 	299.9999999999928 	7.971103156467388e-13 	101324.9999999982
1.002252252252252 	299.9999999999927 	8.648793127920194e-13 	101324.9999999982
1.004754754754754 	299.9999999999925 	1.280933728828067e-12 	101324.9999999981
1.007257257257256 	299.9999999999896 	1.04695832237607e-12 	101324.9999999981
1.009759759759759 	299.9999999999877 	1.229286545473612e-12 	101324.999999998
1.012262262262261 	299.9999999999869 	8.182008463037107e-13 	101324.9999999981
1.014764764764764 	299.9999999999829 	8.41063999677925e-13 	101324.9999999981
1.017267267267267 	299.999999999981 	5.380256860229384e-13 	101324.9999999981
1.019769769769769 	299.9999999999906 	5.313906806329982e-13 	101324.9999999981
1.022272272272272 	299.9999999999937 	5.487436950932793e-13 	101324.999999998
1.024774774774774 	299.9999999999909 	7.370288173393098e-13 	101324.9999999979
1.027277277277277 	299.9999999999908 	8.676139001379615e-13 	101324.9999999981
1.029779779779779 	299.9999999999966 	8.404173918981426e-13 	101324.9999999982
1.032282282282282 	299.9999999999976 	9.633672575486933e-13 	101324.9999999983
1.034784784784784 	299.9999999999977 	6.232554318412688e-13 	101324.9999999984
1.037287287287286 	299.9999999999924 	9.411486594108083e-13 	101324.9999999984
1.039789789789789 	299.9999999999947 	1.13091404109929e-12 	101324.9999999982
1.042292292292291 	300.0000000000021 	1.461598688115482e-12 	101324.9999999981
1.044794794794794 	300.000000000002 	1.620507075601846e-12 	101324.9999999981
1.047297297297296 	300.0000000000031 	1.22609219071995e-12 	101324.9999999981
1.049799799799799 	299.9999999999956 	1.427914869794704e-12 	101324.9999999982
1.052302302302302 	299.9999999999913 	4.45778406861385e-13 	101324.9999999982
1.054804804804804 	299.9999999999891 	6.401221374522181e-13 	101324.9999999982
1.057307307307306 	299.999999999984 	1.621548833112837e-13 	101324.999999998
1.059809809809809 	299.9999999999883 	2.58775691782741e-13 	101324.999999998
1.062312312312312 	299.999999999987 	3.149845681090796e-13 	101324.9999999981
1.064814814814814 	299.9999999999876 	6.85237325742162e-13 	101324.9999999982
1.067317317317317 	299.9999999999836 	7.721782945457107e-13 	101324.9999999982
1.069819819819819 	299.9999999999829 	1.335726730622177e-12 	101324.9999999981
1.072322322322321 	299.9999999999972 	1.734661988217728e-12 	101324.9999999981
1.074824824824824 	300.0000000000022 	7.402354596435392e-13 	101324.9999999983
1.077327327327327 	300.0000000000045 	9.765814641929733e-13 	101324.9999999985
1.079829829829829 	300.0000000000038 	3.713106111129123e-13 	101324.9999999985
1.082332332332332 	299.9999999999993 	8.096800009951066e-13 	101324.9999999985
1.084834834834834 	299.9999999999945 	1.550424645748927e-12 	101324.9999999986
1.087337337337337 	299.999999999985 	1.552230673152142e-12 	101324.9999999986
1.089839839839839 	299.9999999999858 	1.633052618619948e-12 	101324.9999999986
1.092342342342342 	299.9999999999944 	1.466569673371382e-12 	101324.9999999986
1.094844844844844 	299.9999999999965 	1.576763854700239e-12 	101324.9999999986
1.097347347347347 	299.9999999999914 	1.554758220337179e-12 	101324.9999999986
1.099849849849849 	299.9999999999882 	1.25456631418858e-12 	101324.9999999987
1.102352352352352 	299.9999999999927 	9.171559465119657e-13 	101324.9999999987
1.104854854854854 	299.9999999999975 	8.720133041061933e-13 	101324.9999999987
1.107357357357357 	299.9999999999945 	3.533842936073684e-13 	101324.9999999988
1.109859859859859 	299.9999999999898 	8.205973173956517e-13 	101324.9999999988
1.112362362362362 	300.0000000000036 	1.031755376488028e-12 	101324.9999999987
1.114864864864865 	300.0000000000035 	1.381243806749822e-12 	101324.9999999987
1.117367367367367 	299.9999999999927 	1.551076028112213e-12 	101324.9999999987
1.119869869869869 	299.9999999999863 	1.426119613813755e-12 	101324.9999999987
1.122372372372372 	299.9999999999907 	1.958763961851225e-12 	101324.9999999987
1.124874874874874 	299.9999999999893 	1.254826288215337e-12 	101324.9999999987
1.127377377377377 	299.999999999996 	1.469038051385744e-12 	101324.9999999987
1.129879879879879 	300.0000000000092 	1.112085513693016e-12 	101324.9999999985
1.132382382382382 	300.0000000000049 	9.934713269383071e-13 	101324.9999999985
1.134884884884884 	299.9999999999993 	1.023877889453239e-12 	101324.9999999985
1.137387387387387 	300.0000000000024 	7.95033807136772e-13 	101324.9999999987
1.139889889889889 	299.999999999992 	1.024654558619707e-12 	101324.9999999988
1.142392392392392 	299.9999999999901 	7.806576567514417e-13 	101324.999999999
1.144894894894894 	300.0000000000003 	4.132590417742048e-13 	101324.9999999989
1.147397397397397 	299.999999999997 	3.420239419350691e-13 	101324.9999999988
1.149899899899899 	299.9999999999857 	9.336183008286155e-13 	101324.9999999988
1.152402402402402 	299.9999999999849 	7.803826520214722e-13 	101324.9999999989
1.154904904904904 	299.999999999994 	9.136942845436827e-13 	101324.999999999
1.157407407407407 	299.9999999999955 	1.051267938134163e-12 	101324.9999999992
1.159909909909909 	299.9999999999905 	1.361880389984318e-12 	101324.9999999994
1.162412412412412 	299.9999999999876 	1.556272763541339e-12 	101324.9999999994
1.164914914914914 	299.9999999999889 	1.143849345208427e-12 	101324.9999999994
1.167417417417417 	299.9999999999869 	1.800019390409747e-12 	101324.9999999994
1.169919919919919 	299.9999999999974 	1.49188132221708e-12 	101324.9999999993
1.172422422422422 	300.0000000000049 	1.449927940344986e-12 	101324.9999999993
1.174924924924925 	299.9999999999957 	1.113189332308102e-12 	101324.9999999992
1.177427427427427 	299.9999999999891 	1.522255114681002e-12 	101324.9999999991
1.179929929929929 	299.9999999999975 	1.679375468514672e-12 	101324.999999999
1.182432432432432 	300.0000000000011 	8.031253489191318e-13 	101324.999999999
1.184934934934934 	299.9999999999984 	9.706640016194863e-13 	101324.9999999992
1.187437437437437 	299.9999999999969 	8.845699450404995e-13 	101324.9999999993
1.189939939939939 	299.9999999999922 	1.174957656209564e-12 	101324.9999999992
1.192442442442442 	299.9999999999852 	1.040152289546521e-12 	101324.9999999991
1.194944944944944 	299.9999999999866 	1.570107862653068e-12 	101324.999999999
1.197447447447447 	299.9999999999953 	1.445368181776407e-12 	101324.9999999991
1.199949949949949 	299.9999999999958 	1.468144591715871e-12 	101324.9999999991
1.202452452452452 	299.999999999987 	1.599399377109464e-12 	101324.999999999
1.204954954954955 	299.9999999999875 	1.208998594819067e-12 	101324.999999999
1.207457457457457 	299.9999999999933 	1.542320990042478e-12 	101324.999999999
1.20995995995996 	299.9999999999927 	1.263438315625202e-12 	101324.9999999991
1.212462462462462 	299.9999999999969 	1.664539531162397e-12 	101324.9999999992
1.214964964964964 	299.9999999999962 	1.502884527750488e-12 	101324.9999999992
1.217467467467467 	299.9999999999957 	1.993251840118656e-12 	101324.9999999993
1.219969969969969 	299.9999999999981 	1.702991867409256e-12 	101324.9999999992
1.222472472472472 	300.0000000000051 	1.756330018833028e-12 	101324.9999999992
1.224974974974975 	300.0000000000062 	1.559410825621765e-12 	101324.9999999991
1.227477477477477 	299.9999999999999 	8.929214704076365e-13 	101324.999999999
1.229979979979979 	299.9999999999972 	1.555743307519704e-12 	101324.9999999989
1.232482482482482 	299.9999999999886 	1.136436194533341e-12 	101324.9999999989
1.234984984984984 	299.9999999999883 	1.671723808144965e-12 	101324.9999999991
1.237487487487487 	299.9999999999904 	1.321470676244385e-12 	101324.9999999994
1.239989989989989 	299.9999999999907 	1.635993031711049e-12 	101324.9999999995
1.242492492492492 	299.9999999999982 	1.733219552303557e-12 	101324.9999999995
1.244994994994994 	299.9999999999921 	1.395059809233292e-12 	101324.9999999995
1.247497497497497 	299.9999999999943 	2.064108496387942e-12 	101324.9999999995
1.249999999999999 	300.0000000000105 	1.67039380567067e-12 	101324.9999999996
