-1.25 	300 	0.072087460875896 	101295.6107373854
-1.247497497497497 	299.9793448432693 	0.05970889628484533 	101301.3288282306
-1.244994994994995 	299.9853192551943 	0.04188543979127189 	101307.6393330046
-1.242492492492492 	299.9906798801635 	0.02747639345229507 	101313.980492256
-1.23998998998999 	299.9963044449096 	0.01042076487193682 	101320.6305146735
-1.237487487487487 	300.0020533980651 	0.008326056588766027 	101327.4267374448
-1.234984984984985 	300.0077588576942 	0.02249521830001157 	101334.1719992853
-1.232482482482482 	300.0133466826441 	0.03863957749210978 	101340.7784853118
-1.22997997997998 	300.0187285677548 	0.05412469796974369 	101347.141776465
-1.227477477477477 	300.0237499701053 	0.06862294735792014 	101353.0791360292
-1.224974974974975 	300.0283162746183 	0.08186157029654177 	101358.4786081238
-1.222472472472472 	300.0324116272148 	0.09366681066062747 	101363.3213887821
-1.21996996996997 	300.035893374915 	0.1037169493803866 	101367.4387491615
-1.217467467467467 	300.0386464075279 	0.1117087860956205 	101370.6944440221
-1.214964964964965 	300.040682367091 	0.1176171047851652 	101373.1022081586
-1.212462462462462 	300.0420031403834 	0.1214847831963652 	101374.6642270116
-1.20995995995996 	300.0425767504354 	0.1231332364143114 	101375.3426322921
-1.207457457457457 	300.0423742283542 	0.1224913207020072 	101375.103163193
-1.204954954954955 	300.0413728193056 	0.1195595765155976 	101373.918977454
-1.202452452452452 	300.0395731902198 	0.114325812382174 	101371.7908780388
-1.19994994994995 	300.0369949646739 	0.1069034717918254 	101368.742028762
-1.197447447447447 	300.0337244082672 	0.09746126293634813 	101364.8745055168
-1.194944944944945 	300.0298651047664 	0.08627382337764052 	101360.3109088332
-1.192442442442442 	300.0254826553779 	0.07359967763783161 	101355.1288678689
-1.18993993993994 	300.0206395247545 	0.05967034627432193 	101349.402289322
-1.187437437437437 	300.0154409790884 	0.04467984736203139 	101343.2557148702
-1.184934934934935 	300.0099565460483 	0.02878890727797453 	101336.7713872613
-1.182432432432432 	300.0042880359424 	0.01237870972842289 	101330.0697320776
-1.17992992992993 	299.9985759425283 	0.008484591143852836 	101323.3168683568
-1.177427427427427 	299.9928842629446 	0.02067515750890769 	101316.5884399314
-1.174924924924925 	299.9872810451233 	0.03686616300277224 	101309.9648977097
-1.172422422422422 	299.981873573481 	0.05244794155879282 	101303.5730144678
-1.16991991991992 	299.9767823526548 	0.06712403300166073 	101297.5552210532
-1.167417417417417 	299.9721297400197 	0.08056266325446727 	101292.0560758693
-1.164914914914915 	299.9680190069806 	0.09247472256414779 	101287.1975526176
-1.162412412412412 	299.9645200212799 	0.1025942031959898 	101283.0621890976
-1.15990990990991 	299.9616754451927 	0.1107972250287717 	101279.700316573
-1.157407407407407 	299.9595150325848 	0.1170573543551705 	101277.1470518677
-1.154904904904904 	299.9580779364032 	0.1212214651850648 	101275.4485915428
-1.152402402402403 	299.9574237170734 	0.123126431942353 	101274.6753792608
-1.1498998998999 	299.9575844691461 	0.1226435836786048 	101274.8653390098
-1.147397397397397 	299.9585547052281 	0.1197717532327512 	101276.0118655112
-1.144894894894895 	299.9603119131959 	0.1146823867366308 	101278.0884454207
-1.142392392392392 	299.9628043234902 	0.1075065032304207 	101281.0339607286
-1.13988988988989 	299.9659588948002 	0.0983926089060408 	101284.762093059
-1.137387387387387 	299.9697228556785 	0.08749494846177169 	101289.2105851092
-1.134884884884885 	299.9740426501132 	0.07498079872253235 	101294.3161591395
-1.132382382382382 	299.9788439564067 	0.06112172838889846 	101299.9910669191
-1.12987987987988 	299.984032217562 	0.04617574566016429 	101306.1236248602
-1.127377377377377 	299.9894863022859 	0.0304413765326152 	101312.5706552415
-1.124874874874875 	299.995080361073 	0.01421776532894686 	101319.1834815882
-1.122372372372372 	300.0007343201333 	0.008366653368300621 	101325.8674209943
-1.11986986986987 	300.0064053982807 	0.01861158232072639 	101332.5719296306
-1.117367367367367 	300.012014400222 	0.03479465438122772 	101339.2033916892
-1.114864864864865 	300.0174263921613 	0.05042736941197776 	101345.6022046448
-1.112362362362362 	300.0225160501777 	0.0651366065128158 	101351.6202097006
-1.10985985985986 	300.0271874860971 	0.07863220189102972 	101357.1439342666
-1.107357357357357 	300.0313489553644 	0.09061644418411408 	101362.0648464386
-1.104854854854855 	300.0349244009236 	0.1009587122062998 	101366.2929576603
-1.102352352352353 	300.0378717357994 	0.1094894065271728 	101369.7783817598
-1.09984984984985 	300.0401432366734 	0.116067770529503 	101372.464684208
-1.097347347347347 	300.0416904792423 	0.1205722171423695 	101374.2945148904
-1.094844844844845 	300.0424663422331 	0.1227777330131128 	101375.2121185963
-1.092342342342342 	300.0424292013239 	0.1226618872480094 	101375.1682266181
-1.08983983983984 	300.0415745381706 	0.1202081460087039 	101374.1575657486
-1.087337337337337 	300.0399467922074 	0.1154808528679547 	101372.2327364171
-1.084834834834835 	300.0375840303593 	0.1086469192541274 	101369.4386696017
-1.082332332332332 	300.0345317039266 	0.09977767949205191 	101365.8292033078
-1.07982982982983 	300.0308421002819 	0.08908972452527636 	101361.4662609212
-1.077327327327327 	300.0265779366582 	0.07677196053311412 	101356.4240253627
-1.074824824824825 	300.0218228414923 	0.06307566111022139 	101350.8014988054
-1.072322322322323 	300.0166897879824 	0.04827665996904174 	101344.7322990968
-1.06981981981982 	300.0112607963439 	0.03256433161655247 	101338.3134543436
-1.067317317317317 	300.0056378790405 	0.01631202972596426 	101331.6656393136
-1.064814814814815 	299.9999268289754 	0.008175308830573044 	101324.9139202357
-1.062312312312312 	299.9941906371675 	0.01685271746706138 	101318.1328051515
-1.05980980980981 	299.988529037345 	0.03320179903125623 	101311.4401772658
-1.057307307307307 	299.9830710937509 	0.04898396806920796 	101304.9885763983
-1.054804804804805 	299.9779348866813 	0.06382141128217569 	101298.9175511787
-1.052302302302302 	299.9732211154295 	0.07744767221750666 	101293.3460559612
-1.0497997997998 	299.969002678399 	0.0896456832260473 	101288.3602062081
-1.047297297297297 	299.9653420511449 	0.1001880235863991 	101284.033773283
-1.044794794794795 	299.9623086431099 	0.1089453705351399 	101280.4487188412
-1.042292292292292 	299.9599685972416 	0.1156974852627155 	101277.683157312
-1.03978978978979 	299.9583852421167 	0.1202708808436229 	101275.8118242097
-1.037287287287287 	299.9576008259478 	0.1225731476167628 	101274.8847524968
-1.034784784784785 	299.9576159007077 	0.1225269412658151 	101274.9025436437
-1.032282282282283 	299.9584153121797 	0.1202055124671205 	101275.8472065968
-1.02977977977978 	299.9599785028478 	0.1156831309795434 	101277.6945013182
-1.027277277277277 	299.9622700186314 	0.1090376590468156 	101280.4025604803
-1.024774774774775 	299.9652558842871 	0.1004012983053953 	101283.9313017042
-1.022272272272272 	299.9688869530649 	0.08989092336449019 	101288.2226824717
-1.01976976976977 	299.9730850776268 	0.07773240538473081 	101293.1844140411
-1.017267267267267 	299.9777723832859 	0.06418889718781486 	101298.7245411465
-1.014764764764765 	299.9828582402727 	0.0495186883858994 	101304.7359787316
-1.012262262262262 	299.9882330648989 	0.03400246152929619 	101311.0892687891
-1.00975975975976 	299.9937977918806 	0.01790563742397761 	101317.6673457057
-1.007257257257257 	299.999448521052 	0.007586469451244802 	101324.3473942522
-1.004754754754755 	300.005100475769 	0.01482000803032956 	101331.0292339669
-1.002252252252252 	300.0106844079849 	0.0309546655234288 	101337.6309625255
-0.9997497497497498 	300.0160835769607 	0.04655082749750125 	101344.0145573297
-0.9972472472472473 	300.0211958730366 	0.06138267958356235 	101350.0592612863
-0.9947447447447449 	300.0259505235159 	0.07510982685197089 	101355.6813158479
-0.9922422422422421 	300.0302513883578 	0.0874791095351326 	101360.7670104561
-0.9897397397397399 	300.0340014177167 	0.09833962712682681 	101365.2015128374
-0.9872372372372376 	300.0371445239887 	0.1073667507828176 	101368.9184386898
-0.9847347347347346 	300.0395905930009 	0.1144598084688724 	101371.8111723041
-0.9822322322322323 	300.041290217849 	0.1194110315379356 	101373.8212034553
-0.9797297297297296 	300.0422332153671 	0.1220632716166168 	101374.9364635572
-0.9772272272272275 	300.0423899317653 	0.1225232745573188 	101375.1218128812
-0.9747247247247248 	300.041747419732 	0.1206994536476141 	101374.3620314665
-0.9722222222222224 	300.0403440753896 	0.1166463240025827 	101372.7025891959
-0.9697197197197196 	300.0381685230006 	0.1103599602118494 	101370.1299033894
-0.9672172172172175 	300.035265401187 	0.1019286582042215 	101366.6968679105
-0.9647147147147147 	300.0317248838689 	0.09165220906343749 	101362.5101739344
-0.9622122122122124 	300.0276043490346 	0.07971735542409446 	101357.6377490318
-0.9597097097097099 	300.0229682101008 	0.06640675037509594 	101352.155850729
-0.9572072072072073 	300.017917718488 	0.05175765462656564 	101346.1842013603
-0.9547047047047047 	300.012497558696 	0.03604966375461432 	101339.7757504557
-0.9522022022022023 	300.0068530705811 	0.01980879918844015 	101333.1023388196
-0.9496996996996998 	300.0011582568014 	0.007029517527068639 	101326.3697556375
-0.9471971971971973 	299.9954500401859 	0.0132326716124273 	101319.6216584574
-0.9446946946946947 	299.9897843572499 	0.02959379913857987 	101312.9241194404
-0.9421921921921923 	299.9842902994252 	0.04546739524166245 	101306.4297884057
-0.93968968968969 	299.9790888697267 	0.06044712445597236 	101300.2815865252
-0.9371871871871872 	299.9742975512837 	0.07434280996104123 	101294.6183921253
-0.9346846846846848 	299.9699917794745 	0.08687163402947745 	101289.5292967975
-0.9321821821821823 	299.966186784782 	0.09788992149155265 	101285.0321907965
-0.9296796796796799 	299.9629598874443 	0.1071618670724614 	101281.2184726262
-0.9271771771771771 	299.96043832836 	0.1144000384787881 	101278.2383536417
-0.9246746746746748 	299.9586974484403 	0.1194206274419928 	101276.1808517953
-0.9221721721721724 	299.9577869528716 	0.1220298553249825 	101275.1047769251
-0.9196696696696698 	299.9576880868944 	0.1223704199987185 	101274.9879203526
-0.9171671671671672 	299.9583200797424 	0.1205238222485542 	101275.734755823
-0.9146646646646649 	299.9596638309274 	0.1165783932315755 	101277.3227027351
-0.9121621621621623 	299.9617369105439 	0.1106646241652901 	101279.7726016656
-0.9096596596596597 	299.9645185006011 	0.1025894592763682 	101283.0598953837
-0.9071571571571573 	299.9680162251599 	0.09249964145970552 	101287.193648873
-0.9046546546546547 	299.9721487288361 	0.08062423257158337 	101292.0777966812
-0.9021521521521524 	299.9767428758129 	0.06727853490505636 	101297.5077611065
-0.8996496496496498 	299.9816669218254 	0.05303617808891186 	101303.3278846092
-0.8971471471471473 	299.9868453260838 	0.03806055020512286 	101309.4489298012
-0.894644644644645 	299.9922181252857 	0.02245000610316277 	101315.8000333419
-0.892142142142142 	299.9978007560696 	0.006302421797348386 	101322.3994851214
-0.8896396396396397 	300.0035570721821 	0.01069341589086108 	101329.2045910704
-0.8871371371371374 	300.0093840739783 	0.02715706241493774 	101336.0936051859
-0.8846346346346349 	300.0150287810998 	0.04340366820066648 	101342.7674531521
-0.8821321321321324 	300.0202139560166 	0.05836628279749173 	101348.8982898319
-0.8796296296296297 	300.0247960092054 	0.07164257214791829 	101354.3162292372
-0.8771271271271271 	300.0287936324972 	0.08326732166529727 	101359.0432988101
-0.8746246246246248 	300.0323312408974 	0.09355858285158362 	101363.2265384685
-0.8721221221221224 	300.0355268348683 	0.1028196615271583 	101367.0054451953
-0.8696196196196196 	300.038391993213 	0.1110691930671096 	101370.3937060759
-0.8671171171171175 	300.0407948551779 	0.1179358526905256 	101373.2353484268
-0.8646146146146148 	300.0424930560473 	0.1227447251455771 	101375.2437305789
-0.8621121121121121 	300.0432122292224 	0.1247331231738573 	101376.0943024494
-0.8596096096096097 	300.0427360284913 	0.123302207292619 	101375.5311545285
-0.857107107107107 	300.0409788916675 	0.1182217778521059 	101373.4533422798
-0.8546046046046049 	300.0380237014381 	0.1097324466732637 	101369.9587539453
-0.8521021021021022 	300.0341129872109 	0.09852143344868609 	101365.3342200015
-0.8495995995995997 	300.0295998546437 	0.08558448787353223 	101359.9974470914
-0.8470970970970974 	300.0248734308817 	0.07201826243187162 	101354.4086394908
-0.8445945945945946 	300.0202817216576 	0.05880986926057992 	101348.9793116845
-0.8420920920920922 	300.0160799509445 	0.04669462679997675 	101344.0112176689
-0.8395895895895897 	300.0124186104363 	0.03611453110647851 	101339.6822455521
-0.8370870870870872 	300.0093575965819 	0.02725143011027668 	101336.06315799
-0.8345845845845846 	300.0068891653693 	0.02009077424199072 	101333.1447500457
-0.8320820820820823 	300.0049615246003 	0.01448903852837824 	101330.865750718
-0.8295795795795798 	300.0034993232412 	0.01023275249921434 	101329.1370486474
-0.8270770770770772 	300.0024193339448 	0.007083995876111962 	101327.8602312809
-0.8245745745745746 	300.0016410773234 	0.004811452195682704 	101326.9401426677
-0.8220720720720721 	300.0010930122377 	0.00320869065275626 	101326.2921987589
-0.8195695695695699 	300.0007153079083 	0.002102534049117537 	101325.8456628775
-0.817067067067067 	300.0004602721359 	0.001354577448911384 	101325.5441505862
-0.8145645645645651 	300.0002913719755 	0.0008585555817761814 	101325.344470892
-0.8120620620620621 	300.000181563832 	0.000535641280406915 	101325.214651746
-0.8095595595595597 	300.0001114237876 	0.0003291089336775841 	101325.1317296051
-0.8070570570570572 	300.0000673745275 	0.0001992361337029191 	101325.0796529557
-0.8045545545545546 	300.000040157926 	0.0001188906784249047 	101325.0474764361
-0.8020520520520523 	300.0000236037179 	6.996074451895051e-05 	101325.0279053476
-0.7995495495495494 	300.0000136863342 	4.061179857726321e-05 	101325.0161805709
-0.7970470470470474 	300.0000078314701 	2.326456941665438e-05 	101325.0092587208
-0.7945445445445446 	300.0000044238001 	1.315611222274382e-05 	101325.0052300185
-0.7920420420420423 	300.0000024676329 	7.346588833727133e-06 	101325.0029173362
-0.7895395395395397 	300.0000013596413 	4.052272273222722e-06 	101325.0016074184
-0.7870370370370371 	300.0000007401968 	2.208445142826877e-06 	101325.0008750878
-0.7845345345345348 	300.0000003982374 	1.189506806562944e-06 	101325.0004708355
-0.7820320320320323 	300.0000002118091 	6.33352389857581e-07 	101325.000250432
-0.7795295295295296 	300.0000001113596 	3.334529051891594e-07 	101325.000131709
-0.7770270270270272 	300.0000000578892 	1.736272612282443e-07 	101325.0000685081
-0.7745245245245247 	300.000000029755 	8.943741327638771e-08 	101325.0000352496
-0.7720220220220222 	300.0000000151456 	4.558007000275779e-08 	101325.0000179445
-0.7695195195195199 	300.0000000076129 	2.299168978959191e-08 	101325.0000090393
-0.767017017017017 	300.0000000037995 	1.147557215921458e-08 	101325.000004506
-0.7645145145145147 	300.0000000018946 	5.674547090190256e-09 	101325.0000022226
-0.7620120120120122 	300.0000000009347 	2.773894651641042e-09 	101325.0000010844
-0.7595095095095097 	300.0000000003987 	1.347321407342427e-09 	101325.000000523
-0.7570070070070072 	300.0000000001708 	6.42072554267954e-10 	101325.0000002488
-0.7545045045045048 	300.0000000000913 	3.072394788777128e-10 	101325.000000116
-0.7520020020020022 	300.0000000000207 	1.400000369143688e-10 	101325.0000000525
-0.7494994994994997 	299.9999999999927 	6.570851463533541e-11 	101325.0000000222
-0.7469969969969972 	300.0000000000078 	2.678507408582381e-11 	101325.000000008
-0.7444944944944945 	299.9999999999965 	1.229640686386797e-11 	101325.0000000014
-0.7419919919919924 	299.9999999999911 	3.775513987596048e-12 	101324.9999999983
-0.7394894894894897 	299.9999999999687 	1.358705813664202e-12 	101324.9999999968
-0.7369869869869872 	299.9999999999906 	1.180959310829962e-12 	101324.9999999961
-0.7344844844844846 	299.9999999999743 	1.222113959248621e-12 	101324.9999999958
-0.7319819819819822 	300.0000000000039 	5.629072515401094e-13 	101324.9999999956
-0.7294794794794797 	300.0000000000001 	1.405279050190639e-12 	101324.9999999955
-0.7269769769769773 	300.0000000000089 	1.383658451384445e-12 	101324.9999999952
-0.7244744744744747 	300.0000000000097 	4.054072156664134e-13 	101324.999999995
-0.721971971971972 	299.999999999965 	9.126341656833348e-13 	101324.9999999951
-0.7194694694694695 	299.9999999999868 	8.99451006944284e-13 	101324.9999999952
-0.7169669669669674 	299.999999999954 	5.919423049740067e-13 	101324.9999999953
-0.7144644644644647 	299.9999999999841 	5.016398926987698e-13 	101324.9999999954
-0.711961961961962 	300.000000000007 	3.522970777839052e-13 	101324.9999999955
-0.7094594594594597 	300.0000000000069 	6.170092325961573e-13 	101324.9999999955
-0.7069569569569573 	300.0000000000156 	1.581245737112288e-12 	101324.9999999953
-0.7044544544544545 	300.0000000000198 	9.151560707892446e-13 	101324.9999999953
-0.7019519519519523 	300.000000000005 	1.285249424299693e-12 	101324.9999999954
-0.6994494494494495 	299.9999999999512 	1.337534726021884e-12 	101324.9999999953
-0.6969469469469471 	299.9999999999599 	1.996596933659378e-12 	101324.9999999951
-0.6944444444444446 	299.999999999971 	1.913110702264421e-12 	101324.9999999952
-0.6919419419419421 	300.0000000000195 	2.050484174123739e-12 	101324.9999999953
-0.6894394394394396 	299.9999999999984 	1.696188670828953e-12 	101324.9999999954
-0.6869369369369374 	300.0000000000078 	1.724724274188246e-12 	101324.9999999956
-0.6844344344344344 	300.0000000000153 	9.353076902664737e-13 	101324.9999999957
-0.6819319319319321 	299.9999999999729 	1.577605470907976e-12 	101324.9999999957
-0.6794294294294296 	299.9999999999613 	1.766687742026998e-12 	101324.9999999956
-0.6769269269269272 	299.9999999999414 	2.324432030564189e-12 	101324.9999999959
-0.6744244244244245 	299.9999999999756 	2.685971399179182e-12 	101324.999999996
-0.6719219219219222 	299.9999999999693 	2.959662418297427e-12 	101324.9999999959
-0.6694194194194195 	299.9999999999981 	3.382187593297064e-12 	101324.9999999957
-0.6669169169169172 	300.0000000000127 	2.544014604843979e-12 	101324.9999999956
-0.6644144144144146 	299.999999999976 	2.8806693066413e-12 	101324.9999999956
-0.661911911911912 	299.9999999999775 	2.182724618346413e-12 	101324.9999999955
-0.6594094094094097 	299.9999999999839 	2.57692459778549e-12 	101324.9999999955
-0.656906906906907 	299.9999999999578 	1.212372091368658e-12 	101324.9999999955
-0.6544044044044046 	299.9999999999603 	2.221292062041411e-12 	101324.9999999953
-0.6519019019019021 	299.9999999999881 	1.209311844138365e-12 	101324.9999999953
-0.6493993993993996 	300.0000000000157 	2.213221215897402e-12 	101324.9999999951
-0.6468968968968971 	300.0000000000225 	2.149758314200306e-12 	101324.9999999952
-0.6443943943943946 	299.9999999999995 	2.985164053265996e-12 	101324.9999999952
-0.6418918918918921 	299.9999999999961 	1.284265131647264e-12 	101324.9999999951
-0.6393893893893897 	299.9999999999977 	2.051283954247585e-12 	101324.999999995
-0.6368868868868871 	299.999999999984 	1.24531928796657e-12 	101324.9999999949
-0.6343843843843846 	299.9999999999958 	1.609134578551446e-12 	101324.999999995
-0.6318818818818821 	299.9999999999654 	9.412234152915119e-13 	101324.9999999952
-0.6293793793793795 	300.0000000000012 	5.671006978164697e-13 	101324.9999999953
-0.6268768768768773 	300.0000000000148 	4.908088080391477e-13 	101324.9999999952
-0.6243743743743745 	299.9999999999852 	3.752694797291023e-13 	101324.9999999953
-0.6218718718718721 	300.0000000000036 	1.598566209074663e-12 	101324.9999999953
-0.6193693693693696 	299.9999999999541 	1.045214679885102e-12 	101324.9999999953
-0.6168668668668671 	299.9999999999881 	2.332318892164214e-12 	101324.9999999952
-0.6143643643643645 	300.0000000000106 	1.49313676972108e-12 	101324.9999999952
-0.6118618618618621 	299.9999999999878 	2.160853347117285e-12 	101324.9999999953
-0.6093593593593596 	299.9999999999892 	1.804798437986357e-12 	101324.9999999951
-0.6068568568568571 	299.9999999999902 	1.941430935599863e-12 	101324.999999995
-0.6043543543543546 	299.9999999999711 	1.198382439638436e-12 	101324.999999995
-0.6018518518518521 	299.9999999999765 	1.438859015199928e-12 	101324.9999999951
-0.5993493493493496 	299.9999999999614 	7.218780761735329e-13 	101324.9999999952
-0.5968468468468471 	299.9999999999692 	1.423843621288329e-12 	101324.999999995
-0.5943443443443446 	299.9999999999952 	8.968501855619557e-13 	101324.9999999948
-0.591841841841842 	299.9999999999699 	1.905719808914555e-12 	101324.9999999947
-0.5893393393393397 	299.9999999999619 	1.094726308283888e-12 	101324.9999999948
-0.5868368368368371 	299.9999999999911 	2.314272759692384e-12 	101324.9999999948
-0.5843343343343346 	299.9999999999993 	2.41866508502771e-12 	101324.9999999948
-0.5818318318318321 	300.0000000000208 	2.299386955855224e-12 	101324.9999999948
-0.5793293293293297 	299.9999999999906 	1.978368743411132e-12 	101324.9999999947
-0.5768268268268271 	299.9999999999989 	1.792348978570551e-12 	101324.999999995
-0.5743243243243245 	300.0000000000156 	1.251386656644887e-12 	101324.9999999951
-0.5718218218218221 	300.0000000000148 	7.46267019441738e-13 	101324.9999999952
-0.5693193193193196 	300.0000000000317 	6.802003424669673e-13 	101324.9999999953
-0.5668168168168171 	299.9999999999921 	5.274049913433654e-13 	101324.9999999954
-0.5643143143143147 	299.999999999962 	1.978729160491375e-12 	101324.9999999954
-0.5618118118118121 	300.000000000009 	1.511183956404651e-12 	101324.9999999954
-0.5593093093093094 	300.0000000000245 	2.326216495193083e-12 	101324.9999999953
-0.5568068068068072 	300.0000000000114 	1.356879344604101e-12 	101324.9999999952
-0.5543043043043046 	300.0000000000131 	1.438111837802365e-12 	101324.9999999954
-0.551801801801802 	299.9999999999691 	6.440493746765741e-13 	101324.9999999953
-0.5492992992992995 	299.999999999998 	5.760681639731282e-13 	101324.999999995
-0.5467967967967969 	300.0000000000092 	4.928023786580882e-13 	101324.9999999949
-0.5442942942942947 	300.0000000000063 	4.712337760903859e-13 	101324.9999999949
-0.5417917917917919 	299.9999999999702 	5.763308751324521e-13 	101324.9999999951
-0.5392892892892895 	299.9999999999526 	8.532681047949018e-13 	101324.9999999951
-0.536786786786787 	299.9999999999686 	1.379382370051266e-12 	101324.9999999951
-0.5342842842842846 	299.9999999999734 	9.989334398106269e-13 	101324.9999999951
-0.531781781781782 	299.999999999954 	1.752836216308392e-12 	101324.9999999952
-0.5292792792792794 	299.9999999999507 	2.503834525048668e-12 	101324.9999999953
-0.526776776776777 	299.9999999999389 	1.990859508016716e-12 	101324.9999999954
-0.5242742742742745 	299.9999999999854 	4.471291321364994e-12 	101324.9999999955
-0.521771771771772 	300.0000000000123 	2.925814702381713e-12 	101324.9999999956
-0.5192692692692695 	299.9999999999745 	5.306899160266088e-12 	101324.9999999956
-0.516766766766767 	300.0000000000035 	3.733722370285325e-12 	101324.9999999954
-0.5142642642642645 	299.9999999999802 	3.879750067126951e-12 	101324.9999999951
-0.511761761761762 	299.999999999967 	3.512495416642842e-12 	101324.9999999948
-0.5092592592592596 	299.99999999998 	2.860782507940759e-12 	101324.9999999949
-0.506756756756757 	299.9999999999585 	2.553376204686635e-12 	101324.9999999949
-0.5042542542542544 	299.999999999996 	2.165886576301301e-12 	101324.9999999951
-0.5017517517517521 	300.0000000000209 	2.523203339510994e-12 	101324.9999999951
-0.4992492492492494 	300.0000000000241 	5.460286684401765e-13 	101324.9999999952
-0.496746746746747 	299.9999999999939 	2.159295031368117e-12 	101324.9999999953
-0.4942442442442445 	299.9999999999585 	6.119310034689164e-13 	101324.9999999952
-0.4917417417417421 	299.9999999999588 	1.386966346012207e-12 	101324.9999999951
-0.4892392392392395 	299.9999999999698 	4.851373239463776e-13 	101324.9999999948
-0.486736736736737 	299.9999999999694 	1.641109377741815e-12 	101324.9999999945
-0.4842342342342345 	299.9999999999465 	1.371235546344515e-12 	101324.9999999945
-0.481731731731732 	300.0000000000258 	1.850396360221677e-12 	101324.9999999946
-0.4792292292292296 	300.0000000000146 	1.000137865596703e-12 	101324.9999999946
-0.4767267267267268 	299.9999999999707 	2.923316579645384e-12 	101324.9999999948
-0.4742242242242246 	299.9999999999997 	2.076446225199218e-12 	101324.9999999952
-0.471721721721722 	299.9999999999708 	2.306967495149732e-12 	101324.9999999952
-0.4692192192192195 	299.9999999999867 	1.805722769182047e-12 	101324.9999999951
-0.4667167167167169 	299.9999999999394 	1.560594017705457e-12 	101324.999999995
-0.4642142142142145 	299.9999999999964 	1.658845387512229e-12 	101324.999999995
-0.461711711711712 	300.0000000000114 	1.182659243248991e-12 	101324.999999995
-0.4592092092092094 	300.0000000000052 	1.175476106939216e-12 	101324.999999995
-0.456706706706707 	300.0000000000358 	1.06286694111149e-12 	101324.9999999949
-0.4542042042042045 	299.9999999999591 	4.759667180570936e-13 	101324.9999999949
-0.451701701701702 	299.9999999999653 	9.058400284912396e-13 	101324.999999995
-0.4491991991991995 	299.9999999999737 	2.033768842828072e-13 	101324.999999995
-0.4466966966966969 	299.9999999999746 	1.077516557044527e-12 	101324.9999999949
-0.4441941941941945 	299.9999999999983 	1.108106266346325e-12 	101324.9999999948
-0.441691691691692 	299.9999999999717 	1.087326719345419e-12 	101324.9999999946
-0.4391891891891895 	299.9999999999911 	2.089312547551483e-12 	101324.9999999944
-0.436686686686687 	299.9999999999784 	2.464742094781938e-12 	101324.9999999944
-0.4341841841841846 	299.9999999999995 	2.990409090542577e-12 	101324.9999999944
-0.431681681681682 	299.999999999966 	1.739124557186327e-12 	101324.9999999943
-0.4291791791791794 	299.9999999999526 	2.631706159364388e-12 	101324.9999999943
-0.426676676676677 	299.9999999999403 	8.168421587557638e-13 	101324.9999999944
-0.4241741741741744 	299.9999999999769 	1.982819839886152e-12 	101324.9999999943
-0.421671671671672 	300.0000000000035 	6.789060440357862e-13 	101324.9999999944
-0.4191691691691694 	300.0000000000325 	1.097569547611736e-12 	101324.9999999944
-0.4166666666666669 	300.0000000000381 	6.602458719518656e-13 	101324.9999999944
-0.4141641641641645 	299.9999999999587 	2.134150295797129e-13 	101324.9999999944
-0.411661661661662 	299.9999999999995 	3.026078197144808e-13 	101324.9999999942
-0.4091591591591594 	300.0000000000061 	2.102757212351999e-13 	101324.999999994
-0.406656656656657 	299.9999999999662 	9.310122746242074e-13 	101324.9999999937
-0.4041541541541545 	300.0000000000095 	4.379146771500016e-13 	101324.9999999939
-0.401651651651652 	299.9999999999498 	2.652807669453139e-12 	101324.999999994
-0.3991491491491494 	300.0000000000032 	7.015935299332868e-13 	101324.999999994
-0.396646646646647 	299.9999999999694 	3.022327409192705e-12 	101324.999999994
-0.3941441441441444 	299.9999999999876 	2.324269212669701e-12 	101324.9999999942
-0.3916416416416419 	299.9999999999567 	2.630108985242344e-12 	101324.9999999945
-0.3891391391391395 	299.9999999999683 	1.549213920636861e-12 	101324.9999999947
-0.3866366366366368 	299.9999999999708 	1.780506056341045e-12 	101324.9999999946
-0.3841341341341344 	299.9999999999999 	1.041390583299431e-12 	101324.9999999949
-0.381631631631632 	299.9999999999656 	2.219303053740391e-12 	101324.999999995
-0.3791291291291294 	300.0000000000005 	2.064929634901784e-12 	101324.9999999952
-0.3766266266266269 	300.0000000000138 	1.790854509507426e-12 	101324.9999999951
-0.3741241241241244 	300.0000000000131 	2.286269956050835e-12 	101324.9999999948
-0.371621621621622 	300.0000000000141 	4.997083331599344e-13 	101324.9999999948
-0.3691191191191194 	300.000000000006 	2.790063948160044e-12 	101324.9999999947
-0.366616616616617 	300.0000000000039 	6.959995923415698e-13 	101324.9999999945
-0.3641141141141143 	299.9999999999827 	2.872857843158961e-12 	101324.9999999943
-0.3616116116116119 	299.9999999999628 	1.218368939049476e-12 	101324.9999999942
-0.3591091091091095 	299.9999999999858 	2.117676388782606e-12 	101324.9999999942
-0.356606606606607 	299.9999999999888 	1.302666858536678e-12 	101324.9999999944
-0.3541041041041044 	299.9999999999935 	8.342863790703341e-13 	101324.9999999943
-0.3516016016016019 	300.0000000000134 	1.301938030750801e-12 	101324.9999999944
-0.3490990990990994 	299.9999999999947 	4.997710122126957e-13 	101324.9999999944
-0.346596596596597 	300.0000000000225 	2.012587245180252e-12 	101324.9999999943
-0.3440940940940944 	300.0000000000272 	5.525092140481352e-13 	101324.9999999942
-0.3415915915915919 	300.000000000016 	2.893355982185934e-12 	101324.9999999941
-0.3390890890890895 	299.9999999999882 	1.149344087653263e-12 	101324.9999999942
-0.3365865865865869 	300.0000000000144 	2.013142941806596e-12 	101324.9999999942
-0.3340840840840844 	299.999999999996 	1.860573549338891e-12 	101324.9999999944
-0.3315815815815819 	300.0000000000117 	2.970041424039836e-12 	101324.9999999943
-0.3290790790790794 	300.0000000000136 	3.093192525122709e-12 	101324.9999999946
-0.3265765765765769 	299.999999999953 	4.088148287873357e-12 	101324.9999999944
-0.3240740740740744 	299.9999999999994 	3.131387700677521e-12 	101324.9999999942
-0.3215715715715718 	300.0000000000068 	4.204541304830941e-12 	101324.9999999941
-0.3190690690690695 	299.9999999999562 	2.951757979859642e-12 	101324.9999999939
-0.3165665665665668 	299.9999999999925 	3.873199241961023e-12 	101324.9999999937
-0.3140640640640644 	299.9999999999996 	2.199388886864879e-12 	101324.9999999935
-0.311561561561562 	299.9999999999512 	4.271056206479044e-12 	101324.9999999936
-0.3090590590590593 	299.9999999999984 	6.1974812996024e-13 	101324.9999999935
-0.3065565565565568 	300.0000000000019 	4.917914803820164e-12 	101324.9999999935
-0.3040540540540545 	300.0000000000014 	1.129800948657046e-12 	101324.9999999939
-0.3015515515515518 	300.0000000000225 	5.093902394416013e-12 	101324.999999994
-0.2990490490490494 	299.9999999999613 	2.336524699451141e-12 	101324.9999999942
-0.2965465465465469 	299.9999999999918 	4.321512044858692e-12 	101324.9999999942
-0.2940440440440444 	299.9999999999932 	4.109236830422633e-12 	101324.999999994
-0.2915415415415418 	300.0000000000059 	4.922697743601431e-12 	101324.9999999939
-0.2890390390390395 	300.0000000000069 	5.880540882017003e-12 	101324.9999999937
-0.2865365365365368 	299.9999999999839 	4.681317642685794e-12 	101324.9999999937
-0.2840340340340343 	300.0000000000001 	6.498263478706819e-12 	101324.9999999939
-0.2815315315315318 	299.9999999999475 	4.539882772190103e-12 	101324.9999999942
-0.2790290290290295 	299.9999999999763 	6.268518173039386e-12 	101324.999999994
-0.2765265265265269 	300.0000000000066 	5.182780704939468e-12 	101324.9999999939
-0.2740240240240244 	300.0000000000138 	5.912906818843305e-12 	101324.999999994
-0.2715215215215219 	300.0000000000074 	5.555294071471545e-12 	101324.999999994
-0.2690190190190194 	299.9999999999631 	4.554342572975097e-12 	101324.999999994
-0.2665165165165169 	299.9999999999972 	5.064111481559415e-12 	101324.9999999938
-0.2640140140140144 	299.9999999999817 	4.4860669736788e-12 	101324.9999999937
-0.2615115115115119 	299.9999999999982 	7.111411349158924e-12 	101324.9999999937
-0.2590090090090094 	299.9999999999526 	5.522050939477357e-12 	101324.9999999937
-0.2565065065065068 	299.9999999999953 	6.202070513520332e-12 	101324.9999999939
-0.2540040040040044 	299.9999999999941 	5.932916830105181e-12 	101324.9999999937
-0.2515015015015019 	300.0000000000236 	5.601803439602409e-12 	101324.9999999937
-0.2489989989989994 	300.0000000000268 	6.989765300757545e-12 	101324.9999999935
-0.2464964964964968 	299.9999999999897 	5.069313499060688e-12 	101324.9999999934
-0.2439939939939944 	299.9999999999929 	8.097289543508342e-12 	101324.9999999937
-0.2414914914914919 	299.9999999999748 	4.468001168426175e-12 	101324.9999999938
-0.2389889889889893 	299.9999999999987 	7.835322791931842e-12 	101324.9999999937
-0.2364864864864869 	300.000000000015 	5.355833688272424e-12 	101324.9999999939
-0.2339839839839843 	299.9999999999591 	8.683305905490607e-12 	101324.9999999937
-0.2314814814814819 	299.9999999999845 	4.941823473611277e-12 	101324.9999999937
-0.2289789789789792 	299.9999999999457 	7.569022793933319e-12 	101324.9999999937
-0.2264764764764769 	299.9999999999621 	5.017388236041767e-12 	101324.9999999937
-0.2239739739739743 	299.9999999999753 	5.760717195017854e-12 	101324.9999999936
-0.2214714714714718 	299.9999999999587 	5.206394190557707e-12 	101324.9999999938
-0.2189689689689693 	299.999999999978 	4.845170500606715e-12 	101324.9999999937
-0.2164664664664669 	299.9999999999866 	6.690927087585882e-12 	101324.9999999935
-0.2139639639639643 	299.9999999999562 	4.393429654395534e-12 	101324.9999999939
-0.2114614614614618 	299.9999999999799 	5.141005772377552e-12 	101324.9999999939
-0.2089589589589593 	299.9999999999956 	4.658494020626172e-12 	101324.9999999937
-0.2064564564564568 	299.999999999995 	4.27821475375426e-12 	101324.9999999937
-0.2039539539539543 	299.9999999999437 	4.929211586006186e-12 	101324.9999999939
-0.2014514514514518 	299.9999999999585 	2.178938593874108e-12 	101324.9999999936
-0.1989489489489494 	299.9999999999783 	4.661258154560938e-12 	101324.9999999936
-0.1964464464464468 	299.9999999999957 	1.4632407078463e-12 	101324.9999999935
-0.1939439439439443 	299.9999999999931 	4.500976450249304e-12 	101324.9999999937
-0.1914414414414418 	299.9999999999502 	2.624896606804791e-12 	101324.9999999937
-0.1889389389389393 	300.0000000000016 	4.010209557632151e-12 	101324.9999999941
-0.1864364364364368 	300.0000000000222 	3.802969649257699e-12 	101324.9999999941
-0.1839339339339343 	299.9999999999833 	4.264979182497548e-12 	101324.9999999939
-0.1814314314314318 	299.9999999999954 	4.487302795425346e-12 	101324.9999999938
-0.1789289289289293 	299.9999999999347 	4.855120101476713e-12 	101324.9999999939
-0.1764264264264268 	299.999999999986 	3.718612210899327e-12 	101324.999999994
-0.1739239239239243 	299.999999999935 	4.391879610771887e-12 	101324.999999994
-0.1714214214214218 	299.9999999999897 	2.360536108710999e-12 	101324.9999999938
-0.1689189189189193 	299.9999999999666 	4.383487426421555e-12 	101324.999999994
-0.1664164164164168 	300.0000000000013 	9.263860400379014e-13 	101324.9999999938
-0.1639139139139143 	299.9999999999896 	5.186414990881247e-12 	101324.9999999939
-0.1614114114114118 	300.0000000000133 	1.329272973679314e-12 	101324.9999999939
-0.1589089089089093 	299.9999999999972 	6.947978491028555e-12 	101324.999999994
-0.1564064064064068 	299.9999999999854 	2.385226858126105e-12 	101324.9999999942
-0.1539039039039043 	299.9999999999943 	7.252030483630926e-12 	101324.999999994
-0.1514014014014018 	300.0000000000147 	2.060742672804211e-12 	101324.9999999939
-0.1488988988988993 	299.9999999999933 	6.262432455878815e-12 	101324.9999999937
-0.1463963963963968 	300.0000000000016 	7.766202445729155e-13 	101324.9999999935
-0.1438938938938943 	299.9999999999736 	5.514262917752713e-12 	101324.9999999933
-0.1413913913913918 	299.9999999999522 	1.154748054012695e-12 	101324.9999999931
-0.1388888888888893 	299.9999999999841 	4.397272799978152e-12 	101324.9999999933
-0.1363863863863868 	299.9999999999299 	2.824777615769993e-12 	101324.9999999933
-0.1338838838838843 	299.999999999949 	4.247226388092773e-12 	101324.9999999932
-0.1313813813813818 	299.9999999999936 	3.051481371777223e-12 	101324.9999999933
-0.1288788788788793 	299.999999999974 	3.712715701747108e-12 	101324.9999999937
-0.1263763763763768 	299.9999999999797 	2.182569472589853e-12 	101324.999999994
-0.1238738738738743 	299.9999999999558 	3.698877738438429e-12 	101324.999999994
-0.1213713713713717 	299.9999999999894 	2.06816501592607e-12 	101324.999999994
-0.1188688688688693 	300.0000000000081 	4.706333177550917e-12 	101324.9999999941
-0.1163663663663668 	299.9999999999416 	9.3037813892506e-13 	101324.9999999939
-0.1138638638638643 	299.9999999999943 	4.072464972833294e-12 	101324.999999994
-0.1113613613613618 	299.9999999999909 	8.020096405772365e-13 	101324.9999999941
-0.1088588588588592 	299.9999999999858 	4.11369699482156e-12 	101324.999999994
-0.1063563563563568 	299.9999999999709 	9.591427402735364e-13 	101324.9999999939
-0.1038538538538543 	299.9999999999872 	3.106829087776601e-12 	101324.9999999939
-0.1013513513513517 	300.0000000000094 	7.260504846280789e-13 	101324.9999999941
-0.09884884884884926 	299.9999999999648 	3.132364180384948e-12 	101324.999999994
-0.09634634634634676 	299.9999999999358 	1.871490075277753e-12 	101324.999999994
-0.09384384384384425 	299.9999999999494 	2.253467228390004e-12 	101324.9999999943
-0.09134134134134177 	300.0000000000123 	1.45785331928754e-12 	101324.9999999941
-0.08883883883883925 	300.0000000000073 	2.655840382466712e-12 	101324.9999999941
-0.08633633633633674 	299.9999999999682 	2.704094868267331e-12 	101324.9999999943
-0.08383383383383426 	300.0000000000035 	2.828458979650626e-12 	101324.9999999947
-0.08133133133133173 	299.9999999999824 	3.212382378363416e-12 	101324.9999999946
-0.07882882882882926 	299.9999999999289 	2.393322381179513e-12 	101324.9999999947
-0.07632632632632676 	299.9999999999726 	1.820065335245046e-12 	101324.9999999947
-0.07382382382382424 	299.9999999999353 	1.21721067389181e-12 	101324.9999999947
-0.07132132132132173 	300.0000000000074 	5.689488443457478e-13 	101324.9999999947
-0.06881881881881925 	299.999999999976 	4.094115132641817e-13 	101324.9999999948
-0.06631631631631671 	299.9999999999337 	6.902623986022105e-14 	101324.9999999946
-0.06381381381381425 	299.9999999999728 	7.590683319263555e-14 	101324.9999999944
-0.06131131131131173 	299.9999999999737 	7.447705562440442e-14 	101324.9999999943
-0.05880880880880923 	299.9999999999484 	3.603800874798441e-15 	101324.9999999943
-0.05630630630630672 	299.9999999999798 	4.737574061269747e-14 	101324.9999999946
-0.05380380380380424 	300.0000000000099 	3.584234764614484e-13 	101324.9999999946
-0.05130130130130173 	300.0000000000068 	4.312639808600338e-13 	101324.9999999945
-0.04879879879879922 	299.9999999999662 	7.275292506829947e-13 	101324.9999999946
-0.04629629629629672 	299.999999999958 	9.594943379664764e-13 	101324.999999995
-0.04379379379379422 	299.9999999999454 	1.71604449797648e-12 	101324.9999999949
-0.04129129129129173 	299.9999999999875 	1.435800935080091e-12 	101324.9999999948
-0.03878878878878922 	299.9999999999893 	1.516440325784003e-12 	101324.9999999945
-0.03628628628628671 	299.9999999999881 	1.070326403127009e-12 	101324.9999999943
-0.03378378378378422 	299.9999999999542 	1.238440504760207e-12 	101324.9999999941
-0.03128128128128172 	299.9999999999801 	1.504136695007249e-13 	101324.9999999938
-0.02877877877877922 	299.9999999999784 	3.958158249596335e-13 	101324.9999999939
-0.0262762762762767 	299.9999999999367 	5.550280396388986e-13 	101324.9999999942
-0.02377377377377422 	300.0000000000124 	9.444980376111968e-13 	101324.9999999944
-0.0212712712712717 	299.9999999999381 	1.287318121684801e-12 	101324.9999999944
-0.01876876876876921 	299.9999999999816 	8.084536911861629e-13 	101324.9999999944
-0.01626626626626671 	300.0000000000075 	1.531499593085875e-12 	101324.9999999944
-0.0137637637637642 	299.9999999999768 	1.000637185982045e-12 	101324.9999999945
-0.0112612612612617 	300.00000000001 	1.169694397901896e-12 	101324.9999999945
-0.008758758758759198 	299.999999999998 	5.866350342176506e-13 	101324.9999999947
-0.006256256256256697 	299.9999999999301 	6.060502543387046e-13 	101324.9999999948
-0.003753753753754195 	299.9999999999698 	5.09058010462836e-15 	101324.9999999949
-0.001251251251251693 	299.9999999999521 	6.590047493933825e-14 	101324.9999999949
0.00125125125125081 	299.9999999999703 	5.286233107889957e-13 	101324.9999999946
0.003753753753753312 	299.9999999999777 	1.16773259776023e-13 	101324.9999999946
0.006256256256255817 	299.9999999999288 	6.721260529055609e-13 	101324.9999999944
0.008758758758758317 	299.9999999999911 	7.07759210798568e-13 	101324.9999999945
0.01126126126126082 	300.0000000000067 	7.463079911449365e-13 	101324.9999999946
0.01376376376376332 	299.9999999999789 	8.70192836367631e-13 	101324.9999999946
0.01626626626626582 	300.0000000000059 	1.194939258535852e-12 	101324.9999999947
0.01876876876876833 	299.9999999999728 	7.581663042129973e-13 	101324.9999999947
0.02127127127127083 	299.9999999999793 	7.839466434540247e-13 	101324.9999999945
0.02377377377377332 	299.9999999999976 	5.396675359712222e-13 	101324.9999999944
0.02627627627627583 	299.9999999999411 	5.083194042118299e-14 	101324.9999999941
0.02877877877877833 	300.0000000000038 	3.565480399355261e-13 	101324.9999999943
0.03128128128128083 	299.9999999999641 	1.850931745409962e-14 	101324.9999999943
0.03378378378378333 	299.9999999999376 	9.524561720255308e-13 	101324.9999999942
0.03628628628628584 	299.9999999999838 	1.472276267519843e-12 	101324.9999999945
0.03878878878878834 	299.9999999999899 	1.771918965123463e-12 	101324.9999999943
0.04129129129129084 	299.9999999999856 	1.976846013858546e-12 	101324.9999999943
0.04379379379379333 	299.9999999999605 	1.847780878836066e-12 	101324.9999999944
0.04629629629629585 	299.9999999999288 	1.58711001181376e-12 	101324.9999999944
0.04879879879879834 	299.9999999999692 	1.653723425073879e-12 	101324.9999999943
0.05130130130130085 	300.0000000000082 	1.588041362095721e-12 	101324.9999999947
0.05380380380380335 	300.0000000000114 	9.728643843228878e-13 	101324.9999999945
0.05630630630630584 	299.999999999993 	6.035201926235046e-13 	101324.9999999944
0.05880880880880836 	299.9999999999524 	7.763295667395591e-13 	101324.9999999946
0.06131131131131085 	299.9999999999849 	1.391541290707212e-12 	101324.9999999949
0.06381381381381336 	299.9999999999762 	1.847511313609681e-12 	101324.9999999947
0.06631631631631586 	299.9999999999305 	1.827471304850807e-12 	101324.9999999943
0.06881881881881835 	299.9999999999665 	1.69233454456434e-12 	101324.9999999944
0.07132132132132088 	299.9999999999922 	1.282565389952041e-12 	101324.9999999942
0.07382382382382337 	299.9999999999408 	1.509750853707245e-12 	101324.9999999939
0.07632632632632587 	299.9999999999804 	2.108407161386797e-12 	101324.9999999938
0.07882882882882837 	299.9999999999606 	2.045828470688847e-12 	101324.9999999939
0.08133133133133086 	299.9999999999921 	2.353132581106993e-12 	101324.9999999941
0.08383383383383337 	299.9999999999914 	2.277457109029618e-12 	101324.9999999939
0.08633633633633589 	299.9999999999409 	2.925930072571569e-12 	101324.999999994
0.08883883883883838 	300.0000000000055 	3.745928318126509e-12 	101324.999999994
0.09134134134134086 	299.9999999999915 	3.176665287936961e-12 	101324.999999994
0.09384384384384339 	299.9999999999357 	3.779024638787185e-12 	101324.999999994
0.09634634634634588 	299.9999999999783 	3.44310598385903e-12 	101324.9999999942
0.09884884884884838 	299.999999999982 	3.489333308877909e-12 	101324.9999999942
0.1013513513513509 	300.0000000000132 	3.442232978776925e-12 	101324.9999999942
0.1038538538538534 	299.9999999999683 	3.048030148102379e-12 	101324.9999999945
0.1063563563563559 	300.0000000000082 	2.714578067976768e-12 	101324.9999999943
0.1088588588588584 	300.0000000000156 	1.987649175864641e-12 	101324.9999999943
0.1113613613613609 	299.999999999953 	2.437416792344674e-12 	101324.9999999942
0.1138638638638634 	299.9999999999648 	2.456977584875618e-12 	101324.9999999944
0.1163663663663659 	299.9999999999633 	2.676139304932455e-12 	101324.999999994
0.1188688688688684 	299.9999999999787 	2.901507240906119e-12 	101324.999999994
0.1213713713713709 	299.9999999999968 	2.364305377934142e-12 	101324.9999999939
0.1238738738738734 	299.9999999999505 	2.339625816176664e-12 	101324.999999994
0.1263763763763759 	299.9999999999882 	2.795304578244636e-12 	101324.9999999938
0.1288788788788784 	299.9999999999885 	2.621641977882833e-12 	101324.9999999934
0.1313813813813809 	299.9999999999879 	2.708064698944842e-12 	101324.9999999936
0.1338838838838834 	299.999999999983 	2.00733066108659e-12 	101324.9999999935
0.1363863863863859 	300.0000000000156 	2.180967424271226e-12 	101324.9999999936
0.1388888888888884 	300.0000000000286 	2.17417515585137e-12 	101324.9999999937
0.1413913913913909 	299.9999999999998 	2.24234365754239e-12 	101324.9999999938
0.1438938938938934 	299.999999999994 	2.63474198448045e-12 	101324.9999999937
0.1463963963963959 	299.9999999999716 	2.281020809127031e-12 	101324.9999999935
0.1488988988988985 	299.9999999999442 	3.143652588266197e-12 	101324.9999999935
0.1514014014014009 	299.9999999999754 	2.530273260657027e-12 	101324.9999999936
0.1539039039039035 	299.9999999999727 	3.633089369743168e-12 	101324.9999999939
0.1564064064064059 	299.9999999999651 	1.295973461814593e-12 	101324.9999999941
0.1589089089089084 	299.9999999999869 	3.86540983571493e-12 	101324.999999994
0.1614114114114109 	299.9999999999841 	1.700799433806831e-12 	101324.9999999942
0.1639139139139134 	299.9999999999424 	3.782316320267272e-12 	101324.9999999943
0.166416416416416 	300.0000000000013 	3.507525062271445e-12 	101324.9999999942
0.1689189189189185 	300.0000000000157 	3.771969143417546e-12 	101324.9999999942
0.1714214214214209 	299.9999999999934 	4.507718532752749e-12 	101324.999999994
0.1739239239239235 	299.9999999999886 	3.489470510861844e-12 	101324.9999999939
0.1764264264264259 	299.9999999999771 	5.497775582823755e-12 	101324.9999999936
0.1789289289289284 	300.0000000000011 	3.25559588019637e-12 	101324.9999999936
0.181431431431431 	299.9999999999754 	5.862488200321536e-12 	101324.9999999936
0.1839339339339334 	299.9999999999788 	3.760280418913886e-12 	101324.9999999935
0.186436436436436 	299.9999999999539 	5.242311462566618e-12 	101324.9999999936
0.1889389389389385 	299.9999999999881 	4.811432488024145e-12 	101324.9999999935
0.191441441441441 	299.9999999999848 	4.530417224847145e-12 	101324.9999999935
0.1939439439439434 	299.9999999999491 	5.270995190608514e-12 	101324.9999999933
0.196446446446446 	299.9999999999671 	3.715976432483879e-12 	101324.9999999937
0.1989489489489485 	299.9999999999782 	6.032231550270409e-12 	101324.9999999939
0.2014514514514509 	299.9999999999876 	3.865750010176252e-12 	101324.9999999941
0.2039539539539535 	299.9999999999944 	5.3880015503287e-12 	101324.9999999942
0.2064564564564559 	299.999999999974 	4.211904477097354e-12 	101324.9999999942
0.2089589589589585 	299.9999999999897 	4.212061841412836e-12 	101324.9999999945
0.211461461461461 	299.9999999999562 	4.027598757433578e-12 	101324.9999999945
0.2139639639639635 	299.9999999999887 	3.644994658824373e-12 	101324.9999999943
0.2164664664664659 	299.9999999999988 	4.830661843562457e-12 	101324.9999999942
0.2189689689689684 	299.9999999999973 	3.333357074713209e-12 	101324.9999999942
0.221471471471471 	299.9999999999938 	6.19639937704211e-12 	101324.999999994
0.2239739739739735 	299.9999999999712 	4.360103323990785e-12 	101324.999999994
0.226476476476476 	299.999999999989 	5.868258967720441e-12 	101324.9999999941
0.2289789789789785 	299.9999999999957 	4.642639145357134e-12 	101324.9999999939
0.231481481481481 	299.9999999999914 	4.358566540018922e-12 	101324.9999999939
0.2339839839839835 	299.9999999999908 	4.481554435271971e-12 	101324.999999994
0.236486486486486 	300.0000000000118 	3.327197863480775e-12 	101324.9999999942
0.2389889889889885 	299.9999999999982 	4.317777729242797e-12 	101324.999999994
0.241491491491491 	299.9999999999519 	2.087047213820367e-12 	101324.9999999942
0.2439939939939935 	299.9999999999836 	4.704381986581349e-12 	101324.9999999941
0.246496496496496 	299.9999999999911 	2.536486783406155e-12 	101324.9999999943
0.2489989989989985 	300.000000000021 	4.168776710507961e-12 	101324.9999999943
0.251501501501501 	300.0000000000169 	3.108779457743431e-12 	101324.9999999943
0.2540040040040035 	299.9999999999924 	3.386892138200153e-12 	101324.9999999941
0.256506506506506 	300.0000000000136 	4.267188825485291e-12 	101324.9999999939
0.2590090090090086 	299.999999999943 	3.039698975753915e-12 	101324.9999999938
0.261511511511511 	300.0000000000011 	5.500839431281283e-12 	101324.9999999935
0.2640140140140135 	299.9999999999952 	2.819681158161564e-12 	101324.9999999935
0.2665165165165161 	299.9999999999576 	4.522684294054803e-12 	101324.9999999935
0.2690190190190185 	300.0000000000049 	3.43228161636378e-12 	101324.9999999937
0.271521521521521 	300.0000000000013 	3.547086649963624e-12 	101324.999999994
0.2740240240240235 	300.0000000000086 	3.283100389345271e-12 	101324.9999999939
0.276526526526526 	300.0000000000032 	2.223741550751963e-12 	101324.9999999938
0.2790290290290286 	299.9999999999622 	3.421157230383171e-12 	101324.9999999938
0.281531531531531 	299.9999999999542 	1.933548682028924e-12 	101324.9999999941
0.2840340340340335 	299.9999999999869 	4.086372488314117e-12 	101324.9999999939
0.2865365365365361 	299.9999999999729 	2.462197962838934e-12 	101324.999999994
0.2890390390390385 	299.9999999999976 	3.122980990040635e-12 	101324.999999994
0.291541541541541 	299.9999999999971 	2.17777276920299e-12 	101324.9999999941
0.2940440440440436 	299.9999999999931 	1.687298034012808e-12 	101324.999999994
0.296546546546546 	299.9999999999922 	2.817278079517223e-12 	101324.9999999937
0.2990490490490486 	299.9999999999567 	2.170282840649853e-12 	101324.9999999938
0.3015515515515511 	300.0000000000203 	5.017449053895089e-12 	101324.9999999938
0.3040540540540535 	299.9999999999929 	1.531884133130227e-12 	101324.9999999938
0.3065565565565562 	299.9999999999966 	5.796337901193082e-12 	101324.999999994
0.3090590590590585 	299.9999999999922 	1.196132426771991e-12 	101324.999999994
0.3115615615615611 	299.9999999999599 	4.347678925226883e-12 	101324.9999999942
0.3140640640640635 	300.0000000000003 	1.700922134981719e-12 	101324.9999999944
0.316566566566566 	299.9999999999926 	3.254012744671868e-12 	101324.9999999942
0.3190690690690687 	299.9999999999696 	1.500425633171563e-12 	101324.999999994
0.3215715715715711 	300.0000000000062 	2.70786494734709e-12 	101324.999999994
0.3240740740740735 	299.9999999999949 	1.680243579355269e-12 	101324.9999999937
0.326576576576576 	299.999999999936 	2.67344717863454e-12 	101324.9999999935
0.3290790790790786 	300.0000000000012 	1.7330865963508e-12 	101324.9999999934
0.3315815815815811 	300.0000000000192 	1.799307706496078e-12 	101324.9999999934
0.3340840840840836 	299.9999999999922 	9.342848722785325e-13 	101324.9999999935
0.3365865865865861 	300.0000000000338 	1.251888144962569e-12 	101324.9999999934
0.3390890890890886 	300.0000000000297 	2.644182478700233e-13 	101324.9999999932
0.3415915915915911 	300.0000000000005 	1.2552874559582e-12 	101324.9999999933
0.3440940940940935 	299.9999999999674 	7.731056894271502e-13 	101324.9999999931
0.3465965965965962 	300.0000000000203 	1.432557382710929e-12 	101324.9999999931
0.3490990990990985 	300.0000000000157 	3.733416571662169e-13 	101324.9999999933
0.3516016016016011 	299.9999999999897 	6.881493895302441e-13 	101324.9999999935
0.3541041041041035 	300.0000000000043 	4.670821635479135e-13 	101324.9999999937
0.3566066066066061 	299.9999999999724 	3.590400423781359e-13 	101324.9999999937
0.3591091091091085 	299.9999999999513 	1.097919392010265e-12 	101324.9999999936
0.3616116116116112 	299.9999999999593 	1.059365538706225e-12 	101324.9999999938
0.3641141141141137 	299.999999999954 	2.19457034553092e-12 	101324.9999999937
0.3666166166166161 	299.9999999999515 	9.947243034552266e-13 	101324.9999999938
0.3691191191191185 	300.0000000000215 	3.238093521946579e-12 	101324.999999994
0.371621621621621 	300.0000000000117 	6.224715337085488e-13 	101324.999999994
0.3741241241241237 	300.0000000000324 	2.352541718778109e-12 	101324.9999999939
0.3766266266266261 	300.0000000000143 	3.194033019729002e-13 	101324.9999999937
0.3791291291291286 	299.9999999999889 	1.52267551769112e-12 	101324.9999999939
0.3816316316316311 	299.9999999999495 	6.765699723333652e-13 	101324.9999999937
0.3841341341341336 	300.0000000000041 	9.965889400004457e-13 	101324.9999999938
0.3866366366366362 	299.9999999999968 	4.957493681072116e-13 	101324.9999999938
0.3891391391391387 	299.9999999999725 	9.999350037516205e-13 	101324.9999999941
0.391641641641641 	299.9999999999975 	5.893261551600588e-13 	101324.9999999943
0.3941441441441436 	300.0000000000047 	9.39056108126396e-13 	101324.9999999942
0.3966466466466462 	299.9999999999996 	3.520838081841718e-13 	101324.9999999942
0.3991491491491486 	299.9999999999713 	1.197782846134087e-12 	101324.9999999942
0.4016516516516512 	299.9999999999525 	5.543243964300326e-13 	101324.9999999942
0.4041541541541536 	299.9999999999721 	1.697568058581839e-12 	101324.999999994
0.4066566566566561 	299.9999999999714 	7.39292032162026e-13 	101324.9999999943
0.4091591591591587 	299.9999999999966 	1.614712002032363e-12 	101324.9999999945
0.4116616616616612 	300.0000000000052 	6.424677843380813e-13 	101324.9999999947
0.4141641641641635 	300.0000000000235 	5.123671094806579e-13 	101324.9999999945
0.4166666666666662 	299.9999999999984 	6.8254612934333e-13 	101324.9999999945
0.4191691691691687 	299.9999999999632 	1.391749664526795e-12 	101324.9999999945
0.421671671671671 	300.0000000000049 	1.175985093345789e-12 	101324.9999999944
0.4241741741741737 	299.9999999999838 	2.835103635301247e-12 	101324.9999999944
0.4266766766766761 	299.9999999999668 	1.297285440275832e-12 	101324.9999999943
0.4291791791791785 	300.0000000000139 	3.662301424508835e-12 	101324.9999999945
0.4316816816816812 	300.0000000000048 	2.291436340018757e-12 	101324.9999999942
0.4341841841841836 	299.999999999987 	2.930750928066738e-12 	101324.9999999941
0.4366866866866862 	299.9999999999497 	8.078391949665344e-13 	101324.999999994
0.4391891891891885 	299.9999999999972 	1.876734856800316e-12 	101324.999999994
0.4416916916916913 	299.9999999999914 	7.950746852975483e-13 	101324.999999994
0.4441941941941936 	299.9999999999933 	1.969428679657185e-12 	101324.999999994
0.4466966966966961 	299.9999999999535 	1.492708510312684e-12 	101324.9999999941
0.4491991991991987 	299.9999999999894 	1.435950659315411e-12 	101324.9999999943
0.4517017017017012 	299.999999999989 	1.744193180077574e-12 	101324.9999999944
0.4542042042042035 	299.9999999999909 	9.590383496898892e-13 	101324.9999999947
0.4567067067067062 	299.9999999999965 	1.422013169833219e-12 	101324.9999999946
0.4592092092092087 	299.9999999999553 	9.254729450414086e-13 	101324.9999999944
0.4617117117117112 	300.0000000000101 	1.667131328367237e-12 	101324.9999999945
0.4642142142142137 	299.9999999999791 	1.97522001939533e-12 	101324.9999999945
0.4667167167167162 	299.9999999999947 	2.046405734516169e-12 	101324.9999999946
0.4692192192192187 	299.9999999999742 	2.189942376714889e-12 	101324.9999999948
0.4717217217217212 	300.0000000000076 	2.179907517086701e-12 	101324.9999999948
0.4742242242242236 	299.9999999999731 	2.518659407611748e-12 	101324.9999999947
0.4767267267267262 	299.9999999999851 	2.323978481113461e-12 	101324.9999999944
0.4792292292292287 	300.0000000000126 	2.667998594936641e-12 	101324.9999999945
0.4817317317317312 	300.0000000000219 	2.501965833977739e-12 	101324.9999999945
0.4842342342342336 	299.9999999999914 	2.768534990536082e-12 	101324.9999999945
0.4867367367367362 	299.9999999999725 	3.286936533022077e-12 	101324.9999999944
0.4892392392392387 	300.0000000000169 	2.921817668209161e-12 	101324.9999999941
0.4917417417417412 	300.0000000000013 	4.193889038812944e-12 	101324.9999999939
0.4942442442442437 	299.9999999999446 	3.406894097456476e-12 	101324.9999999938
0.4967467467467462 	299.9999999999573 	4.69225161070529e-12 	101324.9999999938
0.4992492492492487 	299.9999999999532 	2.672416452838835e-12 	101324.9999999941
0.5017517517517511 	299.9999999999743 	4.145844907331137e-12 	101324.9999999942
0.5042542542542537 	299.999999999977 	2.771641894305524e-12 	101324.9999999941
0.5067567567567562 	299.999999999968 	2.923954541038521e-12 	101324.9999999942
0.5092592592592589 	299.9999999999828 	3.050195176928607e-12 	101324.9999999943
0.5117617617617611 	299.9999999999768 	2.547942322061008e-12 	101324.9999999943
0.5142642642642637 	299.9999999999908 	3.783300050729143e-12 	101324.9999999943
0.5167667667667663 	299.9999999999831 	2.295291570670742e-12 	101324.9999999946
0.5192692692692688 	299.9999999999548 	4.678034482489888e-12 	101324.9999999947
0.5217717717717714 	299.9999999999628 	1.408238428809517e-12 	101324.9999999947
0.5242742742742736 	299.9999999999632 	3.506795821197032e-12 	101324.9999999945
0.5267767767767763 	299.9999999999726 	9.302588045592091e-13 	101324.9999999946
0.5292792792792789 	299.9999999999614 	2.388698707077908e-12 	101324.9999999945
0.5317817817817813 	299.9999999999461 	6.11104707009561e-13 	101324.9999999941
0.5342842842842837 	300.0000000000119 	1.609615624246957e-12 	101324.9999999939
0.5367867867867864 	300.0000000000025 	1.376531202215436e-12 	101324.9999999939
0.5392892892892888 	299.999999999974 	1.628598052865094e-12 	101324.9999999939
0.5417917917917912 	300.0000000000023 	1.490430716808922e-12 	101324.999999994
0.5442942942942938 	299.9999999999867 	1.910946882233537e-12 	101324.9999999942
0.5467967967967964 	299.9999999999708 	1.339326512195746e-12 	101324.9999999944
0.5492992992992988 	299.9999999999616 	1.684932345894209e-12 	101324.9999999948
0.5518018018018012 	299.999999999961 	1.38996657245351e-12 	101324.9999999949
0.5543043043043039 	300.0000000000128 	1.892836929338137e-12 	101324.9999999947
0.5568068068068063 	299.999999999994 	1.556201153782471e-12 	101324.9999999946
0.5593093093093087 	299.9999999999439 	2.027817397120253e-12 	101324.9999999945
0.5618118118118114 	299.9999999999782 	6.11890971753861e-13 	101324.9999999944
0.5643143143143137 	299.9999999999658 	1.643398672759969e-12 	101324.9999999945
0.5668168168168163 	299.9999999999931 	1.119854442891289e-12 	101324.9999999945
0.5693193193193188 	300.0000000000188 	1.785827529061936e-12 	101324.9999999944
0.5718218218218213 	300.0000000000155 	2.091562488482923e-12 	101324.9999999944
0.5743243243243239 	300.0000000000053 	2.03227134923452e-12 	101324.9999999944
0.5768268268268262 	300.0000000000015 	3.290636310445218e-12 	101324.9999999944
0.5793293293293288 	299.9999999999694 	1.770843961708671e-12 	101324.9999999944
0.5818318318318314 	299.9999999999539 	4.092322480519529e-12 	101324.9999999946
0.5843343343343338 	299.9999999999903 	1.44429865793263e-12 	101324.9999999946
0.5868368368368363 	299.9999999999866 	3.485517293946594e-12 	101324.9999999945
0.5893393393393387 	299.9999999999649 	1.14325571449151e-12 	101324.9999999945
0.5918418418418413 	299.999999999964 	2.664730100044567e-12 	101324.9999999945
0.5943443443443439 	300.000000000008 	1.453864881141588e-12 	101324.9999999945
0.5968468468468463 	300.0000000000095 	2.256515942804836e-12 	101324.9999999943
0.5993493493493487 	300.0000000000243 	1.644834815797257e-12 	101324.9999999942
0.6018518518518514 	299.9999999999895 	2.419664904776593e-12 	101324.9999999943
0.6043543543543537 	299.9999999999953 	2.2395271613583e-12 	101324.9999999945
0.6068568568568564 	299.9999999999877 	2.755561982028492e-12 	101324.9999999948
0.6093593593593587 	299.9999999999575 	2.573258843502916e-12 	101324.999999995
0.6118618618618614 	299.9999999999559 	2.441765503765194e-12 	101324.9999999952
0.6143643643643638 	300.000000000009 	1.853782762256852e-12 	101324.9999999951
0.6168668668668662 	299.9999999999907 	2.619392203120878e-12 	101324.9999999952
0.6193693693693688 	299.9999999999736 	1.644055140345251e-12 	101324.9999999953
0.6218718718718714 	299.999999999978 	2.857113739390412e-12 	101324.9999999954
0.6243743743743737 	299.9999999999625 	1.317773658921863e-12 	101324.9999999954
0.6268768768768762 	299.9999999999558 	2.492592218061769e-12 	101324.9999999955
0.629379379379379 	299.9999999999665 	1.513258582089604e-12 	101324.9999999953
0.6318818818818812 	299.9999999999809 	2.282063885403186e-12 	101324.9999999951
0.6343843843843838 	300.000000000009 	2.684374960328343e-12 	101324.999999995
0.6368868868868864 	299.9999999999889 	3.089308138273123e-12 	101324.9999999948
0.6393893893893888 	299.9999999999545 	4.164872102242174e-12 	101324.9999999946
0.6418918918918912 	300.0000000000044 	2.227190943710063e-12 	101324.9999999945
0.6443943943943939 	299.9999999999945 	4.391910394220064e-12 	101324.9999999946
0.6468968968968963 	299.9999999999895 	1.831729248532983e-12 	101324.9999999948
0.6493993993993988 	299.9999999999836 	3.238130939591573e-12 	101324.9999999948
0.6519019019019012 	299.9999999999823 	1.289047868639971e-12 	101324.999999995
0.6544044044044038 	299.9999999999422 	3.135543773721287e-12 	101324.999999995
0.6569069069069065 	299.9999999999746 	1.312822116511511e-12 	101324.9999999947
0.6594094094094087 	299.999999999974 	2.907273726351569e-12 	101324.9999999946
0.6619119119119113 	299.9999999999685 	1.639677901251343e-12 	101324.9999999946
0.664414414414414 	299.9999999999956 	2.872617253758351e-12 	101324.9999999944
0.6669169169169162 	300.0000000000092 	2.089692406578493e-12 	101324.9999999943
0.6694194194194188 	299.9999999999906 	2.877304794593243e-12 	101324.9999999943
0.6719219219219214 	299.9999999999559 	2.336646705018581e-12 	101324.9999999942
0.674424424424424 	299.999999999984 	2.821820503109615e-12 	101324.9999999943
0.6769269269269262 	299.9999999999501 	2.295988000457372e-12 	101324.9999999946
0.679429429429429 	300.0000000000029 	2.354473252508144e-12 	101324.9999999946
0.6819319319319311 	299.9999999999854 	1.510528104789271e-12 	101324.9999999944
0.6844344344344341 	299.9999999999965 	2.054617038326638e-12 	101324.9999999942
0.686936936936936 	299.9999999999935 	9.238264149428555e-13 	101324.9999999941
0.6894394394394392 	299.9999999999905 	1.404496540256947e-12 	101324.9999999941
0.6919419419419413 	299.9999999999935 	1.04775295816427e-12 	101324.9999999942
0.694444444444444 	299.9999999999727 	1.037162632568812e-12 	101324.9999999943
0.6969469469469463 	299.9999999999595 	7.885249660757658e-13 	101324.9999999942
0.6994494494494489 	299.9999999999485 	6.349057118959167e-13 	101324.9999999943
0.7019519519519515 	299.9999999999906 	1.644931558879389e-12 	101324.9999999941
0.7044544544544538 	299.9999999999698 	1.093060513118765e-12 	101324.9999999942
0.7069569569569564 	299.9999999999944 	1.975573354765503e-12 	101324.9999999943
0.7094594594594589 	299.9999999999775 	1.25591069643116e-12 	101324.9999999942
0.7119619619619615 	299.9999999999465 	1.54170774391344e-12 	101324.9999999943
0.7144644644644638 	299.9999999999685 	7.533706875728394e-13 	101324.9999999944
0.7169669669669665 	299.9999999999501 	1.871368933017449e-12 	101324.9999999945
0.7194694694694688 	299.9999999999941 	1.400269583128623e-12 	101324.9999999945
0.7219719719719715 	299.9999999999923 	2.01825921187379e-12 	101324.9999999945
0.7244744744744737 	299.9999999999986 	1.848241569011993e-12 	101324.9999999944
0.7269769769769764 	299.9999999999936 	1.41478906095275e-12 	101324.9999999945
0.7294794794794791 	299.9999999999906 	2.30843090891605e-12 	101324.9999999945
0.7319819819819813 	299.9999999999855 	1.284819836872564e-12 	101324.9999999943
0.7344844844844839 	299.9999999999529 	2.503410859945377e-12 	101324.9999999944
0.7369869869869864 	299.9999999999718 	1.008125625806011e-12 	101324.9999999944
0.739489489489489 	299.9999999999652 	1.161425001728453e-12 	101324.9999999946
0.7419919919919914 	299.9999999999594 	1.464191105381344e-12 	101324.9999999948
0.7444944944944939 	299.9999999999847 	1.232376130429234e-12 	101324.9999999951
0.7469969969969963 	299.9999999999824 	2.306090854528667e-12 	101324.9999999951
0.7494994994994989 	299.9999999999662 	2.129479071220018e-12 	101324.9999999949
0.7520020020020015 	299.9999999999816 	2.392922010293391e-12 	101324.9999999946
0.7545045045045039 	299.9999999999807 	1.766624785550658e-12 	101324.9999999944
0.7570070070070062 	299.9999999999644 	1.272776350221188e-12 	101324.9999999943
0.7595095095095092 	299.9999999999566 	8.747071386130648e-13 	101324.9999999942
0.7620120120120112 	299.9999999999999 	3.281189142755772e-13 	101324.9999999942
0.7645145145145138 	299.9999999999915 	7.114120986292211e-13 	101324.9999999943
0.7670170170170165 	299.9999999999599 	1.116025552164612e-12 	101324.9999999943
0.7695195195195191 	299.9999999999533 	1.390193813205079e-12 	101324.9999999945
0.7720220220220213 	299.999999999962 	1.8575288101462e-12 	101324.9999999947
0.7745245245245239 	299.9999999999651 	8.96355195877026e-13 	101324.9999999948
0.7770270270270263 	299.9999999999819 	1.772185192277065e-12 	101324.9999999947
0.779529529529529 	299.9999999999861 	5.055953998352632e-13 	101324.9999999946
0.7820320320320313 	299.9999999999811 	6.246775707395262e-13 	101324.9999999945
0.784534534534534 	299.9999999999963 	7.133120552169421e-13 	101324.9999999944
0.7870370370370364 	299.9999999999926 	1.379831013638419e-12 	101324.9999999941
0.7895395395395389 	299.999999999984 	1.596577906498274e-12 	101324.9999999937
0.7920420420420413 	299.9999999999825 	1.599569109975235e-12 	101324.9999999935
0.794544544544544 	299.9999999999875 	2.42026702481671e-12 	101324.9999999935
0.7970470470470463 	300.0000000000034 	2.142118883819312e-12 	101324.9999999934
0.799549549549549 	299.9999999999902 	2.541379505064097e-12 	101324.9999999933
0.8020520520520515 	299.9999999999941 	1.201977776633271e-12 	101324.9999999933
0.8045545545545539 	299.9999999999681 	1.927373188582863e-12 	101324.9999999933
0.8070570570570563 	299.9999999999902 	1.518585400511106e-12 	101324.9999999936
0.8095595595595589 	299.9999999999735 	2.517255034303645e-12 	101324.9999999939
0.8120620620620614 	299.9999999999566 	2.697732771578783e-12 	101324.999999994
0.8145645645645638 	299.999999999994 	2.246265465387501e-12 	101324.9999999942
0.8170670670670666 	299.999999999993 	2.510162837178984e-12 	101324.9999999943
0.8195695695695689 	299.9999999999827 	1.50862638935444e-12 	101324.9999999946
0.8220720720720714 	299.9999999999636 	2.998922922342782e-12 	101324.9999999945
0.8245745745745739 	300.0000000000007 	1.723325297391035e-12 	101324.9999999944
0.8270770770770765 	299.9999999999849 	2.808232073629572e-12 	101324.9999999944
0.8295795795795788 	299.9999999999703 	2.181493369667672e-12 	101324.9999999943
0.8320820820820815 	300.0000000000135 	2.572547726415789e-12 	101324.9999999943
0.834584584584584 	300.0000000000039 	2.105202314569619e-12 	101324.9999999943
0.8370870870870865 	299.9999999999785 	2.198037065035699e-12 	101324.9999999946
0.8395895895895891 	299.9999999999511 	2.780800006828542e-12 	101324.9999999947
0.8420920920920915 	299.9999999999608 	1.821523941657168e-12 	101324.9999999946
0.844594594594594 	299.999999999958 	1.51380586795553e-12 	101324.9999999946
0.8470970970970964 	299.9999999999649 	1.29783377899634e-12 	101324.9999999947
0.8495995995995991 	299.9999999999892 	9.809702920051176e-13 	101324.9999999947
0.8521021021021015 	299.9999999999868 	1.325532454552425e-12 	101324.9999999947
0.8546046046046039 	299.9999999999857 	1.538685162211347e-12 	101324.9999999946
0.8571071071071066 	299.9999999999949 	2.270717093043434e-12 	101324.9999999945
0.8596096096096089 	299.9999999999719 	1.959594047864861e-12 	101324.9999999946
0.8621121121121116 	299.9999999999546 	3.17830099241375e-12 	101324.9999999945
0.8646146146146139 	299.9999999999947 	1.604208180168342e-12 	101324.9999999945
0.8671171171171166 	299.9999999999844 	2.3632610372693e-12 	101324.9999999945
0.8696196196196189 	299.9999999999702 	1.782777991102558e-12 	101324.9999999946
0.8721221221221216 	299.9999999999797 	2.552068114275763e-12 	101324.9999999945
0.874624624624624 	299.9999999999981 	2.681982308467893e-12 	101324.9999999944
0.8771271271271264 	300.0000000000003 	2.503505912852783e-12 	101324.9999999943
0.879629629629629 	300.0000000000031 	3.195298224517148e-12 	101324.9999999942
0.8821321321321317 	299.9999999999898 	2.252405022521451e-12 	101324.9999999943
0.8846346346346339 	299.9999999999509 	3.927819751445417e-12 	101324.9999999943
0.8871371371371364 	299.9999999999701 	2.413570656965703e-12 	101324.9999999944
0.8896396396396391 	299.9999999999732 	3.426347624109849e-12 	101324.9999999945
0.8921421421421414 	299.9999999999751 	2.710536820892052e-12 	101324.9999999945
0.8946446446446441 	299.9999999999902 	3.100475738267124e-12 	101324.9999999945
0.8971471471471464 	300.0000000000039 	2.850457190218012e-12 	101324.9999999945
0.8996496496496489 	299.9999999999824 	2.499137384855892e-12 	101324.9999999946
0.9021521521521517 	299.9999999999741 	2.84709982300638e-12 	101324.9999999946
0.9046546546546541 	299.9999999999944 	1.825839733679389e-12 	101324.9999999945
0.9071571571571564 	299.9999999999721 	2.157252816912476e-12 	101324.9999999947
0.9096596596596589 	299.9999999999692 	2.311743093949907e-12 	101324.9999999949
0.9121621621621616 	300.0000000000013 	2.728217363785884e-12 	101324.9999999951
0.9146646646646639 	299.9999999999877 	2.812277005342449e-12 	101324.9999999953
0.9171671671671666 	299.9999999999696 	3.409903394970084e-12 	101324.9999999952
0.9196696696696689 	300.0000000000026 	4.572733459781517e-12 	101324.9999999954
0.9221721721721714 	300.0000000000026 	4.399578345762423e-12 	101324.9999999954
0.9246746746746741 	299.9999999999667 	6.181638499506063e-12 	101324.9999999953
0.9271771771771765 	299.9999999999661 	4.825141109851063e-12 	101324.9999999951
0.9296796796796791 	299.9999999999946 	5.480083813316574e-12 	101324.999999995
0.9321821821821816 	299.9999999999844 	4.28057684789836e-12 	101324.9999999949
0.9346846846846838 	299.9999999999678 	4.728821876373818e-12 	101324.9999999949
0.9371871871871866 	300.000000000003 	4.160089652874141e-12 	101324.9999999948
0.9396896896896891 	300.0000000000045 	4.23663507402795e-12 	101324.9999999946
0.9421921921921914 	300.0000000000027 	4.434404278726245e-12 	101324.9999999944
0.9446946946946939 	299.9999999999779 	3.643384917436407e-12 	101324.9999999944
0.9471971971971965 	299.9999999999519 	4.887817387606483e-12 	101324.9999999948
0.9496996996996991 	299.9999999999707 	3.574299725184364e-12 	101324.999999995
0.9522022022022016 	299.9999999999794 	4.474595772005478e-12 	101324.9999999952
0.9547047047047038 	299.9999999999824 	3.928264331641234e-12 	101324.9999999953
0.9572072072072064 	299.9999999999755 	4.575445439328673e-12 	101324.9999999952
0.9597097097097093 	299.9999999999815 	4.310234510982321e-12 	101324.9999999951
0.9622122122122114 	299.9999999999797 	4.139007588158539e-12 	101324.9999999951
0.964714714714714 	299.9999999999778 	4.966918895738786e-12 	101324.9999999951
0.9672172172172167 	299.9999999999778 	4.229708041074049e-12 	101324.999999995
0.969719719719719 	299.9999999999932 	4.492452497025447e-12 	101324.999999995
0.9722222222222214 	299.999999999989 	4.342124975576645e-12 	101324.999999995
0.9747247247247239 	299.9999999999816 	4.81996759795763e-12 	101324.9999999952
0.9772272272272267 	299.9999999999978 	4.397190613573187e-12 	101324.9999999953
0.9797297297297292 	299.9999999999924 	3.916592704735304e-12 	101324.9999999954
0.9822322322322313 	299.999999999995 	4.640531169349273e-12 	101324.9999999955
0.9847347347347344 	299.9999999999927 	4.173333366762815e-12 	101324.9999999956
0.9872372372372363 	299.9999999999724 	5.983323894603954e-12 	101324.9999999958
0.9897397397397389 	299.9999999999865 	4.793931363298505e-12 	101324.9999999957
0.9922422422422417 	299.9999999999732 	6.029709219859081e-12 	101324.9999999956
0.9947447447447441 	299.9999999999712 	4.991309008752917e-12 	101324.9999999957
0.9972472472472468 	299.9999999999764 	5.264470052579877e-12 	101324.9999999957
0.999749749749749 	299.999999999979 	4.510432977104278e-12 	101324.9999999957
1.002252252252252 	299.999999999992 	4.386888721261178e-12 	101324.9999999958
1.004754754754754 	299.999999999991 	3.937155225869907e-12 	101324.9999999957
1.007257257257256 	299.999999999981 	3.21894564221543e-12 	101324.9999999957
1.009759759759759 	299.999999999975 	4.630262751440019e-12 	101324.9999999956
1.012262262262261 	299.9999999999731 	3.276300335284628e-12 	101324.9999999955
1.014764764764764 	299.9999999999549 	4.234534982291643e-12 	101324.9999999957
1.017267267267267 	299.9999999999513 	4.060068697242724e-12 	101324.9999999957
1.019769769769769 	299.9999999999811 	5.207948797931506e-12 	101324.9999999958
1.022272272272272 	299.9999999999866 	4.910773848222771e-12 	101324.9999999958
1.024774774774774 	299.9999999999864 	4.661342131632287e-12 	101324.9999999959
1.027277277277277 	299.9999999999847 	4.696021015996437e-12 	101324.9999999958
1.029779779779779 	300.0000000000003 	3.671749539186037e-12 	101324.9999999957
1.032282282282282 	300.0000000000002 	4.031973158784646e-12 	101324.9999999956
1.034784784784784 	299.9999999999957 	3.820185696212616e-12 	101324.9999999956
1.037287287287286 	299.9999999999804 	4.260397707406449e-12 	101324.9999999957
1.039789789789789 	299.9999999999828 	4.273873206819479e-12 	101324.9999999958
1.042292292292291 	299.9999999999998 	4.189952531643897e-12 	101324.9999999959
1.044794794794794 	300.0000000000093 	3.93797536489936e-12 	101324.9999999958
1.047297297297296 	300.0000000000219 	3.016448946858844e-12 	101324.9999999956
1.049799799799799 	299.9999999999898 	3.934719279546928e-12 	101324.9999999955
1.052302302302302 	299.9999999999679 	2.696948379831903e-12 	101324.9999999957
1.054804804804804 	299.9999999999599 	4.059942024682536e-12 	101324.9999999956
1.057307307307306 	299.9999999999537 	3.340031025889216e-12 	101324.9999999956
1.059809809809809 	299.9999999999759 	3.586543944348795e-12 	101324.9999999956
1.062312312312312 	299.999999999971 	2.621722075366223e-12 	101324.9999999954
1.064814814814814 	299.9999999999658 	2.919404265193996e-12 	101324.9999999953
1.067317317317317 	299.9999999999507 	3.124569149771593e-12 	101324.9999999952
1.069819819819819 	299.9999999999538 	3.025051496697988e-12 	101324.9999999954
1.072322322322321 	299.9999999999934 	3.912279341899208e-12 	101324.9999999955
1.074824824824824 	300.0000000000035 	2.818205753732255e-12 	101324.9999999955
1.077327327327327 	300.0000000000153 	3.996984725263419e-12 	101324.9999999956
1.079829829829829 	300.0000000000207 	3.086588767780917e-12 	101324.9999999956
1.082332332332332 	299.9999999999986 	3.223553089938083e-12 	101324.9999999957
1.084834834834834 	299.9999999999878 	3.216033799510249e-12 	101324.9999999957
1.087337337337337 	299.9999999999701 	3.099674019989274e-12 	101324.9999999958
1.089839839839839 	299.9999999999625 	3.564837138374721e-12 	101324.9999999958
1.092342342342342 	299.99999999998 	3.33305992188364e-12 	101324.9999999958
1.094844844844844 	299.9999999999797 	4.095589561830886e-12 	101324.999999996
1.097347347347347 	299.9999999999645 	3.334569967622494e-12 	101324.999999996
1.099849849849849 	299.9999999999609 	4.994484508897888e-12 	101324.9999999959
1.102352352352352 	299.9999999999756 	3.674825970412807e-12 	101324.9999999957
1.104854854854854 	299.9999999999828 	5.051982449328507e-12 	101324.9999999956
1.107357357357357 	299.999999999972 	4.074153034097322e-12 	101324.9999999956
1.109859859859859 	299.9999999999694 	5.219300024949852e-12 	101324.9999999958
1.112362362362362 	300.0000000000093 	4.698135531856151e-12 	101324.9999999959
1.114864864864865 	300.0000000000087 	4.765977295565806e-12 	101324.9999999959
1.117367367367367 	299.9999999999791 	5.248079277878311e-12 	101324.9999999958
1.119869869869869 	299.9999999999552 	4.251787133718309e-12 	101324.9999999957
1.122372372372372 	299.9999999999716 	5.004707441484758e-12 	101324.9999999957
1.124874874874874 	299.9999999999704 	4.394080879883936e-12 	101324.9999999957
1.127377377377377 	299.9999999999776 	5.26587996682623e-12 	101324.9999999955
1.129879879879879 	300.0000000000094 	4.738218915660513e-12 	101324.9999999956
1.132382382382382 	300.0000000000183 	4.519452288133642e-12 	101324.9999999958
1.134884884884884 	300.0000000000003 	3.679397063785348e-12 	101324.9999999959
1.137387387387387 	300.0000000000038 	3.255998455079845e-12 	101324.999999996
1.139889889889889 	299.9999999999783 	4.031591697386179e-12 	101324.9999999961
1.142392392392392 	299.999999999975 	3.82941179750672e-12 	101324.9999999961
1.144894894894894 	300.0000000000066 	4.897875957835978e-12 	101324.9999999962
1.147397397397397 	299.9999999999957 	4.295335892684885e-12 	101324.9999999962
1.149899899899899 	299.9999999999618 	5.231836871561393e-12 	101324.999999996
1.152402402402402 	299.9999999999544 	5.08725333209562e-12 	101324.9999999959
1.154904904904904 	299.9999999999776 	5.51660818005881e-12 	101324.999999996
1.157407407407407 	299.9999999999778 	4.983992495469208e-12 	101324.999999996
1.159909909909909 	299.9999999999647 	5.123211885114281e-12 	101324.9999999962
1.162412412412412 	299.9999999999653 	5.957214084920658e-12 	101324.9999999963
1.164914914914914 	299.9999999999753 	5.128583650481572e-12 	101324.9999999963
1.167417417417417 	299.9999999999749 	6.069487351033644e-12 	101324.9999999962
1.169919919919919 	300.0000000000041 	5.280469950548295e-12 	101324.9999999963
1.172422422422422 	300.0000000000198 	5.512306002751115e-12 	101324.9999999962
1.174924924924925 	299.9999999999898 	4.498064654464184e-12 	101324.9999999963
1.177427427427427 	299.9999999999715 	4.666668079328938e-12 	101324.9999999964
1.179929929929929 	300.0000000000013 	4.99613682889361e-12 	101324.9999999964
1.182432432432432 	300.0000000000185 	3.393944253827089e-12 	101324.9999999964
1.184934934934934 	299.9999999999984 	3.437623209896074e-12 	101324.9999999964
1.187437437437437 	299.9999999999769 	2.870478467335528e-12 	101324.9999999964
1.189939939939939 	299.999999999971 	4.030240671556066e-12 	101324.9999999964
1.192442442442442 	299.9999999999555 	4.078332186465725e-12 	101324.9999999964
1.194944944944944 	299.999999999959 	4.987162680542667e-12 	101324.9999999964
1.197447447447447 	299.9999999999926 	4.3682148473084e-12 	101324.9999999963
1.199949949949949 	300.0000000000019 	4.117332803868581e-12 	101324.9999999962
1.202452452452452 	299.9999999999698 	4.700286100338564e-12 	101324.9999999961
1.204954954954955 	299.9999999999659 	3.984128495850067e-12 	101324.999999996
1.207457457457457 	299.9999999999819 	4.524768841338478e-12 	101324.999999996
1.20995995995996 	299.9999999999803 	3.862624755849067e-12 	101324.9999999962
1.212462462462462 	299.9999999999912 	4.342106876850125e-12 	101324.9999999964
1.214964964964964 	299.9999999999935 	3.490638625897688e-12 	101324.9999999967
1.217467467467467 	299.999999999991 	3.740547076231214e-12 	101324.9999999967
1.219969969969969 	299.9999999999808 	3.451036032653428e-12 	101324.9999999965
1.222472472472472 	300.0000000000094 	4.290117855880891e-12 	101324.9999999963
1.224974974974975 	300.0000000000273 	4.853014806669212e-12 	101324.9999999964
1.227477477477477 	299.9999999999962 	4.182984577692376e-12 	101324.9999999962
1.229979979979979 	299.9999999999819 	5.256320584722721e-12 	101324.999999996
1.232482482482482 	299.9999999999687 	4.613187182031923e-12 	101324.999999996
1.234984984984984 	299.9999999999707 	5.199939897005942e-12 	101324.9999999962
1.237487487487487 	299.999999999977 	3.984325755498611e-12 	101324.9999999964
1.239989989989989 	299.9999999999773 	4.035887106329281e-12 	101324.9999999966
1.242492492492492 	299.9999999999966 	4.133640910762054e-12 	101324.9999999967
1.244994994994994 	299.9999999999845 	3.097141182306681e-12 	101324.9999999967
1.247497497497497 	299.9999999999875 	3.808433549056655e-12 	101324.9999999967
1.249999999999999 	300 	3.555541619893711e-12 	101324.9999999966
