-1.25 	300 	0.1183438467059321 	101372.5528258148
-1.247497497497497 	300.0377268671215 	0.1111168435590216 	101370.4713554389
-1.244994994994995 	300.0354746330258 	0.1017072671956015 	101366.936716691
-1.242492492492492 	300.0319213890709 	0.09298436704772434 	101362.7413603264
-1.23998998998999 	300.0277584037939 	0.08017439052999548 	101357.8198394129
-1.237487487487487 	300.0230987033868 	0.06681423706143559 	101352.3099419045
-1.234984984984985 	300.0181111784167 	0.0523128267947825 	101346.412780399
-1.232482482482482 	300.0127690150304 	0.03687389653629589 	101340.0965287865
-1.22997997997998 	300.0071829432842 	0.02071663900061689 	101333.4921664118
-1.227477477477477 	300.0014848057059 	0.008174924616040283 	101326.755634858
-1.224974974974975 	299.9957742978533 	0.01224615572079039 	101320.0047879867
-1.222472472472472 	299.9901047979881 	0.02867285919598939 	101313.3027450095
-1.21996996996997 	299.9845693635812 	0.04468101534970825 	101306.759488299
-1.217467467467467 	299.9793314931158 	0.05984996755596897 	101300.5682215217
-1.214964964964965 	299.974464725498 	0.07391218218465993 	101294.8158388012
-1.212462462462462 	299.9700274431362 	0.08668033635335848 	101289.5712769837
-1.20995995995996 	299.9661607323195 	0.09784789151164408 	101285.0012452551
-1.207457457457457 	299.9629706086935 	0.1070804540970407 	101281.230968614
-1.204954954954955 	299.9604782420728 	0.1142792421716836 	101278.2853778452
-1.202452452452452 	299.9586969122585 	0.1194034009189972 	101276.1800924094
-1.19994994994995 	299.9576622853667 	0.1223749204823831 	101274.9572927097
-1.197447447447447 	299.9574020681865 	0.123157012657625 	101274.6497403708
-1.194944944944945 	299.957925465752 	0.1216583474663815 	101275.2682386933
-1.192442442442442 	299.9592463142916 	0.1178206842384776 	101276.8291295606
-1.18993993993994 	299.9613612017146 	0.1116856962131921 	101279.328417191
-1.187437437437437 	299.9642120422378 	0.103442324576011 	101282.6975445712
-1.184934934934935 	299.9677074734656 	0.09334545894177436 	101286.8285824859
-1.182432432432432 	299.9717724913696 	0.08157840812457817 	101291.6329536222
-1.17992992992993 	299.9763314323408 	0.06837775336850285 	101297.0212973041
-1.177427427427427 	299.9813027333458 	0.053970394195248 	101302.8972452168
-1.174924924924925 	299.9866193647263 	0.03859954024443073 	101309.1816624166
-1.172422422422422 	299.9921841478449 	0.02257973347059112 	101315.7597036527
-1.16991991991992 	299.9978505903818 	0.007813076261751942 	101322.4582514591
-1.167417417417417 	300.0035359100227 	0.01027713607857242 	101329.179446243
-1.164914914914915 	300.0091903410412 	0.02662601383044567 	101335.8644236988
-1.162412412412412 	300.014713593939 	0.04261725695464581 	101342.3946519216
-1.15990990990991 	300.0199963709335 	0.05787082464399454 	101348.6408430947
-1.157407407407407 	300.0249200935534 	0.07208840922922073 	101354.462769672
-1.154904904904904 	300.0293678166225 	0.08496158782807968 	101359.7220910834
-1.152402402402403 	300.0332578378537 	0.09620320904714987 	101364.3220961552
-1.1498998998999 	300.0365276745772 	0.1056441647984794 	101368.188869876
-1.147397397397397 	300.0391305430597 	0.113152172523433 	101371.2669959009
-1.144894894894895 	300.0410406287422 	0.1186365428256605 	101373.5259154542
-1.142392392392392 	300.0422102751397 	0.1219922278791226 	101374.90922857
-1.13988988988989 	300.0425919428534 	0.1231162320737855 	101375.3606235234
-1.137387387387387 	300.0421629999806 	0.121890952780457 	101374.8534054473
-1.134884884884885 	300.0409136450022 	0.1182791117801481 	101373.3760292428
-1.132382382382382 	300.038879721384 	0.1124293544342818 	101370.9708485486
-1.12987987987988 	300.036150406052 	0.1045147914690893 	101367.7433346534
-1.127377377377377 	300.0327768251749 	0.09474541123593933 	101363.7540188582
-1.124874874874875 	300.0288033270525 	0.08328180293233522 	101359.0554295983
-1.122372372372372 	300.0243001907129 	0.07022104918804334 	101353.7307064907
-1.11986986986987 	300.0193400413485 	0.05584314624969375 	101347.8658287039
-1.117367367367367 	300.0140161968817 	0.04047696396931848 	101341.5711801867
-1.114864864864865 	300.0084684936458 	0.02444592533651015 	101335.0121202607
-1.112362362362362 	300.002789935746 	0.008089452509390364 	101328.2986688205
-1.10985985985986 	299.9970757679659 	0.00912549833999393 	101321.543413295
-1.107357357357357 	299.9913888324468 	0.02494051884176671 	101314.8206889182
-1.104854854854855 	299.9858115722805 	0.04107024330280337 	101308.227914038
-1.102352352352353 	299.9804880229266 	0.05646563112182934 	101301.9353029038
-1.09984984984985 	299.9755410729131 	0.07076253937522932 	101296.088098868
-1.097347347347347 	299.971063042341 	0.08370076295723665 	101290.7953198321
-1.094844844844845 	299.9671202626606 	0.09512606941582799 	101286.1353557983
-1.092342342342342 	299.963759620761 	0.1048048198552118 	101282.1635256712
-1.08983983983984 	299.9610449363449 	0.1125901912275036 	101278.9551796069
-1.087337337337337 	299.9590566230971 	0.1183030466279446 	101276.605294789
-1.084834834834835 	299.9578524189947 	0.1217832498118421 	101275.182050985
-1.082332332332332 	299.9574556135341 	0.1229807740664066 	101274.7130832231
-1.07982982982983 	299.9578622918626 	0.1218234162890047 	101275.1936661313
-1.077327327327327 	299.9590450352538 	0.118402287267238 	101276.5913247099
-1.074824824824825 	299.9609789067621 	0.1128075989254065 	101278.876704974
-1.072322322322323 	299.963630814528 	0.1051441817912801 	101282.010710462
-1.06981981981982 	299.9669428548412 	0.09557264097715534 	101285.9249760725
-1.067317317317317 	299.9708570782362 	0.08419496016587653 	101290.5511006939
-1.064814814814815 	299.9753088914535 	0.07129716735170803 	101295.8127611274
-1.062312312312312 	299.9802056581541 	0.0571295244283735 	101301.600570772
-1.05980980980981 	299.9854513507372 	0.04198274923592836 	101307.8010746595
-1.057307307307307 	299.9909379549056 	0.02619062357606876 	101314.2866338077
-1.054804804804805 	299.9965480951361 	0.009937368545619161 	101320.9185582984
-1.052302302302302 	300.0022199301908 	0.009005880362554371 	101327.6237160369
-1.0497997997998 	300.0078897750173 	0.02283334424337023 	101334.3268540094
-1.047297297297297 	300.0134360857653 	0.03888700640209825 	101340.8842708991
-1.044794794794795 	300.0187362550499 	0.05419288933357303 	101347.150955567
-1.042292292292292 	300.0236802480642 	0.06852532291616695 	101352.9967958078
-1.03978978978979 	300.0281932729143 	0.08160034161090604 	101358.3332555632
-1.037287287287287 	300.0322147848554 	0.09320914063506719 	101363.0887130893
-1.034784784784785 	300.0356681880629 	0.1031834007812693 	101367.1725243186
-1.032282282282283 	300.0384731037324 	0.1112575001354534 	101370.4895542542
-1.02977977977978 	300.0405773147127 	0.1173018312357297 	101372.9780485454
-1.027277277277277 	300.0419231305568 	0.1211593625681415 	101374.5696702414
-1.024774774774775 	300.0424794958651 	0.122758280586943 	101375.2276895355
-1.022272272272272 	300.0422336085983 	0.1220710906115813 	101374.936930639
-1.01976976976977 	300.0411886238584 	0.1190562814055078 	101373.7012165166
-1.017267267267267 	300.0393690890828 	0.1138352899408835 	101371.5495819071
-1.014764764764765 	300.0368332070494 	0.1064853706009949 	101368.5507899164
-1.012262262262262 	300.0336146029197 	0.09718366594600904 	101364.7447267749
-1.00975975975976 	300.029778685334 	0.08611954069362569 	101360.2087996425
-1.007257257257257 	300.025397738706 	0.07340875224009148 	101355.0285119871
-1.004754754754755 	300.0205523067135 	0.05935572233860079 	101349.2992340097
-1.002252252252252 	300.0153222018438 	0.0442234740935719 	101343.1153404295
-0.9997497497497498 	300.009816566855 	0.028292706421266 	101336.6059576715
-0.9972472472472473 	300.0041277617181 	0.01192578360168185 	101329.8803283512
-0.9947447447447449 	299.9983828185136 	0.008946384599711369 	101323.0886160666
-0.9922422422422421 	299.9926648647213 	0.02124248768712529 	101316.3291542705
-0.9897397397397399 	299.9870730258119 	0.03739416317488057 	101309.7190609914
-0.9872372372372376 	299.9817219287776 	0.05289169550854374 	101303.3938324357
-0.9847347347347346 	299.9767017872898 	0.06737667834311471 	101297.4600668309
-0.9822322322322323 	299.9721061807018 	0.08067141591869395 	101292.0282814955
-0.9797297297297296 	299.9680138787195 	0.09254361670292116 	101287.1915634732
-0.9772272272272275 	299.9645008353287 	0.1026602022954154 	101283.0395721076
-0.9747247247247248 	299.9616543565746 	0.1108908509570549 	101279.6754585184
-0.9722222222222224 	299.9595338174134 	0.1169780700873843 	101277.169311725
-0.9697197197197196 	299.9581756378821 	0.120873628015442 	101275.5640940126
-0.9672172172172175 	299.9576076678797 	0.1225553349369333 	101274.8928446756
-0.9647147147147147 	299.9578262146215 	0.1219121462990101 	101275.1510775631
-0.9622122122122124 	299.9588188529945 	0.1190484435151073 	101276.3240954564
-0.9597097097097099 	299.9605800416716 	0.1139455893572292 	101278.4053854712
-0.9572072072072073 	299.9630677117824 	0.1067639329592866 	101281.345283798
-0.9547047047047047 	299.9662268270042 	0.09764782448787046 	101285.0788099305
-0.9522022022022023 	299.9700074329822 	0.08669458618963607 	101289.5469494709
-0.9496996996996998 	299.9743292973125 	0.07420378050383181 	101294.654999701
-0.9471971971971973 	299.979109707189 	0.06031459062418391 	101300.3052275935
-0.9446946946946947 	299.984272009718 	0.04541075218136502 	101306.4070957584
-0.9421921921921923 	299.9896970417636 	0.02978321249978769 	101312.8198225002
-0.93968968968969 	299.9952716019359 	0.01362687539206952 	101319.4095854346
-0.9371871871871872 	300.0009125526469 	0.008266891979463455 	101326.0781796922
-0.9346846846846848 	300.0065340495183 	0.01893605444857142 	101332.7240905735
-0.9321821821821823 	300.0120498832665 	0.03490372944995952 	101339.2453797983
-0.9296796796796799 	300.0173814751383 	0.05023152258509921 	101345.5491620654
-0.9271771771771771 	300.0224092189852 	0.06481055649814152 	101351.4939275677
-0.9246746746746748 	300.02704837276 	0.07823117955630286 	101356.9794824856
-0.9221721721721724 	300.0312137942627 	0.09029634024582908 	101361.9050838107
-0.9196696696696698 	300.034805581208 	0.1006800070479326 	101366.1524795592
-0.9171671671671672 	300.037754110409 	0.1091479540403679 	101369.6393433247
-0.9146646646646649 	300.0400212905392 	0.1156815635187405 	101372.3205126888
-0.9121621621621623 	300.0415459638015 	0.1200680847448796 	101374.1236550091
-0.9096596596596597 	300.0423044991009 	0.1222818286407543 	101375.0207966016
-0.9071571571571573 	300.0422686523996 	0.12215386651051 	101374.9783889047
-0.9046546546546547 	300.0414221984129 	0.1196808558797764 	101373.9774646127
-0.9021521521521524 	300.0397973788796 	0.1150344927021014 	101372.0560866888
-0.8996496496496498 	300.0374449963556 	0.108217601673562 	101369.2742869647
-0.8971471471471473 	300.0344000385048 	0.09946100110843423 	101365.67356698
-0.894644644644645 	300.03072509618 	0.08882520228636703 	101361.3279421346
-0.892142142142142 	300.0264645629505 	0.07643369966254854 	101356.290018694
-0.8896396396396397 	300.0216789519809 	0.06261205723233733 	101350.6314210268
-0.8871371371371374 	300.0164832325348 	0.04756582937404903 	101344.488118931
-0.8846346346346349 	300.010996928259 	0.03171676481283545 	101338.0015441931
-0.8821321321321324 	300.0053356426794 	0.01540159746547407 	101331.3083652989
-0.8796296296296297 	299.9996223866419 	0.00792017324393561 	101324.5540578817
-0.8771271271271271 	299.9939167848829 	0.0176605741187914 	101317.8091293572
-0.8746246246246248 	299.9883102775304 	0.03383422545377136 	101311.1816205339
-0.8721221221221224 	299.9829331735975 	0.04936552685177915 	101304.825605619
-0.8696196196196196 	299.977861083729 	0.06402345153564815 	101298.8303632822
-0.8671171171171175 	299.9731546826472 	0.07766041851589742 	101293.2675905077
-0.8646146146146148 	299.9689077300607 	0.08997571069166727 	101288.2480567144
-0.8621121121121121 	299.9652157588602 	0.1006515800094902 	101283.8845628415
-0.8596096096096097 	299.9622085531021 	0.1092891089839998 	101280.3304922819
-0.857107107107107 	299.9599845850448 	0.1156985588901184 	101277.7020909915
-0.8546046046046049 	299.9585333806664 	0.1199280377572034 	101275.9869458002
-0.8521021021021022 	299.9578096290556 	0.1219916654681321 	101275.1315698718
-0.8495995995995997 	299.9578166872516 	0.1219939422088 	101275.139892262
-0.8470970970970974 	299.9585642781644 	0.1197827307352215 	101276.0233206569
-0.8445945945945946 	299.9601078734923 	0.1152459210098427 	101277.847439251
-0.8420920920920922 	299.9624586653488 	0.1085279116997055 	101280.6255597243
-0.8395895895895897 	299.9655284206822 	0.09968842064166653 	101284.2534370725
-0.8370870870870872 	299.9692025287644 	0.08909450316438697 	101288.5957084209
-0.8345845845845846 	299.9733728576521 	0.07707085421829851 	101293.5246220926
-0.8320820820820823 	299.9779314132414 	0.06380065446494131 	101298.9125667869
-0.8295795795795798 	299.9828584459953 	0.0495151624980354 	101304.7362803199
-0.8270770770770772 	299.9881482136628 	0.03422107717779287 	101310.9890130867
-0.8245745745745746 	299.99373348723 	0.01805266046823602 	101317.5913539036
-0.8220720720720721 	299.9995226159074 	0.006986014176877092 	101324.4350238808
-0.8195695695695699 	300.005365795259 	0.01552118624471902 	101331.342931604
-0.817067067067067 	300.0110394270713 	0.03187624280758076 	101338.0507482154
-0.8145645645645651 	300.0163271560793 	0.04715062571357448 	101344.3026262569
-0.8120620620620621 	300.0211206994364 	0.06104320430145292 	101349.9704443776
-0.8095595595595597 	300.0254441353035 	0.07360373239697554 	101355.0826163234
-0.8070570570570572 	300.0293974287882 	0.08508639365087786 	101359.7572705756
-0.8045545545545546 	300.033063051138 	0.09570040913232776 	101364.0918968111
-0.8020520520520523 	300.036428532897 	0.1053989420769157 	101368.0717449001
-0.7995495495495494 	300.0393598157489 	0.1138023422289496 	101371.5382342401
-0.7970470470470474 	300.0416282771066 	0.1202699102282723 	101374.220980579
-0.7945445445445446 	300.0429735040217 	0.1240734281504026 	101375.8119604672
-0.7920420420420423 	300.0431772397553 	0.124604131610331 	101376.0529110016
-0.7895395395395397 	300.0421261469045 	0.1215505463997112 	101374.8099818645
-0.7870370370370371 	300.0398498710504 	0.1150032316026893 	101372.118256465
-0.7845345345345348 	300.0365243431507 	0.1054630290630919 	101368.1857023508
-0.7820320320320323 	300.0324406717151 	0.09375400187356676 	101363.3566795225
-0.7795295295295296 	300.0279497267755 	0.08086755485736077 	101358.0462021545
-0.7770270270270272 	300.0233968653039 	0.0677813741034678 	101352.6626851357
-0.7745245245245247 	300.0190660126659 	0.05530687872681881 	101347.5418506912
-0.7720220220220222 	300.0151519376008 	0.04400950565900736 	101342.9139606862
-0.7695195195195199 	300.0117616345501 	0.03420545227609396 	101338.9054738846
-0.767017017017017 	300.0089300650797 	0.02600290463736556 	101335.5576773278
-0.7645145145145147 	300.0066397482158 	0.01935748262025726 	101332.8498610123
-0.7620120120120122 	300.0048397152868 	0.01412660824397361 	101330.7217334702
-0.7595095095095097 	300.0034615354755 	0.01011576936289396 	101329.0923690593
-0.7570070070070072 	300.0024314452796 	0.007113745664542846 	101327.8745462215
-0.7545045045045048 	300.0016785561252 	0.004916607114192683 	101326.9844488979
-0.7520020020020022 	300.0011396726781 	0.003341936006327022 	101326.3473605398
-0.7494994994994997 	300.000761495656 	0.002235458976971065 	101325.900266348
-0.7469969969969972 	300.0005010076955 	0.001472374268147575 	101325.5923086186
-0.7444944944944945 	300.0003247410741 	0.0009553868032980157 	101325.3839203273
-0.7419919919919924 	300.000207469537 	0.0006110242704683718 	101325.2452779706
-0.7394894894894897 	300.0001307038527 	0.0003853442550052705 	101325.1545229742
-0.7369869869869872 	300.0000812303795 	0.0002397339960271933 	101325.0960336617
-0.7344844844844846 	300.0000498208043 	0.0001471863130334564 	101325.0589001427
-0.7319819819819822 	300.0000301662591 	8.921091956240129e-05 	101325.0356637603
-0.7294794794794797 	300.0000180382866 	5.339826939167421e-05 	101325.021325609
-0.7269769769769773 	300.0000106554045 	3.157416120234626e-05 	101325.0125972558
-0.7244744744744747 	300.0000062197544 	1.844848412962971e-05 	101325.0073532483
-0.721971971971972 	300.0000035885664 	1.065455288773409e-05 	101325.0042426041
-0.7194694694694695 	300.0000020471049 	6.083732932068356e-06 	101325.0024201946
-0.7169669669669674 	300.0000011548195 	3.435374343195031e-06 	101325.0013653402
-0.7144644644644647 	300.000000644448 	1.918889714847528e-06 	101325.0007619157
-0.711961961961962 	300.0000003558387 	1.060463514742635e-06 	101325.0004206741
-0.7094594594594597 	300.0000001944329 	5.799692944297019e-07 	101325.0002298528
-0.7069569569569573 	300.0000001051699 	3.139532398465144e-07 	101325.00012431
-0.7044544544544545 	300.0000000563269 	1.682535717433146e-07 	101325.0000665574
-0.7019519519519523 	300.0000000298584 	8.928533804959209e-08 	101325.0000352855
-0.6994494494494495 	300.0000000156207 	4.692375816844923e-08 	101325.0000185254
-0.6969469469469471 	300.0000000081071 	2.442682355461186e-08 	101325.0000096332
-0.6944444444444446 	300.0000000041672 	1.259776576360051e-08 	101325.0000049615
-0.6919419419419421 	300.0000000021686 	6.43722865575738e-09 	101325.0000025307
-0.6894394394394396 	300.0000000010828 	3.260049409259432e-09 	101325.0000012779
-0.6869369369369374 	300.0000000005541 	1.635702487845276e-09 	101325.0000006384
-0.6844344344344344 	300.0000000002894 	8.136864763999625e-10 	101325.0000003148
-0.6819319319319321 	300.0000000001026 	4.005266125241627e-10 	101325.0000001524
-0.6794294294294296 	300.0000000000204 	1.952470297235711e-10 	101325.0000000718
-0.6769269269269272 	299.9999999999637 	9.400499358792226e-11 	101325.000000032
-0.6744244244244245 	299.9999999999876 	4.441345639948088e-11 	101325.0000000127
-0.6719219219219222 	299.9999999999714 	2.075935458908919e-11 	101325.0000000034
-0.6694194194194195 	300.0000000000016 	8.726184734346739e-12 	101324.999999999
-0.6669169169169172 	300.0000000000172 	4.212509360322798e-12 	101324.9999999969
-0.6644144144144146 	299.9999999999735 	1.457604965709959e-12 	101324.9999999957
-0.661911911911912 	299.9999999999742 	1.218217763531466e-12 	101324.9999999952
-0.6594094094094097 	299.9999999999819 	5.026361372147442e-13 	101324.9999999949
-0.656906906906907 	299.9999999999499 	1.44811401469513e-12 	101324.9999999948
-0.6544044044044046 	299.9999999999544 	1.487971406268851e-12 	101324.9999999947
-0.6519019019019021 	299.9999999999864 	1.994435575364956e-12 	101324.9999999948
-0.6493993993993996 	300.0000000000195 	1.849929047278116e-12 	101324.9999999947
-0.6468968968968971 	300.0000000000277 	2.959314425385624e-12 	101324.9999999948
-0.6443943943943946 	300.0000000000002 	2.268006191545943e-12 	101324.999999995
-0.6418918918918921 	299.9999999999954 	2.161753008827794e-12 	101324.9999999948
-0.6393893893893897 	299.9999999999969 	1.813661147735575e-12 	101324.9999999946
-0.6368868868868871 	299.9999999999812 	8.243481058284098e-13 	101324.9999999946
-0.6343843843843846 	299.999999999994 	1.72145946252839e-12 	101324.9999999946
-0.6318818818818821 	299.9999999999588 	1.762219537429897e-12 	101324.9999999948
-0.6293793793793795 	300.0000000000016 	1.879139477388664e-12 	101324.999999995
-0.6268768768768773 	300.0000000000185 	1.711743297900343e-12 	101324.9999999949
-0.6243743743743745 	299.9999999999827 	1.009570028956962e-12 	101324.9999999949
-0.6218718718718721 	300.000000000004 	1.975152846001619e-12 	101324.9999999949
-0.6193693693693696 	299.9999999999466 	9.025198675672765e-13 	101324.9999999949
-0.6168668668668671 	299.9999999999861 	1.23706207711564e-12 	101324.9999999947
-0.6143643643643645 	300.0000000000122 	1.036865901296374e-12 	101324.9999999945
-0.6118618618618621 	299.9999999999853 	9.175884475531503e-13 	101324.9999999944
-0.6093593593593596 	299.9999999999877 	4.44943497667735e-13 	101324.9999999943
-0.6068568568568571 	299.9999999999884 	5.156152503894201e-13 	101324.9999999941
-0.6043543543543546 	299.9999999999649 	5.828551326957019e-13 	101324.9999999941
-0.6018518518518521 	299.9999999999714 	5.856613602550491e-13 	101324.9999999941
-0.5993493493493496 	299.9999999999536 	4.645974604650825e-13 	101324.9999999942
-0.5968468468468471 	299.9999999999645 	1.453938786970794e-12 	101324.9999999944
-0.5943443443443446 	299.9999999999947 	1.221284592320548e-12 	101324.9999999946
-0.591841841841842 	299.9999999999662 	1.480927170784364e-12 	101324.9999999948
-0.5893393393393397 	299.9999999999559 	1.620174279202728e-12 	101324.9999999947
-0.5868368368368371 	299.9999999999901 	2.338654566302192e-12 	101324.9999999945
-0.5843343343343346 	300.0000000000011 	2.552832919516458e-12 	101324.9999999945
-0.5818318318318321 	300.0000000000246 	2.393023813159839e-12 	101324.9999999944
-0.5793293293293297 	299.9999999999902 	2.289112321584615e-12 	101324.9999999942
-0.5768268268268271 	299.9999999999988 	1.615459060943387e-12 	101324.999999994
-0.5743243243243245 	300.0000000000168 	1.615108475640955e-12 	101324.9999999939
-0.5718218218218221 	300.0000000000167 	7.165156638999702e-13 	101324.9999999937
-0.5693193193193196 	300.0000000000374 	3.285532853187618e-13 	101324.9999999936
-0.5668168168168171 	299.9999999999893 	7.675413505545131e-13 	101324.9999999938
-0.5643143143143147 	299.9999999999563 	4.851102661739153e-13 	101324.9999999938
-0.5618118118118121 	300.0000000000107 	1.373345344969583e-12 	101324.999999994
-0.5593093093093094 	300.000000000028 	6.247865105060381e-13 	101324.9999999939
-0.5568068068068072 	300.0000000000122 	2.028177434070522e-12 	101324.9999999939
-0.5543043043043046 	300.0000000000127 	1.751352042462718e-12 	101324.9999999938
-0.551801801801802 	299.9999999999629 	2.446261538833094e-12 	101324.9999999936
-0.5492992992992995 	299.9999999999953 	1.64532377541528e-12 	101324.9999999935
-0.5467967967967969 	300.0000000000092 	2.078485428291847e-12 	101324.9999999936
-0.5442942942942947 	300.0000000000062 	1.163563095375793e-12 	101324.9999999936
-0.5417917917917919 	299.9999999999659 	1.553721816158588e-12 	101324.9999999936
-0.5392892892892895 	299.999999999944 	1.188786810887781e-12 	101324.9999999937
-0.536786786786787 	299.9999999999617 	1.168451489721337e-12 	101324.9999999938
-0.5342842842842846 	299.9999999999685 	1.867443459633372e-12 	101324.9999999937
-0.531781781781782 	299.9999999999455 	1.728600230256725e-12 	101324.9999999938
-0.5292792792792794 	299.9999999999409 	2.942941672571254e-12 	101324.9999999938
-0.526776776776777 	299.9999999999274 	2.585306653499211e-12 	101324.9999999938
-0.5242742742742745 	299.9999999999802 	4.593367606663838e-12 	101324.9999999938
-0.521771771771772 	300.0000000000117 	3.530557969336185e-12 	101324.9999999938
-0.5192692692692695 	299.9999999999696 	5.224138541247101e-12 	101324.9999999939
-0.516766766766767 	300.0000000000036 	4.173046637260804e-12 	101324.999999994
-0.5142642642642645 	299.9999999999763 	4.538548092853255e-12 	101324.999999994
-0.511761761761762 	299.9999999999603 	3.483029677320435e-12 	101324.9999999941
-0.5092592592592596 	299.9999999999774 	3.422437144241561e-12 	101324.9999999941
-0.506756756756757 	299.9999999999505 	3.033431552232089e-12 	101324.9999999939
-0.5042542542542544 	299.9999999999943 	2.660115092013716e-12 	101324.9999999939
-0.5017517517517521 	300.0000000000251 	2.48172995000352e-12 	101324.9999999938
-0.4992492492492494 	300.0000000000273 	1.543360179588436e-12 	101324.9999999937
-0.496746746746747 	299.9999999999908 	1.831995239402618e-12 	101324.9999999936
-0.4942442442442445 	299.999999999951 	1.363556485929991e-12 	101324.9999999935
-0.4917417417417421 	299.9999999999513 	1.376337883030081e-12 	101324.9999999935
-0.4892392392392395 	299.9999999999643 	9.551997613854194e-13 	101324.9999999937
-0.486736736736737 	299.999999999965 	2.190425313597369e-12 	101324.9999999938
-0.4842342342342345 	299.999999999937 	9.677546703948639e-13 	101324.9999999936
-0.481731731731732 	300.0000000000289 	2.31644088897498e-12 	101324.9999999934
-0.4792292292292296 	300.0000000000173 	1.492798829735208e-12 	101324.9999999932
-0.4767267267267268 	299.9999999999662 	3.179037937741257e-12 	101324.9999999928
-0.4742242242242246 	299.9999999999998 	2.170369596576823e-12 	101324.9999999927
-0.471721721721722 	299.999999999965 	3.242367329124316e-12 	101324.9999999928
-0.4692192192192195 	299.9999999999836 	1.206245305357512e-12 	101324.999999993
-0.4667167167167169 	299.9999999999288 	3.196030910306921e-12 	101324.9999999931
-0.4642142142142145 	299.9999999999951 	8.121578628717337e-13 	101324.9999999933
-0.461711711711712 	300.0000000000128 	2.165901334499367e-12 	101324.9999999934
-0.4592092092092094 	300.0000000000067 	7.131918132663279e-13 	101324.9999999935
-0.456706706706707 	300.0000000000405 	1.918028959784202e-12 	101324.9999999936
-0.4542042042042045 	299.9999999999527 	8.235248962477561e-13 	101324.9999999937
-0.451701701701702 	299.9999999999611 	1.165677720023843e-12 	101324.9999999939
-0.4491991991991995 	299.9999999999681 	5.608372037559299e-13 	101324.999999994
-0.4466966966966969 	299.9999999999676 	1.212221829423832e-12 	101324.9999999938
-0.4441941941941945 	299.9999999999974 	4.331610900606402e-13 	101324.9999999939
-0.441691691691692 	299.999999999967 	2.960961468634768e-12 	101324.9999999938
-0.4391891891891895 	299.9999999999905 	8.829490975278367e-13 	101324.9999999938
-0.436686686686687 	299.9999999999754 	3.832143642343191e-12 	101324.9999999939
-0.4341841841841846 	299.999999999999 	1.848684939285695e-12 	101324.9999999939
-0.431681681681682 	299.9999999999593 	3.75418290131772e-12 	101324.9999999937
-0.4291791791791794 	299.9999999999435 	7.377999519223294e-13 	101324.9999999938
-0.426676676676677 	299.9999999999293 	2.951000463922772e-12 	101324.9999999937
-0.4241741741741744 	299.9999999999733 	1.138811608311226e-12 	101324.9999999936
-0.421671671671672 	300.0000000000031 	1.787431406503095e-12 	101324.9999999937
-0.4191691691691694 	300.0000000000369 	1.032349744876768e-12 	101324.9999999937
-0.4166666666666669 	300.0000000000444 	1.069271624501635e-12 	101324.9999999936
-0.4141641641641645 	299.9999999999517 	3.269144826881929e-13 	101324.9999999937
-0.411661661661662 	300.0000000000014 	1.074862189080546e-12 	101324.9999999936
-0.4091591591591594 	300.0000000000092 	1.170018381673746e-12 	101324.9999999938
-0.406656656656657 	299.9999999999629 	2.280756849956867e-12 	101324.9999999939
-0.4041541541541545 	300.0000000000089 	1.132155105165708e-12 	101324.9999999939
-0.401651651651652 	299.9999999999417 	3.501497158336463e-12 	101324.9999999938
-0.3991491491491494 	300.0000000000045 	9.072943248274185e-13 	101324.9999999935
-0.396646646646647 	299.999999999965 	3.473937602978779e-12 	101324.9999999933
-0.3941441441441444 	299.9999999999842 	1.754343608621448e-12 	101324.9999999932
-0.3916416416416419 	299.9999999999475 	3.469385751334498e-12 	101324.9999999931
-0.3891391391391395 	299.999999999962 	7.197825700792961e-13 	101324.9999999932
-0.3866366366366368 	299.9999999999651 	2.666524395622922e-12 	101324.9999999934
-0.3841341341341344 	299.9999999999994 	1.222076930251653e-12 	101324.9999999933
-0.381631631631632 	299.9999999999586 	1.980797537612597e-12 	101324.9999999932
-0.3791291291291294 	299.9999999999997 	1.774833022498522e-12 	101324.9999999932
-0.3766266266266269 	300.0000000000148 	1.616140719850764e-12 	101324.9999999932
-0.3741241241241244 	300.0000000000161 	2.053837873703319e-12 	101324.9999999932
-0.371621621621622 	300.0000000000153 	4.125336130728827e-13 	101324.9999999931
-0.3691191191191194 	300.0000000000067 	2.808761813425671e-12 	101324.9999999933
-0.366616616616617 	300.0000000000038 	8.928803876285631e-13 	101324.9999999931
-0.3641141141141143 	299.9999999999777 	2.861189466689928e-12 	101324.9999999927
-0.3616116116116119 	299.9999999999577 	1.057763200071519e-12 	101324.9999999927
-0.3591091091091095 	299.9999999999823 	2.41464793326076e-12 	101324.9999999925
-0.356606606606607 	299.9999999999825 	2.389154826451962e-12 	101324.9999999924
-0.3541041041041044 	299.9999999999908 	2.57099724912122e-12 	101324.9999999926
-0.3516016016016019 	300.0000000000119 	3.333743542564711e-12 	101324.9999999926
-0.3490990990990994 	299.9999999999933 	1.843741503925925e-12 	101324.9999999926
-0.346596596596597 	300.0000000000271 	3.882634980992199e-12 	101324.9999999925
-0.3440940940940944 	300.0000000000325 	1.471882902216874e-12 	101324.9999999926
-0.3415915915915919 	300.0000000000166 	3.67920548110372e-12 	101324.9999999927
-0.3390890890890895 	299.9999999999845 	1.93360282545053e-12 	101324.9999999928
-0.3365865865865869 	300.0000000000155 	3.679879194199399e-12 	101324.9999999928
-0.3340840840840844 	299.9999999999959 	3.243420573251265e-12 	101324.9999999927
-0.3315815815815819 	300.0000000000145 	3.935642771871098e-12 	101324.9999999925
-0.3290790790790794 	300.0000000000155 	3.804086362099808e-12 	101324.9999999925
-0.3265765765765769 	299.9999999999457 	4.578159792153825e-12 	101324.9999999925
-0.3240740740740744 	299.9999999999962 	3.305487002299408e-12 	101324.9999999924
-0.3215715715715718 	300.0000000000056 	4.851990511532678e-12 	101324.9999999923
-0.3190690690690695 	299.9999999999492 	4.319597361240866e-12 	101324.9999999925
-0.3165665665665668 	299.9999999999912 	6.686365773406716e-12 	101324.9999999926
-0.3140640640640644 	300.0000000000005 	4.967652471491285e-12 	101324.9999999929
-0.311561561561562 	299.999999999945 	7.978527997132601e-12 	101324.9999999933
-0.3090590590590593 	299.9999999999953 	3.779456714761578e-12 	101324.9999999931
-0.3065565565565568 	300.0000000000044 	8.282234102890398e-12 	101324.9999999932
-0.3040540540540545 	300.0000000000014 	3.044667658094304e-12 	101324.9999999931
-0.3015515515515518 	300.0000000000255 	7.274836203925011e-12 	101324.9999999929
-0.2990490490490494 	299.9999999999581 	4.169825554508299e-12 	101324.9999999928
-0.2965465465465469 	299.9999999999891 	6.001066207773578e-12 	101324.9999999929
-0.2940440440440444 	299.9999999999939 	5.049980382880393e-12 	101324.999999993
-0.2915415415415418 	300.0000000000055 	5.32194850636912e-12 	101324.9999999929
-0.2890390390390395 	300.0000000000069 	5.730153254039341e-12 	101324.9999999931
-0.2865365365365368 	299.999999999984 	4.487480175555209e-12 	101324.999999993
-0.2840340340340343 	299.999999999999 	6.673768291058066e-12 	101324.9999999929
-0.2815315315315318 	299.9999999999417 	3.934178262210617e-12 	101324.9999999927
-0.2790290290290295 	299.9999999999697 	5.19679614129766e-12 	101324.9999999925
-0.2765265265265269 	300.0000000000038 	3.31904658376132e-12 	101324.9999999926
-0.2740240240240244 	300.000000000018 	4.200405339092129e-12 	101324.9999999929
-0.2715215215215219 	300.0000000000093 	4.272063039050929e-12 	101324.9999999928
-0.2690190190190194 	299.9999999999555 	4.1948551956302e-12 	101324.999999993
-0.2665165165165169 	299.9999999999978 	5.230330933558566e-12 	101324.9999999931
-0.2640140140140144 	299.9999999999795 	3.853420731077645e-12 	101324.9999999931
-0.2615115115115119 	300.0000000000008 	5.897135040415045e-12 	101324.9999999933
-0.2590090090090094 	299.9999999999467 	3.712700441898344e-12 	101324.9999999933
-0.2565065065065068 	299.9999999999932 	5.001945523833578e-12 	101324.9999999934
-0.2540040040040044 	299.9999999999953 	5.013932721108856e-12 	101324.9999999937
-0.2515015015015019 	300.0000000000285 	3.985728180371597e-12 	101324.9999999934
-0.2489989989989994 	300.0000000000308 	5.237476151496479e-12 	101324.999999993
-0.2464964964964968 	299.9999999999898 	2.874412493969268e-12 	101324.9999999925
-0.2439939939939944 	299.9999999999943 	6.017333559678949e-12 	101324.9999999922
-0.2414914914914919 	299.9999999999712 	2.098633018430467e-12 	101324.9999999923
-0.2389889889889893 	299.9999999999988 	5.649025022339628e-12 	101324.9999999927
-0.2364864864864869 	300.0000000000186 	2.428936452868333e-12 	101324.9999999929
-0.2339839839839843 	299.9999999999502 	6.475645673722206e-12 	101324.999999993
-0.2314814814814819 	299.9999999999855 	2.962380423918257e-12 	101324.9999999932
-0.2289789789789792 	299.999999999935 	5.854377921012713e-12 	101324.9999999931
-0.2264764764764769 	299.9999999999588 	3.249504814993357e-12 	101324.9999999932
-0.2239739739739743 	299.9999999999739 	4.642296438619996e-12 	101324.9999999934
-0.2214714714714718 	299.9999999999508 	4.294830441836549e-12 	101324.9999999936
-0.2189689689689693 	299.9999999999767 	3.657728117757681e-12 	101324.9999999936
-0.2164664664664669 	299.9999999999864 	5.957211380535097e-12 	101324.9999999935
-0.2139639639639643 	299.9999999999501 	4.385815702485139e-12 	101324.9999999936
-0.2114614614614618 	299.9999999999775 	5.910924549032428e-12 	101324.9999999934
-0.2089589589589593 	299.9999999999932 	5.82491666696277e-12 	101324.9999999931
-0.2064564564564568 	299.9999999999926 	5.516235106533279e-12 	101324.9999999931
-0.2039539539539543 	299.9999999999357 	6.55666014491299e-12 	101324.9999999929
-0.2014514514514518 	299.999999999956 	3.833651339745246e-12 	101324.9999999929
-0.1989489489489494 	299.9999999999733 	6.474988379103442e-12 	101324.999999993
-0.1964464464464468 	299.9999999999925 	2.746964845872676e-12 	101324.9999999931
-0.1939439439439443 	299.9999999999913 	5.360683085825504e-12 	101324.9999999935
-0.1914414414414418 	299.9999999999413 	2.999943497750823e-12 	101324.9999999939
-0.1889389389389393 	300.0000000000032 	4.593198036565918e-12 	101324.9999999937
-0.1864364364364368 	300.0000000000269 	4.060957608663359e-12 	101324.9999999936
-0.1839339339339343 	299.9999999999819 	4.483931643645519e-12 	101324.9999999933
-0.1814314314314318 	299.9999999999967 	4.294271482522751e-12 	101324.9999999934
-0.1789289289289293 	299.9999999999241 	4.508931443371534e-12 	101324.9999999934
-0.1764264264264268 	299.9999999999853 	3.056198342670108e-12 	101324.9999999936
-0.1739239239239243 	299.9999999999264 	3.6799244336015e-12 	101324.9999999937
-0.1714214214214218 	299.9999999999906 	1.479415799543576e-12 	101324.9999999938
-0.1689189189189193 	299.9999999999648 	4.531943945783455e-12 	101324.9999999937
-0.1664164164164168 	300.0000000000035 	4.112281899091838e-13 	101324.9999999934
-0.1639139139139143 	299.9999999999882 	5.498042877859088e-12 	101324.9999999933
-0.1614114114114118 	300.0000000000175 	1.381656707630454e-12 	101324.9999999933
-0.1589089089089093 	299.9999999999963 	8.012942419412385e-12 	101324.9999999935
-0.1564064064064068 	299.9999999999833 	2.957592402495273e-12 	101324.9999999934
-0.1539039039039043 	299.9999999999943 	7.695588066642229e-12 	101324.9999999935
-0.1514014014014018 	300.0000000000184 	1.882274984386842e-12 	101324.9999999937
-0.1488988988988993 	299.9999999999904 	7.472158277190187e-12 	101324.9999999937
-0.1463963963963968 	300.0000000000011 	6.172636026037485e-13 	101324.9999999938
-0.1438938938938943 	299.9999999999685 	6.227584097377114e-12 	101324.999999994
-0.1413913913913918 	299.9999999999458 	6.15041664122807e-13 	101324.9999999941
-0.1388888888888893 	299.9999999999843 	3.273170920271912e-12 	101324.9999999939
-0.1363863863863868 	299.9999999999171 	4.437244583798016e-13 	101324.9999999936
-0.1338838838838843 	299.9999999999403 	1.116296712533849e-12 	101324.9999999935
-0.1313813813813818 	299.9999999999956 	1.016170494958702e-13 	101324.9999999935
-0.1288788788788793 	299.9999999999707 	1.447833907858315e-12 	101324.9999999933
-0.1263763763763768 	299.9999999999771 	3.550698262412017e-13 	101324.9999999932
-0.1238738738738743 	299.9999999999505 	2.195458901089694e-12 	101324.9999999934
-0.1213713713713717 	299.9999999999903 	2.226479354006085e-13 	101324.9999999936
-0.1188688688688693 	300.0000000000078 	3.461190885609084e-12 	101324.9999999937
-0.1163663663663668 	299.9999999999312 	1.798618735082058e-13 	101324.9999999938
-0.1138638638638643 	299.9999999999934 	4.168756008898441e-12 	101324.9999999939
-0.1113613613613618 	299.9999999999898 	7.389252541692464e-13 	101324.9999999937
-0.1088588588588592 	299.9999999999839 	4.45780409906687e-12 	101324.9999999937
-0.1063563563563568 	299.9999999999687 	2.419693566261221e-13 	101324.9999999938
-0.1038538538538543 	299.9999999999848 	3.95356854101425e-12 	101324.9999999938
-0.1013513513513517 	300.0000000000105 	1.607651957160182e-12 	101324.9999999935
-0.09884884884884926 	299.9999999999616 	4.441216167469928e-12 	101324.9999999933
-0.09634634634634676 	299.9999999999228 	1.959991840922936e-12 	101324.9999999931
-0.09384384384384425 	299.9999999999432 	2.740752674902556e-12 	101324.999999993
-0.09134134134134177 	300.0000000000134 	1.231566533720896e-12 	101324.999999993
-0.08883883883883925 	300.0000000000074 	2.035871967402047e-12 	101324.999999993
-0.08633633633633674 	299.9999999999645 	1.772864671209531e-12 	101324.9999999931
-0.08383383383383426 	300.0000000000035 	1.949899012713422e-12 	101324.9999999931
-0.08133133133133173 	299.999999999977 	1.872684725958196e-12 	101324.9999999932
-0.07882882882882926 	299.9999999999146 	1.028289237991421e-12 	101324.9999999933
-0.07632632632632676 	299.9999999999688 	9.089394930169769e-13 	101324.9999999933
-0.07382382382382424 	299.9999999999241 	6.48162711526197e-13 	101324.9999999932
-0.07132132132132173 	300.0000000000086 	4.815968459481524e-14 	101324.9999999933
-0.06881881881881925 	299.9999999999717 	1.333387961614211e-13 	101324.9999999933
-0.06631631631631671 	299.9999999999214 	2.316568683347547e-13 	101324.9999999935
-0.06381381381381425 	299.9999999999665 	4.993477048461392e-14 	101324.9999999934
-0.06131131131131173 	299.9999999999679 	3.189338671184634e-13 	101324.9999999933
-0.05880880880880923 	299.9999999999407 	1.938060019095743e-13 	101324.9999999936
-0.05630630630630672 	299.9999999999746 	2.94408537361711e-13 	101324.9999999937
-0.05380380380380424 	300.000000000011 	9.562773074495491e-13 	101324.9999999936
-0.05130130130130173 	300.000000000007 	1.276255351836683e-12 	101324.9999999936
-0.04879879879879922 	299.9999999999596 	1.311726143914569e-12 	101324.9999999936
-0.04629629629629672 	299.9999999999523 	8.047142684899587e-13 	101324.9999999934
-0.04379379379379422 	299.9999999999372 	1.115812884276359e-12 	101324.9999999934
-0.04129129129129173 	299.999999999984 	7.985884710133471e-13 	101324.9999999933
-0.03878878878878922 	299.9999999999869 	1.268521275960658e-12 	101324.9999999931
-0.03628628628628671 	299.9999999999849 	6.133471301520186e-13 	101324.9999999932
-0.03378378378378422 	299.9999999999475 	8.263939516535432e-13 	101324.9999999933
-0.03128128128128172 	299.9999999999774 	2.571064606803685e-13 	101324.9999999933
-0.02877877877877922 	299.9999999999762 	5.146728903026617e-14 	101324.9999999931
-0.0262762762762767 	299.9999999999247 	3.865826261171489e-13 	101324.9999999931
-0.02377377377377422 	300.0000000000142 	5.59293875294713e-13 	101324.999999993
-0.0212712712712717 	299.9999999999271 	1.63208079201309e-13 	101324.999999993
-0.01876876876876921 	299.999999999979 	3.898792065494067e-13 	101324.9999999933
-0.01626626626626671 	300.0000000000087 	8.62601000297601e-13 	101324.9999999933
-0.0137637637637642 	299.9999999999728 	8.772017705784697e-13 	101324.9999999935
-0.0112612612612617 	300.0000000000111 	9.337296196574013e-13 	101324.9999999935
-0.008758758758759198 	299.9999999999973 	5.177578024260515e-14 	101324.9999999934
-0.006256256256256697 	299.9999999999173 	7.915441066708557e-14 	101324.9999999934
-0.003753753753754195 	299.9999999999635 	1.054358988121103e-12 	101324.9999999933
-0.001251251251251693 	299.9999999999439 	4.841918982186561e-13 	101324.9999999931
0.00125125125125081 	299.9999999999653 	8.546444233995143e-13 	101324.9999999931
0.003753753753753312 	299.9999999999745 	2.248852318302442e-13 	101324.9999999931
0.006256256256255817 	299.999999999916 	8.221849501589306e-13 	101324.999999993
0.008758758758758317 	299.9999999999903 	4.415955600010453e-13 	101324.9999999933
0.01126126126126082 	300.0000000000061 	2.062077572314516e-13 	101324.9999999931
0.01376376376376332 	299.9999999999749 	3.069184446818985e-13 	101324.999999993
0.01626626626626582 	300.0000000000058 	5.360794563644138e-13 	101324.9999999933
0.01876876876876833 	299.9999999999685 	4.794620068107034e-13 	101324.9999999934
0.02127127127127083 	299.9999999999771 	7.781636018054378e-13 	101324.9999999936
0.02377377377377332 	299.9999999999951 	9.31373247433997e-13 	101324.9999999935
0.02627627627627583 	299.9999999999308 	4.770311757256983e-13 	101324.9999999935
0.02877877877877833 	300.0000000000038 	9.023145489987502e-13 	101324.9999999934
0.03128128128128083 	299.9999999999587 	9.284098502462684e-13 	101324.9999999936
0.03378378378378333 	299.999999999927 	2.033891976135319e-12 	101324.9999999937
0.03628628628628584 	299.999999999981 	1.8116440939601e-12 	101324.9999999936
0.03878878878878834 	299.9999999999865 	1.277145647756337e-12 	101324.9999999935
0.04129129129129084 	299.9999999999819 	1.15127922755385e-12 	101324.9999999934
0.04379379379379333 	299.9999999999538 	8.278822951513041e-13 	101324.9999999934
0.04629629629629585 	299.9999999999161 	9.823374368492629e-13 	101324.9999999936
0.04879879879879834 	299.9999999999655 	1.237358145618857e-12 	101324.9999999935
0.05130130130130085 	300.0000000000086 	6.238293405803419e-13 	101324.9999999934
0.05380380380380335 	300.0000000000134 	3.01628725413113e-13 	101324.9999999936
0.05630630630630584 	299.9999999999913 	5.876596247265549e-13 	101324.9999999934
0.05880880880880836 	299.9999999999426 	9.875691000567094e-13 	101324.9999999934
0.06131131131131085 	299.999999999983 	8.439347006133778e-13 	101324.9999999934
0.06381381381381336 	299.9999999999726 	7.192492232073361e-13 	101324.9999999933
0.06631631631631586 	299.9999999999195 	6.379628587108716e-13 	101324.9999999932
0.06881881881881835 	299.9999999999596 	9.161756403115959e-14 	101324.999999993
0.07132132132132088 	299.9999999999897 	3.107431948920367e-13 	101324.9999999931
0.07382382382382337 	299.9999999999297 	6.931577085022652e-13 	101324.9999999931
0.07632632632632587 	299.9999999999789 	8.6550755514248e-13 	101324.999999993
0.07882882882882837 	299.999999999955 	8.808375523948489e-13 	101324.999999993
0.08133133133133086 	299.9999999999927 	1.256901936427608e-12 	101324.999999993
0.08383383383383337 	299.9999999999914 	1.302916029156534e-12 	101324.9999999932
0.08633633633633589 	299.9999999999305 	1.673971525805115e-12 	101324.9999999934
0.08883883883883838 	300.0000000000067 	2.269883368109732e-12 	101324.9999999933
0.09134134134134086 	299.9999999999889 	1.745830997840604e-12 	101324.9999999932
0.09384384384384339 	299.9999999999253 	2.690042402694519e-12 	101324.9999999936
0.09634634634634588 	299.9999999999759 	2.888076664811275e-12 	101324.9999999936
0.09884884884884838 	299.9999999999803 	3.096015351384558e-12 	101324.9999999935
0.1013513513513509 	300.0000000000174 	2.956618148697452e-12 	101324.9999999933
0.1038538538538534 	299.999999999962 	2.981217927580156e-12 	101324.9999999933
0.1063563563563559 	300.0000000000097 	3.336296851816616e-12 	101324.9999999934
0.1088588588588584 	300.0000000000182 	2.462308585600239e-12 	101324.9999999932
0.1113613613613609 	299.9999999999448 	2.003186432381506e-12 	101324.9999999931
0.1138638638638634 	299.9999999999594 	1.833552369419744e-12 	101324.9999999932
0.1163663663663659 	299.9999999999566 	1.948823326831762e-12 	101324.9999999935
0.1188688688688684 	299.9999999999753 	2.099108664061061e-12 	101324.9999999933
0.1213713713713709 	299.9999999999955 	1.502642108596278e-12 	101324.9999999936
0.1238738738738734 	299.9999999999418 	1.362758948145019e-12 	101324.9999999932
0.1263763763763759 	299.9999999999865 	1.346865379486138e-12 	101324.9999999933
0.1288788788788784 	299.9999999999885 	1.703758545394501e-12 	101324.9999999935
0.1313813813813809 	299.9999999999873 	2.503746039657699e-12 	101324.9999999937
0.1338838838838834 	299.999999999982 	2.612821820644125e-12 	101324.9999999938
0.1363863863863859 	300.0000000000195 	2.836114324309537e-12 	101324.9999999935
0.1388888888888884 	300.0000000000347 	2.969562435661851e-12 	101324.9999999938
0.1413913913913909 	299.9999999999989 	2.47778475071814e-12 	101324.9999999935
0.1438938938938934 	299.9999999999946 	2.83757230463479e-12 	101324.9999999936
0.1463963963963959 	299.9999999999688 	2.709800655797112e-12 	101324.9999999936
0.1488988988988985 	299.9999999999375 	4.021660344621264e-12 	101324.9999999934
0.1514014014014009 	299.9999999999727 	3.189184442953002e-12 	101324.9999999934
0.1539039039039035 	299.9999999999703 	4.945657691245079e-12 	101324.9999999935
0.1564064064064059 	299.9999999999561 	3.225323878160877e-12 	101324.9999999934
0.1589089089089084 	299.9999999999841 	6.357103036502898e-12 	101324.999999993
0.1614114114114109 	299.9999999999807 	3.707262230267415e-12 	101324.999999993
0.1639139139139134 	299.9999999999303 	4.996616915175004e-12 	101324.9999999929
0.166416416416416 	300.0000000000029 	3.95782024160397e-12 	101324.9999999931
0.1689189189189185 	300.0000000000164 	4.021022247947701e-12 	101324.9999999933
0.1714214214214209 	299.9999999999934 	4.516545370079109e-12 	101324.9999999931
0.1739239239239235 	299.9999999999861 	2.816404385015756e-12 	101324.9999999932
0.1764264264264259 	299.9999999999754 	4.995653874674953e-12 	101324.9999999934
0.1789289289289284 	300.0000000000017 	2.300753342234967e-12 	101324.9999999933
0.181431431431431 	299.9999999999702 	4.471795069615531e-12 	101324.9999999934
0.1839339339339334 	299.9999999999737 	2.046072221027578e-12 	101324.9999999935
0.186436436436436 	299.9999999999449 	3.660736915195813e-12 	101324.9999999936
0.1889389389389385 	299.9999999999852 	3.736309068671925e-12 	101324.9999999933
0.191441441441441 	299.9999999999831 	3.542792136704016e-12 	101324.999999993
0.1939439439439434 	299.9999999999435 	4.73704545082994e-12 	101324.999999993
0.196446446446446 	299.9999999999616 	2.892924327006409e-12 	101324.9999999929
0.1989489489489485 	299.999999999974 	4.617541204981479e-12 	101324.9999999931
0.2014514514514509 	299.999999999985 	2.836376391575282e-12 	101324.9999999933
0.2039539539539535 	299.9999999999947 	4.837054051064586e-12 	101324.9999999932
0.2064564564564559 	299.9999999999674 	3.732555423206423e-12 	101324.9999999933
0.2089589589589585 	299.9999999999866 	4.384108161299658e-12 	101324.9999999931
0.211461461461461 	299.9999999999476 	4.466248388693156e-12 	101324.999999993
0.2139639639639635 	299.9999999999848 	4.407497780878666e-12 	101324.9999999929
0.2164664664664659 	299.9999999999982 	5.175961843869499e-12 	101324.999999993
0.2189689689689684 	299.999999999998 	2.785740275382714e-12 	101324.9999999932
0.221471471471471 	299.9999999999933 	4.633114659342044e-12 	101324.9999999933
0.2239739739739735 	299.9999999999673 	2.008026538497681e-12 	101324.9999999933
0.226476476476476 	299.9999999999872 	3.58913454887782e-12 	101324.9999999934
0.2289789789789785 	299.9999999999935 	2.571932519225418e-12 	101324.9999999935
0.231481481481481 	299.9999999999903 	2.752824871030992e-12 	101324.9999999934
0.2339839839839835 	299.9999999999897 	3.412070388502911e-12 	101324.9999999934
0.236486486486486 	300.0000000000168 	2.585213476323787e-12 	101324.9999999934
0.2389889889889885 	299.9999999999986 	4.658213550119169e-12 	101324.9999999932
0.241491491491491 	299.9999999999442 	3.486177305786323e-12 	101324.9999999928
0.2439939939939935 	299.9999999999811 	7.068934801403313e-12 	101324.9999999927
0.246496496496496 	299.999999999991 	4.402824351981547e-12 	101324.9999999927
0.2489989989989985 	300.0000000000259 	5.458466782514639e-12 	101324.9999999929
0.251501501501501 	300.0000000000221 	4.174802365316747e-12 	101324.9999999927
0.2540040040040035 	299.9999999999915 	3.680026147725403e-12 	101324.9999999925
0.256506506506506 	300.0000000000171 	4.063023308179553e-12 	101324.9999999925
0.2590090090090086 	299.9999999999325 	2.131027077328731e-12 	101324.9999999925
0.261511511511511 	299.9999999999998 	4.89540008326146e-12 	101324.9999999923
0.2640140140140135 	299.9999999999941 	2.303528768302335e-12 	101324.9999999922
0.2665165165165161 	299.9999999999487 	3.884290786883711e-12 	101324.9999999924
0.2690190190190185 	300.0000000000029 	2.45346344242699e-12 	101324.9999999926
0.271521521521521 	300.0000000000015 	2.71031760121906e-12 	101324.9999999926
0.2740240240240235 	300.0000000000104 	2.637969929992192e-12 	101324.9999999926
0.276526526526526 	300.0000000000038 	1.618888801345808e-12 	101324.9999999927
0.2790290290290286 	299.9999999999562 	2.776472930775506e-12 	101324.9999999927
0.281531531531531 	299.9999999999477 	1.089397550197202e-12 	101324.9999999926
0.2840340340340335 	299.9999999999834 	3.218255011882062e-12 	101324.9999999927
0.2865365365365361 	299.9999999999683 	2.119296230682906e-12 	101324.9999999928
0.2890390390390385 	299.9999999999985 	3.189114124020899e-12 	101324.9999999927
0.291541541541541 	299.9999999999973 	2.682522683424616e-12 	101324.9999999927
0.2940440440440436 	299.9999999999918 	2.321726494543693e-12 	101324.9999999926
0.296546546546546 	299.9999999999905 	3.100082295939533e-12 	101324.9999999924
0.2990490490490486 	299.9999999999498 	1.150996280658078e-12 	101324.9999999926
0.3015515515515511 	300.0000000000245 	3.951359276859221e-12 	101324.9999999928
0.3040540540540535 	299.9999999999935 	1.605144913722693e-12 	101324.9999999931
0.3065565565565562 	299.9999999999968 	4.737710002393694e-12 	101324.9999999933
0.3090590590590585 	299.9999999999919 	1.089069781559221e-12 	101324.999999993
0.3115615615615611 	299.9999999999545 	3.131192351926714e-12 	101324.999999993
0.3140640640640635 	300.0000000000024 	4.371421980080203e-13 	101324.9999999931
0.316566566566566 	299.9999999999931 	2.605983775698358e-12 	101324.9999999932
0.3190690690690687 	299.9999999999657 	1.335826401846658e-12 	101324.9999999932
0.3215715715715711 	300.0000000000082 	3.021400378742624e-12 	101324.9999999931
0.3240740740740735 	299.9999999999962 	1.521166235347789e-12 	101324.9999999932
0.326576576576576 	299.9999999999272 	3.000188787452229e-12 	101324.999999993
0.3290790790790786 	300.000000000002 	2.6380709674508e-12 	101324.9999999929
0.3315815815815811 	300.0000000000225 	3.340215450083998e-12 	101324.9999999929
0.3340840840840836 	299.9999999999914 	2.573096203666364e-12 	101324.9999999931
0.3365865865865861 	300.0000000000397 	2.963484097054818e-12 	101324.9999999932
0.3390890890890886 	300.0000000000355 	1.777852467664402e-12 	101324.9999999933
0.3415915915915911 	300.0000000000016 	2.915964035045243e-12 	101324.9999999932
0.3440940940940935 	299.9999999999652 	1.631419780072938e-12 	101324.9999999932
0.3465965965965962 	300.0000000000251 	3.122339331572637e-12 	101324.9999999932
0.3490990990990985 	300.0000000000194 	1.2536148008849e-12 	101324.9999999931
0.3516016016016011 	299.9999999999885 	1.246415637072078e-12 	101324.9999999933
0.3541041041041035 	300.0000000000055 	7.628765761299567e-13 	101324.9999999931
0.3566066066066061 	299.9999999999677 	3.248053519398778e-13 	101324.9999999931
0.3591091091091085 	299.9999999999416 	1.137187733669098e-12 	101324.9999999932
0.3616116116116112 	299.9999999999539 	1.237978189516601e-12 	101324.9999999932
0.3641141141141137 	299.9999999999486 	2.183445381205104e-12 	101324.999999993
0.3666166166166161 	299.9999999999452 	1.589971964572538e-12 	101324.9999999927
0.3691191191191185 	300.0000000000277 	3.129878453590325e-12 	101324.9999999926
0.371621621621621 	300.0000000000121 	1.02916914694367e-12 	101324.9999999926
0.3741241241241237 	300.0000000000376 	2.355820859828621e-12 	101324.9999999927
0.3766266266266261 	300.0000000000176 	7.477732518686048e-13 	101324.9999999929
0.3791291291291286 	299.999999999986 	1.388267097664285e-12 	101324.999999993
0.3816316316316311 	299.99999999994 	9.796238108067667e-13 	101324.9999999929
0.3841341341341336 	300.0000000000039 	1.541822715822463e-12 	101324.999999993
0.3866366366366362 	299.9999999999976 	6.384296398945953e-13 	101324.9999999931
0.3891391391391387 	299.9999999999668 	1.702276191471271e-12 	101324.9999999931
0.391641641641641 	299.999999999995 	1.274585041397597e-12 	101324.9999999931
0.3941441441441436 	300.0000000000043 	1.444735593503981e-12 	101324.9999999929
0.3966466466466462 	299.9999999999987 	4.173669180469603e-13 	101324.9999999927
0.3991491491491486 	299.9999999999662 	1.242338183259303e-12 	101324.9999999926
0.4016516516516512 	299.9999999999444 	5.456416524103235e-13 	101324.9999999925
0.4041541541541536 	299.9999999999659 	1.71520063871881e-12 	101324.9999999926
0.4066566566566561 	299.9999999999656 	7.537238692249249e-13 	101324.9999999926
0.4091591591591587 	299.9999999999956 	1.531822832802136e-12 	101324.9999999928
0.4116616616616612 	300.0000000000051 	5.355840205246942e-13 	101324.9999999926
0.4141641641641635 	300.0000000000279 	3.158430512933076e-13 	101324.9999999925
0.4166666666666662 	299.9999999999963 	2.123660005963186e-13 	101324.9999999925
0.4191691691691687 	299.9999999999555 	1.265310934453829e-12 	101324.9999999926
0.421671671671671 	300.0000000000049 	1.50647126201111e-12 	101324.9999999924
0.4241741741741737 	299.9999999999813 	2.622116965079533e-12 	101324.9999999921
0.4266766766766761 	299.9999999999624 	1.899079812948159e-12 	101324.999999992
0.4291791791791785 	300.0000000000147 	3.607307032473256e-12 	101324.9999999922
0.4316816816816812 	300.0000000000048 	1.830711725684219e-12 	101324.9999999923
0.4341841841841836 	299.9999999999837 	3.757142886942193e-12 	101324.9999999924
0.4366866866866862 	299.9999999999406 	7.15185547283337e-13 	101324.9999999925
0.4391891891891885 	299.9999999999945 	2.342621951844031e-12 	101324.9999999923
0.4416916916916913 	299.9999999999879 	8.138106503102512e-13 	101324.9999999922
0.4441941941941936 	299.9999999999925 	1.795118696030709e-12 	101324.9999999922
0.4466966966966961 	299.9999999999449 	1.037825482113749e-12 	101324.9999999925
0.4491991991991987 	299.9999999999861 	1.09993353109238e-12 	101324.9999999926
0.4517017017017012 	299.9999999999858 	1.041246993019678e-12 	101324.9999999928
0.4542042042042035 	299.9999999999885 	6.240890665447685e-13 	101324.9999999927
0.4567067067067062 	299.9999999999955 	1.243165452369515e-12 	101324.9999999929
0.4592092092092087 	299.9999999999481 	7.781994050665507e-13 	101324.9999999928
0.4617117117117112 	300.0000000000116 	9.812503671127532e-13 	101324.9999999927
0.4642142142142137 	299.9999999999751 	7.509772094981005e-13 	101324.9999999928
0.4667167167167162 	299.999999999993 	1.238651735917843e-12 	101324.9999999927
0.4692192192192187 	299.9999999999681 	2.018233325603956e-12 	101324.9999999925
0.4717217217217212 	300.0000000000053 	1.968163129447964e-12 	101324.9999999924
0.4742242242242236 	299.9999999999681 	2.239511765532512e-12 	101324.9999999925
0.4767267267267262 	299.9999999999797 	1.755747688994419e-12 	101324.9999999927
0.4792292292292287 	300.0000000000132 	1.753134819658547e-12 	101324.9999999929
0.4817317317317312 	300.0000000000245 	1.623300034381165e-12 	101324.9999999931
0.4842342342342336 	299.999999999989 	1.763668412477032e-12 	101324.9999999933
0.4867367367367362 	299.9999999999669 	2.032431335984636e-12 	101324.9999999934
0.4892392392392387 	300.0000000000198 	1.204968980350085e-12 	101324.9999999934
0.4917417417417412 	300.0000000000032 	2.662154428747102e-12 	101324.9999999936
0.4942442442442437 	299.9999999999374 	1.536181333905601e-12 	101324.9999999934
0.4967467467467462 	299.9999999999513 	2.592133007480344e-12 	101324.9999999932
0.4992492492492487 	299.9999999999455 	6.722638395365664e-13 	101324.9999999931
0.5017517517517511 	299.9999999999701 	1.977872065611072e-12 	101324.9999999929
0.5042542542542537 	299.9999999999739 	1.413265514414081e-12 	101324.999999993
0.5067567567567562 	299.9999999999631 	1.84212990847042e-12 	101324.999999993
0.5092592592592589 	299.9999999999809 	1.949803177801452e-12 	101324.9999999931
0.5117617617617611 	299.9999999999731 	1.539995098915615e-12 	101324.9999999929
0.5142642642642637 	299.999999999989 	2.943440308470012e-12 	101324.999999993
0.5167667667667663 	299.9999999999798 	1.290372211886273e-12 	101324.9999999931
0.5192692692692688 	299.9999999999474 	3.688525676968064e-12 	101324.9999999933
0.5217717717717714 	299.9999999999571 	2.639205283465801e-12 	101324.9999999934
0.5242742742742736 	299.9999999999588 	3.036217833891308e-12 	101324.9999999934
0.5267767767767763 	299.9999999999706 	1.578996318690101e-12 	101324.9999999935
0.5292792792792789 	299.9999999999567 	2.698651969904611e-12 	101324.9999999934
0.5317817817817813 	299.9999999999376 	1.028495607620671e-12 	101324.9999999936
0.5342842842842837 	300.0000000000147 	2.318826102789047e-12 	101324.9999999937
0.5367867867867864 	300.0000000000033 	1.657811082617115e-12 	101324.9999999937
0.5392892892892888 	299.999999999971 	1.794900458758509e-12 	101324.9999999938
0.5417917917917912 	300.000000000003 	9.922689939631058e-13 	101324.9999999938
0.5442942942942938 	299.9999999999851 	1.270581524471686e-12 	101324.999999994
0.5467967967967964 	299.9999999999658 	5.852317534636315e-13 	101324.9999999941
0.5492992992992988 	299.999999999957 	9.491591606186996e-13 	101324.9999999939
0.5518018018018012 	299.9999999999537 	4.071101026985521e-13 	101324.9999999939
0.5543043043043039 	300.000000000015 	7.24899872537951e-13 	101324.9999999938
0.5568068068068063 	299.9999999999942 	7.932670586092629e-13 	101324.9999999939
0.5593093093093087 	299.9999999999359 	1.190976995947903e-12 	101324.9999999939
0.5618118118118114 	299.9999999999762 	1.061467258949364e-12 	101324.9999999939
0.5643143143143137 	299.9999999999612 	6.463381244933644e-13 	101324.9999999937
0.5668168168168163 	299.9999999999914 	4.024989466925828e-13 	101324.9999999935
0.5693193193193188 	300.000000000021 	9.954939051777551e-13 	101324.9999999933
0.5718218218218213 	300.0000000000177 	1.782416440621086e-12 	101324.9999999932
0.5743243243243239 	300.0000000000056 	1.673148602951991e-12 	101324.9999999933
0.5768268268268262 	300.000000000003 	3.217127770325994e-12 	101324.9999999935
0.5793293293293288 	299.9999999999639 	1.73576970132058e-12 	101324.9999999936
0.5818318318318314 	299.9999999999457 	4.046591206104501e-12 	101324.9999999937
0.5843343343343338 	299.999999999989 	1.833728067687403e-12 	101324.9999999937
0.5868368368368363 	299.9999999999838 	3.125585104631702e-12 	101324.9999999938
0.5893393393393387 	299.9999999999606 	1.081864296437562e-12 	101324.9999999939
0.5918418418418413 	299.9999999999567 	2.517960533644822e-12 	101324.9999999936
0.5943443443443439 	300.0000000000086 	1.08960705980139e-12 	101324.9999999933
0.5968468468468463 	300.0000000000102 	2.152378940129174e-12 	101324.9999999932
0.5993493493493487 	300.0000000000286 	1.312403805685099e-12 	101324.9999999931
0.6018518518518514 	299.9999999999887 	2.211381554424776e-12 	101324.9999999931
0.6043543543543537 	299.9999999999944 	1.880750589056985e-12 	101324.9999999929
0.6068568568568564 	299.9999999999849 	2.49363653714969e-12 	101324.999999993
0.6093593593593587 	299.99999999995 	2.08496721419923e-12 	101324.9999999931
0.6118618618618614 	299.9999999999489 	2.194449148485319e-12 	101324.9999999934
0.6143643643643638 	300.0000000000116 	1.916334246831644e-12 	101324.9999999936
0.6168668668668662 	299.9999999999885 	2.931063648173834e-12 	101324.9999999937
0.6193693693693688 	299.9999999999687 	2.007489295751653e-12 	101324.9999999938
0.6218718718718714 	299.9999999999755 	3.518506005688953e-12 	101324.9999999937
0.6243743743743737 	299.9999999999562 	1.680074036884429e-12 	101324.9999999937
0.6268768768768762 	299.9999999999488 	2.220025261287981e-12 	101324.9999999936
0.629379379379379 	299.9999999999623 	9.406699934080368e-13 	101324.9999999934
0.6318818818818812 	299.9999999999794 	1.549615209217225e-12 	101324.9999999936
0.6343843843843838 	300.00000000001 	1.665224857741904e-12 	101324.9999999938
0.6368868868868864 	299.9999999999869 	1.51828472425123e-12 	101324.9999999938
0.6393893893893888 	299.9999999999467 	2.900517398853595e-12 	101324.9999999938
0.6418918918918912 	300.0000000000055 	2.022062970812397e-12 	101324.9999999937
0.6443943943943939 	299.9999999999945 	4.093737509273946e-12 	101324.9999999938
0.6468968968968963 	299.9999999999887 	2.163129494817079e-12 	101324.9999999939
0.6493993993993988 	299.9999999999814 	3.803691079880527e-12 	101324.9999999938
0.6519019019019012 	299.9999999999798 	1.53642082378243e-12 	101324.9999999938
0.6544044044044038 	299.999999999931 	3.769604414821296e-12 	101324.9999999937
0.6569069069069065 	299.9999999999673 	1.082401752485219e-12 	101324.9999999937
0.6594094094094087 	299.9999999999716 	2.800429496992587e-12 	101324.9999999935
0.6619119119119113 	299.9999999999635 	1.444552769732648e-12 	101324.9999999933
0.664414414414414 	299.9999999999976 	2.609714554215682e-12 	101324.9999999936
0.6669169169169162 	300.0000000000135 	1.829613154604738e-12 	101324.9999999938
0.6694194194194188 	299.9999999999912 	2.438289226774523e-12 	101324.9999999939
0.6719219219219214 	299.9999999999477 	1.300195485728397e-12 	101324.9999999939
0.674424424424424 	299.99999999998 	1.426229969590959e-12 	101324.999999994
0.6769269269269262 	299.9999999999423 	8.424842173635216e-13 	101324.9999999942
0.679429429429429 	300.0000000000041 	1.50979673984074e-12 	101324.9999999944
0.6819319319319311 	299.9999999999861 	1.424408099907559e-12 	101324.9999999943
0.6844344344344341 	299.9999999999957 	2.394358278981265e-12 	101324.9999999942
0.686936936936936 	299.9999999999926 	1.294519456177673e-12 	101324.9999999941
0.6894394394394392 	299.9999999999899 	2.470781791942517e-12 	101324.9999999941
0.6919419419419413 	299.9999999999942 	2.455306779937757e-12 	101324.9999999942
0.694444444444444 	299.9999999999665 	2.960813057086744e-12 	101324.9999999942
0.6969469469469463 	299.9999999999528 	2.806880161389947e-12 	101324.9999999942
0.6994494494494489 	299.9999999999416 	1.977354043245452e-12 	101324.9999999942
0.7019519519519515 	299.9999999999901 	2.155590449548881e-12 	101324.9999999943
0.7044544544544538 	299.9999999999689 	1.012230402082043e-12 	101324.9999999944
0.7069569569569564 	299.9999999999957 	2.312538310113445e-12 	101324.9999999944
0.7094594594594589 	299.999999999976 	1.245703668564271e-12 	101324.9999999942
0.7119619619619615 	299.9999999999388 	1.681636341073535e-12 	101324.9999999942
0.7144644644644638 	299.9999999999644 	6.260189828536171e-13 	101324.999999994
0.7169669669669665 	299.9999999999425 	1.811813575204788e-12 	101324.9999999939
0.7194694694694688 	299.9999999999943 	1.691287338936149e-12 	101324.9999999939
0.7219719719719715 	299.9999999999909 	2.634021446809694e-12 	101324.9999999939
0.7244744744744737 	299.9999999999985 	2.334355856743249e-12 	101324.9999999939
0.7269769769769764 	299.999999999992 	2.130196336264149e-12 	101324.9999999936
0.7294794794794791 	299.9999999999889 	2.831186133781775e-12 	101324.9999999935
0.7319819819819813 	299.9999999999829 	1.418095999348322e-12 	101324.9999999934
0.7344844844844839 	299.9999999999447 	2.478390756692828e-12 	101324.9999999932
0.7369869869869864 	299.9999999999658 	1.715624945734397e-12 	101324.9999999935
0.739489489489489 	299.9999999999581 	2.281633882036406e-12 	101324.9999999937
0.7419919919919914 	299.9999999999516 	1.988388311635155e-12 	101324.9999999939
0.7444944944944939 	299.9999999999831 	1.194196002426421e-12 	101324.999999994
0.7469969969969963 	299.9999999999795 	2.523069354724457e-12 	101324.9999999942
0.7494994994994989 	299.9999999999613 	2.033928579447353e-12 	101324.9999999941
0.7520020020020015 	299.9999999999796 	2.64525167741471e-12 	101324.999999994
0.7545045045045039 	299.999999999978 	1.962546426400689e-12 	101324.9999999938
0.7570070070070062 	299.9999999999599 	1.047813828701779e-12 	101324.9999999937
0.7595095095095092 	299.9999999999499 	1.955880557011801e-12 	101324.9999999938
0.7620120120120112 	300.000000000001 	1.026636285128e-12 	101324.9999999938
0.7645145145145138 	299.9999999999908 	1.023274414341869e-12 	101324.9999999939
0.7670170170170165 	299.9999999999534 	1.497770110909899e-12 	101324.9999999938
0.7695195195195191 	299.9999999999454 	1.203040117525706e-12 	101324.9999999938
0.7720220220220213 	299.9999999999542 	2.100901411380517e-12 	101324.9999999939
0.7745245245245239 	299.9999999999579 	8.086821225462212e-13 	101324.9999999938
0.7770270270270263 	299.9999999999778 	1.244194201165219e-12 	101324.9999999939
0.779529529529529 	299.9999999999842 	2.866048228503771e-13 	101324.9999999939
0.7820320320320313 	299.99999999998 	2.794932788052871e-13 	101324.9999999939
0.784534534534534 	299.9999999999951 	6.532438088962135e-13 	101324.9999999939
0.7870370370370364 	299.9999999999912 	1.111045186376714e-12 	101324.9999999939
0.7895395395395389 	299.9999999999832 	1.45216611364762e-12 	101324.9999999938
0.7920420420420413 	299.9999999999803 	2.288970730360389e-12 	101324.9999999939
0.794544544544544 	299.9999999999851 	2.27728374310978e-12 	101324.9999999939
0.7970470470470463 	300.0000000000046 	2.367898024696178e-12 	101324.9999999938
0.799549549549549 	299.9999999999894 	2.716626619713171e-12 	101324.9999999939
0.8020520520520515 	299.9999999999947 	1.315307462312115e-12 	101324.9999999939
0.8045545545545539 	299.9999999999633 	1.306860673604036e-12 	101324.9999999939
0.8070570570570563 	299.9999999999883 	1.953201233918711e-13 	101324.9999999939
0.8095595595595589 	299.9999999999695 	2.943130960579921e-13 	101324.9999999942
0.8120620620620614 	299.9999999999513 	5.648550946329657e-13 	101324.9999999942
0.8145645645645638 	299.9999999999958 	1.150404228890613e-12 	101324.9999999944
0.8170670670670666 	299.9999999999936 	1.835745608683751e-12 	101324.9999999944
0.8195695695695689 	299.99999999998 	1.834436434948651e-12 	101324.9999999942
0.8220720720720714 	299.9999999999585 	2.390157901840403e-12 	101324.9999999941
0.8245745745745739 	300 	1.04345951195922e-12 	101324.9999999939
0.8270770770770765 	299.9999999999823 	2.207246383898245e-12 	101324.9999999937
0.8295795795795788 	299.9999999999667 	1.522251485264974e-12 	101324.9999999937
0.8320820820820815 	300.0000000000144 	2.164031610125816e-12 	101324.9999999937
0.834584584584584 	300.0000000000055 	1.831454994044341e-12 	101324.9999999938
0.8370870870870865 	299.9999999999761 	1.631771861560906e-12 	101324.9999999938
0.8395895895895891 	299.999999999944 	2.254195138504854e-12 	101324.9999999939
0.8420920920920915 	299.9999999999566 	1.754550541271305e-12 	101324.9999999941
0.844594594594594 	299.9999999999536 	2.16420067663497e-12 	101324.9999999944
0.8470970970970964 	299.9999999999606 	2.442476276266535e-12 	101324.9999999945
0.8495995995995991 	299.9999999999882 	2.760426685382752e-12 	101324.9999999946
0.8521021021021015 	299.9999999999841 	3.136517230759645e-12 	101324.9999999947
0.8546046046046039 	299.9999999999833 	2.835155055619431e-12 	101324.9999999946
0.8571071071071066 	299.9999999999951 	3.923583080105811e-12 	101324.9999999944
0.8596096096096089 	299.9999999999677 	2.951934394585565e-12 	101324.9999999942
0.8621121121121116 	299.9999999999469 	5.435556990189166e-12 	101324.9999999938
0.8646146146146139 	299.9999999999941 	4.059601643918102e-12 	101324.9999999936
0.8671171171171166 	299.9999999999817 	5.219458808854319e-12 	101324.9999999935
0.8696196196196189 	299.9999999999643 	4.782495345404982e-12 	101324.9999999935
0.8721221221221216 	299.9999999999801 	5.371908604543926e-12 	101324.9999999935
0.874624624624624 	299.9999999999982 	5.427130851091722e-12 	101324.9999999934
0.8771271271271264 	299.9999999999979 	5.129437631217586e-12 	101324.9999999935
0.879629629629629 	300.0000000000036 	5.187083857412174e-12 	101324.9999999935
0.8821321321321317 	299.9999999999886 	3.68297263656356e-12 	101324.9999999937
0.8846346346346339 	299.9999999999437 	5.578673784859991e-12 	101324.9999999939
0.8871371371371364 	299.9999999999665 	3.931649140859519e-12 	101324.9999999939
0.8896396396396391 	299.9999999999719 	5.023336764051519e-12 	101324.9999999939
0.8921421421421414 	299.9999999999739 	4.405629804853266e-12 	101324.9999999938
0.8946446446446441 	299.9999999999886 	4.979522984136584e-12 	101324.9999999939
0.8971471471471464 	300.0000000000042 	4.723146213425336e-12 	101324.9999999939
0.8996496496496489 	299.9999999999814 	4.230244491488867e-12 	101324.9999999941
0.9021521521521517 	299.9999999999728 	4.584330277171259e-12 	101324.9999999942
0.9046546546546541 	299.9999999999958 	3.327176985389155e-12 	101324.9999999941
0.9071571571571564 	299.9999999999685 	3.598291038570158e-12 	101324.9999999942
0.9096596596596589 	299.999999999965 	3.839338341742979e-12 	101324.9999999945
0.9121621621621616 	300.0000000000011 	4.231310605515453e-12 	101324.9999999947
0.9146646646646639 	299.9999999999849 	4.20061395075931e-12 	101324.9999999948
0.9171671671671666 	299.9999999999662 	4.057690552029365e-12 	101324.9999999951
0.9196696696696689 	300.0000000000033 	4.449056091220427e-12 	101324.9999999953
0.9221721721721714 	299.9999999999998 	3.7575972227134e-12 	101324.9999999953
0.9246746746746741 	299.9999999999615 	5.905134288776386e-12 	101324.999999995
0.9271771771771765 	299.9999999999643 	4.411036962408481e-12 	101324.9999999948
0.9296796796796791 	299.9999999999936 	5.505384327484951e-12 	101324.9999999946
0.9321821821821816 	299.9999999999812 	4.495506242850778e-12 	101324.9999999942
0.9346846846846838 	299.9999999999649 	5.139952272426956e-12 	101324.9999999941
0.9371871871871866 	300.0000000000043 	4.597833005226875e-12 	101324.999999994
0.9396896896896891 	300.0000000000041 	4.447008089902851e-12 	101324.999999994
0.9421921921921914 	300.0000000000035 	4.586038266729753e-12 	101324.999999994
0.9446946946946939 	299.9999999999777 	3.880392913143214e-12 	101324.9999999941
0.9471971971971965 	299.9999999999472 	5.424962119884351e-12 	101324.9999999942
0.9496996996996991 	299.9999999999688 	4.008174987465264e-12 	101324.9999999943
0.9522022022022016 	299.9999999999791 	5.08821738252594e-12 	101324.9999999943
0.9547047047047038 	299.9999999999827 	4.265200781897776e-12 	101324.9999999941
0.9572072072072064 	299.9999999999711 	4.604984951701041e-12 	101324.999999994
0.9597097097097093 	299.9999999999762 	4.324117176416218e-12 	101324.9999999941
0.9622122122122114 	299.9999999999744 	4.478963241276998e-12 	101324.999999994
0.964714714714714 	299.9999999999691 	5.428644653426139e-12 	101324.9999999941
0.9672172172172167 	299.9999999999707 	4.599842707320938e-12 	101324.9999999943
0.969719719719719 	299.9999999999902 	4.862807450504545e-12 	101324.9999999944
0.9722222222222214 	299.9999999999853 	4.457841494893909e-12 	101324.9999999946
0.9747247247247239 	299.999999999979 	4.738216249237883e-12 	101324.9999999947
0.9772272272272267 	299.9999999999996 	4.506108860736751e-12 	101324.9999999947
0.9797297297297292 	299.9999999999905 	4.075693950383305e-12 	101324.9999999946
0.9822322322322313 	299.9999999999914 	4.568686632671317e-12 	101324.9999999944
0.9847347347347344 	299.9999999999878 	3.791779000506727e-12 	101324.9999999942
0.9872372372372363 	299.9999999999632 	5.811237053348886e-12 	101324.9999999941
0.9897397397397389 	299.9999999999809 	4.357634772437431e-12 	101324.9999999941
0.9922422422422417 	299.9999999999682 	5.795826726594018e-12 	101324.9999999942
0.9947447447447441 	299.9999999999671 	5.064370078060512e-12 	101324.9999999942
0.9972472472472468 	299.9999999999708 	5.676708615333239e-12 	101324.9999999942
0.999749749749749 	299.999999999975 	4.988229444964552e-12 	101324.9999999941
1.002252252252252 	299.9999999999905 	5.069983065650009e-12 	101324.9999999941
1.004754754754754 	299.9999999999916 	5.095380750156739e-12 	101324.9999999939
1.007257257257256 	299.9999999999802 	4.420648581265227e-12 	101324.999999994
1.009759759759759 	299.9999999999716 	5.543245955271759e-12 	101324.9999999942
1.012262262262261 	299.9999999999699 	4.160598117417016e-12 	101324.9999999944
1.014764764764764 	299.9999999999501 	5.463783743926973e-12 	101324.9999999945
1.017267267267267 	299.9999999999454 	4.856063088873155e-12 	101324.9999999944
1.019769769769769 	299.9999999999806 	5.708312359000234e-12 	101324.9999999944
1.022272272272272 	299.9999999999866 	5.589552915357956e-12 	101324.9999999942
1.024774774774774 	299.9999999999853 	5.959500891718735e-12 	101324.9999999942
1.027277277277277 	299.9999999999831 	6.59974438141923e-12 	101324.9999999942
1.029779779779779 	300.0000000000014 	6.00017382616155e-12 	101324.9999999942
1.032282282282282 	300.0000000000014 	6.336912510680733e-12 	101324.9999999945
1.034784784784784 	299.9999999999962 	5.619484780051521e-12 	101324.9999999947
1.037287287287286 	299.9999999999786 	5.786606715807305e-12 	101324.9999999948
1.039789789789789 	299.9999999999805 	5.643811211282484e-12 	101324.9999999949
1.042292292292291 	299.9999999999994 	5.605161373519774e-12 	101324.9999999949
1.044794794794794 	300.0000000000115 	5.823217061403389e-12 	101324.9999999948
1.047297297297296 	300.0000000000258 	5.116392609976832e-12 	101324.9999999949
1.049799799799799 	299.9999999999903 	5.964246212783485e-12 	101324.9999999948
1.052302302302302 	299.999999999962 	4.157721625723182e-12 	101324.9999999947
1.054804804804804 	299.9999999999509 	5.243466852198458e-12 	101324.9999999945
1.057307307307306 	299.9999999999465 	4.317410362865828e-12 	101324.9999999943
1.059809809809809 	299.9999999999745 	4.929636911807777e-12 	101324.9999999943
1.062312312312312 	299.9999999999703 	4.43468988564384e-12 	101324.9999999943
1.064814814814814 	299.9999999999646 	4.78997510581117e-12 	101324.9999999943
1.067317317317317 	299.9999999999462 	4.644387324438414e-12 	101324.9999999945
1.069819819819819 	299.9999999999486 	4.466704210566191e-12 	101324.9999999947
1.072322322322321 	299.9999999999939 	5.466008052962186e-12 	101324.9999999949
1.074824824824824 	300.0000000000041 	4.197410062153707e-12 	101324.999999995
1.077327327327327 	300.000000000019 	5.404471080438034e-12 	101324.999999995
1.079829829829829 	300.0000000000271 	4.553839538466855e-12 	101324.9999999951
1.082332332332332 	299.9999999999991 	4.836516364067557e-12 	101324.9999999954
1.084834834834834 	299.9999999999853 	4.411152725930649e-12 	101324.9999999954
1.087337337337337 	299.9999999999644 	4.275720520780778e-12 	101324.9999999954
1.089839839839839 	299.9999999999538 	5.282736066431852e-12 	101324.9999999955
1.092342342342342 	299.9999999999759 	4.577157938318217e-12 	101324.9999999956
1.094844844844844 	299.999999999976 	5.54418946252443e-12 	101324.9999999956
1.097347347347347 	299.999999999957 	4.641170298530268e-12 	101324.9999999954
1.099849849849849 	299.9999999999504 	6.507769271874652e-12 	101324.9999999953
1.102352352352352 	299.9999999999693 	4.917250467300844e-12 	101324.9999999952
1.104854854854854 	299.9999999999806 	5.873803530521888e-12 	101324.9999999952
1.107357357357357 	299.9999999999682 	4.2612832031139e-12 	101324.9999999954
1.109859859859859 	299.9999999999654 	5.335313496077146e-12 	101324.9999999955
1.112362362362362 	300.0000000000106 	4.738994885847107e-12 	101324.9999999955
1.114864864864865 	300.0000000000098 	4.9095701151859e-12 	101324.9999999956
1.117367367367367 	299.9999999999748 	5.50421738619221e-12 	101324.9999999954
1.119869869869869 	299.9999999999469 	4.680699660133354e-12 	101324.9999999953
1.122372372372372 	299.999999999969 	5.602334003215945e-12 	101324.9999999952
1.124874874874874 	299.9999999999673 	4.742712580645953e-12 	101324.999999995
1.127377377377377 	299.999999999974 	5.454481772991823e-12 	101324.999999995
1.129879879879879 	300.0000000000091 	5.03391654727875e-12 	101324.9999999951
1.132382382382382 	300.0000000000218 	4.848457891226793e-12 	101324.9999999953
1.134884884884884 	300.0000000000025 	3.866843090187834e-12 	101324.9999999954
1.137387387387387 	300.0000000000041 	3.63971566597929e-12 	101324.9999999954
1.139889889889889 	299.9999999999739 	4.580320725836393e-12 	101324.9999999953
1.142392392392392 	299.9999999999703 	4.152482627319404e-12 	101324.9999999953
1.144894894894894 	300.0000000000089 	5.131225402758241e-12 	101324.9999999953
1.147397397397397 	299.9999999999966 	4.165965072613917e-12 	101324.9999999953
1.149899899899899 	299.9999999999573 	4.853088536321449e-12 	101324.9999999952
1.152402402402402 	299.9999999999495 	4.403561424550525e-12 	101324.9999999953
1.154904904904904 	299.999999999974 	5.01305411278685e-12 	101324.9999999953
1.157407407407407 	299.9999999999731 	4.71998125407315e-12 	101324.9999999954
1.159909909909909 	299.9999999999565 	4.891594946843838e-12 	101324.9999999955
1.162412412412412 	299.9999999999559 	5.964684808310289e-12 	101324.9999999956
1.164914914914914 	299.9999999999712 	5.187161330763202e-12 	101324.9999999956
1.167417417417417 	299.9999999999739 	5.989752764163865e-12 	101324.9999999956
1.169919919919919 	300.0000000000068 	5.091015448451288e-12 	101324.9999999956
1.172422422422422 	300.0000000000249 	5.610475309513021e-12 	101324.9999999954
1.174924924924925 	299.9999999999902 	4.531356816923539e-12 	101324.9999999953
1.177427427427427 	299.9999999999675 	4.889637078352988e-12 	101324.9999999953
1.179929929929929 	300.0000000000025 	5.723914034661511e-12 	101324.9999999955
1.182432432432432 	300.0000000000236 	4.494091397833777e-12 	101324.9999999955
1.184934934934934 	299.9999999999994 	4.951898222680323e-12 	101324.9999999954
1.187437437437437 	299.9999999999731 	4.494610725950185e-12 	101324.9999999954
1.189939939939939 	299.9999999999667 	5.604528378496591e-12 	101324.9999999955
1.192442442442442 	299.9999999999501 	5.385759229592923e-12 	101324.9999999955
1.194944944944944 	299.9999999999549 	6.312999819374257e-12 	101324.9999999955
1.197447447447447 	299.9999999999934 	5.967187134633766e-12 	101324.9999999956
1.199949949949949 	300.0000000000038 	6.047167063264932e-12 	101324.9999999957
1.202452452452452 	299.9999999999673 	6.72796979635331e-12 	101324.9999999958
1.204954954954955 	299.9999999999624 	5.888121313244722e-12 	101324.9999999959
1.207457457457457 	299.9999999999814 	6.420074914391811e-12 	101324.999999996
1.20995995995996 	299.9999999999797 	5.568358088289789e-12 	101324.9999999958
1.212462462462462 	299.9999999999905 	6.304316320116014e-12 	101324.9999999958
1.214964964964964 	299.9999999999932 	5.937269724803268e-12 	101324.9999999957
1.217467467467467 	299.9999999999897 	6.64001981542815e-12 	101324.9999999957
1.219969969969969 	299.9999999999773 	5.764015069229467e-12 	101324.9999999958
1.222472472472472 	300.0000000000103 	5.685770675609728e-12 	101324.9999999958
1.224974974974975 	300.0000000000308 	6.075437614932178e-12 	101324.9999999958
1.227477477477477 	299.9999999999952 	5.255607323886403e-12 	101324.9999999959
1.229979979979979 	299.9999999999803 	6.058963684827864e-12 	101324.999999996
1.232482482482482 	299.9999999999656 	5.215029002670487e-12 	101324.999999996
1.234984984984984 	299.9999999999677 	6.193428787977693e-12 	101324.999999996
1.237487487487487 	299.9999999999775 	5.294090185120967e-12 	101324.999999996
1.239989989989989 	299.9999999999778 	5.539681212015242e-12 	101324.999999996
1.242492492492492 	299.9999999999995 	5.79470950036092e-12 	101324.999999996
1.244994994994994 	299.9999999999857 	4.851355584220332e-12 	101324.9999999961
1.247497497497497 	299.9999999999884 	5.627302860076393e-12 	101324.9999999961
1.249999999999999 	300 	5.241644936127665e-12 	101324.9999999961
