-1.25 	287.5655056417544 	0.02968440626043526 	101312.5655056418
-1.247497497497497 	301.0707360570357 	0.02854726749388792 	101313.200429845
-1.244994994994995 	300.008474636682 	0.02730905547424051 	101313.8741153219
-1.242492492492492 	299.9913335266386 	0.02574817525089374 	101314.5374075061
-1.23998998998999 	299.9917069230705 	0.02392854870329605 	101315.1958482691
-1.237487487487487 	299.9922662251985 	0.0224972391346576 	101315.8578243763
-1.234984984984985 	299.9928260666422 	0.02073881553371456 	101316.5194622266
-1.232482482482482 	299.9933975372032 	0.01914871685937499 	101317.1950271728
-1.22997997997998 	299.9939770831663 	0.01745619963073309 	101317.8801251294
-1.227477477477477 	299.994544395104 	0.01581986306018721 	101318.550765523
-1.224974974974975 	299.9951053439229 	0.01417905214950087 	101319.2138946177
-1.222472472472472 	299.9956760328725 	0.01252509660248161 	101319.8885422488
-1.21996996996997 	299.9962492399516 	0.01087473887672562 	101320.566163924
-1.217467467467467 	299.9968165705601 	0.009231880571069124 	101321.2368431243
-1.214964964964965 	299.9973874623483 	0.007578426846227509 	101321.9117419704
-1.212462462462462 	299.9979660053785 	0.005901276718826499 	101322.595687794
-1.20995995995996 	299.998546487516 	0.004216426445466346 	101323.2819239536
-1.207457457457457 	299.9991259453082 	0.002541376982992464 	101323.9669523932
-1.204954954954955 	299.9997046142723 	0.0008668359477531807 	101324.6510539759
-1.202452452452452 	300.0002832442323 	0.0008643546409874581 	101325.3351104087
-1.19994994994995 	300.0008589153275 	0.002473933414511144 	101326.0156704244
-1.197447447447447 	300.001430920988 	0.004131615994654343 	101326.6919018041
-1.194944944944945 	300.002001360519 	0.00578452843680173 	101327.3662859914
-1.192442442442442 	300.0025713436737 	0.00743591068673777 	101328.0401344389
-1.18993993993994 	300.0031412617287 	0.009086984529590843 	101328.7139091847
-1.187437437437437 	300.0037111041236 	0.01073779075618197 	101329.387597478
-1.184934934934935 	300.0042806881396 	0.01238784397931516 	101330.0609835369
-1.182432432432432 	300.0048497939099 	0.01403652571009672 	101330.7338072566
-1.17992992992993 	300.0054182215436 	0.01568325648966461 	101331.4058320702
-1.177427427427427 	300.0059858015038 	0.01732753538254696 	101332.0768576572
-1.174924924924925 	300.0065523876297 	0.01896893323044991 	101332.7467118971
-1.172422422422422 	300.0071178485579 	0.02060707393259171 	101333.4152399429
-1.16991991991992 	300.0076820624803 	0.02224161027947503 	101334.0822962357
-1.167417417417417 	300.0082449137902 	0.02387220664160698 	101334.7477423837
-1.164914914914915 	300.008806290104 	0.02549853377916666 	101335.411446832
-1.162412412412412 	300.0093660804264 	0.02712026687365338 	101336.0732819121
-1.15990990990991 	300.0099241772332 	0.02873708491494259 	101336.7331216615
-1.157407407407407 	300.0104804785342 	0.03034867392869894 	101337.3908413778
-1.154904904904904 	300.0110348823096 	0.03195472945185437 	101338.0463157166
-1.152402402402403 	300.0115872810507 	0.03355495276631841 	101338.6994176447
-1.1498998998999 	300.0121375642765 	0.03514904693803375 	101339.3500214212
-1.147397397397397 	300.0126856240061 	0.03673671840075483 	101339.9980047653
-1.144894894894895 	300.0132313568033 	0.03831767420860543 	101340.6432464827
-1.142392392392392 	300.0137746629053 	0.03989161776084387 	101341.2856248149
-1.13988988988989 	300.0143154463207 	0.04145825297826414 	101341.9250202378
-1.137387387387387 	300.0148536126641 	0.04301729148755341 	101342.5613169462
-1.134884884884885 	300.0153890642922 	0.04456844784347327 	101343.1943991801
-1.132382382382382 	300.0159216989201 	0.04611143085831442 	101343.8241484573
-1.12987987987988 	300.0164514131815 	0.04764594985615413 	101344.4504461375
-1.127377377377377 	300.016978107783 	0.0491717238856435 	101345.0731773105
-1.124874874874875 	300.0175016873568 	0.05068847837664678 	101345.6922304069
-1.122372372372372 	300.0180220565904 	0.05219593633185411 	101346.3074931918
-1.11986986986987 	300.0185391183886 	0.05369381682645955 	101346.9188505905
-1.117367367367367 	300.0190527755632 	0.0551818393764698 	101347.526187096
-1.114864864864865 	300.0195629338927 	0.05665972805312115 	101348.1293905045
-1.112362362362362 	300.0200695017219 	0.05812721507728845 	101348.7283520519
-1.10985985985986 	300.0205723879841 	0.05958403716495006 	101349.3229638777
-1.107357357357357 	300.0210715012565 	0.06102992772438698 	101349.9131172598
-1.104854854854855 	300.0215667491112 	0.0624646179487483 	101350.4987025149
-1.102352352352353 	300.0220580390789 	0.06388784158077736 	101351.0796103422
-1.09984984984985 	300.0225452802327 	0.06529933654636115 	101351.6557335706
-1.097347347347347 	300.0230283846722 	0.06669884608016011 	101352.2269678664
-1.094844844844845 	300.0235072659289 	0.06808611743468188 	101352.7932100708
-1.092342342342342 	300.0239818355634 	0.069460896674246 	101353.3543562287
-1.08983983983984 	300.0244520041633 	0.07082292682705997 	101353.9103016948
-1.087337337337337 	300.0249176836511 	0.07217195127469193 	101354.4609415426
-1.084834834834835 	300.0253787867659 	0.07350771356017675 	101355.0061705452
-1.082332332332332 	300.0258352244225 	0.07482995607354843 	101355.5458836608
-1.07982982982983 	300.0262869066768 	0.07613842610177228 	101356.07997766
-1.077327327327327 	300.0267337480603 	0.07743287876876766 	101356.6083522464
-1.074824824824825 	300.0271756683878 	0.07871307174947886 	101357.1309087164
-1.072322322322323 	300.0276125879184 	0.07997876524095116 	101357.6475490937
-1.06981981981982 	300.0280444229092 	0.08122972454192863 	101358.1581771186
-1.067317317317317 	300.0284710884372 	0.08246572002081937 	101358.6626992246
-1.064814814814815 	300.0288925062682 	0.08368652697368861 	101359.1610239737
-1.062312312312312 	300.0293086050626 	0.08489192213400198 	101359.6530598217
-1.05980980980981 	300.0297193137743 	0.08608168154024287 	101360.1387151227
-1.057307307307307 	300.0301245554958 	0.08725558556276285 	101360.6179003407
-1.054804804804805 	300.0305242483079 	0.08841342230140443 	101361.0905286944
-1.052302302302302 	300.0309183136033 	0.08955498330370322 	101361.5565152118
-1.0497997997998 	300.0313066815255 	0.09068005895740489 	101362.0157745958
-1.047297297297297 	300.0316892892147 	0.09178843999897666 	101362.4682208684
-1.044794794794795 	300.0320660739315 	0.09287992113386874 	101362.9137698762
-1.042292292292292 	300.0324369664083 	0.09395430300098057 	101363.3523403677
-1.03978978978979 	300.0328018906673 	0.09501139296905767 	101363.783853767
-1.037287287287287 	300.0331607703685 	0.09605100100166389 	101364.2082326652
-1.034784784784785 	300.0335135359353 	0.09707293509239712 	101364.6253985657
-1.032282282282283 	300.0338601274993 	0.09807700425672815 	101365.0352730513
-1.02977977977978 	300.0342004909304 	0.09906302144631542 	101365.4377795586
-1.027277277277277 	300.0345345718081 	0.1000308050385135 	101365.8328439776
-1.024774774774775 	300.0348623127622 	0.1009801815138626 	101366.2203955605
-1.022272272272272 	300.0351836511335 	0.101910981322858 	101366.6003650528
-1.01976976976977 	300.0354985185663 	0.1028230348794887 	101366.9726831934
-1.017267267267267 	300.035806846883 	0.1037161747981893 	101367.3372816677
-1.014764764764765 	300.0361085735149 	0.1045902346811766 	101367.6940922011
-1.012262262262262 	300.03640364302 	0.1054450499475891 	101368.0430474523
-1.00975975975976 	300.0366920045356 	0.1062804626061602 	101368.3840830645
-1.007257257257257 	300.0369736078752 	0.1070963196746832 	101368.717136235
-1.004754754754755 	300.037248406398 	0.1078924725834295 	101369.0421462985
-1.002252252252252 	300.0375163579066 	0.1086687785629602 	101369.3590553206
-0.9997497497497498 	300.0377774171063 	0.1094250968075484 	101369.6678053774
-0.9972472472472473 	300.038031533665 	0.110161288954985 	101369.9683399007
-0.9947447447447449 	300.0382786579685 	0.1108772214123007 	101370.2606047332
-0.9922422422422421 	300.0385187458251 	0.1115727619306325 	101370.5445453811
-0.9897397397397399 	300.0387517578974 	0.112247781477581 	101370.8201090541
-0.9872372372372376 	300.0389776515885 	0.1129021566533403 	101371.0872457452
-0.9847347347347346 	300.0391963765982 	0.1135357654280147 	101371.3459051217
-0.9822322322322323 	300.0394078857669 	0.1141484903106808 	101371.5960391773
-0.9797297297297296 	300.0396121452384 	0.1147402209428017 	101371.8376033294
-0.9772272272272275 	300.0398091267759 	0.1153108475839686 	101372.0705521472
-0.9747247247247248 	300.0399987966668 	0.115860263749258 	101372.2948420373
-0.9722222222222224 	300.0401811119175 	0.1163883703635082 	101372.5104332573
-0.9697197197197196 	300.0403560258007 	0.1168950693051889 	101372.7172851271
-0.9672172172172175 	300.040523504713 	0.1173802658744172 	101372.9153585548
-0.9647147147147147 	300.0406835328698 	0.1178438738295585 	101373.1046192002
-0.9622122122122124 	300.0408360939691 	0.1182858072337626 	101373.2850316626
-0.9597097097097099 	300.040981157521 	0.1187059819000743 	101373.4565607667
-0.9572072072072073 	300.0411186824916 	0.1191043231494832 	101373.6191768376
-0.9547047047047047 	300.0412486279525 	0.1194807575777738 	101373.7728500924
-0.9522022022022023 	300.0413709668636 	0.1198352119231432 	101373.9175494581
-0.9496996996996998 	300.0414856942343 	0.1201676236466113 	101374.0532498456
-0.9471971971971973 	300.0415928099134 	0.1204779340318359 	101374.1799281848
-0.9446946946946947 	300.0416922974554 	0.1207660815882395 	101374.2975582672
-0.9421921921921923 	300.0417841260625 	0.1210320138175911 	101374.4061183314
-0.93968968968969 	300.0418682600117 	0.1212756858089491 	101374.5055914063
-0.9371871871871872 	300.0419446675559 	0.1214970481693904 	101374.5959567609
-0.9346846846846848 	300.0420133348854 	0.1216960552448009 	101374.6771944788
-0.9321821821821823 	300.0420742695645 	0.1218726742984612 	101374.7492924278
-0.9296796796796799 	300.0421274824853 	0.1220268741441882 	101374.8122384915
-0.9271771771771771 	300.0421729715876 	0.1221586208958649 	101374.8660172147
-0.9246746746746748 	300.0422107240267 	0.1222678918300168 	101374.9106194005
-0.9221721721721724 	300.0422407196044 	0.1223546746101156 	101374.9460416166
-0.9196696696696698 	300.0422629311991 	0.1224189501423417 	101374.9722755112
-0.9171671671671672 	300.0422773375442 	0.12246069733451 	101374.9893109363
-0.9146646646646649 	300.0422839372467 	0.1224799124845823 	101374.9971472686
-0.9121621621621623 	300.0422827428017 	0.1224765976182574 	101374.9957872203
-0.9096596596596597 	300.0422737636799 	0.1224507407717375 	101374.9852238402
-0.9071571571571573 	300.042257014969 	0.1224023387166598 	101374.9654540709
-0.9046546546546547 	300.0422325202934 	0.1223314173577739 	101374.9364910818
-0.9021521521521524 	300.0422002926945 	0.1222379985973461 	101374.8983462183
-0.8996496496496498 	300.0421603235126 	0.1221220778536594 	101374.8510138927
-0.8971471471471473 	300.0421126065262 	0.1219836681247216 	101374.7944966856
-0.894644644644645 	300.0420571553537 	0.1218228226629292 	101374.728821909
-0.892142142142142 	300.0419939744094 	0.1216395723184613 	101374.6540045436
-0.8896396396396397 	300.0419230472231 	0.121433906721385 	101374.5700324499
-0.8871371371371374 	300.0418443820253 	0.1212058653346411 	101374.4769200361
-0.8846346346346349 	300.0417580205894 	0.120955547604738 	101374.3747187105
-0.8821321321321324 	300.0416639750047 	0.1206829870605633 	101374.2634429584
-0.8796296296296297 	300.0415622247401 	0.1203881570978813 	101374.1430675596
-0.8771271271271271 	300.0414527992666 	0.1200711373153161 	101374.0136257448
-0.8746246246246248 	300.0413357706053 	0.1197320852593828 	101373.875200718
-0.8721221221221224 	300.0412111448929 	0.1193710206153818 	101373.7277979535
-0.8696196196196196 	300.0410788810032 	0.1189878796699858 	101373.5713672539
-0.8671171171171175 	300.0409390289129 	0.1185827924518018 	101373.4059664299
-0.8646146146146148 	300.0407916988722 	0.1181560008946761 	101373.2317249176
-0.8621121121121121 	300.0406368854535 	0.1177075023147925 	101373.0486353641
-0.8596096096096097 	300.040474508075 	0.1172371568991182 	101372.8566020317
-0.857107107107107 	300.0403046353668 	0.1167451469615829 	101372.6557059789
-0.8546046046046049 	300.0401274411497 	0.116231854718917 	101372.4461523253
-0.8521021021021022 	300.0399429187509 	0.115697271230701 	101372.2279329503
-0.8495995995995997 	300.0397509153249 	0.1151411051437571 	101372.0008671726
-0.8470970970970974 	300.0395514927671 	0.1145635398980014 	101371.7650283042
-0.8445945945945946 	300.0393449286391 	0.1139651920864053 	101371.5207444595
-0.8420920920920922 	300.0391312674276 	0.1133461546359736 	101371.2680680413
-0.8395895895895897 	300.0389102446128 	0.1127058847333399 	101371.0066864149
-0.8370870870870872 	300.0386818269611 	0.1120443767723774 	101370.7365605214
-0.8345845845845846 	300.0384464201352 	0.1113625543922145 	101370.4581701813
-0.8320820820820823 	300.0382042541102 	0.1106609081645476 	101370.1717871383
-0.8295795795795798 	300.0379549705703 	0.1099386568516044 	101369.8769874273
-0.8270770770770772 	300.0376982578537 	0.1091951890452574 	101369.5734029045
-0.8245745745745746 	300.0374345471055 	0.10843153721386 	101369.2615438983
-0.8220720720720721 	300.0371644678555 	0.1076490971206346 	101368.9421545404
-0.8195695695695699 	300.0368878121899 	0.1068473677570488 	101368.6149884686
-0.817067067067067 	300.0366038053799 	0.106024659343965 	101368.2791298443
-0.8145645645645651 	300.0363124643843 	0.1051811333210082 	101367.9345994539
-0.8120620620620621 	300.0360148465321 	0.104319239512518 	101367.5826477647
-0.8095595595595597 	300.0357115295855 	0.1034402296045327 	101367.2239573033
-0.8070570570570572 	300.0354015976262 	0.102541970974708 	101366.8574445053
-0.8045545545545546 	300.0350839529004 	0.1016220530005378 	101366.4818118687
-0.8020520520520523 	300.0347592042466 	0.1006820412943052 	101366.0977805431
-0.7995495495495494 	300.0344291376418 	0.09972609134037719 	101365.7074624103
-0.7970470470470474 	300.0340941823465 	0.09875507854562413 	101365.3113636867
-0.7945445445445446 	300.0337525366648 	0.09776474882581863 	101364.9073532004
-0.7920420420420423 	300.0334026051957 	0.09675152447918076 	101364.4935457351
-0.7895395395395397 	300.0330455782598 	0.09571842173567852 	101364.0713506505
-0.7870370370370371 	300.0326842991136 	0.094672175090801 	101363.6441298042
-0.7845345345345348 	300.032319494378 	0.09361432675525315 	101363.2127401652
-0.7820320320320323 	300.0319484144915 	0.09253822237948327 	101362.773929207
-0.7795295295295296 	300.0315681765428 	0.09143713835281159 	101362.3242897833
-0.7770270270270272 	300.0311798403706 	0.09031391335394186 	101361.8650779191
-0.7745245245245247 	300.0307877558478 	0.0891791232637196 	101361.4014376073
-0.7720220220220222 	300.0303944168089 	0.08803860111965024 	101360.936314825
-0.7695195195195199 	300.0299969879782 	0.0868852344134752 	101360.4663541721
-0.767017017017017 	300.0295901692366 	0.08570616485440816 	101359.9852892846
-0.7645145145145147 	300.0291725452922 	0.08449826843070432 	101359.4914508778
-0.7620120120120122 	300.0287489983869 	0.08327380938811137 	101358.9906148687
-0.7595095095095097 	300.0283258489417 	0.08204830033139995 	101358.4902529302
-0.7570070070070072 	300.027903723361 	0.08082298078863615 	101357.991100621
-0.7545045045045048 	300.0274761632733 	0.07958162402310616 	101357.4855186837
-0.7520020020020022 	300.0270360547096 	0.07830667683932926 	101356.9650984371
-0.7494994994994997 	300.0265834482963 	0.07699866383903164 	101356.4299055779
-0.7469969969969972 	300.0261264406354 	0.07567814953760715 	101355.8895168279
-0.7444944944944945 	300.0256736691905 	0.07436677028269593 	101355.3541421179
-0.7419919919919924 	300.02522560284 	0.07306537930888195 	101354.8243290121
-0.7394894894894897 	300.024773322872 	0.07175115310419634 	101354.2895281862
-0.7369869869869872 	300.0243063951413 	0.07039768512305961 	101353.7374052688
-0.7344844844844846 	300.0238227570596 	0.06900009450658512 	101353.1655292321
-0.7319819819819822 	300.0233314631368 	0.0675818626217593 	101352.5846115093
-0.7294794794794797 	300.0228454638014 	0.06617624750875828 	101352.0099630917
-0.7269769769769773 	300.0223705208562 	0.06479784131420192 	101351.44838883
-0.7244744744744747 	300.0218998002946 	0.06342870464616038 	101350.8918008614
-0.721971971971972 	300.0214188158167 	0.06203121452754817 	101350.3230699493
-0.7194694694694695 	300.0209168307014 	0.0605776695599542 	101349.7295077691
-0.7169669669669674 	300.0203957104283 	0.05907327028422288 	101349.1133295971
-0.7144644644644647 	300.019869280334 	0.05755438088079182 	101348.490886981
-0.711961961961962 	300.0193535901286 	0.05606308480770882 	101347.8811534284
-0.7094594594594597 	300.0188553328378 	0.05461682540524855 	101347.2920333311
-0.7069569569569573 	300.0183667780722 	0.05319500394337097 	101346.7143777055
-0.7044544544544545 	300.0178705941078 	0.05175164387254167 	101346.1276918712
-0.7019519519519523 	300.0173510967261 	0.05024520155809978 	101345.513437339
-0.6994494494494495 	300.0168045123144 	0.0486658593007268 	101344.8671627418
-0.6969469469469471 	300.016241806496 	0.04704307702963841 	101344.201841646
-0.6944444444444446 	300.0156824784747 	0.04542910761960207 	101343.5405304672
-0.6919419419419421 	300.0151433188413 	0.04386900261811968 	101342.9030750636
-0.6894394394394396 	300.0146289053023 	0.04237504082368548 	101342.2948776397
-0.6869369369369374 	300.0141290339713 	0.04091959597792313 	101341.7038648017
-0.6844344344344344 	300.0136239590213 	0.0394491153953857 	101341.1066878202
-0.6819319319319321 	300.0130942354371 	0.03791079197267834 	101340.4803609838
-0.6794294294294296 	300.0125301439755 	0.03627826759775347 	101339.8134024668
-0.6769269269269272 	300.0119363720984 	0.03456446002270486 	101339.1113645618
-0.6744244244244245 	300.0113300845313 	0.03281638447718668 	101338.394547413
-0.6719219219219222 	300.0107336044541 	0.03109529083409485 	101337.6893437318
-0.6694194194194195 	300.0101652758598 	0.02945170748758958 	101337.0174351842
-0.6669169169169172 	300.0096324744055 	0.02790607683766526 	101336.3875325123
-0.6644144144144146 	300.009129161646 	0.02644177164593498 	101335.7924874777
-0.661911911911912 	300.0086382763496 	0.02501142679743882 	101335.2121229894
-0.6594094094094097 	300.008137420077 	0.02355256663812262 	101334.6199569716
-0.656906906906907 	300.007605543964 	0.02200630073289296 	101333.9911077315
-0.6544044044044046 	300.0070286706493 	0.02033346397593804 	101333.309057326
-0.6519019019019021 	300.0064033709914 	0.01852447862752389 	101332.569760279
-0.6493993993993996 	300.0057374592669 	0.0166013713757594 	101331.7824631163
-0.6468968968968971 	300.0050480611187 	0.01461238994724417 	101330.9674183406
-0.6443943943943946 	300.0043577853061 	0.0126213147307296 	101330.1513572095
-0.6418918918918921 	300.0036901374798 	0.0106947709576002 	101329.3620675425
-0.6393893893893897 	300.003065604947 	0.008891338593052816 	101328.623766323
-0.6368868868868871 	300.0024994238224 	0.007254956167082187 	101327.9544611345
-0.6343843843843846 	300.0020008689472 	0.005812629519311207 	101327.3651116532
-0.6318818818818821 	300.0015735649988 	0.004575180520246798 	101326.8599985162
-0.6293793793793795 	300.001216415919 	0.003539824843044543 	101326.4378220631
-0.6268768768768773 	300.000924817885 	0.002693617520627424 	101326.0931371543
-0.6243743743743745 	300.0006918710691 	0.002017011874105902 	101325.8178265079
-0.6218718718718721 	300.0005096142315 	0.001487058280723364 	101325.6024165892
-0.6193693693693696 	300.0003698124822 	0.001079982682642496 	101325.4371230389
-0.6168668668668671 	300.0002644775274 	0.0007730121775722601 	101325.3126014557
-0.6143643643643645 	300.0001864912535 	0.0005455476460480185 	101325.2204231099
-0.6118618618618621 	300.0001297163544 	0.0003797892978328829 	101325.1533169031
-0.6093593593593596 	300.0000890372461 	0.0002609099614151421 	101325.1052358391
-0.6068568568568571 	300.000060332452 	0.000176945221893246 	101325.0713082453
-0.6043543543543546 	300.0000403727562 	0.0001185067087201436 	101325.0477171436
-0.6018518518518521 	300.0000266892141 	7.840669238792372e-05 	101325.0315441453
-0.5993493493493496 	300.0000174354847 	5.126386040499768e-05 	101325.020606998
-0.5968468468468471 	300.0000112594134 	3.313212428310397e-05 	101325.01330742
-0.5943443443443446 	300.0000071896018 	2.117337089940002e-05 	101325.0084972573
-0.591841841841842 	300.0000045405699 	1.338286613407764e-05 	101325.0053664248
-0.5893393393393397 	300.0000028369157 	8.368289533482571e-06 	101325.003352914
-0.5868368368368371 	300.000001753999 	5.177937159450711e-06 	101325.0020729806
-0.5843343343343346 	300.0000010733647 	3.171096674308037e-06 	101325.0012685359
-0.5818318318318321 	300.0000006502884 	1.922595738188375e-06 	101325.0007684915
-0.5793293293293297 	300.0000003900586 	1.154210069220848e-06 	101325.0004609925
-0.5768268268268271 	300.0000002317441 	6.862507917392036e-07 	101325.0002738751
-0.5743243243243245 	300.0000001364074 	4.041741802271091e-07 	101325.0001611742
-0.5718218218218221 	300.000000079538 	2.358389164208202e-07 	101325.000093972
-0.5693193193193196 	300.0000000459918 	1.363657130873734e-07 	101325.0000542916
-0.5668168168168171 	300.0000000262917 	7.814618442630284e-08 	101325.0000310856
-0.5643143143143147 	300.0000000148765 	4.439025287249577e-08 	101325.0000176414
-0.5618118118118121 	300.0000000084166 	2.500085578998095e-08 	101325.0000099243
-0.5593093093093094 	300.0000000047258 	1.396154878894197e-08 	101325.0000055343
-0.5568068068068072 	300.0000000026172 	7.734276294552268e-09 	101325.000003059
-0.5543043043043046 	300.0000000014431 	4.249429451430434e-09 	101325.0000016753
-0.551801801801802 	300.0000000007246 	2.317983639373104e-09 	101325.0000009085
-0.5492992992992995 	300.0000000004114 	1.253462967302358e-09 	101325.0000004868
-0.5467967967967969 	300.0000000002358 	6.750146721569577e-10 	101325.0000002571
-0.5442942942942947 	300.0000000001244 	3.599877558889973e-10 	101325.0000001329
-0.5417917917917919 	300.0000000000181 	1.928591684338339e-10 	101325.0000000662
-0.5392892892892895 	299.9999999999582 	1.008589344946189e-10 	101325.0000000307
-0.536786786786787 	299.9999999999725 	5.578160561746978e-11 	101325.0000000124
-0.5342842842842846 	299.9999999999691 	2.827209063905637e-11 	101325.0000000028
-0.531781781781782 	299.9999999999465 	1.809284877560195e-11 	101324.9999999978
-0.5292792792792794 	299.9999999999384 	6.928079930419399e-12 	101324.9999999949
-0.526776776776777 	299.9999999999084 	7.562457054560603e-12 	101324.9999999935
-0.5242742742742745 	299.9999999999739 	3.913869556013044e-12 	101324.9999999928
-0.521771771771772 	300.0000000000127 	6.03915511599198e-12 	101324.9999999923
-0.5192692692692695 	299.9999999999602 	5.000354216130848e-12 	101324.9999999918
-0.516766766766767 	300.0000000000038 	6.172442027305587e-12 	101324.9999999915
-0.5142642642642645 	299.9999999999728 	4.412063349614542e-12 	101324.9999999913
-0.511761761761762 	299.9999999999512 	5.331850498439764e-12 	101324.9999999912
-0.5092592592592596 	299.9999999999706 	3.297589443917697e-12 	101324.9999999912
-0.506756756756757 	299.9999999999347 	5.513002986066522e-12 	101324.9999999913
-0.5042542542542544 	299.9999999999939 	1.696838599954963e-12 	101324.9999999915
-0.5017517517517521 	300.0000000000263 	6.160502500315227e-12 	101324.9999999918
-0.4992492492492494 	300.0000000000295 	3.030058792637985e-12 	101324.999999992
-0.496746746746747 	299.9999999999877 	5.564566432038722e-12 	101324.999999992
-0.4942442442442445 	299.9999999999457 	2.707714528788892e-12 	101324.9999999922
-0.4917417417417421 	299.9999999999405 	5.206947210348474e-12 	101324.9999999922
-0.4892392392392395 	299.9999999999608 	2.62536430612717e-12 	101324.9999999921
-0.486736736736737 	299.99999999996 	5.33761927837196e-12 	101324.9999999923
-0.4842342342342345 	299.9999999999222 	2.815103290184346e-12 	101324.9999999925
-0.481731731731732 	300.0000000000344 	6.385764506265251e-12 	101324.9999999923
-0.4792292292292296 	300.0000000000205 	3.699801276682357e-12 	101324.9999999919
-0.4767267267267268 	299.9999999999538 	7.785566482827375e-12 	101324.9999999921
-0.4742242242242246 	299.9999999999963 	2.725069934312575e-12 	101324.9999999924
-0.471721721721722 	299.9999999999543 	6.195956895875085e-12 	101324.9999999923
-0.4692192192192195 	299.9999999999681 	2.437368675139359e-12 	101324.999999992
-0.4667167167167169 	299.999999999905 	4.758871112255813e-12 	101324.9999999917
-0.4642142142142145 	299.9999999999923 	1.639044128679959e-12 	101324.9999999915
-0.461711711711712 	300.000000000014 	3.915715860925006e-12 	101324.9999999913
-0.4592092092092094 	300.0000000000108 	1.647932948659584e-12 	101324.9999999913
-0.456706706706707 	300.0000000000458 	4.085064998061887e-12 	101324.9999999909
-0.4542042042042045 	299.9999999999396 	3.080456411407349e-12 	101324.9999999909
-0.451701701701702 	299.9999999999493 	4.941603285370824e-12 	101324.9999999911
-0.4491991991991995 	299.9999999999552 	3.029277648101062e-12 	101324.9999999912
-0.4466966966966969 	299.9999999999507 	4.811963942367102e-12 	101324.9999999916
-0.4441941941941945 	299.9999999999906 	2.019064281558422e-12 	101324.9999999919
-0.441691691691692 	299.9999999999558 	4.880813080050493e-12 	101324.9999999919
-0.4391891891891895 	299.9999999999874 	1.10244109375736e-12 	101324.9999999918
-0.436686686686687 	299.9999999999691 	5.41958522124324e-12 	101324.9999999917
-0.4341841841841846 	299.9999999999953 	1.939237791454418e-12 	101324.9999999915
-0.431681681681682 	299.9999999999459 	4.848724982026344e-12 	101324.9999999915
-0.4291791791791794 	299.9999999999142 	1.263916277871328e-12 	101324.9999999915
-0.426676676676677 	299.9999999999185 	3.53188014763104e-12 	101324.9999999914
-0.4241741741741744 	299.9999999999712 	9.889989362842189e-13 	101324.9999999913
-0.421671671671672 	300.000000000007 	3.13355305539187e-12 	101324.9999999915
-0.4191691691691694 	300.0000000000489 	9.465878713323412e-13 	101324.9999999914
-0.4166666666666669 	300.0000000000564 	3.472573442770261e-12 	101324.9999999915
-0.4141641641641645 	299.9999999999373 	1.950480316350608e-12 	101324.9999999915
-0.411661661661662 	300.0000000000053 	3.328555217921171e-12 	101324.9999999915
-0.4091591591591594 	300.0000000000057 	2.758386242790838e-12 	101324.9999999915
-0.406656656656657 	299.9999999999444 	3.839025909532742e-12 	101324.9999999915
-0.4041541541541545 	300.000000000019 	1.282789443309924e-12 	101324.9999999914
-0.401651651651652 	299.9999999999229 	3.765401588663615e-12 	101324.9999999915
-0.3991491491491494 	299.999999999998 	1.275460978065875e-12 	101324.9999999916
-0.396646646646647 	299.9999999999573 	3.756054709551195e-12 	101324.9999999915
-0.3941441441441444 	299.9999999999703 	2.844148073369256e-12 	101324.9999999912
-0.3916416416416419 	299.9999999999322 	3.065413328133453e-12 	101324.9999999911
-0.3891391391391395 	299.9999999999667 	2.28284560878289e-12 	101324.9999999912
-0.3866366366366368 	299.9999999999581 	1.747137726713952e-12 	101324.9999999914
-0.3841341341341344 	299.999999999999 	9.930444111336195e-13 	101324.9999999916
-0.381631631631632 	299.9999999999543 	9.240888062732342e-13 	101324.9999999918
-0.3791291291291294 	300.0000000000045 	3.60559085255386e-13 	101324.9999999918
-0.3766266266266269 	300.0000000000214 	4.165247883075203e-13 	101324.9999999919
-0.3741241241241244 	300.0000000000229 	2.272486391016222e-12 	101324.9999999919
-0.371621621621622 	300.0000000000147 	1.126438050816722e-12 	101324.9999999917
-0.3691191191191194 	300.000000000005 	4.331370135630612e-12 	101324.9999999916
-0.366616616616617 	300.0000000000063 	1.084666988652016e-12 	101324.9999999915
-0.3641141141141143 	299.9999999999633 	3.902388753266893e-12 	101324.9999999916
-0.3616116116116119 	299.9999999999504 	1.624305801251679e-12 	101324.9999999914
-0.3591091091091095 	299.9999999999869 	3.290554751467318e-12 	101324.9999999911
-0.356606606606607 	299.9999999999721 	3.037448973582472e-12 	101324.9999999911
-0.3541041041041044 	299.999999999992 	3.207078526305254e-12 	101324.9999999911
-0.3516016016016019 	300.0000000000061 	4.073401101487286e-12 	101324.9999999912
-0.3490990990990994 	299.9999999999916 	3.038687930293151e-12 	101324.9999999912
-0.346596596596597 	300.0000000000419 	5.146571207150519e-12 	101324.9999999909
-0.3440940940940944 	300.0000000000502 	3.158931010553698e-12 	101324.9999999907
-0.3415915915915919 	300.0000000000145 	5.901264593402762e-12 	101324.9999999908
-0.3390890890890895 	299.9999999999771 	4.286052103046563e-12 	101324.9999999909
-0.3365865865865869 	300.0000000000128 	5.638907206536835e-12 	101324.9999999906
-0.3340840840840844 	300.0000000000034 	5.012057364478332e-12 	101324.9999999907
-0.3315815815815819 	300.0000000000204 	6.134140551096688e-12 	101324.9999999904
-0.3290790790790794 	300.0000000000207 	5.41500048479914e-12 	101324.9999999907
-0.3265765765765769 	299.999999999934 	6.362349233077339e-12 	101324.9999999912
-0.3240740740740744 	299.9999999999946 	4.94186098958565e-12 	101324.9999999915
-0.3215715715715718 	300.0000000000064 	7.074671486430464e-12 	101324.9999999914
-0.3190690690690695 	299.9999999999415 	4.393388767042725e-12 	101324.9999999915
-0.3165665665665668 	299.9999999999887 	6.052952206670007e-12 	101324.9999999916
-0.3140640640640644 	300.0000000000049 	3.307264769550699e-12 	101324.9999999918
-0.311561561561562 	299.9999999999319 	6.05253551672535e-12 	101324.9999999917
-0.3090590590590593 	299.9999999999894 	1.083752128371078e-12 	101324.9999999917
-0.3065565565565568 	300.0000000000015 	6.532260784505108e-12 	101324.9999999917
-0.3040540540540545 	299.999999999998 	1.434181040246274e-12 	101324.999999992
-0.3015515515515518 	300.0000000000306 	7.137438829330633e-12 	101324.999999992
-0.2990490490490494 	299.9999999999527 	3.298107822421825e-12 	101324.9999999918
-0.2965465465465469 	299.9999999999922 	5.396157791201093e-12 	101324.9999999918
-0.2940440440440444 	300.0000000000031 	3.205386193567845e-12 	101324.9999999916
-0.2915415415415418 	300.0000000000072 	3.505883474193566e-12 	101324.9999999915
-0.2890390390390395 	300.0000000000047 	3.867934750806658e-12 	101324.9999999916
-0.2865365365365368 	299.9999999999851 	3.110209238976768e-12 	101324.9999999914
-0.2840340340340343 	299.9999999999874 	4.796298903677215e-12 	101324.9999999914
-0.2815315315315318 	299.9999999999333 	2.706547442316551e-12 	101324.9999999913
-0.2790290290290295 	299.9999999999538 	4.201295815179543e-12 	101324.9999999916
-0.2765265265265269 	300.0000000000059 	2.635134994493854e-12 	101324.9999999914
-0.2740240240240244 	300.0000000000282 	3.38681167319171e-12 	101324.9999999913
-0.2715215215215219 	300.0000000000117 	3.35195886575154e-12 	101324.9999999915
-0.2690190190190194 	299.9999999999428 	3.088081665529404e-12 	101324.9999999915
-0.2665165165165169 	299.9999999999978 	4.210512560734497e-12 	101324.9999999914
-0.2640140140140144 	299.9999999999665 	3.206538438179867e-12 	101324.9999999914
-0.2615115115115119 	300.000000000001 	5.437940829534283e-12 	101324.9999999914
-0.2590090090090094 	299.9999999999324 	3.247617626105883e-12 	101324.9999999917
-0.2565065065065068 	299.9999999999913 	3.629979728452072e-12 	101324.9999999917
-0.2540040040040044 	299.9999999999945 	3.354539628561728e-12 	101324.9999999917
-0.2515015015015019 	300.0000000000372 	2.960813916157163e-12 	101324.9999999913
-0.2489989989989994 	300.0000000000437 	4.859990683960147e-12 	101324.9999999915
-0.2464964964964968 	299.9999999999914 	2.163880943590636e-12 	101324.9999999915
-0.2439939939939944 	299.9999999999983 	5.519679696116183e-12 	101324.9999999914
-0.2414914914914919 	299.9999999999739 	1.545649137740757e-12 	101324.9999999913
-0.2389889889889893 	300.0000000000045 	5.376017107197045e-12 	101324.9999999916
-0.2364864864864869 	300.0000000000243 	1.351020314834684e-12 	101324.9999999915
-0.2339839839839843 	299.9999999999322 	5.097941608498846e-12 	101324.9999999916
-0.2314814814814819 	299.9999999999886 	1.213793639355631e-12 	101324.9999999916
-0.2289789789789792 	299.9999999999221 	5.002265997307596e-12 	101324.9999999918
-0.2264764764764769 	299.999999999953 	2.698182064219118e-12 	101324.9999999919
-0.2239739739739743 	299.9999999999608 	3.992061187381271e-12 	101324.9999999919
-0.2214714714714718 	299.9999999999387 	2.756847942132083e-12 	101324.999999992
-0.2189689689689693 	299.9999999999711 	1.888273232219331e-12 	101324.9999999921
-0.2164664664664669 	299.9999999999804 	3.566445628196292e-12 	101324.9999999922
-0.2139639639639643 	299.9999999999333 	1.824362363710143e-12 	101324.9999999925
-0.2114614614614618 	299.9999999999793 	2.678081627425208e-12 	101324.9999999921
-0.2089589589589593 	299.9999999999899 	2.352465102325924e-12 	101324.9999999919
-0.2064564564564568 	299.9999999999873 	2.592951280870601e-12 	101324.999999992
-0.2039539539539543 	299.999999999919 	3.750830159615804e-12 	101324.9999999918
-0.2014514514514518 	299.9999999999497 	1.881435656554591e-12 	101324.9999999922
-0.1989489489489494 	299.9999999999712 	4.800703043102363e-12 	101324.9999999922
-0.1964464464464468 	299.9999999999873 	1.929874176225362e-12 	101324.9999999923
-0.1939439439439443 	299.9999999999878 	5.32198574623087e-12 	101324.9999999921
-0.1914414414414418 	299.9999999999195 	3.176201842967599e-12 	101324.9999999922
-0.1889389389389393 	300.0000000000069 	4.021283456328327e-12 	101324.999999992
-0.1864364364364368 	300.0000000000418 	2.734727505551364e-12 	101324.999999992
-0.1839339339339343 	299.9999999999719 	3.607782044925379e-12 	101324.9999999922
-0.1814314314314318 	299.9999999999974 	2.368759188080956e-12 	101324.9999999921
-0.1789289289289293 	299.9999999999084 	3.516497832781316e-12 	101324.9999999922
-0.1764264264264268 	299.9999999999774 	1.580227956883826e-12 	101324.9999999923
-0.1739239239239243 	299.9999999999089 	4.456097118487075e-12 	101324.9999999919
-0.1714214214214218 	299.9999999999859 	8.217648924633434e-13 	101324.9999999918
-0.1689189189189193 	299.9999999999547 	5.262246024324621e-12 	101324.9999999917
-0.1664164164164168 	300.0000000000024 	1.429105327797421e-12 	101324.9999999917
-0.1639139139139143 	299.9999999999894 	6.281872494814763e-12 	101324.9999999924
-0.1614114114114118 	300.0000000000293 	2.545587180824481e-12 	101324.9999999926
-0.1589089089089093 	299.9999999999984 	8.249488483597539e-12 	101324.9999999925
-0.1564064064064068 	299.9999999999836 	3.507914207348521e-12 	101324.9999999927
-0.1539039039039043 	299.9999999999907 	8.675572428973874e-12 	101324.9999999927
-0.1514014014014018 	300.0000000000274 	2.97824523545487e-12 	101324.9999999925
-0.1488988988988993 	299.9999999999848 	7.337775110929755e-12 	101324.9999999925
-0.1463963963963968 	300.0000000000024 	2.823623109135919e-12 	101324.9999999923
-0.1438938938938943 	299.9999999999577 	6.01655089138274e-12 	101324.999999992
-0.1413913913913918 	299.9999999999249 	1.185227236561664e-12 	101324.999999992
-0.1388888888888893 	299.9999999999802 	4.87856711100799e-12 	101324.9999999918
-0.1363863863863868 	299.9999999999031 	1.244658304488553e-12 	101324.9999999918
-0.1338838838838843 	299.999999999918 	4.341478407668527e-12 	101324.9999999915
-0.1313813813813818 	299.9999999999907 	1.624029378486919e-12 	101324.9999999913
-0.1288788788788793 	299.9999999999603 	4.505414431438103e-12 	101324.9999999915
-0.1263763763763768 	299.9999999999656 	1.768619074687651e-12 	101324.9999999912
-0.1238738738738743 	299.9999999999233 	4.623064519959353e-12 	101324.9999999913
-0.1213713713713717 	299.9999999999716 	4.455609064184059e-13 	101324.9999999914
-0.1188688688688693 	300.0000000000063 	3.591755832267254e-12 	101324.9999999913
-0.1163663663663668 	299.9999999999088 	1.602380739412681e-12 	101324.9999999915
-0.1138638638638643 	299.9999999999902 	3.32026583174629e-12 	101324.9999999916
-0.1113613613613618 	299.999999999986 	2.619482413951214e-12 	101324.9999999918
-0.1088588588588592 	299.999999999975 	4.068853296860309e-12 	101324.9999999922
-0.1063563563563568 	299.9999999999514 	1.898183550462635e-12 	101324.9999999922
-0.1038538538538543 	299.9999999999756 	3.188954008331601e-12 	101324.9999999919
-0.1013513513513517 	300.0000000000131 	5.110370568591102e-13 	101324.9999999918
-0.09884884884884926 	299.9999999999466 	3.179380218792234e-12 	101324.9999999917
-0.09634634634634676 	299.9999999999015 	9.98447897461072e-13 	101324.9999999918
-0.09384384384384425 	299.9999999999323 	4.364381196269314e-12 	101324.999999992
-0.09134134134134177 	300.0000000000245 	3.183024045178375e-12 	101324.999999992
-0.08883883883883925 	300.0000000000068 	4.521391951855548e-12 	101324.9999999918
-0.08633633633633674 	299.9999999999552 	3.3239214336313e-12 	101324.9999999918
-0.08383383383383426 	300.0000000000082 	3.037433009057016e-12 	101324.9999999915
-0.08133133133133173 	299.9999999999652 	3.075957963626856e-12 	101324.9999999916
-0.07882882882882926 	299.9999999998865 	2.544668296560555e-12 	101324.9999999915
-0.07632632632632676 	299.9999999999623 	2.21889857625113e-12 	101324.9999999917
-0.07382382382382424 	299.9999999999025 	1.303316683265115e-12 	101324.9999999914
-0.07132132132132173 	300.00000000001 	6.997765487618096e-13 	101324.9999999916
-0.06881881881881925 	299.9999999999533 	1.584918312832366e-12 	101324.999999992
-0.06631631631631671 	299.999999999898 	1.296156742529768e-12 	101324.9999999921
-0.06381381381381425 	299.9999999999592 	1.271939123545481e-12 	101324.999999992
-0.06131131131131173 	299.9999999999619 	1.628536914022076e-12 	101324.9999999919
-0.05880880880880923 	299.9999999999199 	1.10130205919776e-12 	101324.9999999922
-0.05630630630630672 	299.9999999999707 	1.559363445758813e-12 	101324.9999999923
-0.05380380380380424 	300.0000000000122 	1.542314295415762e-12 	101324.9999999925
-0.05130130130130173 	300.0000000000089 	1.29225125855224e-12 	101324.9999999924
-0.04879879879879922 	299.9999999999444 	1.305202797764811e-12 	101324.9999999921
-0.04629629629629672 	299.9999999999393 	1.134260872093547e-12 	101324.9999999919
-0.04379379379379422 	299.9999999999248 	1.170514806331004e-12 	101324.999999992
-0.04129129129129173 	299.999999999981 	1.084744846703317e-12 	101324.9999999919
-0.03878878878878922 	299.9999999999824 	7.767708327784393e-13 	101324.9999999921
-0.03628628628628671 	299.9999999999797 	4.886704136993614e-13 	101324.999999992
-0.03378378378378422 	299.9999999999314 	4.585848911287112e-13 	101324.999999992
-0.03128128128128172 	299.9999999999704 	3.839946475988194e-14 	101324.9999999921
-0.02877877877877922 	299.9999999999678 	7.599797980818345e-13 	101324.999999992
-0.0262762762762767 	299.9999999999056 	1.27201206328989e-12 	101324.999999992
-0.02377377377377422 	300.0000000000138 	1.269450613926967e-12 	101324.9999999921
-0.0212712712712717 	299.9999999999107 	8.994446790031039e-13 	101324.9999999921
-0.01876876876876921 	299.9999999999777 	9.434391645925369e-13 	101324.9999999923
-0.01626626626626671 	300.0000000000136 	1.897003341883132e-12 	101324.9999999924
-0.0137637637637642 	299.999999999968 	1.823185710202889e-12 	101324.9999999924
-0.0112612612612617 	300.0000000000157 	1.190454065530711e-12 	101324.999999992
-0.008758758758759198 	299.999999999997 	9.697898639557686e-13 	101324.9999999919
-0.006256256256256697 	299.9999999998903 	9.985768642814635e-13 	101324.9999999916
-0.003753753753754195 	299.9999999999547 	1.460576348360218e-13 	101324.9999999919
-0.001251251251251693 	299.9999999999326 	2.980685443187664e-13 	101324.9999999918
0.00125125125125081 	299.9999999999495 	1.081601129997553e-13 	101324.9999999917
0.003753753753753312 	299.9999999999628 	3.580419873860125e-13 	101324.9999999916
0.006256256256255817 	299.9999999998979 	2.567943853873217e-14 	101324.9999999916
0.008758758758758317 	299.9999999999966 	8.156332555528029e-14 	101324.9999999916
0.01126126126126082 	300.000000000007 	2.614864923276166e-13 	101324.9999999915
0.01376376376376332 	299.9999999999685 	5.646781885060071e-13 	101324.9999999915
0.01626626626626582 	300.0000000000142 	7.634996577594516e-13 	101324.9999999916
0.01876876876876833 	299.9999999999477 	3.842027417059373e-13 	101324.9999999915
0.02127127127127083 	299.9999999999675 	1.08055156158031e-12 	101324.9999999918
0.02377377377377332 	299.9999999999952 	6.804722165065041e-13 	101324.9999999917
0.02627627627627583 	299.999999999909 	6.144042977661235e-13 	101324.999999992
0.02877877877877833 	300.0000000000152 	9.856888718574546e-13 	101324.999999992
0.03128128128128083 	299.9999999999471 	2.692895849048717e-13 	101324.9999999923
0.03378378378378333 	299.9999999999096 	1.345259570146405e-12 	101324.9999999922
0.03628628628628584 	299.9999999999653 	1.95138078418509e-12 	101324.9999999921
0.03878878878878834 	299.9999999999836 	2.265161650887451e-12 	101324.9999999923
0.04129129129129084 	299.999999999983 	2.674748939785687e-12 	101324.9999999922
0.04379379379379333 	299.9999999999505 	2.399483523982197e-12 	101324.9999999919
0.04629629629629585 	299.9999999998994 	1.985108993135138e-12 	101324.999999992
0.04879879879879834 	299.9999999999611 	2.771059526827073e-12 	101324.9999999923
0.05130130130130085 	300.0000000000095 	2.665450918438752e-12 	101324.9999999922
0.05380380380380335 	300.0000000000093 	2.216208202295139e-12 	101324.9999999921
0.05630630630630584 	299.9999999999961 	1.716086001577608e-12 	101324.9999999918
0.05880880880880836 	299.999999999925 	2.093324804858023e-12 	101324.9999999917
0.06131131131131085 	299.9999999999707 	1.803644508331572e-12 	101324.9999999914
0.06381381381381336 	299.9999999999692 	1.532325717641445e-12 	101324.9999999913
0.06631631631631586 	299.9999999998959 	2.068695402835252e-12 	101324.9999999913
0.06881881881881835 	299.9999999999584 	2.734549663950381e-12 	101324.9999999914
0.07132132132132088 	299.9999999999903 	2.016821479354682e-12 	101324.9999999914
0.07382382382382337 	299.9999999999096 	1.43767371506244e-12 	101324.9999999916
0.07632632632632587 	299.999999999969 	8.811065019346354e-13 	101324.9999999918
0.07882882882882837 	299.9999999999385 	1.045365505865536e-12 	101324.9999999919
0.08133133133133086 	299.9999999999756 	2.167671960740637e-12 	101324.999999992
0.08383383383383337 	299.9999999999825 	2.502247896397111e-12 	101324.9999999917
0.08633633633633589 	299.999999999913 	2.623685146928585e-12 	101324.9999999918
0.08883883883883838 	300.0000000000004 	3.187274465405472e-12 	101324.9999999914
0.09134134134134086 	299.9999999999712 	3.564208326545593e-12 	101324.9999999913
0.09384384384384339 	299.9999999998986 	4.11605878813347e-12 	101324.9999999914
0.09634634634634588 	299.9999999999635 	3.673443439630514e-12 	101324.9999999914
0.09884884884884838 	299.999999999975 	2.954054009256127e-12 	101324.9999999917
0.1013513513513509 	300.0000000000162 	2.684817247160713e-12 	101324.9999999918
0.1038538538538534 	299.9999999999578 	2.82032234193383e-12 	101324.9999999918
0.1063563563563559 	300.0000000000056 	3.066772908842156e-12 	101324.9999999918
0.1088588588588584 	300.0000000000283 	2.290646963310526e-12 	101324.9999999919
0.1113613613613609 	299.9999999999243 	2.055142066952913e-12 	101324.9999999916
0.1138638638638634 	299.999999999949 	1.847704180444002e-12 	101324.9999999915
0.1163663663663659 	299.9999999999535 	1.82063922168464e-12 	101324.9999999911
0.1188688688688684 	299.9999999999762 	1.901749117629298e-12 	101324.9999999914
0.1213713713713709 	299.9999999999992 	1.132406628115512e-12 	101324.9999999915
0.1238738738738734 	299.9999999999277 	1.563498872137932e-12 	101324.9999999917
0.1263763763763759 	299.9999999999803 	2.172581536552482e-12 	101324.9999999916
0.1288788788788784 	299.9999999999807 	2.342332381383628e-12 	101324.9999999918
0.1313813813813809 	299.9999999999811 	2.494799031726324e-12 	101324.9999999917
0.1338838838838834 	299.9999999999766 	2.996979851421293e-12 	101324.999999992
0.1363863863863859 	300.0000000000151 	2.363623251027735e-12 	101324.9999999917
0.1388888888888884 	300.0000000000478 	2.296631985423145e-12 	101324.9999999916
0.1413913913913909 	300.0000000000034 	9.816881526679157e-13 	101324.9999999916
0.1438938938938934 	299.9999999999912 	1.318974126923497e-12 	101324.9999999912
0.1463963963963959 	299.999999999957 	7.451102097662071e-13 	101324.9999999913
0.1488988988988985 	299.9999999999154 	3.163598240155828e-12 	101324.9999999913
0.1514014014014009 	299.9999999999654 	1.684725626853594e-12 	101324.9999999911
0.1539039039039035 	299.999999999964 	3.623606007288373e-12 	101324.9999999911
0.1564064064064059 	299.9999999999346 	1.413578651864861e-12 	101324.9999999912
0.1589089089089084 	299.9999999999835 	5.011422117153602e-12 	101324.9999999912
0.1614114114114109 	299.999999999979 	2.612942560061988e-12 	101324.9999999912
0.1639139139139134 	299.9999999999083 	5.007435284242216e-12 	101324.9999999911
0.166416416416416 	300.0000000000036 	5.149767460615182e-12 	101324.9999999915
0.1689189189189185 	300.000000000026 	5.267601013092833e-12 	101324.9999999914
0.1714214214214209 	300.0000000000019 	4.668142009859313e-12 	101324.9999999913
0.1739239239239235 	299.9999999999813 	3.113040879988236e-12 	101324.9999999912
0.1764264264264259 	299.9999999999721 	5.180886622340848e-12 	101324.9999999912
0.1789289289289284 	300.000000000003 	2.448870646208356e-12 	101324.9999999913
0.181431431431431 	299.9999999999602 	5.119323101430314e-12 	101324.9999999917
0.1839339339339334 	299.9999999999666 	2.993212584642181e-12 	101324.9999999916
0.186436436436436 	299.9999999999292 	4.694076961161534e-12 	101324.9999999918
0.1889389389389385 	299.999999999981 	4.09769465666708e-12 	101324.9999999918
0.191441441441441 	299.9999999999772 	3.714251412297471e-12 	101324.9999999917
0.1939439439439434 	299.999999999926 	4.353751853950034e-12 	101324.9999999915
0.196446446446446 	299.9999999999448 	2.552429068137729e-12 	101324.9999999913
0.1989489489489485 	299.9999999999632 	4.722679267636996e-12 	101324.999999991
0.2014514514514509 	299.999999999979 	2.88618742044848e-12 	101324.999999991
0.2039539539539535 	299.9999999999974 	3.996327300493544e-12 	101324.9999999908
0.2064564564564559 	299.9999999999596 	2.542373604665043e-12 	101324.9999999909
0.2089589589589585 	299.9999999999857 	3.048433779083875e-12 	101324.9999999911
0.211461461461461 	299.9999999999336 	3.217370834486992e-12 	101324.9999999915
0.2139639639639635 	299.9999999999802 	2.902596152538405e-12 	101324.9999999915
0.2164664664664659 	300.0000000000014 	4.163237937146444e-12 	101324.9999999916
0.2189689689689684 	299.9999999999993 	2.472583458349597e-12 	101324.999999992
0.221471471471471 	299.9999999999874 	5.056181507648248e-12 	101324.9999999922
0.2239739739739735 	299.9999999999578 	2.928723235402395e-12 	101324.9999999919
0.226476476476476 	299.9999999999808 	4.091878583897366e-12 	101324.9999999918
0.2289789789789785 	299.9999999999941 	3.099468381471081e-12 	101324.9999999921
0.231481481481481 	299.9999999999908 	2.794797691971823e-12 	101324.9999999919
0.2339839839839835 	299.9999999999851 	3.168586106423131e-12 	101324.9999999917
0.236486486486486 	300.0000000000258 	2.268228402669987e-12 	101324.9999999917
0.2389889889889885 	300.0000000000028 	4.030533383575338e-12 	101324.9999999915
0.241491491491491 	299.9999999999264 	1.583452063465538e-12 	101324.9999999915
0.2439939939939935 	299.9999999999789 	4.344563551297043e-12 	101324.9999999915
0.246496496496496 	299.9999999999908 	1.936157818791806e-12 	101324.9999999916
0.2489989989989985 	300.0000000000368 	3.686630518805717e-12 	101324.9999999913
0.251501501501501 	300.0000000000307 	1.976049135726748e-12 	101324.9999999912
0.2540040040040035 	299.9999999999875 	1.77139939762145e-12 	101324.9999999912
0.256506506506506 	300.0000000000293 	1.836611414966089e-12 	101324.9999999913
0.2590090090090086 	299.9999999999109 	6.086210922175963e-13 	101324.9999999914
0.261511511511511 	300.0000000000014 	2.559501274010645e-12 	101324.9999999914
0.2640140140140135 	299.9999999999916 	1.054752814946421e-12 	101324.9999999913
0.2665165165165161 	299.9999999999364 	2.241153748200613e-12 	101324.9999999914
0.2690190190190185 	300.0000000000095 	1.211147766886723e-12 	101324.9999999913
0.271521521521521 	300.0000000000146 	1.540028932567642e-12 	101324.9999999912
0.2740240240240235 	300.0000000000197 	1.969038726364434e-12 	101324.9999999913
0.276526526526526 	300.0000000000118 	1.541333276314267e-12 	101324.9999999914
0.2790290290290286 	299.9999999999451 	3.05392178389575e-12 	101324.9999999914
0.281531531531531 	299.9999999999288 	1.920011383324727e-12 	101324.9999999915
0.2840340340340335 	299.9999999999789 	4.128750246198889e-12 	101324.9999999913
0.2865365365365361 	299.9999999999606 	2.922555832083709e-12 	101324.9999999913
0.2890390390390385 	300.0000000000023 	3.690336780031557e-12 	101324.9999999913
0.291541541541541 	300.0000000000016 	2.90017734120143e-12 	101324.9999999912
0.2940440440440436 	299.9999999999944 	1.798514624765738e-12 	101324.9999999913
0.296546546546546 	299.9999999999952 	2.927747138725922e-12 	101324.9999999911
0.2990490490490486 	299.9999999999413 	9.36927454687404e-13 	101324.9999999912
0.3015515515515511 	300.0000000000423 	4.652702536446673e-12 	101324.9999999908
0.3040540540540535 	300.0000000000034 	1.95541762433704e-12 	101324.9999999909
0.3065565565565562 	299.9999999999931 	5.214643176656871e-12 	101324.9999999911
0.3090590590590585 	299.9999999999897 	1.165003458409119e-12 	101324.9999999909
0.3115615615615611 	299.9999999999396 	4.002825393244757e-12 	101324.9999999908
0.3140640640640635 	300.0000000000078 	4.402521132028263e-13 	101324.9999999907
0.316566566566566 	299.9999999999922 	3.008719635163427e-12 	101324.999999991
0.3190690690690687 	299.9999999999578 	5.757470318740653e-13 	101324.9999999912
0.3215715715715711 	300.0000000000167 	2.224513921557377e-12 	101324.9999999911
0.3240740740740735 	300.0000000000001 	8.920174597795179e-13 	101324.9999999909
0.326576576576576 	299.9999999999083 	2.265464325630165e-12 	101324.9999999909
0.3290790790790786 	300.0000000000108 	1.586630621276529e-12 	101324.9999999909
0.3315815815815811 	300.0000000000354 	2.466748238648721e-12 	101324.9999999911
0.3340840840840836 	299.9999999999832 	1.708034463595227e-12 	101324.9999999912
0.3365865865865861 	300.0000000000558 	2.388492813269637e-12 	101324.9999999912
0.3390890890890886 	300.0000000000495 	6.736050965359671e-13 	101324.999999991
0.3415915915915911 	300.0000000000048 	1.287216283194827e-12 	101324.9999999913
0.3440940940940935 	299.9999999999602 	9.508811077516849e-13 	101324.9999999916
0.3465965965965962 	300.0000000000349 	1.201780987736723e-12 	101324.9999999917
0.3490990990990985 	300.000000000028 	1.442379668110816e-13 	101324.9999999917
0.3516016016016011 	299.9999999999903 	3.552601510206739e-13 	101324.9999999917
0.3541041041041035 	300.000000000008 	4.245164493897345e-13 	101324.9999999914
0.3566066066066061 	299.9999999999552 	1.406208273956257e-12 	101324.9999999912
0.3591091091091085 	299.999999999922 	6.570074531104072e-13 	101324.9999999911
0.3616116116116112 	299.9999999999455 	1.532809226392913e-12 	101324.9999999913
0.3641141141141137 	299.9999999999362 	2.012319547464476e-12 	101324.9999999913
0.3666166166166161 	299.9999999999276 	2.097644920722143e-12 	101324.9999999914
0.3691191191191185 	300.0000000000333 	3.289702532257319e-12 	101324.9999999911
0.371621621621621 	300.0000000000168 	1.223976624954209e-12 	101324.9999999909
0.3741241241241237 	300.0000000000452 	3.477648048943898e-12 	101324.9999999911
0.3766266266266261 	300.0000000000231 	9.606537274531235e-13 	101324.9999999914
0.3791291291291286 	299.9999999999877 	2.649396691162899e-12 	101324.9999999913
0.3816316316316311 	299.9999999999254 	8.63423319721532e-13 	101324.9999999912
0.3841341341341336 	300.0000000000118 	1.633704641584438e-12 	101324.999999991
0.3866366366366362 	299.9999999999969 	8.979779376297987e-13 	101324.9999999909
0.3891391391391387 	299.9999999999599 	1.034394081674965e-12 	101324.9999999908
0.391641641641641 	299.9999999999972 	6.032919330497854e-13 	101324.9999999908
0.3941441441441436 	300.0000000000028 	1.143305782875054e-12 	101324.9999999907
0.3966466466466462 	299.9999999999945 	2.871675380757601e-13 	101324.9999999905
0.3991491491491486 	299.9999999999498 	9.272852577837181e-13 	101324.9999999905
0.4016516516516512 	299.9999999999264 	1.395905277612228e-12 	101324.9999999906
0.4041541541541536 	299.9999999999495 	7.399642635195952e-13 	101324.9999999908
0.4066566566566561 	299.9999999999535 	1.485022777524561e-12 	101324.9999999908
0.4091591591591587 	299.9999999999962 	6.559503235464417e-13 	101324.9999999907
0.4116616616616612 	300.0000000000055 	5.17994892560719e-13 	101324.9999999909
0.4141641641641635 	300.0000000000352 	1.120375243452425e-12 	101324.9999999912
0.4166666666666662 	299.9999999999964 	1.204332008046932e-12 	101324.9999999912
0.4191691691691687 	299.999999999948 	4.802799738392331e-13 	101324.9999999911
0.421671671671671 	300.0000000000078 	2.077609247756565e-12 	101324.9999999909
0.4241741741741737 	299.9999999999765 	2.472156156609138e-12 	101324.9999999907
0.4266766766766761 	299.9999999999555 	2.073729407496338e-12 	101324.9999999905
0.4291791791791785 	300.0000000000205 	3.538669987098176e-12 	101324.9999999902
0.4316816816816812 	300.0000000000117 	2.392126587037037e-12 	101324.9999999903
0.4341841841841836 	299.9999999999874 	3.686532409964803e-12 	101324.9999999904
0.4366866866866862 	299.9999999999276 	1.072477752434612e-12 	101324.9999999906
0.4391891891891885 	299.9999999999861 	2.861942163055565e-12 	101324.9999999909
0.4416916916916913 	299.9999999999852 	1.076500277236431e-12 	101324.9999999912
0.4441941941941936 	299.9999999999932 	3.11215736301682e-12 	101324.9999999915
0.4466966966966961 	299.9999999999247 	2.187348115939352e-12 	101324.9999999917
0.4491991991991987 	299.9999999999848 	2.688310847101091e-12 	101324.9999999914
0.4517017017017012 	299.9999999999843 	1.914251708378399e-12 	101324.9999999913
0.4542042042042035 	299.9999999999878 	1.682236168421751e-12 	101324.9999999915
0.4567067067067062 	299.999999999998 	1.937808669381809e-12 	101324.9999999916
0.4592092092092087 	299.9999999999366 	1.195727358976196e-12 	101324.9999999915
0.4617117117117112 	300.0000000000182 	1.021970204398738e-12 	101324.9999999916
0.4642142142142137 	299.9999999999669 	5.761928248324551e-13 	101324.9999999918
0.4667167167167162 	299.999999999993 	3.268887028347006e-13 	101324.9999999919
0.4692192192192187 	299.999999999961 	1.278692257367791e-13 	101324.999999992
0.4717217217217212 	300.0000000000057 	4.365496913861307e-13 	101324.9999999917
0.4742242242242236 	299.9999999999555 	3.275215862571395e-13 	101324.9999999915
0.4767267267267262 	299.9999999999748 	3.788615007448028e-13 	101324.9999999913
0.4792292292292287 	300.0000000000157 	4.735317443530693e-13 	101324.9999999913
0.4817317317317312 	300.0000000000276 	7.187593317539308e-13 	101324.9999999911
0.4842342342342336 	299.9999999999837 	1.38006896848117e-12 	101324.9999999909
0.4867367367367362 	299.9999999999569 	2.022416979653164e-12 	101324.9999999911
0.4892392392392387 	300.000000000025 	1.050231569563959e-12 	101324.9999999913
0.4917417417417412 	300.0000000000057 	2.00625613310229e-12 	101324.9999999912
0.4942442442442437 	299.9999999999151 	9.477282398644641e-13 	101324.9999999911
0.4967467467467462 	299.9999999999368 	2.015860574079576e-12 	101324.9999999911
0.4992492492492487 	299.9999999999238 	4.787497348418266e-13 	101324.999999991
0.5017517517517511 	299.9999999999559 	1.052937841376634e-12 	101324.9999999908
0.5042542542542537 	299.9999999999665 	2.011348206870876e-13 	101324.999999991
0.5067567567567562 	299.9999999999503 	5.476656276272031e-13 	101324.9999999912
0.5092592592592589 	299.999999999967 	5.206001256560853e-13 	101324.9999999913
0.5117617617617611 	299.9999999999635 	1.357762081742132e-12 	101324.9999999912
0.5142642642642637 	299.999999999993 	1.963848430757594e-12 	101324.9999999913
0.5167667667667663 	299.9999999999789 	1.89573169816181e-12 	101324.9999999912
0.5192692692692688 	299.9999999999276 	3.605849467598721e-12 	101324.9999999911
0.5217717717717714 	299.9999999999483 	2.208093049015615e-12 	101324.9999999907
0.5242742742742736 	299.999999999947 	4.232998965800566e-12 	101324.9999999905
0.5267767767767763 	299.9999999999659 	1.732480349609067e-12 	101324.9999999907
0.5292792792792789 	299.999999999948 	2.678269305712204e-12 	101324.9999999907
0.5317817817817813 	299.9999999999133 	2.034461430074123e-12 	101324.9999999906
0.5342842842842837 	300.0000000000145 	8.761894779347331e-13 	101324.9999999907
0.5367867867867864 	300.0000000000021 	1.484160537909831e-12 	101324.9999999909
0.5392892892892888 	299.9999999999632 	8.284378218315373e-13 	101324.999999991
0.5417917917917912 	300.0000000000081 	1.257026072171114e-12 	101324.999999991
0.5442942942942938 	299.9999999999832 	8.944138554788003e-13 	101324.9999999908
0.5467967967967964 	299.9999999999534 	8.083790707162288e-13 	101324.9999999908
0.5492992992992988 	299.9999999999469 	7.479053640685954e-13 	101324.9999999909
0.5518018018018012 	299.9999999999441 	5.47634224067698e-13 	101324.9999999911
0.5543043043043039 	300.0000000000191 	1.060615392800677e-12 	101324.9999999913
0.5568068068068063 	299.9999999999899 	7.509080332442352e-13 	101324.9999999912
0.5593093093093087 	299.9999999999142 	1.293746948939307e-12 	101324.9999999913
0.5618118118118114 	299.9999999999698 	7.240101150645022e-13 	101324.9999999913
0.5643143143143137 	299.9999999999512 	8.089338275638859e-13 	101324.9999999912
0.5668168168168163 	299.9999999999913 	6.58962669539115e-13 	101324.9999999908
0.5693193193193188 	300.0000000000253 	7.801907106984826e-13 	101324.9999999906
0.5718218218218213 	300.0000000000202 	7.922682153621609e-13 	101324.9999999906
0.5743243243243239 	300.0000000000023 	1.554374148828198e-12 	101324.9999999908
0.5768268268268262 	299.9999999999993 	1.579234912367525e-12 	101324.9999999908
0.5793293293293288 	299.9999999999487 	2.695858279579862e-12 	101324.9999999908
0.5818318318318314 	299.9999999999258 	2.686994065467422e-12 	101324.9999999912
0.5843343343343338 	299.9999999999836 	3.075544609805386e-12 	101324.9999999913
0.5868368368368363 	299.9999999999809 	2.270609249635648e-12 	101324.9999999914
0.5893393393393387 	299.9999999999567 	2.569336147145365e-12 	101324.9999999915
0.5918418418418413 	299.999999999952 	1.503110348066724e-12 	101324.9999999916
0.5943443443443439 	300.0000000000179 	1.753837642149538e-12 	101324.9999999918
0.5968468468468463 	300.0000000000171 	1.232941436537862e-12 	101324.9999999917
0.5993493493493487 	300.0000000000349 	1.261019410706442e-12 	101324.9999999918
0.6018518518518514 	299.999999999986 	1.396689254213617e-12 	101324.9999999922
0.6043543543543537 	299.9999999999949 	8.199100932994613e-13 	101324.9999999923
0.6068568568568564 	299.999999999984 	1.681106648474105e-12 	101324.9999999925
0.6093593593593587 	299.9999999999399 	3.857590650738889e-13 	101324.9999999924
0.6118618618618614 	299.9999999999345 	9.784424613321858e-13 	101324.9999999923
0.6143643643643638 	300.0000000000161 	1.46265515903613e-12 	101324.9999999922
0.6168668668668662 	299.9999999999864 	1.299729452935391e-12 	101324.9999999923
0.6193693693693688 	299.9999999999616 	2.239367408099704e-12 	101324.9999999923
0.6218718718718714 	299.999999999968 	8.911117798726752e-13 	101324.9999999923
0.6243743743743737 	299.9999999999476 	1.315328615898765e-12 	101324.9999999921
0.6268768768768762 	299.9999999999343 	5.103082567679556e-13 	101324.999999992
0.629379379379379 	299.999999999957 	5.189176032796775e-13 	101324.9999999921
0.6318818818818812 	299.9999999999767 	8.048016644817941e-13 	101324.9999999922
0.6343843843843838 	300.000000000016 	1.113919060460407e-12 	101324.9999999923
0.6368868868868864 	299.9999999999848 	1.172963117482328e-12 	101324.9999999921
0.6393893893893888 	299.9999999999291 	2.277791587814629e-12 	101324.9999999919
0.6418918918918912 	300.0000000000067 	2.908145152761635e-12 	101324.9999999919
0.6443943943943939 	299.9999999999857 	3.43333203674487e-12 	101324.9999999919
0.6468968968968963 	299.9999999999838 	3.686337837686203e-12 	101324.9999999919
0.6493993993993988 	299.9999999999766 	2.391575344162498e-12 	101324.9999999919
0.6519019019019012 	299.9999999999758 	3.304738201690297e-12 	101324.9999999918
0.6544044044044038 	299.9999999999142 	2.204037243303347e-12 	101324.999999992
0.6569069069069065 	299.9999999999572 	2.619400955870292e-12 	101324.9999999923
0.6594094094094087 	299.9999999999686 	2.020216310123832e-12 	101324.9999999925
0.6619119119119113 	299.9999999999595 	1.76173126910851e-12 	101324.9999999925
0.664414414414414 	300.0000000000005 	1.132149118310038e-12 	101324.9999999924
0.6669169169169162 	300.0000000000156 	1.507970602474634e-12 	101324.9999999923
0.6694194194194188 	299.9999999999866 	9.55763697327033e-13 	101324.9999999923
0.6719219219219214 	299.9999999999314 	1.532287366400125e-12 	101324.9999999925
0.674424424424424 	299.9999999999758 	6.586827188006496e-13 	101324.9999999924
0.6769269269269262 	299.9999999999252 	1.59960325586933e-12 	101324.9999999924
0.679429429429429 	300.0000000000015 	9.82623864851822e-13 	101324.9999999924
0.6819319319319311 	299.9999999999755 	1.50626345404602e-12 	101324.9999999923
0.6844344344344341 	299.9999999999956 	6.529985994318095e-13 	101324.9999999923
0.686936936936936 	299.9999999999937 	1.195418567812003e-12 	101324.9999999923
0.6894394394394392 	299.9999999999899 	4.267258338054542e-13 	101324.9999999921
0.6919419419419413 	299.9999999999839 	3.395118597139234e-14 	101324.9999999921
0.694444444444444 	299.9999999999387 	2.058984041559693e-13 	101324.9999999921
0.6969469469469463 	299.9999999999314 	7.194551342624198e-13 	101324.9999999922
0.6994494494494489 	299.9999999999289 	1.011924249201255e-12 	101324.9999999924
0.7019519519519515 	299.9999999999865 	1.265635734321975e-12 	101324.9999999925
0.7044544544544538 	299.9999999999562 	1.480806069003896e-12 	101324.9999999924
0.7069569569569564 	299.999999999994 	2.134516845395796e-12 	101324.9999999924
0.7094594594594589 	299.9999999999666 	1.283147910403173e-12 	101324.9999999922
0.7119619619619615 	299.999999999918 	1.362124349087851e-12 	101324.9999999921
0.7144644644644638 	299.999999999952 	1.090197128153956e-12 	101324.9999999922
0.7169669669669665 	299.9999999999259 	6.51672028752922e-13 	101324.9999999924
0.7194694694694688 	299.9999999999911 	1.01686813839565e-12 	101324.9999999928
0.7219719719719715 	299.9999999999866 	1.339311040273395e-13 	101324.9999999929
0.7244744744744737 	299.9999999999998 	3.553411827798634e-13 	101324.999999993
0.7269769769769764 	299.9999999999952 	7.614999174567714e-13 	101324.9999999931
0.7294794794794791 	299.9999999999903 	1.345496888479772e-12 	101324.9999999931
0.7319819819819813 	299.9999999999847 	1.320768052025917e-12 	101324.999999993
0.7344844844844839 	299.9999999999325 	5.136776149608564e-13 	101324.9999999928
0.7369869869869864 	299.9999999999579 	1.377367481142146e-12 	101324.9999999925
0.739489489489489 	299.9999999999483 	1.238712847418957e-12 	101324.9999999923
0.7419919919919914 	299.9999999999392 	1.254205056167127e-12 	101324.9999999924
0.7444944944944939 	299.9999999999795 	2.331367512100642e-12 	101324.9999999928
0.7469969969969963 	299.9999999999696 	1.411108456121364e-12 	101324.999999993
0.7494994994994989 	299.9999999999476 	3.028406481459336e-12 	101324.999999993
0.7520020020020015 	299.9999999999735 	2.063337932038613e-12 	101324.9999999931
0.7545045045045039 	299.9999999999715 	2.681273999537758e-12 	101324.999999993
0.7570070070070062 	299.9999999999472 	8.828257114031438e-13 	101324.999999993
0.7595095095095092 	299.9999999999344 	2.476365847190143e-12 	101324.9999999933
0.7620120120120112 	300.000000000001 	1.639041344621278e-12 	101324.9999999935
0.7645145145145138 	299.999999999987 	2.046684496403683e-12 	101324.9999999935
0.7670170170170165 	299.9999999999411 	2.19776007937786e-12 	101324.9999999934
0.7695195195195191 	299.9999999999321 	1.457913753566492e-12 	101324.9999999935
0.7720220220220213 	299.9999999999391 	2.810326543539654e-12 	101324.9999999933
0.7745245245245239 	299.9999999999411 	1.879732577585391e-12 	101324.9999999935
0.7770270270270263 	299.9999999999791 	3.652673032993244e-12 	101324.9999999938
0.779529529529529 	299.9999999999865 	2.744437201792985e-12 	101324.9999999937
0.7820320320320313 	299.9999999999719 	3.502395926221946e-12 	101324.9999999935
0.784534534534534 	299.9999999999997 	3.596081972577756e-12 	101324.9999999936
0.7870370370370364 	299.9999999999962 	3.5430395730422e-12 	101324.9999999938
0.7895395395395389 	299.9999999999852 	4.725709229221918e-12 	101324.9999999939
0.7920420420420413 	299.9999999999748 	3.931233280545833e-12 	101324.9999999937
0.794544544544544 	299.999999999975 	5.30601282961277e-12 	101324.9999999934
0.7970470470470463 	299.9999999999998 	2.983263781931901e-12 	101324.9999999934
0.799549549549549 	299.9999999999826 	5.022011277154567e-12 	101324.9999999935
0.8020520520520515 	299.9999999999863 	2.729542357688415e-12 	101324.9999999937
0.8045545545545539 	299.9999999999503 	4.638835129851649e-12 	101324.9999999938
0.8070570570570563 	299.9999999999825 	3.735610983261901e-12 	101324.999999994
0.8095595595595589 	299.9999999999583 	4.005704825426658e-12 	101324.9999999942
0.8120620620620614 	299.9999999999403 	3.596490179041462e-12 	101324.9999999944
0.8145645645645638 	299.9999999999997 	3.099027079357195e-12 	101324.9999999946
0.8170670670670666 	299.9999999999945 	3.16746593751306e-12 	101324.9999999948
0.8195695695695689 	299.9999999999779 	1.832876959123667e-12 	101324.9999999949
0.8220720720720714 	299.9999999999511 	3.739401978182514e-12 	101324.9999999949
0.8245745745745739 	299.9999999999927 	2.472676172822551e-12 	101324.9999999951
0.8270770770770765 	299.9999999999771 	3.950248863140601e-12 	101324.9999999952
0.8295795795795788 	299.9999999999607 	2.7396706614768e-12 	101324.9999999953
0.8320820820820815 	300.0000000000135 	3.183057474735533e-12 	101324.9999999951
0.834584584584584 	300.000000000003 	2.48837226442732e-12 	101324.9999999947
0.8370870870870865 	299.999999999972 	2.59409621610138e-12 	101324.9999999942
0.8395895895895891 	299.999999999941 	3.438455458891416e-12 	101324.9999999938
0.8420920920920915 	299.9999999999555 	3.431590898454481e-12 	101324.9999999935
0.844594594594594 	299.9999999999484 	3.963233834152384e-12 	101324.9999999934
0.8470970970970964 	299.9999999999521 	4.450925628518534e-12 	101324.9999999935
0.8495995995995991 	299.9999999999874 	5.096546916270731e-12 	101324.9999999936
0.8521021021021015 	299.9999999999789 	5.387767556378234e-12 	101324.9999999937
0.8546046046046039 	299.9999999999767 	4.658292080488508e-12 	101324.9999999938
0.8571071071071066 	299.9999999999994 	5.641698928872588e-12 	101324.9999999938
0.8596096096096089 	299.9999999999682 	4.623749421026046e-12 	101324.999999994
0.8621121121121116 	299.9999999999402 	7.453637982302856e-12 	101324.9999999941
0.8646146146146139 	299.9999999999933 	5.546913310872383e-12 	101324.9999999941
0.8671171171171166 	299.9999999999765 	6.424541344968648e-12 	101324.9999999939
0.8696196196196189 	299.9999999999508 	5.363590827771516e-12 	101324.999999994
0.8721221221221216 	299.9999999999757 	5.433204807061183e-12 	101324.9999999943
0.874624624624624 	300.0000000000012 	4.957554396564604e-12 	101324.9999999944
0.8771271271271264 	300.0000000000009 	4.74791232003188e-12 	101324.9999999945
0.879629629629629 	300.0000000000103 	5.705788633739219e-12 	101324.9999999947
0.8821321321321317 	299.9999999999861 	4.727255816239725e-12 	101324.9999999948
0.8846346346346339 	299.9999999999374 	7.660566997679636e-12 	101324.9999999948
0.8871371371371364 	299.9999999999662 	6.62025664602179e-12 	101324.9999999947
0.8896396396396391 	299.9999999999655 	8.715254663010258e-12 	101324.9999999945
0.8921421421421414 	299.9999999999668 	7.49486579674068e-12 	101324.9999999943
0.8946446446446441 	299.9999999999853 	7.756966749586618e-12 	101324.9999999945
0.8971471471471464 	300.0000000000029 	6.788593534523655e-12 	101324.9999999944
0.8996496496496489 	299.9999999999853 	6.514051069767229e-12 	101324.9999999941
0.9021521521521517 	299.9999999999707 	7.525664865397706e-12 	101324.9999999939
0.9046546546546541 	299.9999999999928 	7.113127355523418e-12 	101324.9999999938
0.9071571571571564 	299.9999999999577 	8.179970885658031e-12 	101324.9999999938
0.9096596596596589 	299.9999999999549 	8.252524797364637e-12 	101324.9999999939
0.9121621621621616 	300.0000000000065 	8.381058352937538e-12 	101324.9999999944
0.9146646646646639 	299.9999999999816 	7.629601037498644e-12 	101324.9999999948
0.9171671671671666 	299.9999999999546 	6.712232491251509e-12 	101324.999999995
0.9196696696696689 	299.9999999999977 	6.721284978886059e-12 	101324.999999995
0.9221721721721714 	299.9999999999981 	5.500268197737099e-12 	101324.999999995
0.9246746746746741 	299.999999999949 	8.031059799984023e-12 	101324.9999999951
0.9271771771771765 	299.9999999999528 	6.408097417201386e-12 	101324.999999995
0.9296796796796791 	299.9999999999865 	8.23051660459593e-12 	101324.9999999949
0.9321821821821816 	299.9999999999711 	6.992314400169727e-12 	101324.9999999949
0.9346846846846838 	299.9999999999595 	8.04073975417292e-12 	101324.999999995
0.9371871871871866 	300.0000000000169 	7.47879348196525e-12 	101324.999999995
0.9396896896896891 	300.0000000000148 	7.49902224979987e-12 	101324.999999995
0.9421921921921914 	300.000000000007 	7.923452368229771e-12 	101324.9999999947
0.9446946946946939 	299.9999999999702 	7.144676516417101e-12 	101324.9999999949
0.9471971971971965 	299.9999999999358 	9.562798191225902e-12 	101324.9999999951
0.9496996996996991 	299.9999999999646 	8.591868780801486e-12 	101324.999999995
0.9522022022022016 	299.9999999999785 	1.022345439121612e-11 	101324.9999999949
0.9547047047047038 	299.9999999999803 	9.192933549683466e-12 	101324.999999995
0.9572072072072064 	299.9999999999729 	9.507732595459439e-12 	101324.9999999949
0.9597097097097093 	299.9999999999713 	8.81348875263444e-12 	101324.9999999951
0.9622122122122114 	299.999999999966 	8.274391449318574e-12 	101324.9999999954
0.964714714714714 	299.9999999999656 	8.84720585209932e-12 	101324.9999999955
0.9672172172172167 	299.9999999999649 	7.660478767307002e-12 	101324.9999999957
0.969719719719719 	299.9999999999872 	8.101078143611072e-12 	101324.9999999957
0.9722222222222214 	299.9999999999795 	7.738520136383619e-12 	101324.9999999957
0.9747247247247239 	299.9999999999758 	8.040911641133692e-12 	101324.9999999955
0.9772272272272267 	300.0000000000032 	8.231953985713572e-12 	101324.9999999954
0.9797297297297292 	299.9999999999902 	8.711694009827803e-12 	101324.9999999957
0.9822322322322313 	299.999999999991 	1.042655510367386e-11 	101324.9999999956
0.9847347347347344 	299.9999999999901 	1.000971011978772e-11 	101324.9999999956
0.9872372372372363 	299.9999999999597 	1.254014264000392e-11 	101324.9999999954
0.9897397397397389 	299.9999999999744 	1.065851891389747e-11 	101324.9999999951
0.9922422422422417 	299.9999999999577 	1.244412617943132e-11 	101324.9999999954
0.9947447447447441 	299.9999999999684 	1.142832478126891e-11 	101324.9999999956
0.9972472472472468 	299.9999999999698 	1.218776776836328e-11 	101324.9999999957
0.999749749749749 	299.999999999971 	1.160518222242111e-11 	101324.9999999956
1.002252252252252 	299.9999999999861 	1.157522918169836e-11 	101324.9999999956
1.004754754754754 	299.9999999999883 	1.161432003497554e-11 	101324.9999999955
1.007257257257256 	299.9999999999685 	1.056361502658223e-11 	101324.9999999953
1.009759759759759 	299.9999999999583 	1.238333940581868e-11 	101324.9999999953
1.012262262262261 	299.9999999999692 	1.101995702669249e-11 	101324.9999999953
1.014764764764764 	299.9999999999438 	1.279094507902928e-11 	101324.9999999953
1.017267267267267 	299.9999999999354 	1.204287968320452e-11 	101324.9999999956
1.019769769769769 	299.9999999999798 	1.303880018089878e-11 	101324.9999999959
1.022272272272272 	299.9999999999908 	1.280218795655303e-11 	101324.999999996
1.024774774774774 	299.9999999999855 	1.317083673364753e-11 	101324.9999999956
1.027277277277277 	299.9999999999828 	1.407007433503588e-11 	101324.9999999953
1.029779779779779 	300.0000000000138 	1.264284790448591e-11 	101324.9999999954
1.032282282282282 	300.0000000000126 	1.261807015434547e-11 	101324.9999999955
1.034784784784784 	300.0000000000031 	1.225319936637013e-11 	101324.9999999957
1.037287287287286 	299.9999999999767 	1.290760757603278e-11 	101324.9999999958
1.039789789789789 	299.9999999999761 	1.286539857651604e-11 	101324.9999999958
1.042292292292291 	300.0000000000024 	1.29412382003456e-11 	101324.9999999958
1.044794794794794 	300.0000000000178 	1.307788521348242e-11 	101324.9999999957
1.047297297297296 	300.0000000000339 	1.182546445947373e-11 	101324.999999996
1.049799799799799 	299.9999999999924 	1.329333879513282e-11 	101324.9999999965
1.052302302302302 	299.9999999999575 	1.184573803894194e-11 	101324.9999999966
1.054804804804804 	299.9999999999388 	1.361792685669512e-11 	101324.9999999965
1.057307307307306 	299.9999999999333 	1.269712342103175e-11 	101324.9999999964
1.059809809809809 	299.9999999999699 	1.35351361755835e-11 	101324.9999999963
1.062312312312312 	299.999999999967 	1.29538486922809e-11 	101324.9999999964
1.064814814814814 	299.9999999999621 	1.399088905547178e-11 	101324.9999999964
1.067317317317317 	299.9999999999357 	1.450553996644822e-11 	101324.9999999966
1.069819819819819 	299.9999999999375 	1.49143405774634e-11 	101324.9999999967
1.072322322322321 	299.9999999999949 	1.614721552899759e-11 	101324.9999999966
1.074824824824824 	300.0000000000052 	1.397660311960734e-11 	101324.9999999967
1.077327327327327 	300.0000000000244 	1.516510791147169e-11 	101324.9999999966
1.079829829829829 	300.0000000000348 	1.38718296880793e-11 	101324.9999999963
1.082332332332332 	300.0000000000052 	1.441081377723681e-11 	101324.9999999962
1.084834834834834 	299.9999999999872 	1.390526921881425e-11 	101324.9999999961
1.087337337337337 	299.9999999999515 	1.364958958183384e-11 	101324.9999999959
1.089839839839839 	299.9999999999404 	1.478997943554671e-11 	101324.999999996
1.092342342342342 	299.9999999999719 	1.370851282208561e-11 	101324.9999999959
1.094844844844844 	299.9999999999716 	1.506017904097559e-11 	101324.9999999961
1.097347347347347 	299.9999999999494 	1.43956355927761e-11 	101324.9999999963
1.099849849849849 	299.9999999999405 	1.70529956750742e-11 	101324.9999999965
1.102352352352352 	299.9999999999639 	1.508544495533414e-11 	101324.9999999966
1.104854854854854 	299.9999999999834 	1.708938901691161e-11 	101324.9999999968
1.107357357357357 	299.9999999999652 	1.580125276922391e-11 	101324.999999997
1.109859859859859 	299.9999999999578 	1.701010980826397e-11 	101324.9999999966
1.112362362362362 	300.0000000000175 	1.570368787085441e-11 	101324.9999999965
1.114864864864865 	300.0000000000168 	1.518142570296339e-11 	101324.9999999968
1.117367367367367 	299.9999999999706 	1.543079048111979e-11 	101324.9999999971
1.119869869869869 	299.9999999999362 	1.400144677247287e-11 	101324.9999999974
1.122372372372372 	299.9999999999616 	1.53938200661837e-11 	101324.9999999976
1.124874874874874 	299.9999999999637 	1.446983877964865e-11 	101324.9999999978
1.127377377377377 	299.9999999999807 	1.588987403694902e-11 	101324.9999999977
1.129879879879879 	300.0000000000199 	1.588795578849103e-11 	101324.9999999975
1.132382382382382 	300.0000000000296 	1.695231355093629e-11 	101324.9999999974
1.134884884884884 	300.0000000000105 	1.660519391086751e-11 	101324.9999999972
1.137387387387387 	300.0000000000168 	1.672244892029333e-11 	101324.9999999971
1.139889889889889 	299.9999999999703 	1.788626506868467e-11 	101324.9999999972
1.142392392392392 	299.9999999999566 	1.65684485003445e-11 	101324.9999999972
1.144894894894894 	300.000000000009 	1.751149808704392e-11 	101324.9999999974
1.147397397397397 	299.9999999999984 	1.566357064550947e-11 	101324.9999999973
1.149899899899899 	299.9999999999503 	1.566251011860074e-11 	101324.9999999975
1.152402402402402 	299.9999999999397 	1.494799094556406e-11 	101324.9999999977
1.154904904904904 	299.99999999997 	1.599945782112663e-11 	101324.9999999979
1.157407407407407 	299.9999999999697 	1.523703433172728e-11 	101324.9999999981
1.159909909909909 	299.9999999999475 	1.500258303120887e-11 	101324.9999999982
1.162412412412412 	299.9999999999405 	1.616752434214954e-11 	101324.9999999982
1.164914914914914 	299.999999999962 	1.462686455610731e-11 	101324.9999999983
1.167417417417417 	299.9999999999695 	1.625872634704357e-11 	101324.9999999982
1.169919919919919 	300.0000000000146 	1.567935573330921e-11 	101324.9999999979
1.172422422422422 	300.0000000000391 	1.686902748817251e-11 	101324.9999999978
1.174924924924925 	299.9999999999948 	1.604785369084113e-11 	101324.9999999979
1.177427427427427 	299.9999999999696 	1.68361053340453e-11 	101324.9999999981
1.179929929929929 	300.0000000000083 	1.77024128885177e-11 	101324.9999999981
1.182432432432432 	300.0000000000271 	1.593704669530351e-11 	101324.9999999981
1.184934934934934 	299.9999999999992 	1.68943788932066e-11 	101324.999999998
1.187437437437437 	299.9999999999827 	1.584925144640115e-11 	101324.999999998
1.189939939939939 	299.9999999999761 	1.635932429532841e-11 	101324.999999998
1.192442442442442 	299.9999999999437 	1.550642964405122e-11 	101324.9999999978
1.194944944944944 	299.999999999948 	1.713889768852809e-11 	101324.9999999978
1.197447447447447 	299.9999999999943 	1.668280507132885e-11 	101324.9999999979
1.199949949949949 	300.0000000000045 	1.664831481578151e-11 	101324.9999999981
1.202452452452452 	299.9999999999611 	1.775930557843292e-11 	101324.9999999981
1.204954954954955 	299.9999999999533 	1.702603579803798e-11 	101324.9999999981
1.207457457457457 	299.9999999999787 	1.838770342908512e-11 	101324.9999999982
1.20995995995996 	299.9999999999818 	1.734141317447145e-11 	101324.9999999985
1.212462462462462 	299.9999999999935 	1.825650307422717e-11 	101324.9999999988
1.214964964964964 	299.9999999999928 	1.759185237685152e-11 	101324.999999999
1.217467467467467 	299.9999999999864 	1.869505609156055e-11 	101324.999999999
1.219969969969969 	299.9999999999732 	1.774256889430913e-11 	101324.999999999
1.222472472472472 	300.0000000000152 	1.801388515362683e-11 	101324.9999999992
1.224974974974975 	300.0000000000398 	1.820173161008461e-11 	101324.9999999994
1.227477477477477 	299.9999999999956 	1.65750741918522e-11 	101324.9999999994
1.229979979979979 	299.9999999999829 	1.780943527113707e-11 	101324.9999999993
1.232482482482482 	299.9999999999624 	1.650445977656649e-11 	101324.9999999992
1.234984984984984 	299.9999999999646 	1.816259048066046e-11 	101324.999999999
1.237487487487487 	299.999999999982 	1.750268054679525e-11 	101324.999999999
1.239989989989989 	299.9999999999814 	1.886710694067205e-11 	101324.9999999991
1.242492492492492 	300.000000000009 	1.978370548738754e-11 	101324.9999999992
1.244994994994994 	299.9999999999814 	1.840113286118829e-11 	101324.9999999992
1.247497497497497 	299.9999999999873 	1.970302469792533e-11 	101324.9999999992
1.249999999999999 	300.0000000002119 	1.912900966419396e-11 	101324.9999999991
