-1.25 	312.4344943582026 	0.000809784406933231 	101325.0257610586
-1.247497497497497 	300.1579315922597 	0.0009197958150636584 	101325.0100756561
-1.244994994994995 	300.0023054814188 	0.001053140779908893 	101325.0252632242
-1.242492492492492 	300.000045700476 	0.001170685804687083 	101325.0112337006
-1.23998998998999 	300.0000206459011 	0.001262867990075983 	101325.0239633671
-1.237487487487487 	300.0000105958054 	0.001343930553450998 	101325.01253979
-1.234984984984985 	300.0000184583317 	0.001409378262156673 	101325.0218060014
-1.232482482482482 	300.0000103419259 	0.001462165918550161 	101325.0122393902
-1.22997997997998 	300.0000177919695 	0.001484880295560935 	101325.0210233894
-1.227477477477477 	300.0000127272143 	0.001474589496960247 	101325.01505856
-1.224974974974975 	300.0000157359732 	0.001449512175680279 	101325.0185964704
-1.222472472472472 	300.0000112225741 	0.001414214720333628 	101325.0132780722
-1.21996996996997 	300.0000145230197 	0.00136867462500582 	101325.0171655643
-1.217467467467467 	300.0000134810572 	0.001324166571057604 	101325.015942886
-1.214964964964965 	300.0000158105639 	0.001266272476306172 	101325.0186891259
-1.212462462462462 	300.0000145560709 	0.001215204120409546 	101325.0172097685
-1.20995995995996 	300.0000165894658 	0.001158333191671451 	101325.0196112963
-1.207457457457457 	300.000013502074 	0.001105607396454859 	101325.0159648305
-1.204954954954955 	300.0000156994715 	0.001048859076223741 	101325.0185671195
-1.202452452452452 	300.0000131366328 	0.0009945818103357163 	101325.0155296757
-1.19994994994995 	300.0000146668257 	0.0009334269701394299 	101325.0173415893
-1.197447447447447 	300.0000132082972 	0.0008780878666749155 	101325.0156085266
-1.194944944944945 	300.0000143889554 	0.0008153970856994842 	101325.0170121287
-1.192442442442442 	300.0000135585905 	0.0007608211497376453 	101325.0160227072
-1.18993993993994 	300.000014517748 	0.0006983379637156833 	101325.0171736208
-1.187437437437437 	300.0000140821431 	0.0006466343201003437 	101325.0166455017
-1.184934934934935 	300.0000149538607 	0.0005866142476485233 	101325.017689755
-1.182432432432432 	300.0000146341829 	0.0005378888044052885 	101325.0172918728
-1.17992992992993 	300.0000150093951 	0.0004812078094947479 	101325.0177519968
-1.177427427427427 	300.0000150803638 	0.0004368672214901135 	101325.0178168527
-1.174924924924925 	300.0000151806792 	0.0003848598638338335 	101325.0179556926
-1.172422422422422 	300.0000154050981 	0.000346482952568631 	101325.0181990048
-1.16991991991992 	300.0000151446447 	0.0003004219153262342 	101325.0179153871
-1.167417417417417 	300.0000155572733 	0.0002687200897258802 	101325.0183821627
-1.164914914914915 	300.0000149563587 	0.0002295209129559298 	101325.0176947687
-1.162412412412412 	300.0000155280018 	0.0002058021468924985 	101325.0183447474
-1.15990990990991 	300.0000145285512 	0.0001748364067695767 	101325.0171903552
-1.157407407407407 	300.000015199885 	0.0001607584180022553 	101325.0179558978
-1.154904904904904 	300.0000141923413 	0.0001402012706921898 	101325.0167939109
-1.152402402402403 	300.0000147702621 	0.0001428031228715138 	101325.0174483896
-1.1498998998999 	300.0000143591626 	0.000141859759687739 	101325.0169917966
-1.147397397397397 	300.0000145503271 	0.0001569461112445684 	101325.0171885873
-1.144894894894895 	300.0000144829341 	0.0001589941779990501 	101325.0171351512
-1.142392392392392 	300.0000147612027 	0.0001762291517758984 	101325.0174352849
-1.13988988988989 	300.0000149757482 	0.0001771756276902476 	101325.0177152583
-1.137387387387387 	300.000015266855 	0.0001943124100601662 	101325.0180345756
-1.134884884884885 	300.0000155904125 	0.0001926987889776443 	101325.0184403392
-1.132382382382382 	300.0000157857502 	0.0002076420366821149 	101325.0186503654
-1.12987987987988 	300.0000160824357 	0.0002008617853398881 	101325.0190272895
-1.127377377377377 	300.0000161888566 	0.0002087829343666272 	101325.01912894
-1.124874874874875 	300.000016343962 	0.0001948644757248084 	101325.0193320504
-1.122372372372372 	300.0000163360404 	0.0001992474426644053 	101325.0193046216
-1.11986986986987 	300.0000163963542 	0.000183417804278258 	101325.0193931729
-1.117367367367367 	300.0000163105463 	0.000186763883263225 	101325.0192734874
-1.114864864864865 	300.0000163168831 	0.0001699160880224293 	101325.0192978793
-1.112362362362362 	300.0000162191143 	0.0001729936800720847 	101325.019167173
-1.10985985985986 	300.0000162515166 	0.0001553888206684272 	101325.0192206916
-1.107357357357357 	300.0000162270567 	0.0001588325086253538 	101325.019177033
-1.104854854854855 	300.0000163436994 	0.0001405171325576834 	101325.0193273625
-1.102352352352353 	300.0000164203917 	0.0001447705866073983 	101325.0194047727
-1.09984984984985 	300.0000166080959 	0.0001258563969666448 	101325.0196381145
-1.097347347347347 	300.0000167375394 	0.0001310708244962311 	101325.0197796284
-1.094844844844845 	300.0000169220622 	0.0001118419647896243 	101325.0200090059
-1.092342342342342 	300.000017013491 	0.0001178999309894828 	101325.0201088066
-1.08983983983984 	300.0000171157453 	9.872118827972614e-05 	101325.0202404301
-1.087337337337337 	300.0000171135692 	0.0001054266437940136 	101325.020229753
-1.084834834834835 	300.0000171190834 	8.652284325721106e-05 	101325.0202434721
-1.082332332332332 	300.0000170482965 	9.383582133739096e-05 	101325.020151909
-1.07982982982983 	300.0000170204925 	7.513482513578047e-05 	101325.0201241129
-1.077327327327327 	300.0000169699487 	8.325358269190416e-05 	101325.0200576781
-1.074824824824825 	300.0000170024465 	6.444245969169206e-05 	101325.0201010999
-1.072322322322323 	300.0000170532905 	7.36714259710481e-05 	101325.0201564503
-1.06981981981982 	300.0000171987203 	5.441635852549783e-05 	101325.0203327277
-1.067317317317317 	300.000017364028 	6.494969981373266e-05 	101325.0205244334
-1.064814814814815 	300.000017594765 	4.519075566257348e-05 	101325.0208009219
-1.062312312312312 	300.0000178103517 	5.69552099491903e-05 	101325.0210531254
-1.05980980980981 	300.000018040141 	4.733991966336304e-05 	101325.0213280733
-1.057307307307307 	300.0000182113328 	5.725322240148765e-05 	101325.0215290135
-1.054804804804805 	300.0000183579747 	4.909006609467423e-05 	101325.0217044955
-1.052302302302302 	300.0000184295275 	5.705358815370803e-05 	101325.0217869544
-1.0497997997998 	300.0000184738416 	5.022299690446687e-05 	101325.0218404042
-1.047297297297297 	300.0000184657385 	5.638210314503357e-05 	101325.0218296077
-1.044794794794795 	300.0000184624345 	5.095063992245912e-05 	101325.0218264332
-1.042292292292292 	300.0000184516077 	5.563047444240497e-05 	101325.0218127858
-1.03978978978979 	300.0000184801933 	5.170142939625512e-05 	101325.0218469833
-1.037287287287287 	300.0000185331854 	5.522498349910174e-05 	101325.0219088303
-1.034784784784785 	300.0000186340638 	5.275783402603877e-05 	101325.0220280769
-1.032282282282283 	300.0000187586473 	5.531527068386774e-05 	101325.0221755264
-1.02977977977978 	300.0000189101938 	5.406583179173566e-05 	101325.0223551362
-1.027277277277277 	300.0000190635419 	5.573238970181254e-05 	101325.0225367087
-1.024774774774775 	300.0000192136462 	5.533866112264763e-05 	101325.0227141218
-1.022272272272272 	300.0000193449615 	5.619816450194057e-05 	101325.0228693676
-1.01976976976977 	300.0000194560544 	5.631819367476468e-05 	101325.0230011471
-1.017267267267267 	300.0000195471644 	5.657503905742392e-05 	101325.0231097013
-1.014764764764765 	300.0000196254472 	5.696158278151845e-05 	101325.0232024053
-1.012262262262262 	300.0000197012984 	5.695276651131026e-05 	101325.0232913982
-1.00975975975976 	300.0000197824186 	5.74211444440329e-05 	101325.0233860821
-1.007257257257257 	300.0000198770804 	5.753269922909381e-05 	101325.0234969986
-1.004754754754755 	300.0000199871069 	5.791317555643083e-05 	101325.0236269486
-1.002252252252252 	300.0000201113401 	5.826365624545493e-05 	101325.0237747914
-0.9997497497497498 	300.0000202447467 	5.864967081211157e-05 	101325.0239334286
-0.9972472472472473 	300.0000203790661 	5.903553025885054e-05 	101325.0240922638
-0.9947447447447449 	300.0000205045411 	5.939441649690698e-05 	101325.0242399074
-0.9922422422422421 	300.0000206130796 	5.970479081555078e-05 	101325.0243672997
-0.9897397397397399 	300.000020700083 	5.9958261480442e-05 	101325.0244703177
-0.9872372372372376 	300.0000207674794 	6.015900654754722e-05 	101325.0245512901
-0.9847347347347346 	300.0000208234443 	6.032907074597342e-05 	101325.0246189929
-0.9822322322322323 	300.0000208806936 	6.050077298256701e-05 	101325.0246869027
-0.9797297297297296 	300.0000209521017 	6.070792556520406e-05 	101325.0247699983
-0.9772272272272275 	300.0000210474775 	6.098195025301098e-05 	101325.0248807781
-0.9747247247247248 	300.0000211708875 	6.133560587111614e-05 	101325.0250253348
-0.9722222222222224 	300.0000213186924 	6.176033654599292e-05 	101325.0252004877
-0.9697197197197196 	300.0000214805257 	6.222653229291024e-05 	101325.0253931839
-0.9672172172172175 	300.0000216395829 	6.268380788371858e-05 	101325.0255829253
-0.9647147147147147 	300.0000217771423 	6.307812398036114e-05 	101325.0257465938
-0.9622122122122124 	300.0000218765932 	6.336312815969722e-05 	101325.0258642788
-0.9597097097097099 	300.0000219283979 	6.351148982600179e-05 	101325.0259248886
-0.9572072072072073 	300.0000219335712 	6.352912126335376e-05 	101325.0259300817
-0.9547047047047047 	300.0000219050554 	6.345212035260702e-05 	101325.0258950844
-0.9522022022022023 	300.0000218643823 	6.334273150434744e-05 	101325.0258463475
-0.9496996996996998 	300.0000218401794 	6.328273165151439e-05 	101325.0258171876
-0.9471971971971973 	300.0000218617754 	6.335264212856462e-05 	101325.0258420023
-0.9446946946946947 	300.0000219523697 	6.361825669036177e-05 	101325.0259487854
-0.9421921921921923 	300.0000221237951 	6.411201159299323e-05 	101325.0261509537
-0.93968968968969 	300.0000223696371 	6.481361351544655e-05 	101325.0264412189
-0.9371871871871872 	300.0000226646025 	6.565371013419777e-05 	101325.0267901124
-0.9346846846846848 	300.0000229689049 	6.652043142674247e-05 	101325.0271506093
-0.9321821821821823 	300.0000232369666 	6.728305709440426e-05 	101325.0274683533
-0.9296796796796799 	300.0000234277769 	6.782814721651398e-05 	101325.0276946441
-0.9271771771771771 	300.0000235148486 	6.808072351490474e-05 	101325.0277984399
-0.9246746746746748 	300.0000234939922 	6.802774432568272e-05 	101325.0277742228
-0.9221721721721724 	300.0000233838657 	6.772326194364413e-05 	101325.0276440191
-0.9196696696696698 	300.0000232224861 	6.727412337836958e-05 	101325.0274532064
-0.9171671671671672 	300.0000230599615 	6.682136739746196e-05 	101325.0272608366
-0.9146646646646649 	300.0000229472339 	6.650822529194272e-05 	101325.02712676
-0.9121621621621623 	300.0000229238942 	6.644651740013212e-05 	101325.0270985357
-0.9096596596596597 	300.0000230102918 	6.669538431793441e-05 	101325.0272006079
-0.9071571571571573 	300.000023203097 	6.724352645009406e-05 	101325.0274283324
-0.9046546546546547 	300.0000234743035 	6.80119687801111e-05 	101325.0277489646
-0.9021521521521524 	300.0000237788674 	6.887734911635346e-05 	101325.0281096735
-0.8996496496496498 	300.0000240665169 	6.969518269649659e-05 	101325.0284502835
-0.8971471471471473 	300.0000242918787 	7.033731378622505e-05 	101325.0287170331
-0.894644644644645 	300.0000244244471 	7.071968282381286e-05 	101325.0288741588
-0.892142142142142 	300.0000244556989 	7.08159123633962e-05 	101325.0289113462
-0.8896396396396397 	300.0000244001299 	7.066757867952505e-05 	101325.0288456622
-0.8871371371371374 	300.0000242912062 	7.036917396044665e-05 	101325.0287170241
-0.8846346346346349 	300.0000241736778 	7.004333971135461e-05 	101325.0285777588
-0.8821321321321324 	300.0000240907173 	6.981372222067967e-05 	101325.0284791474
-0.8796296296296297 	300.0000240737352 	6.97686115746944e-05 	101325.0284588187
-0.8771271271271271 	300.000024135512 	6.994380302786278e-05 	101325.0285318897
-0.8746246246246248 	300.0000242674474 	7.031630622976713e-05 	101325.028687888
-0.8721221221221224 	300.0000244420186 	7.080858029278726e-05 	101325.0288945518
-0.8696196196196196 	300.0000246221131 	7.131769717139027e-05 	101325.0291078028
-0.8671171171171175 	300.0000247717438 	7.174285997876324e-05 	101325.0292848974
-0.8646146146146148 	300.0000248658365 	7.201378579937716e-05 	101325.0293966379
-0.8621121121121121 	300.0000248981814 	7.211247005406657e-05 	101325.0294349857
-0.8596096096096097 	300.0000248805131 	7.207009117300319e-05 	101325.0294137972
-0.857107107107107 	300.0000248375712 	7.195584793643297e-05 	101325.0293627757
-0.8546046046046049 	300.0000247993684 	7.185336872136802e-05 	101325.0293170443
-0.8521021021021022 	300.0000247901907 	7.182992010862459e-05 	101325.029305715
-0.8495995995995997 	300.0000248212939 	7.191822138830372e-05 	101325.0293425797
-0.8470970970970974 	300.0000248877424 	7.210510480255314e-05 	101325.0294217286
-0.8445945945945946 	300.0000249708247 	7.233613960177681e-05 	101325.0295201819
-0.8420920920920922 	300.0000250448506 	7.254153530829575e-05 	101325.0296073185
-0.8395895895895897 	300.0000250875323 	7.266190535613456e-05 	101325.0296576415
-0.8370870870870872 	300.00002509093 	7.267457909906596e-05 	101325.02966165
-0.8345845845845846 	300.0000250644669 	7.260736338881087e-05 	101325.0296304504
-0.8320820820820823 	300.0000250320201 	7.252577922634336e-05 	101325.0295925383
-0.8295795795795798 	300.0000250247307 	7.251548343173891e-05 	101325.0295842994
-0.8270770770770772 	300.0000250697996 	7.265103760676851e-05 	101325.0296374579
-0.8245745745745746 	300.0000251793941 	7.296500398303862e-05 	101325.0297669285
-0.8220720720720721 	300.0000253452532 	7.343405346596605e-05 	101325.0299626857
-0.8195695695695699 	300.0000255369665 	7.397237606805471e-05 	101325.0301890196
-0.817067067067067 	300.0000257090253 	7.445379411527629e-05 	101325.0303926858
-0.8145645645645651 	300.0000258148459 	7.474907780561834e-05 	101325.0305181717
-0.8120620620620621 	300.0000258213217 	7.476450006946044e-05 	101325.0305257893
-0.8095595595595597 	300.0000257207234 	7.448176614368927e-05 	101325.0304069258
-0.8070570570570572 	300.0000255374013 	7.397038024599341e-05 	101325.030190562
-0.8045545545545546 	300.0000253233324 	7.337309029627242e-05 	101325.0299374626
-0.8020520520520523 	300.0000251428619 	7.286957688743543e-05 	101325.0297232559
-0.7995495495495494 	300.0000250531956 	7.262003075081839e-05 	101325.0296162179
-0.7970470470470474 	300.0000250874929 	7.271759468488927e-05 	101325.0296563189
-0.7945445445445446 	300.0000252440225 	7.315747107511576e-05 	101325.0298413931
-0.7920420420420423 	300.0000254837021 	7.382960941423713e-05 	101325.0301254627
-0.7895395395395397 	300.0000257414194 	7.455300579090804e-05 	101325.0304314062
-0.7870370370370371 	300.0000259459649 	7.512779067531194e-05 	101325.0306743847
-0.7845345345345348 	300.000026041577 	7.539615995807053e-05 	101325.0307876982
-0.7820320320320323 	300.0000260043131 	7.529149772445609e-05 	101325.0307427705
-0.7795295295295296 	300.000025848102 	7.485363133064935e-05 	101325.0305569486
-0.7770270270270272 	300.0000256202445 	7.421370937692336e-05 	101325.0302863757
-0.7745245245245247 	300.0000253838867 	7.354970564155037e-05 	101325.0300064512
-0.7720220220220222 	300.0000251982307 	7.302586064863163e-05 	101325.0297872355
-0.7695195195195199 	300.0000251002047 	7.274628431688053e-05 	101325.0296724165
-0.767017017017017 	300.0000250957839 	7.272669868864673e-05 	101325.0296681612
-0.7645145145145147 	300.0000251607479 	7.290026493305478e-05 	101325.0297454094
-0.7620120120120122 	300.0000252530548 	7.315348263355601e-05 	101325.0298548682
-0.7595095095095097 	300.0000253315658 	7.337373186088342e-05 	101325.0299483668
-0.7570070070070072 	300.0000253720902 	7.349217442986275e-05 	101325.0299970026
-0.7545045045045048 	300.0000253727067 	7.350194455685084e-05 	101325.0299984637
-0.7520020020020022 	300.0000253487601 	7.344274624727e-05 	101325.0299712232
-0.7494994994994997 	300.0000253217112 	7.336947561064396e-05 	101325.0299394831
-0.7469969969969972 	300.0000253034884 	7.33130512545612e-05 	101325.0299171065
-0.7444944944944945 	300.0000252890616 	7.326114077010567e-05 	101325.029898795
-0.7419919919919924 	300.0000252597254 	7.316448909027535e-05 	101325.0298626663
-0.7394894894894897 	300.000025192648 	7.296404898635664e-05 	101325.0297826923
-0.7369869869869872 	300.0000250764996 	7.262967736631267e-05 	101325.0296449717
-0.7344844844844846 	300.0000249198555 	7.218823987807867e-05 	101325.0294600775
-0.7319819819819822 	300.0000247546668 	7.172703393336325e-05 	101325.0292651406
-0.7294794794794797 	300.000024626046 	7.137212740798593e-05 	101325.0291137624
-0.7269769769769773 	300.0000245778796 	7.124300033398972e-05 	101325.0290573363
-0.7244744744744747 	300.0000246344342 	7.140514225196705e-05 	101325.0291246336
-0.721971971971972 	300.0000247890388 	7.183873694462207e-05 	101325.0293074956
-0.7194694694694695 	300.0000250026132 	7.243191220594014e-05 	101325.0295589496
-0.7169669669669674 	300.0000252124534 	7.301178726760577e-05 	101325.0298055534
-0.7144644644644647 	300.0000253528194 	7.339497738376437e-05 	101325.0299693599
-0.711961961961962 	300.0000253729992 	7.344200465583928e-05 	101325.0299914308
-0.7094594594594597 	300.0000252534904 	7.310122229065061e-05 	101325.0298496003
-0.7069569569569573 	300.0000250123794 	7.242184878656916e-05 	101325.0295649781
-0.7044544544544545 	300.0000246985172 	7.153845858984518e-05 	101325.029194913
-0.7019519519519523 	300.0000243759301 	7.062940261649631e-05 	101325.0288148368
-0.6994494494494495 	300.0000241050798 	6.986247076587844e-05 	101325.028495884
-0.6969469469469471 	300.0000239272231 	6.935272995435016e-05 	101325.0282860928
-0.6944444444444446 	300.0000238543132 	6.913612074206272e-05 	101325.0282001166
-0.6919419419419421 	300.0000238707808 	6.917030458756878e-05 	101325.0282195068
-0.6894394394394396 	300.0000239405605 	6.935873408571213e-05 	101325.0283026338
-0.6869369369369374 	300.0000240226865 	6.958437888004843e-05 	101325.028400112
-0.6844344344344344 	300.0000240812498 	6.974741441790208e-05 	101325.0284697928
-0.6819319319319321 	300.0000240947568 	6.978622391798665e-05 	101325.0284863318
-0.6794294294294296 	300.0000240584478 	6.968362729194216e-05 	101325.0284434054
-0.6769269269269272 	300.0000239792313 	6.945877989545446e-05 	101325.0283495268
-0.6744244244244245 	300.000023870788 	6.914711805234727e-05 	101325.0282204402
-0.6719219219219222 	300.0000237454475 	6.878646990465928e-05 	101325.0280718103
-0.6694194194194195 	300.0000236133298 	6.840443717793542e-05 	101325.0279150333
-0.6669169169169172 	300.0000234797426 	6.801858918510653e-05 	101325.0277570169
-0.6644144144144146 	300.0000233487928 	6.764294488372634e-05 	101325.0276027985
-0.661911911911912 	300.0000232265526 	6.729281351872411e-05 	101325.0274587684
-0.6594094094094097 	300.0000231211234 	6.699166010851769e-05 	101325.0273343244
-0.656906906906907 	300.0000230420493 	6.676565953806862e-05 	101325.0272408055
-0.6544044044044046 	300.0000229977016 	6.663715268495995e-05 	101325.0271879586
-0.6519019019019021 	300.0000229909857 	6.661429181173769e-05 	101325.0271793766
-0.6493993993993996 	300.0000230163969 	6.668087665847778e-05 	101325.0272088716
-0.6468968968968971 	300.0000230592591 	6.679686787253018e-05 	101325.0272594676
-0.6443943943943946 	300.000023098308 	6.690103420628107e-05 	101325.027305744
-0.6418918918918921 	300.0000231097471 	6.692528453735399e-05 	101325.027318966
-0.6393893893893897 	300.0000230718088 	6.680903166479325e-05 	101325.0272735662
-0.6368868868868871 	300.0000229704647 	6.651340610773165e-05 	101325.0271532879
-0.6343843843843846 	300.0000228032072 	6.603253688832221e-05 	101325.0269554069
-0.6318818818818821 	300.0000225797292 	6.539474413793303e-05 	101325.0266919413
-0.6293793793793795 	300.0000223215972 	6.465908565372082e-05 	101325.0263875488
-0.6268768768768773 	300.0000220560889 	6.390307273776904e-05 	101325.0260746785
-0.6243743743743745 	300.0000218124406 	6.320796221592596e-05 	101325.0257873237
-0.6218718718718721 	300.0000216162929 	6.264513669614089e-05 	101325.0255550334
-0.6193693693693696 	300.000021483851 	6.226384039588641e-05 	101325.0253983474
-0.6168668668668671 	300.0000214234962 	6.208670694133367e-05 	101325.0253263772
-0.6143643643643645 	300.0000214324821 	6.210853165927007e-05 	101325.0253367533
-0.6118618618618621 	300.0000215004404 	6.230070960159092e-05 	101325.0254175409
-0.6093593593593596 	300.0000216124346 	6.261940049262736e-05 	101325.0255502722
-0.6068568568568571 	300.0000217499788 	6.301133454071186e-05 	101325.0257131085
-0.6043543543543546 	300.0000218943681 	6.342199614334959e-05 	101325.0258834195
-0.6018518518518521 	300.0000220271878 	6.379848321342754e-05 	101325.0260395262
-0.5993493493493496 	300.0000221312889 	6.409287137271005e-05 	101325.0261618084
-0.5968468468468471 	300.0000221924161 	6.426534107342221e-05 	101325.0262337069
-0.5943443443443446 	300.0000222001214 	6.428608874463312e-05 	101325.0262429941
-0.591841841841842 	300.0000221488028 	6.413993847655563e-05 	101325.026183251
-0.5893393393393397 	300.0000220395905 	6.382837697135204e-05 	101325.0260550673
-0.5868368368368371 	300.000021879613 	6.337040716337249e-05 	101325.0258663366
-0.5843343343343346 	300.0000216806602 	6.280013706333206e-05 	101325.0256312654
-0.5818318318318321 	300.000021458043 	6.216154565514516e-05 	101325.0253681284
-0.5793293293293297 	300.0000212277996 	6.150075086467095e-05 	101325.0250962414
-0.5768268268268271 	300.000021005042 	6.085948505077878e-05 	101325.0248328826
-0.5743243243243245 	300.0000208006029 	6.026902157546094e-05 	101325.0245909267
-0.5718218218218221 	300.0000206205094 	5.974677559652459e-05 	101325.0243776634
-0.5693193193193196 	300.0000204667492 	5.929806520038887e-05 	101325.0241949032
-0.5668168168168171 	300.0000203364567 	5.891697123359001e-05 	101325.0240401562
-0.5643143143143147 	300.0000202257544 	5.859207678279011e-05 	101325.0239084395
-0.5618118118118121 	300.0000201301157 	5.8310394696825e-05 	101325.0237941651
-0.5593093093093094 	300.0000200446303 	5.806033856838714e-05 	101325.0236926216
-0.5568068068068072 	300.0000199666393 	5.783476626836478e-05 	101325.0236007358
-0.5543043043043046 	300.0000198951241 	5.762974061337515e-05 	101325.023517057
-0.551801801801802 	300.0000198296354 	5.744382944793339e-05 	101325.0234411748
-0.5492992992992995 	300.0000197710852 	5.72767636269539e-05 	101325.0233729173
-0.5467967967967969 	300.0000197185813 	5.712622968533772e-05 	101325.0233116543
-0.5442942942942947 	300.0000196709447 	5.698896441152462e-05 	101325.0232559075
-0.5417917917917919 	300.0000196259546 	5.685936455776279e-05 	101325.0232033122
-0.5392892892892895 	300.0000195814754 	5.672959593009876e-05 	101325.0231508728
-0.536786786786787 	300.000019534646 	5.65929161056236e-05 	101325.0230953631
-0.5342842842842846 	300.0000194824635 	5.644092950118446e-05 	101325.0230337349
-0.531781781781782 	300.0000194230363 	5.626809997342984e-05 	101325.0229634685
-0.5292792792792794 	300.0000193551699 	5.607051628699236e-05 	101325.0228828389
-0.526776776776777 	300.0000192781104 	5.584529744087773e-05 	101325.0227910964
-0.5242742742742745 	300.0000191923022 	5.559440617617394e-05 	101325.0226885232
-0.521771771771772 	300.0000190985318 	5.531976268586819e-05 	101325.0225763372
-0.5192692692692695 	300.0000189978239 	5.502626806050816e-05 	101325.0224564421
-0.516766766766767 	300.000018892715 	5.472006733036926e-05 	101325.0223310389
-0.5142642642642645 	300.0000187840692 	5.440443138426028e-05 	101325.0222021715
-0.511761761761762 	300.0000186737323 	5.408467947614671e-05 	101325.0220713411
-0.5092592592592596 	300.0000185621263 	5.376138435398299e-05 	101325.0219393284
-0.506756756756757 	300.0000184489805 	5.34354307376485e-05 	101325.0218063153
-0.5042542542542544 	300.0000183349206 	5.310754636854077e-05 	101325.0216722291
-0.5017517517517521 	300.0000182197495 	5.277626869580248e-05 	101325.0215371548
-0.4992492492492494 	300.0000181039845 	5.244487969491773e-05 	101325.021401676
-0.496746746746747 	300.0000179889418 	5.211542461698958e-05 	101325.0212670598
-0.4942442442442445 	300.0000178764495 	5.179272289737236e-05 	101325.0211352441
-0.4917417417417421 	300.000017768684 	5.148361976062948e-05 	101325.0210086096
-0.4892392392392395 	300.0000176677451 	5.119197870954429e-05 	101325.0208896142
-0.486736736736737 	300.0000175752498 	5.092507909008935e-05 	101325.020780423
-0.4842342342342345 	300.0000174924405 	5.068527268824389e-05 	101325.0206825896
-0.481731731731732 	300.000017420448 	5.047404094329634e-05 	101325.0205966994
-0.4792292292292296 	300.0000173574198 	5.029034148513415e-05 	101325.0205218708
-0.4767267267267268 	300.0000173010424 	5.012466438239828e-05 	101325.0204552025
-0.4742242242242246 	300.0000172476283 	4.996699325771576e-05 	101325.0203915193
-0.471721721721722 	300.0000171904108 	4.979872973736498e-05 	101325.0203237963
-0.4692192192192195 	300.0000171234083 	4.96018037177191e-05 	101325.0202443475
-0.4667167167167169 	300.0000170405469 	4.936173178685173e-05 	101325.0201464883
-0.4642142142142145 	300.0000169392231 	4.906600369226854e-05 	101325.020026142
-0.461711711711712 	300.000016818187 	4.871699394761762e-05 	101325.0198829145
-0.4592092092092094 	300.0000166808498 	4.832082867840052e-05 	101325.0197204418
-0.456706706706707 	300.0000165336049 	4.789636517877757e-05 	101325.0195460552
-0.4542042042042045 	300.0000163842602 	4.746882888643592e-05 	101325.0193698784
-0.451701701701702 	300.0000162436596 	4.706351442510487e-05 	101325.0192034456
-0.4491991991991995 	300.0000161206485 	4.671032589653775e-05 	101325.0190578994
-0.4466966966966969 	300.0000160227411 	4.642701023595911e-05 	101325.0189419563
-0.4441941941941945 	300.0000159538083 	4.62258118274583e-05 	101325.018860015
-0.441691691691692 	300.0000159122129 	4.610378201587396e-05 	101325.0188108767
-0.4391891891891895 	300.0000158925407 	4.604163079904426e-05 	101325.0187874029
-0.436686686686687 	300.0000158837742 	4.601281874281531e-05 	101325.018777262
-0.4341841841841846 	300.0000158730271 	4.597616539010172e-05 	101325.0187646991
-0.431681681681682 	300.0000158458713 	4.589434724749069e-05 	101325.0187330861
-0.4291791791791794 	300.0000157904014 	4.573199994363206e-05 	101325.0186678675
-0.426676676676677 	300.0000156984995 	4.546491014698286e-05 	101325.0185594589
-0.4241741741741744 	300.0000155684892 	4.509051475246779e-05 	101325.0184055666
-0.421671671671672 	300.0000154053472 	4.462081619066914e-05 	101325.0182123446
-0.4191691691691694 	300.0000152209188 	4.409201758878875e-05 	101325.0179939392
-0.4166666666666669 	300.0000150319972 	4.355112345951981e-05 	101325.0177702492
-0.4141641641641645 	300.0000148566318 	4.304946679671081e-05 	101325.0175632668
-0.411661661661662 	300.0000147128814 	4.263681673667e-05 	101325.0173928523
-0.4091591591591594 	300.0000146112905 	4.234331935716038e-05 	101325.0172727779
-0.406656656656657 	300.000014556144 	4.218240284578171e-05 	101325.0172077869
-0.4041541541541545 	300.0000145433071 	4.213972964936766e-05 	101325.0171922517
-0.401651651651652 	300.000014558436 	4.217740951622865e-05 	101325.0172107562
-0.3991491491491494 	300.0000145837411 	4.224332548009848e-05 	101325.0172406365
-0.396646646646647 	300.0000145963313 	4.227278271005431e-05 	101325.0172560275
-0.3941441441441444 	300.0000145762946 	4.221019092523743e-05 	101325.0172326338
-0.3916416416416419 	300.0000145079471 	4.201165779144423e-05 	101325.0171525162
-0.3891391391391395 	300.0000143855983 	4.165926547395645e-05 	101325.0170081575
-0.3866366366366368 	300.0000142135496 	4.116771983779126e-05 	101325.016804911
-0.3841341341341344 	300.0000140073157 	4.057801366249812e-05 	101325.01656096
-0.381631631631632 	300.000013790173 	3.995987338951842e-05 	101325.0163043545
-0.3791291291291294 	300.0000135903242 	3.938807837297404e-05 	101325.0160674528
-0.3766266266266269 	300.0000134321957 	3.893449488633474e-05 	101325.0158799529
-0.3741241241241244 	300.0000133327883 	3.864671277196498e-05 	101325.0157617885
-0.371621621621622 	300.000013295598 	3.853259876500423e-05 	101325.0157173531
-0.3691191191191194 	300.0000133092414 	3.856226044277289e-05 	101325.0157329411
-0.366616616616617 	300.0000133483683 	3.866230892847078e-05 	101325.0157789068
-0.3641141141141143 	300.0000133802077 	3.874355951603897e-05 	101325.0158167293
-0.3616116116116119 	300.0000133737582 	3.871735784222324e-05 	101325.0158090764
-0.3591091091091095 	300.000013306866 	3.852088826937477e-05 	101325.0157300204
-0.356606606606607 	300.0000131733971 	3.814093839632572e-05 	101325.0155727373
-0.3541041041041044 	300.0000129864503 	3.760945482578661e-05 	101325.0153520357
-0.3516016016016019 	300.000012773194 	3.700500759352787e-05 	101325.0151002775
-0.3490990990990994 	300.0000125676511 	3.642171961347079e-05 	101325.0148576293
-0.346596596596597 	300.0000124005741 	3.594384520263761e-05 	101325.0146601515
-0.3440940940940944 	300.0000122900886 	3.562576450214268e-05 	101325.0145297192
-0.3415915915915919 	300.0000122380955 	3.546981186631803e-05 	101325.0144684932
-0.3390890890890895 	300.000012230455 	3.543926370799221e-05 	101325.0144595675
-0.3365865865865869 	300.0000122424734 	3.546349523651485e-05 	101325.0144734601
-0.3340840840840844 	300.0000122462367 	3.546585006764784e-05 	101325.0144778906
-0.3315815815815819 	300.0000122202483 	3.538652618279492e-05 	101325.0144469947
-0.3290790790790794 	300.0000121526917 	3.51899689180845e-05 	101325.0143671536
-0.3265765765765769 	300.0000120434543 	3.487851321022741e-05 	101325.014238419
-0.3240740740740744 	300.0000119028826 	3.44754598388472e-05 	101325.0140719451
-0.3215715715715718 	300.0000117448491 	3.402295232733488e-05 	101325.0138850367
-0.3190690690690695 	300.0000115846378 	3.356508926674527e-05 	101325.0136959753
-0.3165665665665668 	300.0000114363228 	3.313740660861807e-05 	101325.0135203573
-0.3140640640640644 	300.0000113087974 	3.277084087092835e-05 	101325.0133695
-0.311561561561562 	300.0000112076229 	3.247867143342485e-05 	101325.0132501897
-0.3090590590590593 	300.0000111356426 	3.226862472007231e-05 	101325.0131646909
-0.3065565565565568 	300.0000110898707 	3.213362068539666e-05 	101325.0131104033
-0.3040540540540545 	300.0000110636748 	3.205223940085968e-05 	101325.0130793323
-0.3015515515515518 	300.0000110459507 	3.199570640997953e-05 	101325.0130581942
-0.2990490490490494 	300.0000110217308 	3.191975686568401e-05 	101325.0130299423
-0.2965465465465469 	300.0000109770467 	3.178551213827713e-05 	101325.0129769199
-0.2940440440440444 	300.0000108994576 	3.155911469097532e-05 	101325.012885161
-0.2915415415415418 	300.0000107840461 	3.122591613350192e-05 	101325.0127487298
-0.2890390390390395 	300.0000106349362 	3.080014800626206e-05 	101325.012572558
-0.2865365365365368 	300.0000104654877 	3.031617704078087e-05 	101325.0123723804
-0.2840340340340343 	300.0000102953097 	2.983130283560509e-05 	101325.012171258
-0.2815315315315318 	300.0000101446434 	2.940166683174383e-05 	101325.0119935431
-0.2790290290290295 	300.0000100301034 	2.907202596550381e-05 	101325.0118581912
-0.2765265265265269 	300.0000099585069 	2.886299571814536e-05 	101325.0117733583
-0.2740240240240244 	300.0000099252511 	2.876035469489594e-05 	101325.0117339344
-0.2715215215215219 	300.0000099159814 	2.872677043114227e-05 	101325.0117230102
-0.2690190190190194 	300.0000099105543 	2.870410065636402e-05 	101325.0117168857
-0.2665165165165169 	300.0000098897513 	2.86375099193622e-05 	101325.0116918953
-0.2640140140140144 	300.0000098380316 	2.848634001623282e-05 	101325.0116307771
-0.2615115115115119 	300.0000097504445 	2.823291728724721e-05 	101325.0115269422
-0.2590090090090094 	300.0000096306459 	2.789169704111178e-05 	101325.0113855552
-0.2565065065065068 	300.0000094918819 	2.749394892774534e-05 	101325.0112211183
-0.2540040040040044 	300.0000093492164 	2.708578829366286e-05 	101325.0110524366
-0.2515015015015019 	300.0000092176953 	2.670832063431144e-05 	101325.0108968534
-0.2489989989989994 	300.0000091067411 	2.6387422710678e-05 	101325.0107658028
-0.2464964964964968 	300.0000090193141 	2.613454871145816e-05 	101325.0106628297
-0.2439939939939944 	300.0000089527626 	2.593879509569263e-05 	101325.0105842405
-0.2414914914914919 	300.0000088996224 	2.578267334218628e-05 	101325.0105216872
-0.2389889889889893 	300.0000088521033 	2.564270332957935e-05 	101325.0104654004
-0.2364864864864869 	300.000008802761 	2.549669437520114e-05 	101325.0104067905
-0.2339839839839843 	300.0000087457863 	2.533212408352319e-05 	101325.0103397564
-0.2314814814814819 	300.0000086793619 	2.513771142123218e-05 	101325.0102608505
-0.2289789789789792 	300.0000086014255 	2.491276904955127e-05 	101325.0101689028
-0.2264764764764769 	300.0000085134454 	2.465848444760132e-05 	101325.0100646532
-0.2239739739739743 	300.0000084170883 	2.437960846865681e-05 	101325.0099505588
-0.2214714714714718 	300.0000083155406 	2.408809058735435e-05 	101325.0098306684
-0.2189689689689693 	300.0000082137619 	2.379430898749342e-05 	101325.0097102677
-0.2164664664664669 	300.000008116373 	2.351391593283829e-05 	101325.0095951201
-0.2139639639639643 	300.0000080274131 	2.325846956540416e-05 	101325.0094903636
-0.2114614614614618 	300.0000079504807 	2.303519748755286e-05 	101325.0093993566
-0.2089589589589593 	300.0000078858002 	2.284753255655998e-05 	101325.0093228516
-0.2064564564564568 	300.000007831444 	2.268849826384047e-05 	101325.009258743
-0.2039539539539543 	300.0000077834651 	2.254875305138917e-05 	101325.0092024082
-0.2014514514514518 	300.0000077372302 	2.241203963495926e-05 	101325.0091475197
-0.1989489489489494 	300.0000076863596 	2.226215358305891e-05 	101325.0090872223
-0.1964464464464468 	300.0000076259657 	2.208594252620124e-05 	101325.0090155759
-0.1939439439439443 	300.0000075528793 	2.187362894137232e-05 	101325.0089291256
-0.1914414414414418 	300.0000074673328 	2.16284249395547e-05 	101325.0088282548
-0.1889389389389393 	300.0000073742372 	2.135992488107809e-05 	101325.0087177729
-0.1864364364364368 	300.0000072800249 	2.108953040157092e-05 	101325.0086062092
-0.1839339339339343 	300.0000071929893 	2.084128683684163e-05 	101325.0085036127
-0.1814314314314318 	300.0000071209162 	2.063258144203568e-05 	101325.0084183063
-0.1789289289289293 	300.000007065754 	2.047339441079133e-05 	101325.0083535634
-0.1764264264264268 	300.0000070253505 	2.035172553169628e-05 	101325.0083055197
-0.1739239239239243 	300.0000069894411 	2.02441174345408e-05 	101325.0082634648
-0.1714214214214218 	300.0000069468626 	2.011622873699503e-05 	101325.0082128254
-0.1689189189189193 	300.0000068849682 	1.993454310920677e-05 	101325.0081399497
-0.1664164164164168 	300.0000067981785 	1.96839943656596e-05 	101325.0080371819
-0.1639139139139143 	300.0000066876118 	1.936695356210725e-05 	101325.0079065097
-0.1614114114114118 	300.0000065640509 	1.901488981712481e-05 	101325.0077602792
-0.1589089089089093 	300.0000064439227 	1.867435000678741e-05 	101325.0076183413
-0.1564064064064068 	300.0000063460075 	1.839524561956559e-05 	101325.0075025018
-0.1539039039039043 	300.000006284931 	1.822110465582121e-05 	101325.0074301183
-0.1514014014014018 	300.0000062669471 	1.816577769150277e-05 	101325.0074085517
-0.1488988988988993 	300.0000062868996 	1.821847424285328e-05 	101325.0074321891
-0.1463963963963968 	300.0000063301857 	1.833610598183527e-05 	101325.0074832804
-0.1438938938938943 	300.0000063750471 	1.845827093330032e-05 	101325.0075366389
-0.1413913913913918 	300.0000064001711 	1.852616405620905e-05 	101325.0075665252
-0.1388888888888893 	300.0000063890336 	1.849012494367798e-05 	101325.0075532965
-0.1363863863863868 	300.0000063336423 	1.833256428324607e-05 	101325.0074883175
-0.1338838838838843 	300.0000062385951 	1.806262681748839e-05 	101325.0073760517
-0.1313813813813818 	300.0000061177022 	1.771825143403043e-05 	101325.0072327159
-0.1288788788788793 	300.0000059899124 	1.735700290224066e-05 	101325.0070818545
-0.1263763763763768 	300.0000058770788 	1.703526785224655e-05 	101325.0069482826
-0.1238738738738743 	300.0000057959563 	1.680487889761302e-05 	101325.0068524894
-0.1213713713713717 	300.0000057574047 	1.669269321771448e-05 	101325.0068066175
-0.1188688688688693 	300.0000057625994 	1.67041875753954e-05 	101325.006812411
-0.1163663663663668 	300.0000058036446 	1.681977647883177e-05 	101325.0068613865
-0.1138638638638643 	300.0000058679676 	1.69979944581021e-05 	101325.0069370389
-0.1113613613613618 	300.0000059368983 	1.719200076963916e-05 	101325.007018543
-0.1088588588588592 	300.0000059928739 	1.73484680692954e-05 	101325.0070848643
-0.1063563563563568 	300.0000060209222 	1.742659441092339e-05 	101325.0071182408
-0.1038538538538543 	300.0000060111597 	1.739774141932337e-05 	101325.0071067906
-0.1013513513513517 	300.0000059600579 	1.7249641279465e-05 	101325.0070462234
-0.09884884884884926 	300.000005870276 	1.699519528817367e-05 	101325.006940601
-0.09634634634634676 	300.0000057528417 	1.66601788502334e-05 	101325.0068019342
-0.09384384384384425 	300.0000056231771 	1.629113288838602e-05 	101325.0066485201
-0.09134134134134177 	300.0000054998198 	1.593927187592601e-05 	101325.0065020534
-0.08883883883883925 	300.0000054001265 	1.565540941416752e-05 	101325.0063841443
-0.08633633633633674 	300.0000053396408 	1.548523177666791e-05 	101325.0063128666
-0.08383383383383426 	300.0000053286922 	1.545249802546012e-05 	101325.0062995308
-0.08133133133133173 	300.0000053679078 	1.556457036228922e-05 	101325.0063460777
-0.07882882882882926 	300.0000054503063 	1.579848283992498e-05 	101325.0064438056
-0.07632632632632676 	300.00000556073 	1.610961590114059e-05 	101325.0065740875
-0.07382382382382424 	300.0000056767075 	1.643866944339098e-05 	101325.0067115137
-0.07132132132132173 	300.0000057763037 	1.671792600765508e-05 	101325.0068288081
-0.06881881881881925 	300.0000058380481 	1.689332939964984e-05 	101325.0069021188
-0.06631631631631671 	300.0000058494737 	1.692498810438676e-05 	101325.0069159014
-0.06381381381381425 	300.000005807937 	1.680696644606196e-05 	101325.0068665802
-0.06131131131131173 	300.0000057210386 	1.656221704734293e-05 	101325.0067639098
-0.05880880880880923 	300.0000056069024 	1.623989703514098e-05 	101325.0066291546
-0.05630630630630672 	300.0000054895158 	1.590899368931617e-05 	101325.0064902041
-0.05380380380380424 	300.0000053923613 	1.563259811678023e-05 	101325.0063749815
-0.05130130130130173 	300.0000053334722 	1.546652499495405e-05 	101325.0063053939
-0.04879879879879922 	300.0000053226175 	1.54359191291418e-05 	101325.0062929163
-0.04629629629629672 	300.0000053595301 	1.553877821519005e-05 	101325.0063365665
-0.04379379379379422 	300.0000054336853 	1.574792942599888e-05 	101325.0064240452
-0.04129129129129173 	300.0000055283464 	1.601425005109176e-05 	101325.0065358522
-0.03878878878878922 	300.0000056260516 	1.629264010687185e-05 	101325.0066511642
-0.03628628628628671 	300.0000057123691 	1.653929806244557e-05 	101325.0067532881
-0.03378378378378422 	300.0000057794913 	1.673405125364532e-05 	101325.00683291
-0.03128128128128172 	300.0000058268034 	1.687278814916254e-05 	101325.0068886322
-0.02877877877877922 	300.0000058576929 	1.696326361086848e-05 	101325.0069250282
-0.0262762762762767 	300.0000058778077 	1.702562087105915e-05 	101325.0069492215
-0.02377377377377422 	300.0000058935379 	1.706987132409458e-05 	101325.0069673893
-0.0212712712712717 	300.0000059058797 	1.710753648075568e-05 	101325.0069825401
-0.01876876876876921 	300.0000059159913 	1.713558954951015e-05 	101325.0069942644
-0.01626626626626671 	300.0000059212725 	1.714967334174444e-05 	101325.0070003525
-0.0137637637637642 	300.0000059203259 	1.714934035730255e-05 	101325.0069995019
-0.0112612612612617 	300.0000059158014 	1.71367554836008e-05 	101325.0069939037
-0.008758758758759198 	300.0000059128351 	1.713293903738245e-05 	101325.0069905272
-0.006256256256256697 	300.0000059209376 	1.715983758134489e-05 	101325.0070003558
-0.003753753753754195 	300.0000059511532 	1.724954598685353e-05 	101325.0070356535
-0.001251251251251693 	300.0000060107071 	1.742310205552143e-05 	101325.0071059689
0.00125125125125081 	300.0000061023815 	1.768540005447598e-05 	101325.0072141189
0.003753753753753312 	300.0000062204101 	1.802356428739774e-05 	101325.0073536084
0.006256256256255817 	300.0000063513613 	1.839587731797717e-05 	101325.0075087806
0.008758758758758317 	300.0000064778062 	1.875587735349944e-05 	101325.0076580629
0.01126126126126082 	300.0000065802246 	1.904671587527194e-05 	101325.0077792027
0.01376376376376332 	300.0000066440377 	1.923040428275069e-05 	101325.0078550828
0.01626626626626582 	300.0000066641973 	1.92909944264884e-05 	101325.0078788079
0.01876876876876833 	300.0000066451202 	1.924116022379967e-05 	101325.0078565072
0.02127127127127083 	300.0000066029637 	1.9128587261196e-05 	101325.007806682
0.02377377377377332 	300.0000065602576 	1.901083448588219e-05 	101325.007755762
0.02627627627627583 	300.0000065392733 	1.895863249116e-05 	101325.0077312519
0.02877877877877833 	300.0000065597046 	1.901905734397732e-05 	101325.0077547721
0.03128128128128083 	300.0000066286809 	1.921810563167784e-05 	101325.0078365067
0.03378378378378333 	300.0000067435302 	1.95468024603645e-05 	101325.007972425
0.03628628628628584 	300.000006890034 	1.996147461949251e-05 	101325.0081452996
0.03878878878878834 	300.0000070461081 	2.040650544144734e-05 	101325.0083296645
0.04129129129129084 	300.0000071892919 	2.081418216358202e-05 	101325.008499155
0.04379379379379333 	300.0000073028524 	2.11419633334226e-05 	101325.0086336042
0.04629629629629585 	300.0000073790343 	2.136449891996922e-05 	101325.0087240369
0.04879879879879834 	300.0000074216762 	2.149219431888578e-05 	101325.0087743933
0.05130130130130085 	300.0000074431064 	2.156067089223931e-05 	101325.0087994737
0.05380380380380335 	300.0000074603036 	2.161502441583313e-05 	101325.0088196559
0.05630630630630584 	300.0000074894344 	2.170464469793601e-05 	101325.0088542603
0.05880880880880836 	300.0000075415582 	2.185533866802669e-05 	101325.0089159092
0.06131131131131085 	300.0000076192354 	2.207842589591677e-05 	101325.0090074639
0.06381381381381336 	300.0000077163868 	2.235552582239257e-05 	101325.0091222872
0.06631631631631586 	300.0000078221272 	2.265879552101103e-05 	101325.0092476318
0.06881881881881835 	300.0000079256397 	2.295591702560225e-05 	101325.0093698663
0.07132132132132088 	300.0000080185946 	2.322397233526373e-05 	101325.0094796121
0.07382382382382337 	300.0000080989338 	2.346051441329258e-05 	101325.0095750389
0.07632632632632587 	300.0000081730365 	2.367697944522813e-05 	101325.0096622587
0.07882882882882837 	300.0000082495147 	2.390259050305944e-05 	101325.0097526329
0.08133133133133086 	300.0000083389046 	2.416182757523083e-05 	101325.0098579647
0.08383383383383337 	300.0000084468481 	2.447417894441778e-05 	101325.0099853633
0.08633633633633589 	300.0000085718926 	2.483381872537165e-05 	101325.0101336146
0.08883883883883838 	300.0000087065558 	2.521817534714146e-05 	101325.010292453
0.09134134134134086 	300.0000088355103 	2.558773660951427e-05 	101325.0104452282
0.09384384384384339 	300.0000089440926 	2.589910822462582e-05 	101325.010574147
0.09634634634634588 	300.0000090223032 	2.612553157560513e-05 	101325.0106664341
0.09884884884884838 	300.0000090671695 	2.625726093071789e-05 	101325.010719503
0.1013513513513509 	300.0000090875623 	2.632306448258427e-05 	101325.0107432854
0.1038538538538534 	300.0000091002822 	2.636789084499511e-05 	101325.0107585555
0.1063563563563559 	300.0000091285202 	2.645653994915199e-05 	101325.0107915509
0.1088588588588584 	300.0000091923114 	2.66454776186189e-05 	101325.0108666637
0.1113613613613609 	300.0000093040859 	2.69700983469037e-05 	101325.0109991591
0.1138638638638634 	300.0000094654784 	2.743351176332678e-05 	101325.0111897746
0.1163663663663659 	300.0000096627749 	2.799503536967131e-05 	101325.0114230027
0.1188688688688684 	300.0000098718675 	2.859118900805131e-05 	101325.0116701724
0.1213713713713709 	300.0000100634611 	2.913536444872628e-05 	101325.0118967153
0.1238738738738734 	300.0000102105672 	2.955784787115119e-05 	101325.0120712622
0.1263763763763759 	300.0000102976812 	2.980928590764009e-05 	101325.0121742308
0.1288788788788784 	300.000010322589 	2.988738431509439e-05 	101325.0122039151
0.1313813813813809 	300.0000103007463 	2.983534547183372e-05 	101325.0121781391
0.1338838838838834 	300.0000102604395 	2.97299064273454e-05 	101325.0121303416
0.1363863863863859 	300.0000102359106 	2.966976663174133e-05 	101325.0121008529
0.1388888888888884 	300.0000102578585 	2.973805545759281e-05 	101325.0121262743
0.1413913913913909 	300.0000103457015 	2.999397939811923e-05 	101325.012229911
0.1438938938938934 	300.0000105026393 	3.044216464762243e-05 	101325.012415313
0.1463963963963959 	300.0000107136136 	3.104396509395298e-05 	101325.0126648875
0.1488988988988985 	300.0000109499067 	3.171674057536337e-05 	101325.0129445575
0.1514014014014009 	300.0000111771865 	3.236425548821631e-05 	101325.0132134017
0.1539039039039035 	300.0000113641778 	3.29012147299179e-05 	101325.0134349613
0.1564064064064059 	300.0000114920226 	3.327118082961939e-05 	101325.0135866873
0.1589089089089084 	300.0000115584269 	3.346936913104379e-05 	101325.0136652983
0.1614114114114109 	300.0000115763319 	3.352885348471631e-05 	101325.0136865343
0.1639139139139134 	300.0000115702053 	3.352166603844353e-05 	101325.0136793243
0.166416416416416 	300.0000115683962 	3.352194661013501e-05 	101325.0136763857
0.1689189189189185 	300.000011592902 	3.359608173734374e-05 	101325.0137046726
0.1714214214214209 	300.000011655868 	3.377813228289875e-05 	101325.0137787677
0.1739239239239235 	300.0000117575315 	3.406831374370012e-05 	101325.0138987187
0.1764264264264259 	300.0000118878478 	3.444150948779794e-05 	101325.0140526639
0.1789289289289284 	300.0000120320935 	3.485337152937601e-05 	101325.0142230105
0.181431431431431 	300.0000121760632 	3.526948330046304e-05 	101325.0143936402
0.1839339339339334 	300.0000123125724 	3.566428164943423e-05 	101325.0145553293
0.186436436436436 	300.0000124409012 	3.603931596855255e-05 	101325.0147075667
0.1889389389389385 	300.0000125667117 	3.640587395915406e-05 	101325.014856403
0.191441441441441 	300.0000126959001 	3.678137706114512e-05 	101325.0150093911
0.1939439439439434 	300.000012831257 	3.717357223643394e-05 	101325.0151698078
0.196446446446446 	300.0000129691093 	3.756836820543357e-05 	101325.0153327143
0.1989489489489485 	300.0000130979688 	3.793663213146959e-05 	101325.0154848148
0.2014514514514509 	300.0000132028067 	3.823516528270512e-05 	101325.0156085453
0.2039539539539535 	300.0000132711995 	3.84320328135848e-05 	101325.015689138
0.2064564564564559 	300.0000132992379 	3.851548415796314e-05 	101325.0157221775
0.2089589589589585 	300.0000132965791 	3.851471792946606e-05 	101325.015718583
0.211461461461461 	300.0000132845237 	3.849038418116396e-05 	101325.0157043687
0.2139639639639635 	300.0000132932743 	3.852430661708272e-05 	101325.0157142813
0.2164664664664659 	300.0000133500244 	3.869471404019769e-05 	101325.015781141
0.2189689689689684 	300.0000134710884 	3.90441656538309e-05 	101325.0159242689
0.221471471471471 	300.0000136543149 	3.956799330477033e-05 	101325.0161410487
0.2239739739739735 	300.0000138775998 	4.020246561574264e-05 	101325.016405375
0.226476476476476 	300.0000141051239 	4.084841147970807e-05 	101325.0166745162
0.2289789789789785 	300.0000142975902 	4.139540860009853e-05 	101325.0169022647
0.231481481481481 	300.0000144251278 	4.17614852714013e-05 	101325.0170534392
0.2339839839839835 	300.0000144772024 	4.191676151697861e-05 	101325.0171150907
0.236486486486486 	300.0000144650542 	4.189130238006732e-05 	101325.0171005617
0.2389889889889885 	300.0000144175772 	4.17675345128533e-05 	101325.0170445517
0.241491491491491 	300.0000143720272 	4.164757146547501e-05 	101325.0169908869
0.2439939939939935 	300.0000143616392 	4.162357784361144e-05 	101325.0169781472
0.246496496496496 	300.0000144046409 	4.174778653832439e-05 	101325.0170287211
0.2489989989989985 	300.0000145026943 	4.202660622640125e-05 	101325.0171442737
0.251501501501501 	300.0000146414989 	4.242057025969715e-05 	101325.0173082707
0.2540040040040035 	300.0000147983911 	4.286670782060074e-05 	101325.0174938455
0.256506506506506 	300.0000149503626 	4.330035477176249e-05 	101325.0176734014
0.2590090090090086 	300.0000150789749 	4.367041515181907e-05 	101325.0178260171
0.261511511511511 	300.0000151761229 	4.39505746959669e-05 	101325.0179405449
0.2640140140140135 	300.0000152387006 	4.413234120034703e-05 	101325.0180147472
0.2665165165165161 	300.0000152703161 	4.422685899892343e-05 	101325.0180524045
0.2690190190190185 	300.0000152775849 	4.425027281521598e-05 	101325.0180606882
0.271521521521521 	300.0000152678359 	4.422548280367746e-05 	101325.0180491037
0.2740240240240235 	300.000015251519 	4.41835885180419e-05 	101325.0180297929
0.276526526526526 	300.0000152413869 	4.415957485150643e-05 	101325.0180178954
0.2790290290290286 	300.0000152518589 	4.419604027726587e-05 	101325.0180305386
0.281531531531531 	300.0000152968159 	4.432931224889575e-05 	101325.0180836938
0.2840340340340335 	300.0000153846763 	4.458303764548139e-05 	101325.0181873084
0.2865365365365361 	300.0000155142107 	4.495383837604091e-05 	101325.0183404182
0.2890390390390385 	300.0000156735598 	4.540625219383799e-05 	101325.0185286253
0.291541541541541 	300.000015840373 	4.58797714537502e-05 	101325.0187258586
0.2940440440440436 	300.0000159879971 	4.629855643759062e-05 	101325.0189005021
0.296546546546546 	300.000016092256 	4.659582429183233e-05 	101325.0190239354
0.2990490490490486 	300.0000161383583 	4.673015413477036e-05 	101325.0190788368
0.3015515515515511 	300.0000161266898 	4.670078827713855e-05 	101325.019064747
0.3040540540540535 	300.0000160709313 	4.654959051342829e-05 	101325.0189989561
0.3065565565565562 	300.0000159974679 	4.634769656585005e-05 	101325.0189121108
0.3090590590590585 	300.0000159363902 	4.618056623479506e-05 	101325.0188398107
0.3115615615615611 	300.0000159136787 	4.612070187126311e-05 	101325.0188130762
0.3140640640640635 	300.0000159458432 	4.621314134959171e-05 	101325.0188506046
0.316566566566566 	300.0000160338237 	4.646385848071453e-05 	101325.0189545929
0.3190690690690687 	300.0000161657699 	4.683841074587246e-05 	101325.0191108608
0.3215715715715711 	300.0000163200779 	4.727471058753724e-05 	101325.0192929831
0.3240740740740735 	300.0000164689366 	4.769674045067058e-05 	101325.0194691336
0.326576576576576 	300.0000165874202 	4.803434318997029e-05 	101325.0196096424
0.3290790790790786 	300.0000166586227 	4.823708881614487e-05 	101325.0196933986
0.3315815815815811 	300.0000166743113 	4.828431794727041e-05 	101325.0197119507
0.3340840840840836 	300.000016639257 	4.818886298162235e-05 	101325.0196707205
0.3365865865865861 	300.0000165688818 	4.799256047052596e-05 	101325.0195873565
0.3390890890890886 	300.0000164845679 	4.775731663537347e-05 	101325.0194876671
0.3415915915915911 	300.0000164101028 	4.754987975937219e-05 	101325.0193998598
0.3440940940940935 	300.0000163663479 	4.742793194336491e-05 	101325.0193482615
0.3465965965965962 	300.0000163664033 	4.742701431215271e-05 	101325.0193478014
0.3490990990990985 	300.000016411008 	4.755201751154237e-05 	101325.019400461
0.3516016016016011 	300.0000164907287 	4.777606765520373e-05 	101325.0194947344
0.3541041041041035 	300.0000165868627 	4.804614872196222e-05 	101325.019608415
0.3566066066066061 	300.0000166759457 	4.829712372542548e-05 	101325.0197141237
0.3591091091091085 	300.0000167368251 	4.846852361062117e-05 	101325.0197862779
0.3616116116116112 	300.0000167549865 	4.852015858944211e-05 	101325.0198077911
0.3641141141141137 	300.0000167268959 	4.844293614977999e-05 	101325.0197747929
0.3666166166166161 	300.0000166617776 	4.826156485771542e-05 	101325.0196978423
0.3691191191191185 	300.0000165786939 	4.80276752166835e-05 	101325.0195990411
0.371621621621621 	300.0000164998956 	4.780698844892914e-05 	101325.0195058876
0.3741241241241237 	300.0000164476901 	4.766025637968192e-05 	101325.0194438934
0.3766266266266261 	300.0000164359341 	4.762756872483165e-05 	101325.0194299803
0.3791291291291286 	300.0000164680895 	4.771793821303184e-05 	101325.0194680646
0.3816316316316311 	300.0000165354884 	4.79071583278172e-05 	101325.0195480032
0.3841341341341336 	300.0000166206667 	4.814460725876232e-05 	101325.0196483768
0.3866366366366362 	300.00001670001 	4.836697970950003e-05 	101325.0197423581
0.3891391391391387 	300.0000167525959 	4.851471195140852e-05 	101325.0198047614
0.391641641641641 	300.0000167639957 	4.854560133944155e-05 	101325.0198181425
0.3941441441441436 	300.0000167288354 	4.844546088250926e-05 	101325.0197766272
0.3966466466466462 	300.0000166528806 	4.823097730957756e-05 	101325.019686895
0.3991491491491486 	300.000016550569 	4.794274891547203e-05 	101325.0195661645
0.4016516516516512 	300.0000164417595 	4.763528169829262e-05 	101325.0194375763
0.4041541541541536 	300.000016346137 	4.736306430593828e-05 	101325.019324238
0.4066566566566561 	300.0000162780923 	4.716771536689427e-05 	101325.0192436824
0.4091591591591587 	300.0000162448669 	4.707003283819723e-05 	101325.0192041365
0.4116616616616612 	300.0000162442223 	4.70645167423093e-05 	101325.0192033099
0.4141641641641635 	300.0000162665231 	4.712339397357294e-05 	101325.0192296158
0.4166666666666662 	300.0000162964666 	4.720452973404117e-05 	101325.0192653094
0.4191691691691687 	300.0000163177464 	4.726156654734655e-05 	101325.0192908823
0.421671671671671 	300.0000163168992 	4.725603585641627e-05 	101325.0192896937
0.4241741741741737 	300.0000162845466 	4.716279769076811e-05 	101325.0192516646
0.4266766766766761 	300.000016219824 	4.697797630749228e-05 	101325.0191752274
0.4291791791791785 	300.0000161287767 	4.671755091326724e-05 	101325.0190671618
0.4316816816816812 	300.000016021795 	4.64116754922826e-05 	101325.0189406506
0.4341841841841836 	300.000015913307 	4.610237055512353e-05 	101325.0188123222
0.4366866866866862 	300.0000158171251 	4.582834974110103e-05 	101325.0186988528
0.4391891891891885 	300.000015745367 	4.562178103223216e-05 	101325.0186136465
0.4416916916916913 	300.0000157035946 	4.550128400508317e-05 	101325.018564282
0.4441941941941936 	300.0000156924976 	4.546679121889893e-05 	101325.0185512987
0.4466966966966961 	300.0000157067032 	4.550616193616114e-05 	101325.0185685431
0.4491991991991987 	300.000015737518 	4.559117463510625e-05 	101325.0186047927
0.4517017017017012 	300.0000157722194 	4.568785901848385e-05 	101325.0186459864
0.4542042042042035 	300.0000157990383 	4.576154788031549e-05 	101325.0186775913
0.4567067067067062 	300.0000158070578 	4.578095494232156e-05 	101325.0186870011
0.4592092092092087 	300.0000157887425 	4.572790230434802e-05 	101325.0186656033
0.4617117117117112 	300.0000157421652 	4.559189114554079e-05 	101325.0186099639
0.4642142142142137 	300.0000156675475 	4.53776496598514e-05 	101325.0185218847
0.4667167167167162 	300.0000155710705 	4.510012446839585e-05 	101325.0184074911
0.4692192192192187 	300.0000154595934 	4.478037936715396e-05 	101325.0182758827
0.4717217217217212 	300.0000153429788 	4.444658866290529e-05 	101325.0181377711
0.4742242242242236 	300.0000152294704 	4.412194795948652e-05 	101325.018003989
0.4767267267267262 	300.0000151278824 	4.382941975183304e-05 	101325.0178838834
0.4792292292292287 	300.0000150436179 	4.358573142308891e-05 	101325.017784074
0.4817317317317312 	300.00001497908 	4.33980069127529e-05 	101325.0177077953
0.4842342342342336 	300.0000149339689 	4.326751284962108e-05 	101325.0176547125
0.4867367367367362 	300.0000149052794 	4.318247633494175e-05 	101325.0176209747
0.4892392392392387 	300.0000148872062 	4.312592984221422e-05 	101325.0175993474
0.4917417417417412 	300.0000148706165 	4.307450717391993e-05 	101325.0175797998
0.4942442442442437 	300.0000148457215 	4.300040500936855e-05 	101325.0175509452
0.4967467467467462 	300.0000148041636 	4.287854014890009e-05 	101325.0175018781
0.4992492492492487 	300.0000147380222 	4.268571356654616e-05 	101325.0174238182
0.5017517517517511 	300.0000146429807 	4.240966486043195e-05 	101325.0173113874
0.5042542542542537 	300.0000145178916 	4.204766055944431e-05 	101325.0171634634
0.5067567567567562 	300.0000143655512 	4.16089732325334e-05 	101325.0169836292
0.5092592592592589 	300.0000141932649 	4.111412850280141e-05 	101325.0167800451
0.5117617617617611 	300.0000140107477 	4.058933348635833e-05 	101325.0165643386
0.5142642642642637 	300.0000138293001 	4.006784292589955e-05 	101325.0163498005
0.5167667667667663 	300.0000136599089 	3.958050200017235e-05 	101325.0161496215
0.5192692692692688 	300.0000135123328 	3.915646010788275e-05 	101325.0159754327
0.5217717717717714 	300.0000133947595 	3.881773880816457e-05 	101325.0158361432
0.5242742742742736 	300.0000133110521 	3.857493882197112e-05 	101325.0157369925
0.5267767767767763 	300.00001326207 	3.843151735049854e-05 	101325.0156788487
0.5292792792792789 	300.0000132447518 	3.837811791877512e-05 	101325.0156582246
0.5317817817817813 	300.0000132531788 	3.839920865037525e-05 	101325.0156681163
0.5342842842842837 	300.0000132798496 	3.847228556827503e-05 	101325.0156990868
0.5367867867867864 	300.0000133149067 	3.856985678146214e-05 	101325.0157404285
0.5392892892892888 	300.000013349553 	3.866781269086605e-05 	101325.0157814517
0.5417917917917912 	300.0000133762586 	3.874187496831059e-05 	101325.0158127122
0.5442942942942938 	300.0000133883983 	3.877603242093824e-05 	101325.0158270439
0.5467967967967964 	300.0000133824147 	3.875862566747464e-05 	101325.0158199473
0.5492992992992988 	300.0000133564023 	3.868235233868815e-05 	101325.0157891362
0.5518018018018012 	300.0000133098703 	3.854796652723019e-05 	101325.0157340634
0.5543043043043039 	300.000013243975 	3.835673773240961e-05 	101325.0156558904
0.5568068068068063 	300.0000131606265 	3.81174320494633e-05 	101325.0155575282
0.5593093093093087 	300.0000130637346 	3.78400812690396e-05 	101325.0154434433
0.5618118118118114 	300.0000129584847 	3.753613834134428e-05 	101325.0153189898
0.5643143143143137 	300.0000128487574 	3.722057940884271e-05 	101325.0151894585
0.5668168168168163 	300.0000127389987 	3.690321324186507e-05 	101325.0150595587
0.5693193193193188 	300.0000126321881 	3.659469005166804e-05 	101325.0149331298
0.5718218218218213 	300.0000125302323 	3.629936237180101e-05 	101325.0148125773
0.5743243243243239 	300.0000124336863 	3.601803574842505e-05 	101325.0146984313
0.5768268268268262 	300.0000123412917 	3.574981661206214e-05 	101325.0145893176
0.5793293293293288 	300.0000122506409 	3.548681485219365e-05 	101325.0144824182
0.5818318318318314 	300.000012159263 	3.522275660521331e-05 	101325.0143744552
0.5843343343343338 	300.0000120647524 	3.494822631259658e-05 	101325.0142625294
0.5868368368368363 	300.0000119648982 	3.465842521261367e-05 	101325.0141446435
0.5893393393393387 	300.0000118595641 	3.435480014850268e-05 	101325.0140204442
0.5918418418418413 	300.0000117506548 	3.404009779394362e-05 	101325.0138917139
0.5943443443443439 	300.0000116411309 	3.372443335602969e-05 	101325.0137620324
0.5968468468468463 	300.0000115343489 	3.341563288228846e-05 	101325.0136357311
0.5993493493493487 	300.0000114334684 	3.312224149054953e-05 	101325.0135163363
0.6018518518518514 	300.0000113394588 	3.285041817957852e-05 	101325.013405356
0.6043543543543537 	300.0000112522285 	3.259670934889621e-05 	101325.0133020602
0.6068568568568564 	300.0000111688626 	3.235519405165745e-05 	101325.0132035237
0.6093593593593587 	300.0000110851191 	3.211142183550066e-05 	101325.0131047732
0.6118618618618614 	300.0000109962646 	3.185123634423734e-05 	101325.012999701
0.6143643643643638 	300.0000108975448 	3.156364556156404e-05 	101325.0128826566
0.6168668668668662 	300.0000107855972 	3.124000421903829e-05 	101325.0127505269
0.6193693693693688 	300.0000106619378 	3.088471544468446e-05 	101325.0126045565
0.6218718718718714 	300.0000105315733 	3.050927969490914e-05 	101325.012450508
0.6243743743743737 	300.0000104018923 	3.013608222025653e-05 	101325.0122973922
0.6268768768768762 	300.000010281783 	2.979181639160922e-05 	101325.0121554904
0.629379379379379 	300.0000101787721 	2.949502154946251e-05 	101325.0120336223
0.6318818818818812 	300.0000100967701 	2.925808808499175e-05 	101325.0119365274
0.6343843843843838 	300.0000100350491 	2.907650164940082e-05 	101325.0118633263
0.6368868868868864 	300.0000099876866 	2.893507260052169e-05 	101325.0118073429
0.6393893893893888 	300.0000099458153 	2.881153919960867e-05 	101325.0117580213
0.6418918918918912 	300.0000099004778 	2.867591210401222e-05 	101325.0117040418
0.6443943943943939 	300.0000098426085 	2.850648392906327e-05 	101325.0116356783
0.6468968968968963 	300.000009767172 	2.828629861481876e-05 	101325.0115463959
0.6493993993993988 	300.0000096719607 	2.800999926728939e-05 	101325.0114338497
0.6519019019019012 	300.0000095587732 	2.768509969202459e-05 	101325.0112999815
0.6544044044044038 	300.0000094322916 	2.732281327629515e-05 	101325.0111508552
0.6569069069069065 	300.0000093010862 	2.694619173712551e-05 	101325.0109956645
0.6594094094094087 	300.0000091732256 	2.657832019609273e-05 	101325.0108444857
0.6619119119119113 	300.0000090562324 	2.62407964423208e-05 	101325.0107062684
0.664414414414414 	300.0000089555219 	2.595058090218904e-05 	101325.0105871469
0.6669169169169162 	300.0000088721903 	2.5708090272856e-05 	101325.0104887492
0.6694194194194188 	300.0000088035005 	2.550727557361775e-05 	101325.0104077881
0.6719219219219214 	300.000008743152 	2.532946616959297e-05 	101325.010336792
0.674424424424424 	300.0000086833651 	2.51526114391296e-05 	101325.0102660181
0.6769269269269262 	300.0000086162215 	2.495910036851113e-05 	101325.0101869004
0.679429429429429 	300.0000085384987 	2.473324402174764e-05 	101325.0100947019
0.6819319319319311 	300.0000084490912 	2.447587658420248e-05 	101325.009989098
0.6844344344344341 	300.0000083514502 	2.419394634101086e-05 	101325.0098736193
0.686936936936936 	300.0000082499876 	2.39006452623118e-05 	101325.0097536748
0.6894394394394392 	300.0000081491125 	2.361101267296608e-05 	101325.0096343821
0.6919419419419413 	300.0000080518033 	2.332952683275726e-05 	101325.0095194008
0.694444444444444 	300.0000079588934 	2.306054416610673e-05 	101325.0094098722
0.6969469469469463 	300.000007869585 	2.280016452930517e-05 	101325.0093042431
0.6994494494494489 	300.0000077813784 	2.25429314175849e-05 	101325.0091998371
0.7019519519519515 	300.0000076923823 	2.228563774035522e-05 	101325.0090943309
0.7044544544544538 	300.0000076013314 	2.202225422613761e-05 	101325.0089867417
0.7069569569569564 	300.0000075094046 	2.175543603076116e-05 	101325.0088777235
0.7094594594594589 	300.0000074168913 	2.14871732376349e-05 	101325.0087684368
0.7119619619619615 	300.0000073248032 	2.122058884149499e-05 	101325.0086597328
0.7144644644644638 	300.0000072341697 	2.095921409406427e-05 	101325.0085523757
0.7169669669669665 	300.0000071444918 	2.069937804413939e-05 	101325.0084465023
0.7194694694694688 	300.0000070558996 	2.044146027688063e-05 	101325.0083414465
0.7219719719719715 	300.0000069667323 	2.018258554226362e-05 	101325.0082361221
0.7244744744744737 	300.000006876303 	1.991970235648677e-05 	101325.0081291652
0.7269769769769764 	300.0000067838525 	1.965400061969636e-05 	101325.0080198927
0.7294794794794791 	300.0000066901325 	1.938267888371954e-05 	101325.0079091308
0.7319819819819813 	300.0000065963342 	1.911072610450076e-05 	101325.0077982838
0.7344844844844839 	300.0000065037656 	1.884377370049504e-05 	101325.0076890738
0.7369869869869864 	300.0000064147187 	1.858486354852129e-05 	101325.0075836103
0.739489489489489 	300.0000063301964 	1.834107895354347e-05 	101325.0074836089
0.7419919919919914 	300.0000062510942 	1.81123690154095e-05 	101325.0073901327
0.7444944944944939 	300.0000061774268 	1.789707440481006e-05 	101325.00730282
0.7469969969969963 	300.0000061062013 	1.7689809971668e-05 	101325.0072186391
0.7494994994994989 	300.0000060335343 	1.747845950590064e-05 	101325.0071329828
0.7520020020020015 	300.0000059558032 	1.725261734415001e-05 	101325.0070410213
0.7545045045045039 	300.0000058687865 	1.699996182792472e-05 	101325.0069382462
0.7570070070070062 	300.0000057703272 	1.671395841192468e-05 	101325.0068220154
0.7595095095095092 	300.0000056605872 	1.639646300949601e-05 	101325.0066923282
0.7620120120120112 	300.0000055423067 	1.605471856680771e-05 	101325.0065522173
0.7645145145145138 	300.0000054208103 	1.570681745517725e-05 	101325.0064086349
0.7670170170170165 	300.0000053039716 	1.537207229177107e-05 	101325.0062706985
0.7695195195195191 	300.0000051992166 	1.506995798793556e-05 	101325.0061467638
0.7720220220220213 	300.000005111438 	1.481669568920696e-05 	101325.0060428384
0.7745245245245239 	300.0000050419912 	1.46141473439712e-05 	101325.0059607317
0.7770270270270263 	300.0000049883931 	1.44568250354436e-05 	101325.0058971693
0.779529529529529 	300.0000049440072 	1.432444889690238e-05 	101325.0058445759
0.7820320320320313 	300.0000048990847 	1.418872376434636e-05 	101325.0057915715
0.784534534534534 	300.0000048431895 	1.402397611978587e-05 	101325.0057253798
0.7870370370370364 	300.0000047676382 	1.380386289226688e-05 	101325.0056361956
0.7895395395395389 	300.0000046685408 	1.35184586935583e-05 	101325.0055191798
0.7920420420420413 	300.0000045470782 	1.317075198892344e-05 	101325.0053756769
0.794544544544544 	300.0000044097309 	1.27750729439606e-05 	101325.0052133892
0.7970470470470463 	300.0000042664508 	1.236323045990182e-05 	101325.0050438869
0.799549549549549 	300.000004128026 	1.196651037796085e-05 	101325.0048802702
0.8020520520520515 	300.0000040050227 	1.161272503367284e-05 	101325.0047348841
0.8045545545545539 	300.0000039034176 	1.131954354669321e-05 	101325.0046149316
0.8070570570570563 	300.0000038241002 	1.108634242294221e-05 	101325.0045209922
0.8095595595595589 	300.0000037620824 	1.090354141293663e-05 	101325.0044477633
0.8120620620620614 	300.000003709186 	1.07483841920931e-05 	101325.0043852814
0.8145645645645638 	300.0000036562739 	1.059300526683993e-05 	101325.0043224829
0.8170670670670666 	300.0000035950849 	1.041424257890603e-05 	101325.0042501671
0.8195695695695689 	300.0000035198421 	1.019420896899348e-05 	101325.0041613701
0.8220720720720714 	300.0000034288176 	9.931716862414319e-06 	101325.0040540035
0.8245745745745739 	300.0000033249529 	9.633137658894145e-06 	101325.0039310249
0.8270770770770765 	300.0000032127512 	9.311272851821755e-06 	101325.0037984089
0.8295795795795788 	300.0000030991277 	8.985871258214139e-06 	101325.003664114
0.8320820820820815 	300.0000029909077 	8.671891726679594e-06 	101325.0035358782
0.834584584584584 	300.0000028918076 	8.387256343091164e-06 	101325.0034187517
0.8370870870870865 	300.0000028050159 	8.140247174407242e-06 	101325.0033163199
0.8395895895895891 	300.0000027311649 	7.927156033745434e-06 	101325.00322909
0.8420920920920915 	300.0000026673468 	7.742995485045824e-06 	101325.0031535155
0.844594594594594 	300.0000026085117 	7.572161658638969e-06 	101325.0030839655
0.8470970970970964 	300.0000025488689 	7.400488352427861e-06 	101325.0030133995
0.8495995995995991 	300.0000024825081 	7.214452749832424e-06 	101325.0029347326
0.8521021021021015 	300.0000024055672 	6.997395782299307e-06 	101325.0028438426
0.8546046046046039 	300.0000023165285 	6.74735017111355e-06 	101325.0027386629
0.8571071071071066 	300.0000022154696 	6.467732238126235e-06 	101325.0026190982
0.8596096096096089 	300.0000021053577 	6.1666834392407e-06 	101325.0024891029
0.8621121121121116 	300.0000019910353 	5.858706995789023e-06 	101325.0023541029
0.8646146146146139 	300.0000018774868 	5.554830070202403e-06 	101325.0022196138
0.8671171171171166 	300.0000017684988 	5.269866660438579e-06 	101325.002090893
0.8696196196196189 	300.0000016667508 	5.01315222501773e-06 	101325.0019707231
0.8721221221221216 	300.0000015723084 	4.787057560704326e-06 	101325.0018588136
0.874624624624624 	300.0000014834213 	4.590369011845884e-06 	101325.0017536013
0.8771271271271264 	300.0000013966812 	4.411993092255679e-06 	101325.0016510088
0.879629629629629 	300.000001308 	4.244958400271598e-06 	101325.0015461033
0.8821321321321317 	300.0000012131347 	4.081518469995144e-06 	101325.0014341137
0.8846346346346339 	300.0000011087045 	3.914009162313862e-06 	101325.0013109664
0.8871371371371364 	300.0000009935477 	3.742037510422597e-06 	101325.0011747612
0.8896396396396391 	300.000000867376 	3.566765631113964e-06 	101325.0010256128
0.8921421421421414 	300.0000007306628 	3.399788421379992e-06 	101325.0008639782
0.8946446446446441 	300.0000005861169 	3.25361362342376e-06 	101325.0006929752
0.8971471471471464 	300.0000004367454 	3.134696301794933e-06 	101325.0005162547
0.8996496496496489 	300.0000002841223 	3.053765808483486e-06 	101325.0003358608
0.9021521521521517 	300.0000001289777 	3.019330727485502e-06 	101325.000152467
0.9046546546546541 	299.9999999715261 	3.036368025700705e-06 	101324.9999661883
0.9071571571571564 	299.9999998092223 	3.098141833953188e-06 	101324.9997744908
0.9096596596596589 	299.9999996408525 	3.191284578595677e-06 	101324.9995754669
0.9121621621621616 	299.9999994615912 	3.312322287372834e-06 	101324.999363286
0.9146646646646639 	299.9999992652653 	3.455285064864266e-06 	101324.9991313272
0.9171671671671666 	299.9999990507523 	3.610984630943363e-06 	101324.9988778948
0.9196696696696689 	299.9999988178934 	3.777227189734029e-06 	101324.998602382
0.9221721721721714 	299.9999985648212 	3.949125730073899e-06 	101324.9983032178
0.9246746746746741 	299.9999982932628 	4.114909911928829e-06 	101324.9979824383
0.9271771771771765 	299.9999980096633 	4.280596931322809e-06 	101324.9976470931
0.9296796796796791 	299.9999977234627 	4.465145804055415e-06 	101324.9973086033
0.9321821821821816 	299.9999974422445 	4.682828034160997e-06 	101324.9969762631
0.9346846846846838 	299.9999971736702 	4.943866925804188e-06 	101324.9966588516
0.9371871871871866 	299.9999969246265 	5.251929176314065e-06 	101324.9963642183
0.9396896896896891 	299.9999966975191 	5.594677744840065e-06 	101324.9960957907
0.9421921921921914 	299.9999964881244 	5.950398843521494e-06 	101324.9958483133
0.9446946946946939 	299.9999962857434 	6.295608265930823e-06 	101324.9956092308
0.9471971971971965 	299.9999960831918 	6.602602429522497e-06 	101324.9953699673
0.9496996996996991 	299.9999958771864 	6.846652470225711e-06 	101324.9951262876
0.9522022022022016 	299.9999956641651 	7.01403915294561e-06 	101324.9948743404
0.9547047047047038 	299.9999954425497 	7.11161769480548e-06 	101324.9946122997
0.9572072072072064 	299.9999952182324 	7.153292404434776e-06 	101324.9943471343
0.9597097097097093 	299.9999950025328 	7.152895372556247e-06 	101324.9940920758
0.9622122122122114 	299.9999948034659 	7.146612902867961e-06 	101324.99385669
0.964714714714714 	299.9999946235902 	7.170937810133804e-06 	101324.9936440392
0.9672172172172167 	299.9999944670569 	7.243496051785145e-06 	101324.9934589698
0.969719719719719 	299.9999943319272 	7.370018266057565e-06 	101324.9932990868
0.9722222222222214 	299.9999942128845 	7.543714618577455e-06 	101324.9931583799
0.9747247247247239 	299.9999940999639 	7.741233676094011e-06 	101324.9930249304
0.9772272272272267 	299.999993982396 	7.918086036623473e-06 	101324.9928858547
0.9797297297297292 	299.9999938501188 	8.054803307111451e-06 	101324.9927296196
0.9822322322322313 	299.9999936959449 	8.146243257810752e-06 	101324.9925474044
0.9847347347347344 	299.9999935217626 	8.182353158387302e-06 	101324.9923415099
0.9872372372372363 	299.9999933325309 	8.171819001522752e-06 	101324.9921179829
0.9897397397397389 	299.999993138303 	8.139766608367977e-06 	101324.9918882632
0.9922422422422417 	299.9999929515922 	8.116332222735709e-06 	101324.9916675274
0.9947447447447441 	299.9999927827902 	8.121649514042106e-06 	101324.991467816
0.9972472472472468 	299.9999926406024 	8.166456353146862e-06 	101324.9912996581
0.999749749749749 	299.9999925276464 	8.25432156483938e-06 	101324.991166135
1.002252252252252 	299.9999924400778 	8.38245549315403e-06 	101324.9910625908
1.004754754754754 	299.9999923680647 	8.529596543193531e-06 	101324.9909774279
1.007257257257256 	299.9999923005292 	8.664132735563857e-06 	101324.9908977805
1.009759759759759 	299.9999922269046 	8.766150025208108e-06 	101324.9908108775
1.012262262262261 	299.9999921388942 	8.818880117578271e-06 	101324.9907069011
1.014764764764764 	299.9999920318889 	8.810906253659266e-06 	101324.9905805882
1.017267267267267 	299.9999919072611 	8.750134574166902e-06 	101324.9904333599
1.019769769769769 	299.9999917711381 	8.653690690366845e-06 	101324.990272273
1.022272272272272 	299.9999916327214 	8.549270402599701e-06 	101324.9901085373
1.024774774774774 	299.9999915021775 	8.466770539161751e-06 	101324.9899541227
1.027277277277277 	299.9999913880015 	8.425485253198698e-06 	101324.9898191138
1.029779779779779 	299.9999912969829 	8.439080418850978e-06 	101324.9897113412
1.032282282282282 	299.9999912315755 	8.507457340366534e-06 	101324.9896339776
1.034784784784784 	299.9999911885021 	8.615152696640207e-06 	101324.9895830831
1.037287287287286 	299.9999911592915 	8.736908112897203e-06 	101324.9895486852
1.039789789789789 	299.9999911349078 	8.845999305824521e-06 	101324.9895198593
1.042292292292291 	299.9999911065412 	8.920264609122851e-06 	101324.9894862392
1.044794794794794 	299.9999910663765 	8.943072201411815e-06 	101324.9894387301
1.047297297297296 	299.9999910100712 	8.909304136294073e-06 	101324.9893721491
1.049799799799799 	299.9999909369733 	8.824149786265341e-06 	101324.9892860006
1.052302302302302 	299.9999908511666 	8.701820971162959e-06 	101324.9891847526
1.054804804804804 	299.999990760913 	8.566692551424248e-06 	101324.9890781539
1.057307307307306 	299.9999906765327 	8.446227446057929e-06 	101324.9889783989
1.059809809809809 	299.9999906074263 	8.363479653413882e-06 	101324.9888964801
1.062312312312312 	299.9999905597768 	8.331730129986137e-06 	101324.9888401307
1.064814814814814 	299.9999905367663 	8.353103827583285e-06 	101324.9888129147
1.067317317317317 	299.9999905371627 	8.419424226948719e-06 	101324.9888134624
1.069819819819819 	299.9999905551203 	8.511707625264203e-06 	101324.9888346843
1.072322322322321 	299.9999905816316 	8.60573495807335e-06 	101324.9888657521
1.074824824824824 	299.9999906070314 	8.680531655466296e-06 	101324.9888956997
1.077327327327327 	299.9999906238291 	8.71806276852745e-06 	101324.9889154841
1.079829829829829 	299.9999906266577 	8.708196523057695e-06 	101324.9889187985
1.082332332332332 	299.9999906131778 	8.65076579594148e-06 	101324.988903078
1.084834834834834 	299.9999905851292 	8.551849714179572e-06 	101324.9888700765
1.087337337337337 	299.9999905475415 	8.424528922419906e-06 	101324.9888258185
1.089839839839839 	299.9999905080549 	8.285943758857179e-06 	101324.9887792127
1.092342342342342 	299.9999904747851 	8.153365524531719e-06 	101324.9887397117
1.094844844844844 	299.9999904543338 	8.041075660717552e-06 	101324.9887155104
1.097347347347347 	299.9999904511546 	7.958278092527656e-06 	101324.9887118313
1.099849849849849 	299.9999904665625 	7.908378548805776e-06 	101324.98873005
1.102352352352352 	299.9999904992032 	7.890620724159156e-06 	101324.988768461
1.104854854854854 	299.9999905459495 	7.901861327131173e-06 	101324.9888235925
1.107357357357357 	299.9999906031313 	7.937475264153506e-06 	101324.9888912588
1.109859859859859 	299.9999906673465 	7.991123629463295e-06 	101324.988967217
1.112362362362362 	299.9999907356104 	8.054751846286693e-06 	101324.9890476323
1.114864864864865 	299.9999908048471 	8.119067914150577e-06 	101324.9891294818
1.117367367367367 	299.9999908734063 	8.17469583756415e-06 	101324.9892107555
1.119869869869869 	299.9999909405252 	8.213386520855796e-06 	101324.9892902449
1.122372372372372 	299.9999910056778 	8.229036815950257e-06 	101324.9893670992
1.124874874874874 	299.9999910676605 	8.218293210701712e-06 	101324.9894404036
1.127377377377377 	299.9999911255654 	8.18022782327146e-06 	101324.9895088517
1.129879879879879 	299.9999911783463 	8.116283675245332e-06 	101324.9895710585
1.132382382382382 	299.9999912253961 	8.03081004532741e-06 	101324.989626626
1.134884884884884 	299.9999912679924 	7.93131408817618e-06 	101324.9896771151
1.137387387387387 	299.9999913095095 	7.827336836323551e-06 	101324.9897261877
1.139889889889889 	299.9999913536835 	7.728031504312271e-06 	101324.9897786588
1.142392392392392 	299.9999914046321 	7.639510516072788e-06 	101324.9898389171
1.144894894894894 	299.9999914647735 	7.563731646793162e-06 	101324.9899096937
1.147397397397397 	299.9999915340344 	7.499689109499885e-06 	101324.989991631
1.149899899899899 	299.9999916116834 	7.445509092119607e-06 	101324.9900836723
1.152402402402402 	299.9999916965731 	7.400512132857083e-06 	101324.9901840766
1.154904904904904 	299.9999917874458 	7.365863418096255e-06 	101324.990291352
1.157407407407407 	299.999991883178 	7.343368936710961e-06 	101324.9904045453
1.159909909909909 	299.9999919832472 	7.333134160597491e-06 	101324.9905230132
1.162412412412412 	299.9999920872806 	7.332055602989568e-06 	101324.9906460467
1.164914914914914 	299.9999921946174 	7.33440280244987e-06 	101324.9907727899
1.167417417417417 	299.9999923045019 	7.334414734042471e-06 	101324.9909026546
1.169919919919919 	299.9999924172694 	7.329301822818807e-06 	101324.9910357312
1.172422422422422 	299.9999925331899 	7.32022069650549e-06 	101324.9911726063
1.174924924924925 	299.9999926524056 	7.311006981740797e-06 	101324.9913137387
1.177427427427427 	299.9999927750972 	7.30553062329626e-06 	101324.9914588938
1.179929929929929 	299.9999929005426 	7.305397283404161e-06 	101324.9916069725
1.182432432432432 	299.9999930271136 	7.30913896076823e-06 	101324.9917564989
1.184934934934934 	299.9999931539219 	7.313580181785477e-06 	101324.9919066214
1.187437437437437 	299.9999932817032 	7.316438801680325e-06 	101324.99205788
1.189939939939939 	299.9999934119649 	7.317593619553787e-06 	101324.9922119535
1.192442442442442 	299.9999935458605 	7.318201549741287e-06 	101324.9923703834
1.194944944944944 	299.9999936836089 	7.318665278515846e-06 	101324.9925332072
1.197447447447447 	299.9999938237469 	7.317670398608479e-06 	101324.9926986002
1.199949949949949 	299.9999939636706 	7.31306648218567e-06 	101324.9928638932
1.202452452452452 	299.9999941017282 	7.303831481101361e-06 	101324.9930273196
1.204954954954955 	299.9999942387214 	7.291387948721921e-06 	101324.9931892707
1.207457457457457 	299.9999943767303 	7.279507420118977e-06 	101324.9933522535
1.20995995995996 	299.9999945183787 	7.273086123225852e-06 	101324.9935197178
1.212462462462462 	299.9999946661183 	7.275922138416396e-06 	101324.9936943568
1.214964964964964 	299.99999482019 	7.288430154976389e-06 	101324.9938765283
1.217467467467467 	299.9999949784674 	7.306587086950526e-06 	101324.9940636594
1.219969969969969 	299.999995137142 	7.323681294289492e-06 	101324.9942513986
1.222472472472472 	299.9999952935876 	7.334240133410081e-06 	101324.9944361963
1.224974974974975 	299.9999954472013 	7.337814150474965e-06 	101324.9946176482
1.227477477477477 	299.9999956003097 	7.339595767253295e-06 	101324.9947988754
1.229979979979979 	299.9999957573217 	7.347080140619702e-06 	101324.9949845183
1.232482482482482 	299.9999959205627 	7.364924917485968e-06 	101324.995177589
1.234984984984984 	299.9999960895012 	7.39135381014172e-06 	101324.995377268
1.237487487487487 	299.9999962604933 	7.419067489014263e-06 	101324.9955792386
1.239989989989989 	299.9999964291067 	7.440038378055483e-06 	101324.995778515
1.242492492492492 	299.9999965936917 	7.455436192270672e-06 	101324.9959729232
1.244994994994994 	299.9999967534293 	7.462415416735735e-06 	101324.9961648432
1.247497497497497 	299.9999956929662 	7.407850779126896e-06 	101324.9963593114
1.249999999999999 	299.9999130185734 	7.599456524417801e-06 	101324.9965654591
