-1.25 	300 	0.1183454945387511 	101372.5528258148
-1.247497497497497 	300.0372056446151 	0.1111245523662437 	101370.4707934665
-1.244994994994995 	300.0354719289674 	0.1017184360073717 	101366.9349577162
-1.242492492492492 	300.0319223883016 	0.09300558280394124 	101362.7395961106
-1.23998998998999 	300.0277579328169 	0.08019273657544758 	101357.8192139467
-1.237487487487487 	300.0230997540473 	0.06683396035883729 	101352.3110591015
-1.234984984984985 	300.0181132193161 	0.05233009703094646 	101346.4150835494
-1.232482482482482 	300.0127709128006 	0.03688556097729144 	101340.0986523243
-1.22997997997998 	300.0071840575485 	0.02073314303530952 	101333.4933404898
-1.227477477477477 	300.0014850613981 	0.008173451153309152 	101326.7557860201
-1.224974974974975 	299.9957741968424 	0.01223288264157077 	101320.0045073769
-1.222472472472472 	299.9901053184058 	0.02866255684427689 	101313.303201895
-1.21996996996997 	299.9845704450867 	0.04466809365461777 	101306.7606200902
-1.217467467467467 	299.9793322606969 	0.05983376968780697 	101300.568976786
-1.214964964964965 	299.9744648899627 	0.07389878525891537 	101294.8158812532
-1.212462462462462 	299.9700285132446 	0.0866690935284682 	101289.5723849801
-1.20995995995996 	299.9661635278364 	0.09784041059133056 	101285.0043909098
-1.207457457457457 	299.9629743392068 	0.1070704341298953 	101281.2352254025
-1.204954954954955 	299.9604816728934 	0.114267143351332 	101278.2892789156
-1.202452452452452 	299.9587001069583 	0.1193931576151131 	101276.183708849
-1.19994994994995 	299.9576659489891 	0.1223663218484737 	101274.9614709028
-1.197447447447447 	299.957405647076 	0.1231500120101137 	101274.6538192183
-1.194944944944945 	299.9579283999854 	0.1216489331800785 	101275.2715560806
-1.192442442442442 	299.9592487324986 	0.117807820469184 	101276.8318486953
-1.18993993993994 	299.9613637073233 	0.1116770274513396 	101279.3312345229
-1.187437437437437 	299.9642148771159 	0.1034433469939494 	101282.7007593855
-1.184934934934935 	299.9677111929024 	0.09334757362158003 	101286.8328412865
-1.182432432432432 	299.9717775787996 	0.08157345740099675 	101291.6388309456
-1.17992992992993 	299.976338394943 	0.06836860236227341 	101297.0294076049
-1.177427427427427 	299.9813117868462 	0.05396156008029174 	101302.9078232802
-1.174924924924925 	299.9866289356945 	0.03859489504742393 	101309.1928604932
-1.172422422422422 	299.9921923147668 	0.02258023161092396 	101315.7692406557
-1.16991991991992 	299.9978570134595 	0.007813630732370765 	101322.4657342025
-1.167417417417417 	300.0035419345454 	0.01027127513707092 	101329.1864738241
-1.164914914914915 	300.0091977906299 	0.02661177790971895 	101335.8731286663
-1.162412412412412 	300.0147230757813 	0.04259752598705133 	101342.405765098
-1.15990990990991 	300.0200067217636 	0.05785100709767028 	101348.6529791538
-1.157407407407407 	300.0249307098337 	0.07207817801791629 	101354.4752282822
-1.154904904904904 	300.0293795524588 	0.08496031480451158 	101359.7358871759
-1.152402402402403 	300.0332698841126 	0.09620739206438837 	101364.3362495683
-1.1498998998999 	300.0365374096434 	0.1056564638336853 	101368.2002941884
-1.147397397397397 	300.0391368801314 	0.113166301133011 	101371.2743919928
-1.144894894894895 	300.0410450563298 	0.1186507634302077 	101373.5310583576
-1.142392392392392 	300.0422159681394 	0.1219961425703152 	101374.9158774288
-1.13988988988989 	300.0426011660513 	0.1230993011278309 	101375.3714347643
-1.137387387387387 	300.0421757967312 	0.1218654974155501 	101374.8684428952
-1.134884884884885 	300.0409288639305 	0.1182534606337826 	101373.3939169257
-1.132382382382382 	300.038895310213 	0.1124144718461427 	101370.989176959
-1.12987987987988 	300.0361634155907 	0.1045131601189379 	101367.7586184627
-1.127377377377377 	300.032785758662 	0.09474983333941311 	101363.7644669442
-1.124874874874875 	300.0288084093621 	0.0832934279330356 	101359.0613221181
-1.122372372372372 	300.0243033189004 	0.07023493234521087 	101353.734275731
-1.11986986986987 	300.0193450610408 	0.05585649955264983 	101347.8716389409
-1.117367367367367 	300.0140267217174 	0.04048290813985841 	101341.5835005553
-1.114864864864865 	300.0084844719145 	0.02444027216084178 	101335.0308727922
-1.112362362362362 	300.0028091380846 	0.008077704033293394 	101328.3212318556
-1.10985985985986 	299.9970942646504 	0.009124447579800176 	101321.5651290303
-1.107357357357357 	299.991403604158 	0.02493798284221852 	101314.8380045773
-1.104854854854855 	299.98582248913 	0.0410555650263533 	101308.2406755059
-1.102352352352353 	299.9804957659043 	0.0564431756809521 	101301.9442993029
-1.09984984984985 	299.9755461414061 	0.0707389050229966 	101296.0939361539
-1.097347347347347 	299.9710663692563 	0.08368700776413603 	101290.7990913717
-1.094844844844845 	299.9671239893613 	0.0951231795930389 	101286.1396019842
-1.092342342342342 	299.9637670337101 	0.1048187797185038 	101282.1721363167
-1.08983983983984 	299.9610576343774 	0.1126141088575013 	101278.9700273914
-1.087337337337337 	299.9590722362444 	0.118324372769722 	101276.6235894764
-1.084834834834835 	299.9578668123469 	0.1217938758758809 	101275.1989062396
-1.082332332332332 	299.9574662818472 	0.122973397785408 	101274.7255353207
-1.07982982982983 	299.9578685257269 	0.1218082122826462 	101275.200888205
-1.077327327327327 	299.9590474294693 	0.1183813985743346 	101276.5940106188
-1.074824824824825 	299.9609792149779 	0.1127881490513876 	101278.8769242543
-1.072322322322323 	299.9636312107184 	0.1051354536287433 	101282.0110425293
-1.06981981981982 	299.9669464779051 	0.09557320523951009 	101285.9291197553
-1.067317317317317 	299.9708661843138 	0.08421460521984103 	101290.561734713
-1.064814814814815 	299.9753218736329 	0.07132725987475205 	101295.82798528
-1.062312312312312 	299.9802188085653 	0.05716206259912641 	101301.6159904156
-1.05980980980981 	299.9854619103073 	0.04201241711821041 	101307.8134441176
-1.057307307307307 	299.9909439314617 	0.02620517251988409 	101314.2935801897
-1.054804804804805 	299.9965495947722 	0.009945629420640374 	101320.920222772
-1.052302302302302 	300.0022183619201 	0.009012066751807509 	101327.6217674131
-1.0497997997998 	300.0078853522109 	0.02283190002733466 	101334.3215218786
-1.047297297297297 	300.0134304670437 	0.03887758152855066 	101340.8775338079
-1.044794794794795 	300.0187350400809 	0.05417679296604151 	101347.1494192647
-1.042292292292292 	300.0236861894642 	0.06849446796142744 	101353.0037291479
-1.03978978978979 	300.0282047510274 	0.08156666505179885 	101358.3467478729
-1.037287287287287 	300.0322288572408 	0.09318383766351163 	101363.1052628734
-1.034784784784785 	300.0356802058686 	0.1031713747062214 	101367.1866478374
-1.032282282282283 	300.038480660965 	0.1112639650476184 	101370.4983937803
-1.02977977977978 	300.0405829412397 	0.1173127982777226 	101372.9846101409
-1.027277277277277 	300.0419262346984 	0.1211753584614155 	101374.5732571997
-1.024774774774775 	300.0424794594836 	0.1227748169615057 	101375.2275528234
-1.022272272272272 	300.0422341285683 	0.1220739172065946 	101374.9374506763
-1.01976976976977 	300.0411926711645 	0.1190458233519447 	101373.7058934479
-1.017267267267267 	300.0393774424681 	0.1138096311798148 	101371.5593538353
-1.014764764764765 	300.0368455955974 	0.1064589177923563 	101368.5653397001
-1.012262262262262 	300.0336258481433 	0.09717048828070839 	101364.7579141026
-1.00975975975976 	300.0297873931086 	0.08611824586856551 	101360.2189790986
-1.007257257257257 	300.0254059428069 	0.07342096670236793 	101355.0380842396
-1.004754754754755 	300.0205578721226 	0.05937172964993327 	101349.3056847836
-1.002252252252252 	300.0153232105651 	0.04424354317118322 	101343.1164104708
-0.9997497497497498 	300.0098182804243 	0.02831440222436569 	101336.6078525359
-0.9972472472472473 	300.0041255161026 	0.01192604592131204 	101329.8775332705
-0.9947447447447449 	299.9983845097025 	0.008946424178269331 	101323.0904691537
-0.9922422422422421 	299.9926763730123 	0.02125979301894315 	101316.3426044921
-0.9897397397397399 	299.9870861815883 	0.03740659577104975 	101309.7344667113
-0.9872372372372376 	299.9817328090959 	0.05288474001968689 	101303.406546345
-0.9847347347347346 	299.9767114187157 	0.06737759460761301 	101297.4712913986
-0.9822322322322323 	299.9721113798564 	0.08065959694932467 	101292.034271118
-0.9797297297297296 	299.9680135949641 	0.09252188989292057 	101287.1910609797
-0.9772272272272275 	299.9644965087651 	0.1026474260680821 	101283.0343026408
-0.9747247247247248 	299.9616468881056 	0.1108751276037037 	101279.6664833894
-0.9722222222222224 	299.9595307238873 	0.1169869897376435 	101277.1654942135
-0.9697197197197196 	299.958181989297 	0.1208874575067151 	101275.571446783
-0.9672172172172175 	299.9576164195487 	0.1225594788002927 	101274.9030245613
-0.9647147147147147 	299.9578325891024 	0.1219207713647858 	101275.1584618697
-0.9622122122122124 	299.9588213766656 	0.1190469288371735 	101276.3269359679
-0.9597097097097099 	299.960575688043 	0.1139567091005282 	101278.4000932399
-0.9572072072072073 	299.9630612487675 	0.1067667737616402 	101281.337508318
-0.9547047047047047 	299.9662227395592 	0.09763181050520273 	101285.0738332159
-0.9522022022022023 	299.9700029080045 	0.08667408996778941 	101289.5414705185
-0.9496996996996998 	299.9743303973297 	0.0741709495277362 	101294.6561783846
-0.9471971971971973 	299.9791199118488 	0.06030777912572456 	101300.3171639199
-0.9446946946946947 	299.9842860926649 	0.04539246299403646 	101306.4236257766
-0.9421921921921923 	299.9897157016488 	0.02973477161710525 	101312.8417565196
-0.93968968968969 	299.9952926116006 	0.01357561345566615 	101319.434315376
-0.9371871871871872 	300.0009270721129 	0.008301784010008252 	101326.0952451047
-0.9346846846846848 	300.0065466550492 	0.01897813373588473 	101332.7388878625
-0.9321821821821823 	300.0120622370088 	0.03495306553345946 	101339.2598915017
-0.9296796796796799 	300.0173858956351 	0.0503103758474553 	101345.5542851879
-0.9271771771771771 	300.0224133529922 	0.06484699830084391 	101351.4987270938
-0.9246746746746748 	300.02705716097 	0.07824045033868582 	101356.9897906026
-0.9221721721721724 	300.0312213817307 	0.09027337016716612 	101361.9139593813
-0.9196696696696698 	300.0348156804935 	0.1006835405101705 	101366.1643364616
-0.9171671671671672 	300.0377687255297 	0.1092095755059244 	101369.6565295274
-0.9146646646646649 	300.0400369679679 	0.1157439436805319 	101372.3389620842
-0.9121621621621623 	300.041562285055 	0.1201358148491249 	101374.142873395
-0.9096596596596597 	300.0423162334006 	0.1223231481241289 	101375.0345741062
-0.9071571571571573 	300.0422712876841 	0.1222080446545558 	101374.9814133238
-0.9046546546546547 	300.0414277954843 	0.1197519792204883 	101373.983980402
-0.9021521521521524 	300.0398096175436 	0.1150598793542475 	101372.0704505721
-0.8996496496496498 	300.037463186897 	0.1082361392561657 	101369.2957037488
-0.8971471471471473 	300.0344187386922 	0.09945713751999252 	101365.6955656931
-0.894644644644645 	300.0307402859989 	0.08884379944092545 	101361.3457856835
-0.892142142142142 	300.0264817454359 	0.0765188540721005 	101356.3102104835
-0.8896396396396397 	300.0217172358753 	0.06272966972179224 	101350.6765525525
-0.8871371371371374 	300.0165382110375 	0.04776152656870367 	101344.5530028369
-0.8846346346346349 	300.0110662244242 	0.03195178194206905 	101338.0833396673
-0.8821321321321324 	300.0054099022068 	0.01565016497897012 	101331.3960130602
-0.8796296296296297 	299.9996995539121 	0.007834792363408651 	101324.6451370184
-0.8771271271271271 	299.993998244297 	0.01743656603294162 	101317.9052689717
-0.8746246246246248 	299.9883837429023 	0.03366752842743041 	101311.2683230418
-0.8721221221221224 	299.982963325106 	0.04932720970032877 	101304.861094408
-0.8696196196196196 	299.9778477902129 	0.06407856923279732 	101298.8144851901
-0.8671171171171175 	299.9731413995895 	0.07767543586851595 	101293.2517229895
-0.8646146146146148 	299.9689295151151 	0.08986204584133974 	101288.2736293715
-0.8621121121121121 	299.9652891100791 	0.1003520011573572 	101283.9710943195
-0.8596096096096097 	299.9623035652 	0.1089781311820526 	101280.442613445
-0.857107107107107 	299.9600343611173 	0.1155236009044473 	101277.7607476412
-0.8546046046046049 	299.9585233352608 	0.1199062925333024 	101275.9749021497
-0.8521021021021022 	299.9577904938767 	0.1220579481965582 	101275.1087937283
-0.8495995995995997 	299.9578363027125 	0.121914972692276 	101275.1629083014
-0.8470970970970974 	299.9586529055305 	0.1195377183022913 	101276.1279022469
-0.8445945945945946 	299.9602332870289 	0.1149464168489668 	101277.9954873746
-0.8420920920920922 	299.9625403428364 	0.1082712856765422 	101280.7219472398
-0.8395895895895897 	299.965531506587 	0.09961752921503561 	101284.25694912
-0.8370870870870872 	299.9691592619457 	0.08911014273506761 	101288.5444372046
-0.8345845845845846 	299.9733599106794 	0.07697491406394123 	101293.5091802839
-0.8320820820820823 	299.9780486599447 	0.06341001825246713 	101299.0509991069
-0.8295795795795798 	299.9831313661369 	0.04875366056127776 	101305.0587529472
-0.8270770770770772 	299.9884821064098 	0.03331152905109692 	101311.3835830701
-0.8245745745745746 	299.9939940790715 	0.01735114213796119 	101317.8993200801
-0.8220720720720721 	299.9995778017975 	0.006723082498994616 	101324.5001906881
-0.8195695695695699 	300.0051693147615 	0.0150025934669012 	101331.1105524123
-0.817067067067067 	300.0106961508687 	0.03101127345351872 	101337.6448011696
-0.8145645645645651 	300.0160652575394 	0.04649194063658686 	101343.9928452277
-0.8120620620620621 	300.0211576847546 	0.06122854986204914 	101350.0140504632
-0.8095595595595597 	300.0258931392718 	0.07488895588239494 	101355.6134239423
-0.8070570570570572 	300.0301718363175 	0.087240601503314 	101360.6728902191
-0.8045545545545546 	300.0339032438015 	0.09804372126691629 	101365.0853858063
-0.8020520520520523 	300.0370148698402 	0.1070106011513726 	101368.7650662308
-0.7995495495495494 	300.0394547100254 	0.1140370154917194 	101371.6504259092
-0.7970470470470474 	300.0411540272003 	0.1189653266873964 	101373.660096091
-0.7945445445445446 	300.0420979141727 	0.1217053798364536 	101374.7764038192
-0.7920420420420423 	300.0422534484732 	0.1221774993198407 	101374.9603637147
-0.7895395395395397 	300.0416210533071 	0.1203232568703747 	101374.2125361099
-0.7870370370370371 	300.0402167820329 	0.1162424846534328 	101372.5519759809
-0.7845345345345348 	300.0380727939941 	0.1099937260597686 	101370.0166293767
-0.7820320320320323 	300.0351970349395 	0.1017138182925862 	101366.6159524917
-0.7795295295295296 	300.0316612432482 	0.09149421699304543 	101362.4348622459
-0.7770270270270272 	300.0275120945656 	0.07946975885721777 	101357.528579493
-0.7745245245245247 	300.0228371560144 	0.06596199684150976 	101352.0007971483
-0.7720220220220222 	300.0177347932556 	0.05123240362068103 	101345.9678333195
-0.7695195195195199 	300.0123249428724 	0.03561261137098185 	101339.5715598329
-0.767017017017017 	300.006706041054 	0.01943142119903254 	101332.9284292493
-0.7645145145145147 	300.0010214137313 	0.005900772421479879 	101326.2078632972
-0.7620120120120122 	299.9953196637056 	0.01361711025974795 	101319.4674178487
-0.7595095095095097 	299.9896761390708 	0.02992082320166008 	101312.796092581
-0.7570070070070072 	299.9842049794584 	0.04574829540394994 	101306.3288022037
-0.7545045045045048 	299.9790167475404 	0.06073816104250278 	101300.1962372179
-0.7520020020020022 	299.9742089347328 	0.07461369892404277 	101294.513519324
-0.7494994994994997 	299.9698709628544 	0.08712482101722707 	101289.3863678965
-0.7469969969969972 	299.9660962894181 	0.09797713581027812 	101284.9251218896
-0.7444944944944945 	299.9629767428264 	0.1070127415467143 	101281.2382339596
-0.7419919919919924 	299.9605674336964 	0.1139941680165271 	101278.3908197032
-0.7394894894894897 	299.9589022661531 	0.118812565301922 	101276.4227770202
-0.7369869869869872 	299.9579999375208 	0.1214458549176474 	101275.3563501336
-0.7344844844844846 	299.9578679125053 	0.1218145361324272 	101275.2003251975
-0.7319819819819822 	299.958507234387 	0.119986280827469 	101275.9557938536
-0.7294794794794797 	299.9599099094619 	0.1159263390366979 	101277.6134045478
-0.7269769769769773 	299.9620425381527 	0.1097031316005339 	101280.1336731665
-0.7244744744744747 	299.9648773729555 	0.1014757093006563 	101283.483911901
-0.721971971971972 	299.9683728536583 	0.09134764282496012 	101287.6150576579
-0.7194694694694695 	299.9724582492761 	0.07958167044024349 	101292.4435216167
-0.7169669669669674 	299.9770390266092 	0.06634316343978881 	101297.8577083153
-0.7144644644644647 	299.98201894636 	0.05194567703375907 	101303.7438850873
-0.711961961961962 	299.9872851480523 	0.03674374987379133 	101309.9687385957
-0.7094594594594597 	299.9927450935199 	0.02096465823734204 	101316.4229176819
-0.7069569569569573 	299.998293620327 	0.004967341915501158 	101322.9820835827
-0.7044544544544545 	300.0038480132255 	0.01140100414668412 	101329.5485142285
-0.7019519519519523 	300.0093578325203 	0.02716761299027284 	101336.062545634
-0.6994494494494495 	300.0147420906068 	0.04270867746800293 	101342.4284442956
-0.6969469469469471 	300.0198917470417 	0.05760478417608371 	101348.5172561441
-0.6944444444444446 	300.0247191948338 	0.07148629991513601 	101354.2253234217
-0.6919419419419421 	300.0291029462685 	0.08416240841214934 	101359.4089848219
-0.6894394394394396 	300.0329589764044 	0.09536467312018439 	101363.9687826609
-0.6869369369369374 	300.0362219741803 	0.104725693397785 	101367.827457188
-0.6844344344344344 	300.0388270312072 	0.1122114575418458 	101370.9081745297
-0.6819319319319321 	300.040705563317 	0.1176286599749879 	101373.1297601286
-0.6794294294294296 	300.041839946413 	0.1209291285154262 	101374.4713669682
-0.6769269269269272 	300.0421920944399 	0.1220349670690115 	101374.8878410409
-0.6744244244244245 	300.0417672370061 	0.1207738325962442 	101374.3854344002
-0.6719219219219222 	300.0405682938365 	0.1172664041188734 	101372.9676938842
-0.6694194194194195 	300.0386021683464 	0.1115357801834198 	101370.6426700832
-0.6669169169169172 	300.0358898571978 	0.1037548820260012 	101367.4352800803
-0.6644144144144146 	300.0325171684817 	0.09402540141216309 	101363.4470034016
-0.661911911911912 	300.0285225073399 	0.08240438877448358 	101358.7234012327
-0.6594094094094097 	300.0239884153018 	0.06926692481238272 	101353.3620988054
-0.656906906906907 	300.0189956427247 	0.0548087546081243 	101347.4586492645
-0.6544044044044046 	300.0136430942792 	0.03940643142059502 	101341.1300937107
-0.6519019019019021 	300.0080475021344 	0.0233608919996826 	101334.5144125306
-0.6493993993993996 	300.0023710021586 	0.006839222979388538 	101327.8034297181
-0.6468968968968971 	299.9966624559234 	0.01101577011409804 	101321.0548511656
-0.6443943943943946 	299.9909855374563 	0.02610985982797102 	101314.3439670302
-0.6418918918918921 	299.9854534013551 	0.04210606280673686 	101307.8045620144
-0.6393893893893897 	299.9801849943764 	0.057291104343772 	101301.5771169903
-0.6368868868868871 	299.9752927146005 	0.07146373016756973 	101295.7945503699
-0.6343843843843846 	299.970861406932 	0.08427633108122885 	101290.5570246138
-0.6318818818818821 	299.9669760717051 	0.0954734236111188 	101285.9649393672
-0.6293793793793795 	299.9637193141185 	0.1049011242362752 	101282.1159070564
-0.6268768768768773 	299.9611479185248 	0.1123045219645357 	101279.0768737813
-0.6243743743743745 	299.9593013058416 	0.117644401576956 	101276.8943698149
-0.6218718718718721 	299.9582177441793 	0.1207864385996106 	101275.6136554914
-0.6193693693693696 	299.9579109297372 	0.1216550997677634 	101275.251168897
-0.6168668668668671 	299.9583880299995 	0.1202851098232625 	101275.8150105867
-0.6143643643643645 	299.95963762655 	0.1166567651978781 	101277.2916769265
-0.6118618618618621 	299.9616200466191 	0.1109388047154873 	101279.6344512035
-0.6093593593593596 	299.9642910769238 	0.1031978699117025 	101282.7910815465
-0.6068568568568571 	299.9676226831145 	0.09355942495656522 	101286.7285033255
-0.6043543543543546 	299.971553798119 	0.0822146515655555 	101291.3746108861
-0.6018518518518521 	299.9760070913312 	0.06930755826115206 	101296.6380464988
-0.5993493493493496 	299.9808857454447 	0.05522094565749718 	101302.4044866853
-0.5968468468468471 	299.9860758091771 	0.04022780732933347 	101308.5392760304
-0.5943443443443446 	299.9914668693148 	0.02462375206284197 	101314.9119297355
-0.591841841841842 	299.9969731338755 	0.008739949492079045 	101321.4210797143
-0.5893393393393397 	300.0024989326592 	0.009631708836963586 	101327.9536171269
-0.5868368368368371 	300.0080084174091 	0.02322923996978951 	101334.467184085
-0.5843343343343346 	300.0134174916071 	0.03885203520250517 	101340.862342492
-0.5818318318318321 	300.018620704546 	0.05389897594170856 	101347.014390927
-0.5793293293293297 	300.0235182637387 	0.06803333270726708 	101352.8053063255
-0.5768268268268271 	300.0280022402309 	0.08099116225562791 	101358.1074186859
-0.5743243243243245 	300.0319774009992 	0.09248071300930107 	101362.8080579948
-0.5718218218218221 	300.0353676515626 	0.1022664430808492 	101366.8171738716
-0.5693193193193196 	300.0381162484902 	0.1102118093667974 	101370.0676094688
-0.5668168168168171 	300.0401824137445 	0.1161761395834802 	101372.5110813446
-0.5643143143143147 	300.0415326460958 	0.1200683240406688 	101374.1079335413
-0.5618118118118121 	300.042123248388 	0.1217690637710723 	101374.8064429764
-0.5593093093093094 	300.0419198420479 	0.1211663725215467 	101374.5658863839
-0.5568068068068072 	300.0409067385003 	0.118228045026372 	101373.3679182911
-0.5543043043043046 	300.039096542949 	0.1129894619794215 	101371.2273145875
-0.551801801801802 	300.0365344252479 	0.1055897962417044 	101368.1975172185
-0.5492992992992995 	300.0332843487276 	0.09619189196168541 	101364.3542400633
-0.5467967967967969 	300.0294115168169 	0.08499136746806207 	101359.7746595304
-0.5442942942942947 	300.0249937887293 	0.0722177632976771 	101354.5509207763
-0.5417917917917919 	300.020112217621 	0.05809370239373354 	101348.7789118505
-0.5392892892892895 	300.0148525793307 	0.04289865274464243 	101342.5601273879
-0.536786786786787 	300.0093202245275 	0.02691909500904266 	101336.0191829241
-0.5342842842842846 	300.0036333982907 	0.01047109036053608 	101329.2959019631
-0.531781781781782 	299.9979003289532 	0.009061187587143421 	101322.518274292
-0.5292792792792794 	299.9922195298851 	0.02253058474826437 	101315.8027435678
-0.526776776776777 	299.9866900425922 	0.03851884741528418 	101309.266379314
-0.5242742742742745 	299.9813976151766 	0.05382293670480878 	101303.0105301827
-0.521771771771772 	299.976421210686 	0.0682066160283593 	101297.128459966
-0.5192692692692695 	299.9718500003158 	0.08140878290269053 	101291.7255385653
-0.516766766766767 	299.967790781711 	0.09312374428244796 	101286.9279196491
-0.5142642642642645 	299.9643568613556 	0.1030323756321 	101282.8694452779
-0.511761761761762 	299.9616435030167 	0.110867695728173 	101279.662665969
-0.5092592592592596 	299.959705312591 	0.1164747567517668 	101277.3719946767
-0.506756756756757 	299.9585487486662 	0.1198308004801526 	101276.0050499556
-0.5042542542542544 	299.9581444109923 	0.121011390293236 	101275.5272034184
-0.5017517517517521 	299.9584524837641 	0.1201232052332474 	101275.891232755
-0.4992492492492494 	299.9594465215175 	0.1172378931797266 	101277.0659164081
-0.496746746746747 	299.9611258856302 	0.1123586577858135 	101279.050515071
-0.4942442442442445 	299.9635100564171 	0.1054367846191063 	101281.8681037922
-0.4917417417417421 	299.9666164673129 	0.0964338769691612 	101285.5393430294
-0.4892392392392395 	299.9704298039505 	0.08540408215303953 	101290.046182274
-0.486736736736737 	299.9748769734746 	0.07256336209130826 	101295.3023414476
-0.4842342342342345 	299.9798195631024 	0.05830705186773397 	101301.1442898411
-0.481731731731732 	299.9850728956195 	0.04315339226531113 	101307.3538074969
-0.4792292292292296 	299.990447980231 	0.0276334936295267 	101313.7075496516
-0.4767267267267268 	299.9958025044979 	0.01215361047115556 	101320.0372656205
-0.4742242242242246 	300.0010584147964 	0.00656851383059794 	101326.250693941
-0.471721721721722 	300.0062147629613 	0.01802748352071402 	101332.3466855763
-0.4692192192192195 	300.0113084017944 	0.03279572063434794 	101338.3687856621
-0.4667167167167169 	300.0163707814085 	0.04745625495960272 	101344.3541955696
-0.4642142142142145 	300.0213875696988 	0.06195862063566746 	101350.2859441869
-0.461711711711712 	300.0262747707424 	0.07605938428873994 	101356.0647287773
-0.4592092092092094 	300.030878565991 	0.08931894122787355 	101361.5086499314
-0.456706706706707 	300.0349937376074 	0.1011528734812844 	101366.3749717757
-0.4542042042042045 	300.0383943371174 	0.110919159410465 	101370.396458628
-0.451701701701702 	300.0408701659638 	0.118021475331992 	101373.3244348173
-0.4491991991991995 	300.0422616643827 	0.1220083217760153 	101374.9701291244
-0.4466966966966969 	300.0424871871282 	0.1226499087717682 	101375.2368650118
-0.4441941941941945 	300.0415574858731 	0.1199799550311686 	101374.1374697266
-0.441691691691692 	300.0395766582649 	0.1142969846420176 	101371.7951377385
-0.4391891891891895 	300.0367286726059 	0.1061249331073862 	101368.427285312
-0.436686686686687 	300.0332510823924 	0.09614047630848892 	101364.3149479569
-0.4341841841841846 	300.0294032806005 	0.08508231493515978 	101359.7649385749
-0.431681681681682 	300.0254338311721 	0.07365929351269769 	101355.0712144199
-0.4291791791791794 	300.0215533029395 	0.06247485140501958 	101350.4827709547
-0.426676676676677 	300.0179187434949 	0.05198370385303597 	101346.1852905022
-0.4241741741741744 	300.0146324180748 	0.04248501536537154 	101342.299662506
-0.421671671671672 	300.0117487145711 	0.03413991890204635 	101338.8901599737
-0.4191691691691694 	300.0092837359148 	0.02699854968462038 	101335.9757896172
-0.4166666666666669 	300.0072253364518 	0.02102881904268065 	101333.5421636573
-0.4141641641641645 	300.0055424443578 	0.01614326729390308 	101331.5525243336
-0.411661661661662 	300.0041929971356 	0.01222200628535332 	101329.9571255553
-0.4091591591591594 	300.003130197061 	0.00913087592325566 	101328.7006293768
-0.406656656656657 	300.0023070808942 	0.006734754345738437 	101327.7275060439
-0.4041541541541545 	300.0016795688017 	0.004906485654835825 	101326.9856375883
-0.401651651651652 	300.0012082553061 	0.003532167147637958 	101326.4284350947
-0.3991491491491494 	300.0008592364289 	0.002513628748039315 	101326.0158140781
-0.396646646646647 	300.0006042453247 	0.00176890354955272 	101325.7143561973
-0.3941441441441444 	300.0004203420229 	0.001231381463696016 	101325.4969404626
-0.3916416416416419 	300.0002893429624 	0.0008482005934580623 	101325.342069782
-0.3891391391391395 	300.0001971363395 	0.000578289081521286 	101325.2330604926
-0.3866366366366368 	300.0001329776586 	0.0003903433208672979 	101325.1572102736
-0.3841341341341344 	300.0000888293806 	0.0002609224575052978 	101325.1050168489
-0.381631631631632 	300.0000587760902 	0.0001727588160105401 	101325.0694870396
-0.3791291291291294 	300.0000385307738 	0.0001133256484503953 	101325.0455523187
-0.3766266266266269 	300.0000250303081 	7.366569477319604e-05 	101325.0295916209
-0.3741241241241244 	300.00001611614 	4.746094915780989e-05 	101325.0190530046
-0.371621621621622 	300.0000102866136 	3.031252197442367e-05 	101325.012161161
-0.3691191191191194 	300.0000065099413 	1.919546943346252e-05 	101325.0076962603
-0.366616616616617 	300.0000040855281 	1.205421353744364e-05 	101325.004830033
-0.3641141141141143 	300.0000025429816 	7.50778742371897e-06 	101325.0030064581
-0.3616116116116119 	300.0000015701455 	4.638563204133144e-06 	101325.0018563536
-0.3591091091091095 	300.0000009618814 	2.843263858038183e-06 	101325.0011371804
-0.356606606606607 	300.0000005846501 	1.729308532008641e-06 	101325.0006912275
-0.3541041041041044 	300.0000003526867 	1.043777804192647e-06 	101325.0004169583
-0.3516016016016019 	300.0000002111676 	6.252874443967526e-07 	101325.0002496313
-0.3490990990990994 	300.0000001254835 	3.718258694886202e-07 	101325.000148351
-0.346596596596597 	300.000000074097 	2.195053621557284e-07 	101325.0000875217
-0.3440940940940944 	300.0000000434364 	1.286570101589272e-07 	101325.0000512647
-0.3415915915915919 	300.0000000252488 	7.488314527901574e-08 	101325.0000298149
-0.3390890890890895 	300.0000000145511 	4.328101917338838e-08 	101325.0000172181
-0.3365865865865869 	300.000000008386 	2.484888133715417e-08 	101325.000009874
-0.3340840840840844 	300.0000000047683 	1.4169549295303e-08 	101325.0000056226
-0.3315815815815819 	300.0000000027233 	8.029791281194258e-09 	101325.0000031785
-0.3290790790790794 	300.0000000015335 	4.519680954136692e-09 	101325.000001783
-0.3265765765765769 	300.000000000751 	2.52989953454108e-09 	101325.0000009915
-0.3240740740740744 	300.0000000004624 	1.405046283859612e-09 	101325.0000005456
-0.3215715715715718 	300.0000000002678 	7.789792772511286e-10 	101325.0000002961
-0.3190690690690695 	300.0000000000566 	4.263605463009341e-10 	101325.0000001574
-0.3165665665665668 	300.0000000000716 	2.355649731789134e-10 	101325.0000000808
-0.3140640640640644 	300.0000000000503 	1.256848541823534e-10 	101325.0000000388
-0.311561561561562 	299.99999999993 	7.179931210968424e-11 	101325.0000000159
-0.3090590590590593 	300.0000000000047 	3.503755823950117e-11 	101325.0000000035
-0.3065565565565568 	300.0000000000127 	2.494642810679721e-11 	101324.9999999967
-0.3040540540540545 	300.0000000000075 	1.04003925032097e-11 	101324.9999999932
-0.3015515515515518 	300.000000000043 	1.190784435091338e-11 	101324.9999999912
-0.2990490490490494 	299.9999999999315 	6.000379759965543e-12 	101324.9999999902
-0.2965465465465469 	299.9999999999807 	7.52591720489528e-12 	101324.9999999898
-0.2940440440440444 	300.0000000000021 	5.431250787839929e-12 	101324.9999999894
-0.2915415415415418 	300.0000000000013 	6.412332221344816e-12 	101324.9999999892
-0.2890390390390395 	300.0000000000016 	6.522197063026187e-12 	101324.999999989
-0.2865365365365368 	299.9999999999764 	5.368452423458941e-12 	101324.9999999889
-0.2840340340340343 	299.9999999999997 	6.47507553691541e-12 	101324.9999999886
-0.2815315315315318 	299.999999999909 	3.90359858658164e-12 	101324.9999999883
-0.2790290290290295 	299.9999999999485 	5.75329569377075e-12 	101324.999999988
-0.2765265265265269 	300.000000000009 	4.053080219194725e-12 	101324.9999999882
-0.2740240240240244 	300.0000000000334 	5.347236659626033e-12 	101324.9999999883
-0.2715215215215219 	300.0000000000174 	5.448674513590322e-12 	101324.9999999885
-0.2690190190190194 	299.99999999993 	5.825918585188972e-12 	101324.9999999887
-0.2665165165165169 	299.9999999999965 	6.387937884501957e-12 	101324.9999999889
-0.2640140140140144 	299.9999999999578 	5.267577104978895e-12 	101324.999999989
-0.2615115115115119 	300.000000000003 	7.544097104481578e-12 	101324.9999999892
-0.2590090090090094 	299.9999999999152 	5.554578219790834e-12 	101324.9999999896
-0.2565065065065068 	299.9999999999929 	5.081459476662325e-12 	101324.9999999898
-0.2540040040040044 	299.999999999996 	4.598446341602679e-12 	101324.9999999896
-0.2515015015015019 	300.0000000000494 	2.886905594970319e-12 	101324.9999999893
-0.2489989989989994 	300.0000000000562 	5.186957439864767e-12 	101324.9999999889
-0.2464964964964968 	299.999999999987 	1.576634364982234e-12 	101324.9999999889
-0.2439939939939944 	299.999999999996 	5.681329837956651e-12 	101324.9999999889
-0.2414914914914919 	299.9999999999598 	1.155705175780344e-12 	101324.9999999888
-0.2389889889889893 	299.9999999999991 	6.081022766471847e-12 	101324.9999999888
-0.2364864864864869 	300.0000000000246 	1.324584060846262e-12 	101324.9999999886
-0.2339839839839843 	299.9999999999101 	6.09652001130009e-12 	101324.9999999886
-0.2314814814814819 	299.9999999999764 	1.18081504465424e-12 	101324.9999999887
-0.2289789789789792 	299.999999999893 	5.195090618400312e-12 	101324.9999999886
-0.2264764764764769 	299.9999999999304 	2.326224470169079e-12 	101324.9999999886
-0.2239739739739743 	299.9999999999447 	4.825746391538565e-12 	101324.9999999888
-0.2214714714714718 	299.9999999999246 	3.514058465452179e-12 	101324.999999989
-0.2189689689689693 	299.9999999999606 	3.169136141211494e-12 	101324.9999999892
-0.2164664664664669 	299.9999999999812 	3.525560017643603e-12 	101324.9999999892
-0.2139639639639643 	299.9999999999126 	1.873721970873075e-12 	101324.9999999894
-0.2114614614614618 	299.9999999999628 	2.782950547793733e-12 	101324.9999999897
-0.2089589589589593 	299.9999999999861 	3.255056953934682e-12 	101324.9999999897
-0.2064564564564568 	299.9999999999853 	3.053305531485848e-12 	101324.9999999894
-0.2039539539539543 	299.9999999998834 	4.717724964042619e-12 	101324.9999999893
-0.2014514514514518 	299.9999999999328 	2.045137712554217e-12 	101324.9999999893
-0.1989489489489494 	299.9999999999677 	5.334484870262728e-12 	101324.9999999894
-0.1964464464464468 	299.9999999999982 	1.262029937985353e-12 	101324.9999999892
-0.1939439439439443 	299.9999999999808 	4.84010520918026e-12 	101324.9999999892
-0.1914414414414418 	299.9999999998954 	2.21918212428328e-12 	101324.9999999895
-0.1889389389389393 	300.0000000000092 	4.571500504268351e-12 	101324.9999999894
-0.1864364364364368 	300.0000000000535 	2.96975896000594e-12 	101324.9999999892
-0.1839339339339343 	299.9999999999637 	4.972616094820842e-12 	101324.9999999891
-0.1814314314314318 	299.9999999999919 	2.301715074726838e-12 	101324.999999989
-0.1789289289289293 	299.9999999998731 	4.576928069816862e-12 	101324.9999999891
-0.1764264264264268 	299.9999999999712 	5.774417233934593e-13 	101324.999999989
-0.1739239239239243 	299.9999999998734 	3.703652657061268e-12 	101324.9999999894
-0.1714214214214218 	299.9999999999845 	2.803065226006509e-12 	101324.9999999895
-0.1689189189189193 	299.999999999939 	4.20999583476469e-12 	101324.9999999896
-0.1664164164164168 	300.0000000000004 	4.653049168044089e-12 	101324.9999999896
-0.1639139139139143 	299.9999999999827 	5.091233362481587e-12 	101324.9999999895
-0.1614114114114118 	300.0000000000323 	6.112015929075649e-12 	101324.9999999892
-0.1589089089089093 	299.999999999992 	6.932048720166519e-12 	101324.9999999891
-0.1564064064064068 	299.9999999999792 	7.154192197863214e-12 	101324.9999999889
-0.1539039039039043 	299.9999999999843 	7.590747676865015e-12 	101324.9999999889
-0.1514014014014018 	300.0000000000301 	5.470019611731133e-12 	101324.9999999889
-0.1488988988988993 	299.9999999999737 	7.839627916251143e-12 	101324.999999989
-0.1463963963963968 	300.0000000000014 	3.930962083955257e-12 	101324.9999999891
-0.1438938938938943 	299.999999999937 	7.334876288749141e-12 	101324.999999989
-0.1413913913913918 	299.9999999999019 	1.320751491148991e-12 	101324.9999999891
-0.1388888888888893 	299.9999999999723 	6.934222201636973e-12 	101324.9999999891
-0.1363863863863868 	299.9999999998615 	1.601700363210866e-12 	101324.9999999896
-0.1338838838838843 	299.9999999998911 	6.042164237801078e-12 	101324.9999999894
-0.1313813813813818 	299.9999999999974 	2.240928584304815e-12 	101324.9999999894
-0.1288788788788793 	299.9999999999479 	6.434796882395717e-12 	101324.9999999895
-0.1263763763763768 	299.9999999999646 	2.590097921503709e-12 	101324.9999999896
-0.1238738738738743 	299.9999999999116 	6.248864188988621e-12 	101324.9999999894
-0.1213713713713717 	299.9999999999782 	7.992620867839251e-13 	101324.9999999892
-0.1188688688688693 	300.000000000005 	5.847945754792879e-12 	101324.9999999892
-0.1163663663663668 	299.9999999998795 	7.652766173427144e-13 	101324.9999999892
-0.1138638638638643 	299.9999999999802 	5.385182918132615e-12 	101324.9999999892
-0.1113613613613618 	299.9999999999827 	1.478424421186595e-12 	101324.9999999893
-0.1088588588588592 	299.9999999999697 	6.265384723005877e-12 	101324.9999999893
-0.1063563563563568 	299.999999999944 	4.228220945389702e-13 	101324.9999999894
-0.1038538538538543 	299.9999999999661 	5.26895439578802e-12 	101324.9999999895
-0.1013513513513517 	300.0000000000138 	2.68477808528847e-13 	101324.9999999894
-0.09884884884884926 	299.9999999999353 	4.419073375257441e-12 	101324.9999999894
-0.09634634634634676 	299.9999999998649 	9.765318244836082e-13 	101324.9999999894
-0.09384384384384425 	299.9999999999106 	3.841810833864189e-12 	101324.9999999891
-0.09134134134134177 	300.0000000000277 	1.583358622412776e-12 	101324.9999999891
-0.08883883883883925 	300.0000000000097 	3.514384895750558e-12 	101324.9999999891
-0.08633633633633674 	299.9999999999319 	2.168760717573662e-12 	101324.999999989
-0.08383383383383426 	300.0000000000111 	2.893344339147194e-12 	101324.9999999891
-0.08133133133133173 	299.9999999999569 	2.538268209302062e-12 	101324.9999999891
-0.07882882882882926 	299.9999999998465 	2.122470337711409e-12 	101324.999999989
-0.07632632632632676 	299.9999999999546 	1.981944151259037e-12 	101324.9999999891
-0.07382382382382424 	299.9999999998692 	2.141371371309002e-12 	101324.9999999889
-0.07132132132132173 	300.0000000000143 	1.917572299127992e-12 	101324.9999999888
-0.06881881881881925 	299.9999999999476 	1.928296723672346e-12 	101324.9999999887
-0.06631631631631671 	299.9999999998646 	1.631422738254169e-12 	101324.9999999886
-0.06381381381381425 	299.9999999999403 	2.3088580842424e-12 	101324.9999999884
-0.06131131131131173 	299.9999999999423 	2.993674397859575e-12 	101324.9999999884
-0.05880880880880923 	299.9999999999008 	3.066306851092722e-12 	101324.9999999885
-0.05630630630630672 	299.9999999999523 	3.041500942893542e-12 	101324.9999999884
-0.05380380380380424 	300.0000000000159 	2.724681114856615e-12 	101324.9999999886
-0.05130130130130173 	300.000000000014 	2.403296205536832e-12 	101324.9999999886
-0.04879879879879922 	299.9999999999297 	2.384240447083013e-12 	101324.9999999885
-0.04629629629629672 	299.9999999999167 	2.051708599622647e-12 	101324.9999999887
-0.04379379379379422 	299.9999999998988 	2.219386070071826e-12 	101324.9999999887
-0.04129129129129173 	299.999999999972 	1.041858325845859e-12 	101324.9999999888
-0.03878878878878922 	299.999999999974 	1.189415754126346e-12 	101324.9999999886
-0.03628628628628671 	299.9999999999723 	5.018786398651057e-13 	101324.9999999885
-0.03378378378378422 	299.9999999999094 	1.574009424721252e-13 	101324.9999999884
-0.03128128128128172 	299.9999999999571 	8.85430572792394e-13 	101324.9999999884
-0.02877877877877922 	299.9999999999561 	7.214342960327342e-13 	101324.9999999885
-0.0262762762762767 	299.9999999998718 	1.405182761524749e-12 	101324.9999999887
-0.02377377377377422 	300.0000000000229 	1.790757959963659e-12 	101324.9999999884
-0.0212712712712717 	299.9999999998815 	1.42258371234352e-12 	101324.9999999884
-0.01876876876876921 	299.9999999999615 	1.749032862070345e-12 	101324.9999999886
-0.01626626626626671 	300.000000000018 	1.42265917088112e-12 	101324.9999999884
-0.0137637637637642 	299.9999999999523 	2.100656361384497e-12 	101324.9999999886
-0.0112612612612617 	300.0000000000193 	2.173226195740512e-12 	101324.9999999884
-0.008758758758759198 	299.9999999999941 	2.762490162722488e-12 	101324.9999999884
-0.006256256256256697 	299.9999999998576 	2.972586744053233e-12 	101324.9999999885
-0.003753753753754195 	299.999999999944 	3.074119105503659e-12 	101324.9999999884
-0.001251251251251693 	299.999999999906 	1.979796286095982e-12 	101324.9999999883
0.00125125125125081 	299.9999999999461 	1.960305784215522e-12 	101324.9999999883
0.003753753753753312 	299.9999999999522 	9.51120247244289e-13 	101324.9999999884
0.006256256256255817 	299.9999999998588 	1.810738459592401e-12 	101324.9999999883
0.008758758758758317 	299.9999999999897 	7.627552913929858e-13 	101324.9999999883
0.01126126126126082 	300.0000000000108 	1.019301848563247e-13 	101324.9999999884
0.01376376376376332 	299.9999999999601 	3.883118167364097e-13 	101324.9999999888
0.01626626626626582 	300.0000000000139 	8.181028344201644e-13 	101324.9999999891
0.01876876876876833 	299.9999999999393 	1.096096273796275e-13 	101324.9999999891
0.02127127127127083 	299.9999999999599 	4.315177334730417e-14 	101324.999999989
0.02377377377377332 	299.9999999999937 	6.810887799853497e-13 	101324.9999999888
0.02627627627627583 	299.999999999879 	1.052912644328928e-12 	101324.9999999889
0.02877877877877833 	300.000000000008 	5.087741060209045e-13 	101324.9999999887
0.03128128128128083 	299.9999999999305 	8.76836822699994e-13 	101324.9999999887
0.03378378378378333 	299.9999999998769 	5.37253350046026e-14 	101324.9999999887
0.03628628628628584 	299.9999999999602 	1.574883919710929e-13 	101324.9999999887
0.03878878878878834 	299.999999999975 	7.366421278290543e-13 	101324.9999999888
0.04129129129129084 	299.9999999999706 	1.644428986321183e-12 	101324.999999989
0.04379379379379333 	299.9999999999251 	2.107998043359996e-12 	101324.999999989
0.04629629629629585 	299.9999999998602 	1.751845082351172e-12 	101324.9999999889
0.04879879879879834 	299.999999999943 	3.184757542636695e-13 	101324.9999999889
0.05130130130130085 	300.0000000000181 	2.788095537043677e-13 	101324.9999999889
0.05380380380380335 	300.0000000000225 	5.632921158825749e-13 	101324.9999999888
0.05630630630630584 	299.9999999999854 	1.067844009371457e-12 	101324.9999999885
0.05880880880880836 	299.999999999898 	1.852393877455056e-12 	101324.999999988
0.06131131131131085 	299.9999999999654 	1.701268661099666e-12 	101324.9999999878
0.06381381381381336 	299.9999999999537 	1.278129631964345e-12 	101324.9999999878
0.06631631631631586 	299.9999999998609 	1.345106240329005e-12 	101324.9999999877
0.06881881881881835 	299.9999999999316 	1.885688338707588e-12 	101324.9999999878
0.07132132132132088 	299.999999999981 	1.436381224575629e-12 	101324.9999999877
0.07382382382382337 	299.999999999875 	1.526697807224281e-12 	101324.9999999878
0.07632632632632587 	299.9999999999637 	1.305665526855822e-12 	101324.9999999881
0.07882882882882837 	299.9999999999187 	1.256985402703241e-12 	101324.9999999882
0.08133133133133086 	299.9999999999782 	1.305261324586722e-12 	101324.9999999882
0.08383383383383337 	299.9999999999771 	1.671480589634632e-12 	101324.9999999888
0.08633633633633589 	299.9999999998817 	1.292611288280771e-12 	101324.9999999891
0.08883883883883838 	300.0000000000173 	1.595101348613367e-12 	101324.9999999891
0.09134134134134086 	299.9999999999919 	5.805110959192705e-13 	101324.9999999891
0.09384384384384339 	299.9999999998666 	1.509148730765477e-12 	101324.9999999892
0.09634634634634588 	299.9999999999538 	2.084578277602119e-12 	101324.9999999892
0.09884884884884838 	299.9999999999613 	2.806705339465391e-12 	101324.9999999892
0.1013513513513509 	300.0000000000223 	3.125452703200015e-12 	101324.9999999893
0.1038538538538534 	299.9999999999379 	3.60362894476898e-12 	101324.9999999894
0.1063563563563559 	300.0000000000235 	3.85592353459154e-12 	101324.9999999893
0.1088588588588584 	300.0000000000314 	2.804518729080354e-12 	101324.9999999893
0.1113613613613609 	299.9999999998918 	2.786581640601828e-12 	101324.9999999891
0.1138638638638634 	299.9999999999319 	2.718636152576996e-12 	101324.999999989
0.1163663663663659 	299.99999999993 	2.620867762243143e-12 	101324.999999989
0.1188688688688684 	299.9999999999628 	2.17641065575619e-12 	101324.9999999887
0.1213713713713709 	299.999999999989 	1.3520853307228e-12 	101324.9999999888
0.1238738738738734 	299.9999999999048 	1.859623863013772e-12 	101324.9999999889
0.1263763763763759 	299.9999999999849 	1.98603431207774e-12 	101324.9999999889
0.1288788788788784 	299.9999999999886 	1.854142046769162e-12 	101324.9999999891
0.1313813813813809 	299.9999999999875 	1.706279708869754e-12 	101324.9999999892
0.1338838838838834 	299.9999999999702 	2.623832586071979e-12 	101324.9999999888
0.1363863863863859 	300.0000000000379 	2.666329483976428e-12 	101324.9999999885
0.1388888888888884 	300.0000000000571 	3.132405138459031e-12 	101324.9999999887
0.1413913913913909 	300.000000000001 	2.028942569856087e-12 	101324.9999999886
0.1438938938938934 	299.9999999999865 	2.854447200490557e-12 	101324.9999999886
0.1463963963963959 	299.9999999999521 	1.571727427414547e-12 	101324.9999999886
0.1488988988988985 	299.9999999998872 	2.898671196280681e-12 	101324.9999999886
0.1514014014014009 	299.9999999999684 	1.262029406802362e-12 	101324.9999999887
0.1539039039039035 	299.9999999999555 	3.802650766055205e-12 	101324.9999999887
0.1564064064064059 	299.9999999999159 	1.34814006529529e-12 	101324.999999989
0.1589089089089084 	299.9999999999741 	4.909308159585918e-12 	101324.9999999886
0.1614114114114109 	299.9999999999678 	1.61199075156155e-12 	101324.9999999884
0.1639139139139134 	299.9999999998932 	3.708561797684807e-12 	101324.9999999884
0.166416416416416 	300.0000000000053 	2.647936577152658e-12 	101324.9999999883
0.1689189189189185 	300.0000000000439 	3.059580732263148e-12 	101324.9999999883
0.1714214214214209 	299.9999999999954 	2.632722703761127e-12 	101324.9999999883
0.1739239239239235 	299.9999999999875 	1.030748536197473e-12 	101324.9999999885
0.1764264264264259 	299.9999999999546 	2.547853067969793e-12 	101324.9999999884
0.1789289289289284 	300.0000000000138 	6.079869382536888e-13 	101324.9999999885
0.181431431431431 	299.9999999999595 	1.498415142687553e-12 	101324.9999999886
0.1839339339339334 	299.9999999999655 	8.948137039231726e-13 	101324.9999999884
0.186436436436436 	299.9999999999042 	8.270810325682947e-13 	101324.9999999882
0.1889389389389385 	299.9999999999841 	1.297770014224976e-12 	101324.9999999882
0.191441441441441 	299.9999999999766 	1.30306208854276e-12 	101324.9999999885
0.1939439439439434 	299.9999999998926 	2.940090524439129e-12 	101324.9999999885
0.196446446446446 	299.9999999999324 	1.535302970594991e-12 	101324.9999999885
0.1989489489489485 	299.9999999999574 	4.129892116242747e-12 	101324.9999999886
0.2014514514514509 	299.9999999999778 	2.134871889670447e-12 	101324.9999999887
0.2039539539539535 	299.9999999999924 	2.997996858928901e-12 	101324.9999999889
0.2064564564564559 	299.9999999999493 	2.197051598920518e-12 	101324.9999999888
0.2089589589589585 	299.9999999999758 	2.965528136660733e-12 	101324.999999989
0.211461461461461 	299.9999999999167 	3.131437874295167e-12 	101324.999999989
0.2139639639639635 	299.9999999999784 	2.810063802129932e-12 	101324.9999999888
0.2164664664664659 	299.9999999999936 	3.852747055515292e-12 	101324.9999999885
0.2189689689689684 	299.9999999999932 	1.55631034671482e-12 	101324.9999999883
0.221471471471471 	299.9999999999927 	3.452975664552316e-12 	101324.9999999882
0.2239739739739735 	299.9999999999442 	7.991287844561501e-13 	101324.9999999884
0.226476476476476 	299.9999999999731 	2.143644850949854e-12 	101324.9999999883
0.2289789789789785 	299.9999999999944 	1.063148210841499e-12 	101324.9999999881
0.231481481481481 	299.9999999999819 	1.01978725391961e-12 	101324.9999999883
0.2339839839839835 	299.9999999999812 	1.526389248962605e-12 	101324.9999999884
0.236486486486486 	300.0000000000229 	3.129277184430982e-13 	101324.9999999887
0.2389889889889885 	299.9999999999999 	1.340699377609697e-12 	101324.9999999888
0.241491491491491 	299.9999999999025 	1.247307955306801e-12 	101324.999999989
0.2439939939939935 	299.9999999999783 	2.269408510439524e-12 	101324.9999999891
0.246496496496496 	299.9999999999831 	2.739167362691341e-13 	101324.9999999891
0.2489989989989985 	300.0000000000431 	2.053981179243319e-12 	101324.999999989
0.251501501501501 	300.0000000000351 	1.480113893926957e-12 	101324.9999999889
0.2540040040040035 	299.999999999983 	2.196311990638782e-12 	101324.9999999888
0.256506506506506 	300.0000000000309 	3.312308188871087e-12 	101324.9999999888
0.2590090090090086 	299.9999999998791 	2.649454086666936e-12 	101324.9999999885
0.261511511511511 	299.9999999999937 	4.790566568435728e-12 	101324.9999999886
0.2640140140140135 	299.9999999999836 	2.343095639288629e-12 	101324.9999999885
0.2665165165165161 	299.9999999999101 	3.709512325588582e-12 	101324.9999999885
0.2690190190190185 	300.0000000000084 	2.124739770383606e-12 	101324.9999999886
0.271521521521521 	300.0000000000136 	2.108898469681032e-12 	101324.9999999884
0.2740240240240235 	300.0000000000166 	1.797962751391925e-12 	101324.999999988
0.276526526526526 	300.0000000000055 	1.047116127425747e-12 	101324.9999999878
0.2790290290290286 	299.9999999999235 	2.087035197147195e-12 	101324.9999999877
0.281531531531531 	299.9999999999072 	8.041061720861246e-13 	101324.9999999878
0.2840340340340335 	299.9999999999716 	1.631812330585989e-12 	101324.9999999875
0.2865365365365361 	299.9999999999441 	1.284500490233828e-12 	101324.9999999871
0.2890390390390385 	299.999999999994 	3.518685024320178e-12 	101324.9999999861
0.291541541541541 	299.9999999999922 	8.169515445403591e-12 	101324.9999999842
0.2940440440440436 	299.9999999999765 	1.859490951376611e-11 	101324.9999999807
0.296546546546546 	299.9999999999754 	3.441655535605494e-11 	101324.9999999736
0.2990490490490486 	299.9999999998935 	7.046096079676044e-11 	101324.9999999607
0.3015515515515511 	300.0000000000044 	1.297488557004077e-10 	101324.9999999358
0.3040540540540535 	299.9999999999189 	2.528336472032562e-10 	101324.9999998891
0.3065565565565562 	299.9999999998324 	4.673844749314195e-10 	101324.9999998024
0.3090590590590585 	299.9999999996915 	8.764759846632152e-10 	101324.9999996426
0.3115615615615611 	299.9999999993821 	1.612025352618143e-09 	101324.9999993492
0.3140640640640635 	299.9999999990179 	2.963408828976477e-09 	101324.9999988148
0.316566566566566 	299.9999999981823 	5.398375727317831e-09 	101324.9999978473
0.3190690690690687 	299.9999999966585 	9.783994531950768e-09 	101324.9999961073
0.3215715715715711 	299.9999999941071 	1.760712115954956e-08 	101324.9999929984
0.3240740740740735 	299.9999999894199 	3.148896926592834e-08 	101324.9999874816
0.326576576576576 	299.9999999810815 	5.593364100970854e-08 	101324.999977758
0.3290790790790786 	299.9999999668131 	9.869751027224618e-08 	101324.9999607401
0.3315815815815811 	299.9999999418277 	1.72970406352967e-07 	101324.9999311639
0.3340840840840836 	299.9999998986034 	3.010609420148234e-07 	101324.9998801287
0.3365865865865861 	299.9999998247326 	5.20350664262945e-07 	101324.9997927023
0.3390890890890886 	299.9999996989778 	8.930199404744027e-07 	101324.9996440385
0.3415915915915911 	299.9999994866996 	1.521584805023084e-06 	101324.9993931379
0.3440940940940935 	299.999999131198 	2.573677900166885e-06 	101324.9989729221
0.3465965965965962 	299.9999985406191 	4.320965803871399e-06 	101324.9982746013
0.3490990990990985 	299.9999975667889 	7.199822511796003e-06 	101324.9971233137
0.3516016016016011 	299.9999959742299 	1.190471124415709e-05 	101324.9952405757
0.3541041041041035 	299.9999933914186 	1.953042596082045e-05 	101324.9921870585
0.3566066066066061 	299.9999892376692 	3.178606371378641e-05 	101324.9872764169
0.3591091091091085 	299.9999826151928 	5.131298750979061e-05 	101324.9794471366
0.3616116116116112 	299.9999721497068 	8.215108687575131e-05 	101324.9670744337
0.3641141141141137 	299.9999557599991 	0.0001304130210107715 	101324.9476979809
0.3666166166166161 	299.999930329794 	0.0002052449348052194 	101324.9176335758
0.3691191191191185 	299.9998912465699 	0.0003201736426537709 	101324.8714279887
0.371621621621621 	299.9998317645814 	0.0004949637945572057 	101324.8011066376
0.3741241241241237 	299.9997421439445 	0.0007581303412581207 	101324.6951545268
0.3766266266266261 	299.9996085057589 	0.001150268328392666 	101324.5371639794
0.3791291291291286 	299.9994113493416 	0.001728364567429313 	101324.3040810638
0.3816316316316311 	299.9991236783131 	0.002571235271213663 	101323.9639906159
0.3841341341341336 	299.9987087056435 	0.003786174122420489 	101323.4734032243
0.3866366366366362 	299.9981171444159 	0.005516780602293175 	101322.7740536975
0.3891391391391387 	299.9972841595825 	0.007951747618957261 	101321.7892974711
0.391641641641641 	299.9961261485415 	0.01133410311368881 	101320.4203069999
0.3941441441441436 	299.994537657545 	0.01597000827902809 	101318.5424299329
0.3966466466466462 	299.992388912413 	0.02223571675249674 	101316.0022750567
0.3991491491491486 	299.9895246433048 	0.03058071657359887 	101312.6163316159
0.4016516516516512 	299.985765098106 	0.04152446753837205 	101308.172179876
0.4041541541541536 	299.9809103280494 	0.05564360943664367 	101302.4335751831
0.4066566566566561 	299.9747489457437 	0.07354620032798585 	101295.1508236134
0.4091591591591587 	299.9670725307581 	0.09582963873666557 	101286.07783572
0.4116616616616612 	299.9576966147239 	0.1230196470850744 	101274.996955968
0.4141641641641635 	299.9464886495911 	0.1554892525390309 	101261.7520327754
0.4166666666666662 	299.93340248412 	0.1933592483617796 	101246.2891546768
0.4191691691691687 	299.9185176420909 	0.2363851961039727 	101228.703014629
0.421671671671671 	299.9020801332878 	0.2838405766165749 	101209.2850230694
0.4241741741741737 	299.884539615251 	0.334412562803438 	101188.5670367597
0.4266766766766761 	299.8665729791819 	0.3861446122197933 	101167.3489865352
0.4291791791791785 	299.8490706445752 	0.4364879394261748 	101146.6824472471
0.4316816816816812 	299.8330627053699 	0.4825070773876862 	101127.783260737
0.4341841841841836 	299.8195981084488 	0.5212181831860637 	101111.8888941
0.4366866866866862 	299.8095994635885 	0.5499998874305528 	101100.0872641643
0.4391891891891885 	299.8037156889169 	0.5670122895373342 	101093.1430815605
0.4416916916916913 	299.802194932911 	0.5715608283663879 	101091.3478176677
0.4441941941941936 	299.8047960360207 	0.5643433354764323 	101094.4168541555
0.4466966966966961 	299.8107624146859 	0.547516150841066 	101101.4611497782
0.4491991991991987 	299.8188853941444 	0.5245555336435765 	101111.0495856026
0.4517017017017012 	299.8276077053582 	0.4998936737151356 	101121.3459497729
0.4542042042042035 	299.8352552335493 	0.4782567398490445 	101130.3739373791
0.4567067067067062 	299.8403773172141 	0.4637026278817394 	101136.420835876
0.4592092092092087 	299.8421239979287 	0.4586148025805489 	101138.4831968935
0.4617117117117112 	299.8404722289441 	0.4630764632644339 	101136.533700482
0.4642142142142137 	299.8362203447768 	0.4748687019633214 	101131.5125609656
0.4667167167167162 	299.8307704769269 	0.4900426971455264 	101125.0783344538
0.4692192192192187 	299.8257932169373 	0.5039291337259821 	101119.2027668648
0.4717217217217212 	299.8227546333729 	0.5124609674371324 	101115.6159612584
0.4742242242242236 	299.8224403869849 	0.5134493884057793 	101115.2445584023
0.4767267267267262 	299.8247080665553 	0.5072609941770986 	101117.9214182109
0.4792292292292287 	299.8285736607612 	0.4966092589941767 	101122.4858195917
0.4817317317317312 	299.8325665473447 	0.4855759500090462 	101127.1994312613
0.4842342342342336 	299.8352378784998 	0.4781482801482455 	101130.3531581578
0.4867367367367362 	299.8357233423878 	0.4767041529367352 	101130.9264836586
0.4892392392392387 	299.8340850172107 	0.4810962821010761 	101128.9923754726
0.4917417417417412 	299.8312483250581 	0.4888039707719356 	101125.6428613277
0.4942442442442437 	299.8285835197011 	0.496074986042569 	101122.4969006356
0.4967467467467462 	299.8273067419397 	0.4995989048243252 	101120.9894937273
0.4992492492492487 	299.8279153667048 	0.4980077383177368 	101121.7077621377
0.5017517517517511 	299.8299809503072 	0.4924377643593119 	101124.1467660547
0.5042542542542537 	299.8324070311769 	0.4858596841240291 	101127.0108885538
0.5067567567567562 	299.8339878224074 	0.4815335769261676 	101128.8773623744
0.5092592592592589 	299.834033151657 	0.4813283249650656 	101128.9310737588
0.5117617617617611 	299.8327204315983 	0.4847887374704128 	101127.3810255427
0.5142642642642637 	299.8309530557883 	0.4894987273961803 	101125.2942606808
0.5167667667667663 	299.8298254809005 	0.492526006934874 	101123.9631558069
0.5192692692692688 	299.8299857186555 	0.492132091467308 	101124.1519191067
0.5217717717717714 	299.8312668151929 	0.4887367708979882 	101125.6645782628
0.5242742742742736 	299.8328394185381 	0.4845378139025514 	101127.5214439054
0.5267767767767763 	299.8337556957794 	0.4820545183215763 	101128.6031524503
0.5292792792792789 	299.8335547906236 	0.4825169908370562 	101128.3661799573
0.5317817817817813 	299.832541697691 	0.4851403175904198 	101127.1698734559
0.5342842842842837 	299.8315367900634 	0.487767905548824 	101125.9834768652
0.5367867867867864 	299.8312922094249 	0.4884199092536966 	101125.6944905585
0.5392892892892888 	299.8319682198683 	0.4866581220565255 	101126.4924385327
0.5417917917917912 	299.833056694947 	0.4837949379914459 	101127.7779400678
0.5442942942942938 	299.8337940355964 	0.4818259623873755 	101128.6483882835
0.5467967967967964 	299.8337372851415 	0.4819130448294187 	101128.5814496859
0.5492992992992988 	299.8330825833767 	0.483564445054283 	101127.8084431727
0.5518018018018012 	299.8324703949768 	0.4851278322076182 	101127.0856130167
0.5543043043043039 	299.8324537857689 	0.485168761006715 	101127.065805972
0.5568068068068063 	299.8330593150646 	0.4836015179442751 	101127.7806948796
0.5593093093093087 	299.8338036915592 	0.4816576430477926 	101128.6596947001
0.5618118118118114 	299.8341312451226 	0.4807663237387794 	101129.0464931558
0.5643143143143137 	299.8338876483634 	0.4813351187305582 	101128.7589353194
0.5668168168168163 	299.8334252239374 	0.4824783295634916 	101128.2127893971
0.5693193193193188 	299.8332556469467 	0.4828926560344865 	101128.0125388743
0.5718218218218213 	299.8335828059364 	0.4820494252619659 	101128.3986695432
0.5743243243243239 	299.8341404390345 	0.4806085155127749 	101129.0572640393
0.5768268268268262 	299.8344761993346 	0.4797135310683788 	101129.4536038636
0.5793293293293288 	299.8343870493675 	0.4798850358624855 	101129.3483637193
0.5818318318318314 	299.8340940602773 	0.4805798521724536 	101129.0025103236
0.5843343343343338 	299.8339940201618 	0.4808057034401379 	101128.8842202617
0.5868368368368363 	299.8342553626754 	0.4801311901749784 	101129.1925877788
0.5893393393393387 	299.8346694818995 	0.4790638161536328 	101129.6818186463
0.5918418418418413 	299.8348951410591 	0.4784540254080565 	101129.9482118069
0.5943443443443439 	299.8348176606328 	0.4785949208116135 	101129.8566393263
0.5968468468468463 	299.8346496649522 	0.4789696494090894 	101129.6583916445
0.5993493493493487 	299.8346778511059 	0.478870979908206 	101129.6915431043
0.6018518518518514 	299.8349487512716 	0.4781739074255977 	101130.011253496
0.6043543543543537 	299.8352405432794 	0.4774144730797212 	101130.3560353662
0.6068568568568564 	299.8353323550739 	0.4771380702908491 	101130.4643686527
0.6093593593593587 	299.8352489750782 	0.4772927831035355 	101130.3658654417
0.6118618618618614 	299.8352107325966 	0.4773470755054756 	101130.3207520195
0.6143643643643638 	299.8353623720687 	0.4769446301407038 	101130.499749505
0.6168668668668662 	299.8356124464495 	0.4762978902813295 	101130.7950075983
0.6193693693693688 	299.8357641568306 	0.475880681182049 	101130.9742023346
0.6218718718718714 	299.8357592335875 	0.4758399573462775 	101130.9685523283
0.6243743743743737 	299.8357346501074 	0.4758539048743485 	101130.9394824831
0.6268768768768762 	299.8358355076651 	0.4755726475869673 	101131.058580924
0.629379379379379 	299.8360357949912 	0.4750512138179632 	101131.2949668892
0.6318818818818812 	299.8361883587042 	0.4746367693658898 	101131.4750597381
0.6343843843843838 	299.8362235019155 	0.4744999271325074 	101131.5163075841
0.6368868868868864 	299.8362292409859 	0.4744372734816557 	101131.523094026
0.6393893893893888 	299.836321394897 	0.474175132327548 	101131.6319487216
0.6418918918918912 	299.8364888787881 	0.4737338787718568 	101131.8296362711
0.6443943943943939 	299.8366223610684 	0.4733673703031265 	101131.9871502625
0.6468968968968963 	299.8366709492057 	0.4731980745244134 	101132.0445905459
0.6493993993993988 	299.8367046627823 	0.4730676215858639 	101132.0844581583
0.6519019019019012 	299.8368051043145 	0.4727853418862115 	101132.2030534682
0.6544044044044038 	299.8369515969619 	0.4723942713562704 	101132.3759638959
0.6569069069069065 	299.8370616950976 	0.472083261156837 	101132.5060123146
0.6594094094094087 	299.8371145766803 	0.4719041356296437 	101132.5685222592
0.6619119119119113 	299.8371736360678 	0.4717149180575767 	101132.6380563038
0.664414414414414 	299.8372850005618 	0.4714072825832099 	101132.7694690575
0.6669169169169162 	299.8374128160103 	0.4710591960136317 	101132.9205072862
0.6694194194194188 	299.8375019058293 	0.4707974711564364 	101133.0254838486
0.6719219219219214 	299.8375611518012 	0.4706043103059175 	101133.0954630111
0.674424424424424 	299.8376430623093 	0.4703622840372634 	101133.1923741918
0.6769269269269262 	299.8377589643408 	0.4700440653863003 	101133.3291429331
0.679429429429429 	299.8378664833397 	0.4697423121486314 	101133.4560306447
0.6819319319319311 	299.8379418108426 	0.4695116530844181 	101133.5450772713
0.6844344344344341 	299.8380145626716 	0.4692890482607495 	101133.6308489951
0.686936936936936 	299.8381140435134 	0.4690080574847835 	101133.7482581669
0.6894394394394392 	299.8382232083837 	0.4687041401921442 	101133.8772100265
0.6919419419419413 	299.8383118782393 	0.4684444662647462 	101133.98181219
0.694444444444444 	299.8383868375898 	0.4682157446488079 	101134.0703259555
0.6969469469469463 	299.8384762328773 	0.467956636270108 	101134.1759607372
0.6994494494494489 	299.8385804934181 	0.4676646589366493 	101134.2990401245
0.7019519519519515 	299.838675216644 	0.4673922648697305 	101134.4107990589
0.7044544544544538 	299.8387553146695 	0.4671518407788767 	101134.505335892
0.7069569569569564 	299.838840964186 	0.4669004923543323 	101134.6065238224
0.7094594594594589 	299.8389400066043 	0.4666205588940728 	101134.7234298486
0.7119619619619615 	299.8390360504447 	0.4663461987947136 	101134.8367541898
0.7144644644644638 	299.8391200589607 	0.4660970996466218 	101134.9360440332
0.7169669669669665 	299.839205325261 	0.4658463559624393 	101135.036698783
0.7194694694694688 	299.8393008222851 	0.4655742886063228 	101135.1493460191
0.7219719719719715 	299.8393958740274 	0.4653021263142496 	101135.2616645308
0.7244744744744737 	299.8394822643963 	0.4650483643611601 	101135.3636037179
0.7269769769769764 	299.8395683705116 	0.4647960175601613 	101135.4651900922
0.7294794794794791 	299.8396617163802 	0.4645285008476134 	101135.5755062335
0.7319819819819813 	299.8397554327576 	0.4642597928767146 	101135.6861890992
0.7344844844844839 	299.8398428952026 	0.4640041800432041 	101135.7892985911
0.7369869869869864 	299.8399298145136 	0.4637496827106276 	101135.8920070757
0.739489489489489 	299.8400221637712 	0.4634843764683205 	101136.001018436
0.7419919919919914 	299.8401144844217 	0.4632188353806062 	101136.1099957156
0.7444944944944939 	299.8402021228944 	0.4629627468730811 	101136.2135121844
0.7469969969969963 	299.8402901541447 	0.4627066321567722 	101136.3173364027
0.7494994994994989 	299.840381910723 	0.4624429538379385 	101136.4256734541
0.7520020020020015 	299.8404728235464 	0.4621803682062336 	101136.533192342
0.7545045045045039 	299.8405607471429 	0.461924301052826 	101136.6368265445
0.7570070070070062 	299.8406494420635 	0.4616667160401647 	101136.7414742479
0.7595095095095092 	299.8407404215731 	0.4614040938824762 	101136.8491015217
0.7620120120120112 	299.8408303723022 	0.4611438208305254 	101136.9552574131
0.7645145145145138 	299.8409184366436 	0.4608877142876983 	101137.0590198685
0.7670170170170165 	299.8410075625874 	0.4606292574397564 	101137.1643675395
0.7695195195195191 	299.841098103962 	0.460368206037948 	101137.2713287081
0.7720220220220213 	299.8411872499916 	0.4601100795479988 	101137.3765067399
0.7745245245245239 	299.8412754439368 	0.459853832231578 	101137.4806134555
0.7770270270270263 	299.8413649749986 	0.4595950266700092 	101137.5863431981
0.779529529529529 	299.8414547727912 	0.4593355555866316 	101137.6923936526
0.7820320320320313 	299.8415433061434 	0.4590785924811618 	101137.7968066781
0.784534534534534 	299.8416317073081 	0.4588217287921227 	101137.9012421787
0.7870370370370364 	299.8417211215212 	0.4585630469780662 	101138.0068967827
0.7895395395395389 	299.84181028988 	0.4583051829233279 	101138.1120153648
0.7920420420420413 	299.8418984941503 	0.4580489795396633 	101138.2161645792
0.794544544544544 	299.8419871103557 	0.4577919584470382 	101138.3209850555
0.7970470470470463 	299.8420764769647 	0.4575342278255798 	101138.4262722738
0.799549549549549 	299.8421649840639 	0.4572778357672189 	101138.5307064598
0.8020520520520515 	299.8422530347023 	0.4570219044991311 	101138.6349523983
0.8045545545545539 	299.842342051105 	0.4567650466264077 	101138.7398587237
0.8070570570570563 	299.84243074915 	0.4565085710666893 	101138.8445086975
0.8095595595595589 	299.8425187454687 	0.4562530268817963 	101138.9485591
0.8120620620620614 	299.8426071901168 	0.4559970330621658 	101139.0529262679
0.8145645645645638 	299.8426957956829 	0.4557407610262402 	101139.157486789
0.8170670670670666 	299.842783857675 	0.4554853186329265 	101139.2615232169
0.8195695695695689 	299.8428719623799 	0.4552300414898069 	101139.3654843468
0.8220720720720714 	299.8429602885928 	0.4549743000712801 	101139.469763315
0.8245745745745739 	299.8430483656381 	0.4547189879746606 	101139.5737896507
0.8270770770770765 	299.8431362943242 	0.4544642170616695 	101139.6775345715
0.8295795795795788 	299.8432243122905 	0.4542092001832441 	101139.7815023657
0.8320820820820815 	299.8433123318187 	0.4539542570544106 	101139.8854476719
0.834584584584584 	299.8434001397388 	0.4536998358712891 	101139.9890827321
0.8370870870870865 	299.8434879814987 	0.4534454611137133 	101140.0927747935
0.8395895895895891 	299.8435758366541 	0.4531910457318553 	101140.1965482619
0.8420920920920915 	299.8436635568071 	0.4529369926894874 	101140.3000770704
0.844594594594594 	299.8437512090821 	0.4526831267006536 	101140.4035418304
0.8470970970970964 	299.8438389650452 	0.4524292435704219 	101140.5071087514
0.8495995995995991 	299.8439264940261 	0.4521756090704377 	101140.6105173504
0.8521021021021015 	299.8440138627794 	0.4519221906822564 	101140.713789481
0.8546046046046039 	299.8441015997178 	0.4516688146398259 	101140.8171240182
0.8571071071071066 	299.8441890218241 	0.4514156412900079 	101140.9203674986
0.8596096096096089 	299.8442761270421 	0.4511626467617993 	101141.0234649222
0.8621121121121116 	299.8443636382848 	0.4509096908886889 	101141.1265915638
0.8646146146146139 	299.8444510591252 	0.4506569478931846 	101141.2296694725
0.8671171171171166 	299.8445380235618 	0.4504044435440959 	101141.3326025804
0.8696196196196189 	299.8446252758874 	0.4501520086245167 	101141.4355207145
0.8721221221221216 	299.8447125117998 	0.4498997221203097 	101141.5384041852
0.874624624624624 	299.8447993966691 	0.449647632980362 	101141.641161132
0.8771271271271264 	299.8448864542684 	0.4493956323528688 	101141.7438844596
0.879629629629629 	299.8449735475314 	0.4491437786525161 	101141.8465824054
0.8821321321321317 	299.8450603084483 	0.4488921535795087 	101141.9491721993
0.8846346346346339 	299.8451471885553 	0.4486406570832566 	101142.0517133539
0.8871371371371364 	299.8452340482614 	0.4483892644525179 	101142.1542235664
0.8896396396396391 	299.8453207344289 	0.4481380632835592 	101142.2566353915
0.8921421421421414 	299.8454075434689 	0.4478870185860941 	101142.3589902324
0.8946446446446441 	299.8454941422309 	0.4476360992003319 	101142.4613091072
0.8971471471471464 	299.8455806738572 	0.4473853540025154 	101142.5635405055
0.8996496496496489 	299.8456673285475 	0.4471347429047995 	101142.6657164921
0.9021521521521517 	299.8457537803661 	0.4468842663589181 	101142.7678544815
0.9046546546546541 	299.8458401688274 	0.4466340021151852 	101142.8699107267
0.9071571571571564 	299.8459266651374 	0.4463838818914057 	101142.9719074055
0.9096596596596589 	299.8460129505475 	0.4461338654115505 	101143.0738565808
0.9121621621621616 	299.84609921027 	0.4458839790715362 	101143.1757263274
0.9146646646646639 	299.8461855604389 	0.4456342357125836 	101143.2775391688
0.9171671671671666 	299.8462716718224 	0.4453847384489952 	101143.3793053302
0.9196696696696689 	299.8463577213286 	0.4451354242104377 	101143.4810018138
0.9221721721721714 	299.846444058397 	0.4448861411782519 	101143.5826445409
0.9246746746746741 	299.8465299778642 	0.4446370121277663 	101143.6842313877
0.9271771771771765 	299.8466158076845 	0.4443881269758889 	101143.7857425476
0.9296796796796791 	299.8467019150624 	0.4441393517714848 	101143.8871959465
0.9321821821821816 	299.8467878091031 	0.4438906612148967 	101143.9885943832
0.9346846846846838 	299.8468735060868 	0.4436421733172896 	101144.0899298378
0.9371871871871866 	299.8469593711485 	0.4433938849393584 	101144.1912138614
0.9396896896896891 	299.8470451519332 	0.4431457005045278 	101144.2924376482
0.9421921921921914 	299.8471307931289 	0.4428976496500565 	101144.3935947019
0.9446946946946939 	299.8472164464241 	0.4426497908093551 	101144.494695972
0.9471971971971965 	299.8473019764979 	0.4424020665526798 	101144.5957347273
0.9496996996996991 	299.8473874890819 	0.442154492275344 	101144.6967106449
0.9522022022022016 	299.8474730765885 	0.4419071092676064 	101144.7976314246
0.9547047047047038 	299.8475584044951 	0.4416598442477557 	101144.8984907657
0.9572072072072064 	299.8476437658248 	0.4414126882352732 	101144.9992918053
0.9597097097097093 	299.8477291998672 	0.4411656930767039 	101145.1000368049
0.9622122122122114 	299.8478144318863 	0.440918871107396 	101145.2007181947
0.964714714714714 	299.8478995784002 	0.4406722241535288 	101145.3013399077
0.9672172172172167 	299.847984885628 	0.4404257442193583 	101145.4019037631
0.969719719719719 	299.8480699778291 	0.440179409351779 	101145.5024083896
0.9722222222222214 	299.8481549575209 	0.4399331953805056 	101145.6028568928
0.9747247247247239 	299.8482401328409 	0.4396871446377839 	101145.7032440721
0.9772272272272267 	299.8483250969808 	0.4394412488120203 	101145.8035681428
0.9797297297297292 	299.8484098701693 	0.4391954436348482 	101145.9038328022
0.9822322322322313 	299.8484948331234 	0.4389498321584708 	101146.0040375851
0.9847347347347344 	299.8485797449946 	0.4387044687712685 	101146.1041869526
0.9872372372372363 	299.8486643851078 	0.4384591903126023 	101146.2042829328
0.9897397397397389 	299.8487491732103 	0.4382139653786143 	101146.304321151
0.9922422422422417 	299.8488339141657 	0.4379689738322417 	101146.4042977879
0.9947447447447441 	299.8489184671887 	0.4377242077440299 	101146.5042074484
0.9972472472472468 	299.8490030871374 	0.4374795187669088 	101146.604052134
0.999749749749749 	299.8490875856897 	0.4372349439256867 	101146.7038409459
1.002252252252252 	299.8491719482761 	0.4369905690158743 	101146.8035790563
1.004754754754754 	299.8492565370128 	0.4367463683205547 	101146.9032672371
1.007257257257256 	299.8493409604782 	0.4365023141796238 	101147.0028985788
1.009759759759759 	299.8494250891895 	0.4362584478313088 	101147.1024642266
1.012262262262261 	299.8495094851259 	0.4360147296515663 	101147.2019628295
1.014764764764764 	299.8495938333944 	0.4357710735845709 	101147.3013986627
1.017267267267267 	299.8496778457188 	0.4355275852437738 	101147.4007796761
1.019769769769769 	299.8497619896917 	0.4352843020203921 	101147.5001099165
1.022272272272272 	299.8498461941938 	0.4350411797251718 	101147.599385922
1.024774774774774 	299.8499300812492 	0.4347982798674764 	101147.6986024872
1.027277277277277 	299.8500140568211 	0.4345555135226299 	101147.7977558701
1.029779779779779 	299.8500981176891 	0.4343127938522415 	101147.896847781
1.032282282282282 	299.8501819525667 	0.4340702069990892 	101147.995883001
1.034784784784784 	299.8502657470139 	0.4338278887832021 	101148.0948638437
1.037287287287286 	299.8503495934147 	0.4335858060203372 	101148.1937892579
1.039789789789789 	299.8504333208819 	0.4333437663298392 	101148.2926550827
1.042292292292291 	299.8505169430862 	0.4331018334366817 	101148.3914588296
1.044794794794794 	299.8506006539471 	0.4328602082987478 	101148.4902017019
1.047297297297296 	299.850684278307 	0.4326187735519176 	101148.5888870757
1.049799799799799 	299.8507676965453 	0.4323773640595027 	101148.6875186291
1.052302302302302 	299.8508512949149 	0.4321360960364926 	101148.7860966398
1.054804804804804 	299.8509348270651 	0.4318950479564136 	101148.8846183934
1.057307307307306 	299.8510180152509 	0.4316541838321841 	101148.9830799334
1.059809809809809 	299.8511014272245 	0.4314134581584251 	101149.0814791491
1.062312312312312 	299.8511848482662 	0.431172907181555 	101149.179818644
1.064814814814814 	299.8512679971162 	0.430932585799848 	101149.2781030881
1.067317317317317 	299.8513511762995 	0.4306923933005334 	101149.3763348058
1.069819819819819 	299.8514344003051 	0.4304523215332038 	101149.4745109263
1.072322322322321 	299.8515174822887 	0.4302124656774714 	101149.5726269133
1.074824824824824 	299.8516004690046 	0.4299727493344573 	101149.67068181
1.077327327327327 	299.8516835461688 	0.4297331710763915 	101149.7686785091
1.079829829829829 	299.8517665613653 	0.4294939157167524 	101149.8666207558
1.082332332332332 	299.8518493511312 	0.4292549332719259 	101149.9645093393
1.084834834834834 	299.8519323104636 	0.4290160146457603 	101150.062341994
1.087337337337337 	299.8520152402122 	0.4287770946268983 	101150.1601154109
1.089839839839839 	299.8520978416571 	0.4285383981609752 	101150.2578280352
1.092342342342342 	299.8521805635656 	0.4283001012452902 	101150.3554821852
1.094844844844844 	299.8522633067773 	0.4280619343652393 	101150.4530817845
1.097347347347347 	299.8523458886525 	0.4278237901753514 	101150.5506281516
1.099849849849849 	299.8524283324963 	0.4275858867820591 	101150.6481187503
1.102352352352352 	299.8525109800674 	0.4273482510297539 	101150.7455510538
1.104854854854854 	299.8525935883201 	0.4271107994127492 	101150.8429252849
1.107357357357357 	299.8526758671957 	0.4268734694679621 	101150.940243065
1.109859859859859 	299.8527582491761 	0.4266363046697591 	101151.0375054332
1.112362362362362 	299.852840696917 	0.4263994084704888 	101151.1347122688
1.114864864864865 	299.8529229757514 	0.4261626488911158 	101151.2318631063
1.117367367367367 	299.853005144099 	0.4259260012833901 	101151.3289575998
1.119869869869869 	299.8530873903187 	0.4256896952415842 	101151.4259958102
1.122372372372372 	299.8531695845599 	0.4254536660730781 	101151.5229779108
1.124874874874874 	299.8532515756164 	0.4252177071836968 	101151.6199037423
1.127377377377377 	299.8533336997543 	0.424981800788733 	101151.7167731244
1.129879879879879 	299.853415806624 	0.4247460435045431 	101151.81358671
1.132382382382382 	299.8534976985632 	0.424510645951176 	101151.9103458747
1.134884884884884 	299.8535795276547 	0.424275588177902 	101152.0070513649
1.137387387387387 	299.8536614049882 	0.4240405876193875 	101152.1037028346
1.139889889889889 	299.8537432984263 	0.4238057159832841 	101152.2002992817
1.142392392392392 	299.8538251176648 	0.4235711358298415 	101152.2968399381
1.144894894894894 	299.8539068640208 	0.4233367983396469 	101152.3933248373
1.147397397397397 	299.8539885545296 	0.4231026552178219 	101152.489755003
1.149899899899899 	299.8540701952319 	0.4228685895083879 	101152.5861319593
1.152402402402402 	299.8541517457725 	0.422634772406046 	101152.6824564514
1.154904904904904 	299.8542333575795 	0.4224013980172179 	101152.7787277124
1.157407407407407 	299.8543149314773 	0.422168230057559 	101152.8749438502
1.159909909909909 	299.8543963452692 	0.4219350923915067 	101152.9711033323
1.162412412412412 	299.8544777499784 	0.4217020768967136 	101153.06720687
1.164914914914914 	299.854559113004 	0.4214693148670876 	101153.1632576218
1.167417417417417 	299.8546404483332 	0.4212368847350962 	101153.259258601
1.169919919919919 	299.8547216901438 	0.4210048226758004 	101153.3552101708
1.172422422422422 	299.8548029457113 	0.4207729446931004 	101153.4511101995
1.174924924924925 	299.8548842582236 	0.4205411533516543 	101153.5469562744
1.177427427427427 	299.8549654876832 	0.4203096260055246 	101153.642747882
1.179929929929929 	299.8550465639876 	0.4200782849275106 	101153.7384868291
1.182432432432432 	299.8551275934062 	0.4198472009134435 	101153.8341755169
1.184934934934934 	299.8552086553042 	0.4196165401129693 	101153.9298147725
1.187437437437437 	299.8552897712627 	0.4193860000627612 	101154.025403276
1.189939939939939 	299.8553706981913 	0.4191555429343918 	101154.1209395942
1.192442442442442 	299.8554513998633 	0.4189253919161297 	101154.2164250888
1.194944944944944 	299.8555323246553 	0.4186954812656448 	101154.311863318
1.197447447447447 	299.8556133323222 	0.4184658353676357 	101154.4072560405
1.199949949949949 	299.8556942911948 	0.418236581120584 	101154.5026011469
1.202452452452452 	299.8557750253955 	0.4180074399102988 	101154.5978947772
1.204954954954955 	299.8558555842737 	0.4177784264775048 	101154.6931351512
1.207457457457457 	299.8559362542368 	0.4175497526196729 	101154.7883247341
1.20995995995996 	299.856017022584 	0.4173214279699542 	101154.8834684896
1.212462462462462 	299.8560977406769 	0.4170927247255196 	101154.9785692492
1.214964964964964 	299.8561785082126 	0.4168654512260122 	101155.0736270652
1.217467467467467 	299.8562591624343 	0.416635821857344 	101155.168638722
1.219969969969969 	299.8563395461929 	0.4164124901683289 	101155.2636063096
1.222472472472472 	299.8564200439501 	0.4161722099626561 	101155.3585202566
1.224974974974975 	299.8565006276461 	0.4159788055421904 	101155.4534112878
1.227477477477477 	299.8565811840665 	0.4156247650516349 	101155.5481935115
1.229979979979979 	299.8566620731938 	0.4157397230185238 	101155.6433019513
1.232482482482482 	299.8567422558146 	0.4145034356231305 	101155.7373758384
1.234984984984984 	299.8568222543249 	0.4155995471079214 	101155.8322467571
1.237487487487487 	299.8569052281905 	0.4139682162255969 	101155.9269634009
1.239989989989989 	299.8569803000099 	0.4145790317347752 	101156.0199686779
1.242492492492492 	299.8570638862083 	0.4152985949014718 	101156.1174937989
1.244994994994994 	299.8542410450627 	0.4125151992820761 	101156.2100867549
1.247497497497497 	299.1476608326537 	0.4140886315905536 	101156.3048012874
1.249999999999999 	301.1720954340663 	0.4136869550709061 	101156.4001526419
