-1.25 	300 	0.1203999040366063 	101275.8856374636
-1.247497497497497 	299.95727810363 	0.1199348330476164 	101276.0127989242
-1.244994994994995 	299.9586585985065 	0.1196146748173787 	101276.1537690979
-1.242492492492492 	299.9588020786211 	0.1194250034641174 	101276.3036512581
-1.23998998998999 	299.9589356667681 	0.1189348039960073 	101276.4624030639
-1.237487487487487 	299.9590774778421 	0.1185627668587148 	101276.6300263099
-1.234984984984985 	299.9592269298889 	0.1181283284708184 	101276.8066582614
-1.232482482482482 	299.9593841276131 	0.1176715354281577 	101276.9924434943
-1.22997997997998 	299.9595487922195 	0.1171952851041583 	101277.1870538079
-1.227477477477477 	299.9597206794901 	0.116699949155297 	101277.3902006644
-1.224974974974975 	299.9598998248701 	0.1161816577700883 	101277.6019253798
-1.222472472472472 	299.9600863123542 	0.1156398593878048 	101277.8223266998
-1.21996996996997 	299.960280268302 	0.1150739479119162 	101278.0515542959
-1.217467467467467 	299.960481556321 	0.1144865986796545 	101278.2894471659
-1.214964964964965 	299.9606899490919 	0.1138854511018368 	101278.5357378207
-1.212462462462462 	299.9609056651648 	0.1132622302849732 	101278.7906833356
-1.20995995995996 	299.9611290393102 	0.112616192009996 	101279.0546791397
-1.207457457457457 	299.9613598033187 	0.111947025555947 	101279.3274087431
-1.204954954954955 	299.9615974795968 	0.1112570085445697 	101279.6083081166
-1.202452452452452 	299.9618418371452 	0.110552628399774 	101279.8971051382
-1.19994994994995 	299.9620929809203 	0.1098259354698296 	101280.193921968
-1.197447447447447 	299.9623513490058 	0.1090769632508339 	101280.4992765133
-1.194944944944945 	299.9626168102851 	0.1083047153784075 	101280.8130147229
-1.192442442442442 	299.9628888712015 	0.1075118298767098 	101281.1345532096
-1.18993993993994 	299.9631676154581 	0.1067058414111703 	101281.4639918408
-1.187437437437437 	299.9634534216547 	0.1058796411318591 	101281.801777095
-1.184934934934935 	299.9637464723929 	0.1050328325195432 	101282.1481244715
-1.182432432432432 	299.9640463728515 	0.1041658351435417 	101282.5025678213
-1.17992992992993 	299.9643524559537 	0.1032781533269143 	101282.8643190226
-1.177427427427427 	299.9646646391955 	0.1023732328436746 	101283.2332811084
-1.174924924924925 	299.9649834986458 	0.1014496956351403 	101283.6101341863
-1.172422422422422 	299.9653090833421 	0.1005076741637574 	101283.9949355604
-1.16991991991992 	299.9656408318306 	0.09954557996300492 	101284.3870215311
-1.167417417417417 	299.9659787063691 	0.09856420316388503 	101284.7863494211
-1.164914914914915 	299.9663228958126 	0.09756578926386802 	101285.1931446443
-1.162412412412412 	299.9666735327019 	0.09655013604994989 	101285.6075620452
-1.15990990990991 	299.9670307885774 	0.09551825098167176 	101286.0298011314
-1.157407407407407 	299.9673940079017 	0.09446707104017943 	101286.4590851922
-1.154904904904904 	299.9677626855082 	0.09339703218387624 	101286.8948190823
-1.152402402402403 	299.9681374316141 	0.09231076920544203 	101287.3377294452
-1.1498998998999 	299.968518196054 	0.09120808901380778 	101287.7877602155
-1.147397397397397 	299.9689044826806 	0.09008993540462717 	101288.2443233869
-1.144894894894895 	299.9692964452453 	0.08895424540295052 	101288.7075957378
-1.142392392392392 	299.9696940084397 	0.08780083722851363 	101289.1774833668
-1.13988988988989 	299.9700972016567 	0.08663105522732381 	101289.6540186132
-1.137387387387387 	299.9705063929155 	0.08544630421418302 	101290.1376385602
-1.134884884884885 	299.9709211529705 	0.08424694783413746 	101290.6278398602
-1.132382382382382 	299.9713410068226 	0.08303043975116957 	101291.1240627509
-1.12987987987988 	299.9717659806266 	0.08179890683671542 	101291.6263403569
-1.127377377377377 	299.9721961462253 	0.08055129700166246 	101292.1347589465
-1.124874874874875 	299.9726314094282 	0.07928931616152626 	101292.6492066141
-1.122372372372372 	299.9730714332522 	0.07801708924708275 	101293.1692855586
-1.11986986986987 	299.9735160564654 	0.07672889775328146 	101293.6948047
-1.117367367367367 	299.9739661027937 	0.0754242496448172 	101294.2267361106
-1.114864864864865 	299.974421326632 	0.07410289577278571 	101294.7647890283
-1.112362362362362 	299.9748808305508 	0.07276921381078656 	101295.3079034564
-1.10985985985986 	299.9753451157877 	0.0714274965575223 	101295.8566725168
-1.107357357357357 	299.9758146738299 	0.07006983142963225 	101296.4116753038
-1.104854854854855 	299.9762880882813 	0.06869817663782829 	101296.9712375846
-1.102352352352353 	299.9767651533509 	0.06731263744046727 	101297.5351172088
-1.09984984984985 	299.9772468719497 	0.06591499975960889 	101298.1044997922
-1.097347347347347 	299.9777332156171 	0.0645099453745429 	101298.6793515258
-1.094844844844845 	299.9782230146461 	0.06309244189647076 	101299.2582888928
-1.092342342342342 	299.978716344285 	0.06166312800118483 	101299.8414019145
-1.08983983983984 	299.9792140951478 	0.06021875179414957 	101300.4297438428
-1.087337337337337 	299.9797167655182 	0.05876088077613949 	101301.0239024944
-1.084834834834835 	299.9802232156313 	0.05729639007203996 	101301.6225306892
-1.082332332332332 	299.9807322814149 	0.05582245964614142 	101302.2242527681
-1.07982982982983 	299.9812443960419 	0.05433885300295123 	101302.8295813703
-1.077327327327327 	299.9817604575704 	0.05284367185786982 	101303.439578309
-1.074824824824825 	299.9822802136737 	0.05133706097942448 	101304.0539447349
-1.072322322322323 	299.982803300892 	0.04982231114455156 	101304.6722508097
-1.06981981981982 	299.9833294409275 	0.04829901663718279 	101305.2941676192
-1.067317317317317 	299.9838581183664 	0.04676809468049468 	101305.9190865966
-1.064814814814815 	299.984389245722 	0.0452286135457014 	101306.5469042094
-1.062312312312312 	299.9849232116349 	0.04368045870386252 	101307.1780802041
-1.05980980980981 	299.985460681748 	0.04212261023825928 	101307.8134016912
-1.057307307307307 	299.9860024416275 	0.04055347047917086 	101308.4537962023
-1.054804804804805 	299.9865477167154 	0.03897624858624268 	101309.098347659
-1.052302302302302 	299.987093931109 	0.03739425078064518 	101309.7440112737
-1.0497997997998 	299.9876396619566 	0.03581208618607053 	101310.3891059011
-1.047297297297297 	299.988185896158 	0.03422902198708976 	101311.03479969
-1.044794794794795 	299.9887351887697 	0.03263713339455753 	101311.684113581
-1.042292292292292 	299.9892902540191 	0.03103005692455477 	101312.3402552549
-1.03978978978979 	299.9898512406733 	0.02940598000938362 	101313.0033986054
-1.037287287287287 	299.9904144430621 	0.02777391270579029 	101313.6691609827
-1.034784784784785 	299.9909760737763 	0.02614630261254881 	101314.3330655427
-1.032282282282283 	299.9915344956204 	0.02452892776680138 	101314.9931806471
-1.02977977977978 	299.9920908514081 	0.02291708889626153 	101315.6508598809
-1.027277277277277 	299.9926487344604 	0.02129919250456219 	101316.3103491669
-1.024774774774775 	299.9932117450048 	0.01966819535077929 	101316.9759029652
-1.022272272272272 	299.9937806746493 	0.01801975666189739 	101317.648457328
-1.01976976976977 	299.9943552642804 	0.01635738180749726 	101318.3277058347
-1.017267267267267 	299.9949325568505 	0.01468905476824754 	101319.0101512223
-1.014764764764765 	299.9955082785114 	0.0130194190811089 	101319.6907385703
-1.012262262262262 	299.9960804038841 	0.01135922434138091 	101320.3670743549
-1.00975975975976 	299.9966491434739 	0.009710874258798246 	101321.0394140399
-1.007257257257257 	299.9972136254954 	0.008072917798590927 	101321.70672793
-1.004754754754755 	299.9977770981674 	0.006442549947643605 	101322.3728512545
-1.002252252252252 	299.9983417234923 	0.00480797808562373 	101323.0403366474
-0.9997497497497498 	299.9989088035169 	0.003163763942256454 	101323.7107281283
-0.9972472472472473 	299.9994810403384 	0.001506662448336643 	101324.3872257012
-0.9947447447447449 	300.0000579266166 	0.000834158327862269 	101325.0692261087
-0.9922422422422421 	300.0006360352103 	0.001836229045105436 	101325.7526690039
-0.9897397397397399 	300.0012132106854 	0.003508014613812293 	101326.4350020762
-0.9872372372372376 	300.001789096802 	0.005176271933339308 	101327.1158108291
-0.9847347347347346 	300.0023637924889 	0.006841135448331545 	101327.7952236306
-0.9822322322322323 	300.0029374318303 	0.008502965141512702 	101328.473402445
-0.9797297297297296 	300.0035101159479 	0.01016202063709571 	101329.1504568348
-0.9772272272272275 	300.0040818952778 	0.01181841472654692 	101329.8264328178
-0.9747247247247248 	300.0046527639888 	0.01347212722912039 	101330.5013214039
-0.9722222222222224 	300.0052226690839 	0.0151230378224896 	101331.175072421
-0.9697197197197196 	300.0057915312809 	0.01677095744373125 	101331.8476075814
-0.9672172172172175 	300.0063592664353 	0.01841565169223003 	101332.5188306786
-0.9647147147147147 	300.0069257948572 	0.02005685924360846 	101333.1886347001
-0.9622122122122124 	300.0074910358607 	0.02169430334584923 	101333.8569063625
-0.9597097097097099 	300.0080548972048 	0.02332769795877371 	101334.5235288784
-0.9572072072072073 	300.0086172704222 	0.02495675238788522 	101335.1883835415
-0.9547047047047047 	300.009178038455 	0.02658117345008335 	101335.8513506322
-0.9522022022022023 	300.0097370877158 	0.02820066658402023 	101336.5123100187
-0.9496996996996998 	300.0102943172911 	0.02981493750874011 	101337.1711414832
-0.9471971971971973 	300.0108496382458 	0.03142369202505272 	101337.8277249184
-0.9446946946946947 	300.0114029649426 	0.03302663596980242 	101338.4819404657
-0.9421921921921923 	300.0119542056004 	0.03462347672127653 	101339.1336685078
-0.93968968968969 	300.0125032564975 	0.0362139223062072 	101339.7827897337
-0.9371871871871872 	300.0130500047158 	0.03779768101016384 	101340.4291852679
-0.9346846846846848 	300.0135943357571 	0.03937446284517865 	101341.0727366812
-0.9321821821821823 	300.0141361402502 	0.04094397917530452 	101341.7133260569
-0.9296796796796799 	300.0146753177334 	0.04250594228763489 	101342.350836028
-0.9271771771771771 	300.0152117759564 	0.04406006603976348 	101342.9851497123
-0.9246746746746748 	300.0157454280201 	0.04560606556452405 	101343.6161507959
-0.9221721721721724 	300.0162761882897 	0.04714365726350174 	101344.2437235811
-0.9196696696696698 	300.0168039675684 	0.04867255945269255 	101344.86775294
-0.9171671671671672 	300.0173286716039 	0.05019249175844173 	101345.4881244187
-0.9146646646646649 	300.0178502014256 	0.05170317552245177 	101346.1047242458
-0.9121621621621623 	300.0183684555094 	0.05320433406786873 	101346.7174392858
-0.9096596596596597 	300.0188833327272 	0.05469569193174177 	101347.3261571724
-0.9071571571571573 	300.0193947333254 	0.0561769756847412 	101347.930766274
-0.9046546546546547 	300.0199025595241 	0.05764791396371856 	101348.5311556116
-0.9021521521521524 	300.0204067157255 	0.05910823680768536 	101349.1272150755
-0.8996496496496498 	300.020907108693 	0.06055767667374222 	101349.7188354296
-0.8971471471471473 	300.0214036467521 	0.06199596826023659 	101350.3059081676
-0.894644644644645 	300.0218962393437 	0.0634228476035136 	101350.888325629
-0.892142142142142 	300.0223847972433 	0.06483805308190556 	101351.46598097
-0.8896396396396397 	300.0228692318123 	0.06624132537369302 	101352.0387681284
-0.8871371371371374 	300.0233494551446 	0.06763240696380346 	101352.6065820546
-0.8846346346346349 	300.0238253802581 	0.06901104286785148 	101353.1693185797
-0.8821321321321324 	300.0242969202493 	0.07037698005525189 	101353.7268742235
-0.8796296296296297 	300.024763989129 	0.07172996744976295 	101354.2791465412
-0.8771271271271271 	300.0252265015525 	0.07306975692925385 	101354.826034195
-0.8746246246246248 	300.025684372968 	0.0743961028875695 	101355.3674367214
-0.8721221221221224 	300.0261375195396 	0.07570876187363777 	101355.9032547512
-0.8696196196196196 	300.0265858582525 	0.07700749338467494 	101356.4333900261
-0.8671171171171175 	300.0270293070447 	0.07829205909127113 	101356.9577451226
-0.8646146146146148 	300.0274677843851 	0.07956222329333554 	101357.476223762
-0.8621121121121121 	300.0279012102137 	0.08081775348330635 	101357.9887309639
-0.8596096096096097 	300.0283295050735 	0.08205841940826358 	101358.4951726744
-0.857107107107107 	300.0287525901856 	0.08328399379980245 	101358.9954559613
-0.8546046046046049 	300.0291703884742 	0.08449425243431705 	101359.4894892655
-0.8521021021021022 	300.0295828231942 	0.08568897292283818 	101359.9771819314
-0.8495995995995997 	300.0299898185208 	0.08686793590107755 	101360.4584442694
-0.8470970970970974 	300.0303913000323 	0.08803092557646484 	101360.933188131
-0.8445945945945946 	300.0307871942966 	0.0891777286458461 	101361.4013266391
-0.8420920920920922 	300.0311774288446 	0.090308135007582 	101361.8627738651
-0.8395895895895897 	300.0315619318902 	0.0914219379990308 	101362.3174451847
-0.8370870870870872 	300.031940633007 	0.092518933255872 	101362.7652570986
-0.8345845845845846 	300.0323134623607 	0.09359891939069598 	101363.2061269109
-0.8320820820820823 	300.0326803511944 	0.09466169856658765 	101363.6399734029
-0.8295795795795798 	300.0330412326704 	0.09570707629264319 	101364.0667172407
-0.8270770770770772 	300.0333960407056 	0.09673486103426346 	101364.4862803688
-0.8245745745745746 	300.0337447103158 	0.09774486369812001 	101364.8985858623
-0.8220720720720721 	300.0340871778302 	0.09873689831978098 	101365.303558331
-0.8195695695695699 	300.0344233806021 	0.09971078259268368 	101365.7011236635
-0.817067067067067 	300.0347532567276 	0.1006663372237473 	101366.0912085875
-0.8145645645645651 	300.0350767452695 	0.1016033867497819 	101366.473741036
-0.8120620620620621 	300.0353937869372 	0.1025217599504862 	101366.8486506563
-0.8095595595595597 	300.0357043234254 	0.1034212883119332 	101367.2158686038
-0.8070570570570572 	300.0360082975144 	0.1043018063441897 	101367.5753272643
-0.8045545545545546 	300.0363056537477 	0.1051631526585911 	101367.9269607172
-0.8020520520520523 	300.0365963378711 	0.1060051702185471 	101368.2707048817
-0.7995495495495494 	300.0368802963731 	0.1068277056488527 	101368.6064963946
-0.7970470470470474 	300.0371574759857 	0.1076306075374705 	101368.9342722656
-0.7945445445445446 	300.0374278252786 	0.1084137278646876 	101369.2539716238
-0.7920420420420423 	300.0376912951369 	0.1091769231701862 	101369.5655362501
-0.7895395395395397 	300.037947836844 	0.1099200516681661 	101369.8689086021
-0.7870370370370371 	300.0381974026585 	0.1106429744169531 	101370.1640320711
-0.7845345345345348 	300.0384399477967 	0.1113455601125152 	101370.4508536565
-0.7820320320320323 	300.0386754292416 	0.1120276810137381 	101370.7293224831
-0.7795295295295296 	300.0389038027462 	0.1126892079196902 	101370.9993861838
-0.7770270270270272 	300.0391250251677 	0.1133300165586494 	101371.2609936778
-0.7745245245245247 	300.0393390577879 	0.1139499935569511 	101371.5140989444
-0.7720220220220222 	300.0395458617351 	0.1145490278407645 	101371.7586561804
-0.7695195195195199 	300.0397453955411 	0.1151270048779911 	101371.9946163422
-0.767017017017017 	300.0399376217264 	0.1156838186196536 	101372.2219348847
-0.7645145145145147 	300.0401225086929 	0.1162193754385737 	101372.4405745654
-0.7620120120120122 	300.0403000222171 	0.1167335753732532 	101372.6504947327
-0.7595095095095097 	300.0404701239445 	0.1172263108183506 	101372.8516501595
-0.7570070070070072 	300.0406327840003 	0.1176974915224408 	101373.0440053953
-0.7545045045045048 	300.040787979756 	0.1181470424154299 	101373.2275336023
-0.7520020020020022 	300.0409356800883 	0.1185748735976775 	101373.4021980914
-0.7494994994994997 	300.0410758492499 	0.1189808895964258 	101373.5679560965
-0.7469969969969972 	300.0412084647406 	0.1193650262876372 	101373.7247813798
-0.7444944944944945 	300.0413335119522 	0.1197272353134277 	101373.8726567555
-0.7419919919919924 	300.0414509609693 	0.1200674366953925 	101374.0115467735
-0.7394894894894897 	300.0415607768911 	0.1203855413590076 	101374.1414100716
-0.7369869869869872 	300.0416629487997 	0.1206815084932572 	101374.262233268
-0.7344844844844846 	300.0417574742017 	0.1209553129529815 	101374.3740136925
-0.7319819819819822 	300.0418443243823 	0.121206875715467 	101374.4767173561
-0.7294794794794797 	300.0419234620478 	0.1214361080123559 	101374.570300625
-0.7269769769769773 	300.0419948858293 	0.1216429989728784 	101374.6547617462
-0.7244744744744747 	300.0420586079502 	0.121827563592389 	101374.7301147415
-0.721971971971972 	300.0421145999829 	0.1219897323384519 	101374.7963257546
-0.7194694694694695 	300.0421628182377 	0.1221294078389468 	101374.853343032
-0.7169669669669674 	300.0422032713856 	0.122246604172625 	101374.9011774681
-0.7144644644644647 	300.042235995722 	0.1223413870741904 	101374.9398722037
-0.711961961961962 	300.0422609687408 	0.1224136962131738 	101374.9694004842
-0.7094594594594597 	300.0422781296638 	0.1224634000465853 	101374.9896901809
-0.7069569569569573 	300.0422874870603 	0.1224905218847825 	101375.0007507478
-0.7044544544544545 	300.0422891091512 	0.1224952064824075 	101375.0026624102
-0.7019519519519523 	300.0422829901665 	0.1224774372733051 	101374.9954197245
-0.6994494494494495 	300.0422690422493 	0.1224370257519809 	101374.9789196858
-0.6969469469469471 	300.0422472538999 	0.1223739526879725 	101374.9531478295
-0.6944444444444446 	300.0422177337169 	0.1222884568663241 	101374.9182324667
-0.6919419419419421 	300.0421805340798 	0.1221806445431093 	101374.8742349031
-0.6894394394394396 	300.0421355469493 	0.1220502802972097 	101374.8210271681
-0.6869369369369374 	300.0420826893044 	0.1218972011543187 	101374.7585109284
-0.6844344344344344 	300.0420220808163 	0.1217216895394229 	101374.6868284765
-0.6819319319319321 	300.0419538781575 	0.1215240885974354 	101374.606165782
-0.6794294294294296 	300.0418780082977 	0.1213042261308583 	101374.5164366183
-0.6769269269269272 	300.0417942757303 	0.1210616802075442 	101374.4174097362
-0.6744244244244245 	300.041702719621 	0.1207965694685325 	101374.3091309653
-0.6719219219219222 	300.0416036198106 	0.1205095345280028 	101374.191930703
-0.6694194194194195 	300.0414970750651 	0.120200784443272 	101374.0659249735
-0.6669169169169172 	300.0413828206064 	0.1198697217878 	101373.9308007553
-0.6644144144144146 	300.0412606504785 	0.1195159163790244 	101373.7863154087
-0.661911911911912 	300.0411308230197 	0.1191399936789753 	101373.6327752555
-0.6594094094094097 	300.0409937504851 	0.1187428938909098 	101373.4706683033
-0.656906906906907 	300.0408493703218 	0.1183244535315957 	101373.2999205252
-0.6544044044044046 	300.0406971942338 	0.1178835670353029 	101373.1199541292
-0.6519019019019021 	300.0405370736358 	0.1174199509609817 	101372.9305933419
-0.6493993993993996 	300.040369556076 	0.1169349099755173 	101372.7324852613
-0.6468968968968971 	300.0401951857733 	0.1164296851317958 	101372.526272684
-0.6443943943943946 	300.0400136837912 	0.1159035942865343 	101372.3116250189
-0.6418918918918921 	300.0398242774434 	0.1153548642955062 	101372.0876285085
-0.6393893893893897 	300.039626857089 	0.114783324978418 	101371.8541545379
-0.6368868868868871 	300.0394223222744 	0.1141911397411794 	101371.6122677012
-0.6343843843843846 	300.0392114630301 	0.1135801346262651 	101371.3629021603
-0.6318818818818821 	300.0389938148871 	0.1129491602982546 	101371.1055085575
-0.6293793793793795 	300.0387681697726 	0.1122953850903291 	101370.8386585624
-0.6268768768768773 	300.0385342526992 	0.1116182681827157 	101370.5620275153
-0.6243743743743745 	300.0382932901882 	0.1109209259229213 	101370.2771233074
-0.6218718718718721 	300.0380467188706 	0.1102065608399286 	101369.9855494505
-0.6193693693693696 	300.0377941950491 	0.1094741968794104 	101369.6868643509
-0.6168668668668671 	300.0375338070819 	0.1087194581648731 	101369.3789151216
-0.6143643643643645 	300.0372645802473 	0.107940081848583 	101369.0605325915
-0.6118618618618621 	300.0369878832111 	0.107139476098993 	101368.7333187522
-0.6093593593593596 	300.0367060778497 	0.1063233697475784 	101368.4000659479
-0.6068568568568571 	300.0364197121735 	0.1054929803838311 	101368.0614205093
-0.6043543543543546 	300.0361266148583 	0.1046429386513125 	101367.7148135938
-0.6018518518518521 	300.0358242667343 	0.1037671721911092 	101367.3572671167
-0.5993493493493496 	300.0355129116847 	0.1028664685617905 	101366.9890718744
-0.5968468468468471 	300.035195721671 	0.1019487330544565 	101366.6139795238
-0.5943443443443446 	300.0348754951676 	0.1010207901375654 	101366.2352978086
-0.591841841841842 	300.0345513992198 	0.1000804235203416 	101365.8520394256
-0.5893393393393397 	300.0342195177007 	0.09911788101091193 	101365.4595728601
-0.5868368368368371 	300.0338769551904 	0.09812611761038964 	101365.0544765245
-0.5843343343343346 	300.0335252552566 	0.09710920344361638 	101364.6385787715
-0.5818318318318321 	300.0331693185179 	0.0960794734734455 	101364.2176751033
-0.5793293293293297 	300.0328125945159 	0.09504545568477434 	101363.7958420135
-0.5768268268268271 	300.0324533394092 	0.0940025831067068 	101363.3710139707
-0.5743243243243245 	300.0320859193429 	0.09293661571876709 	101362.9365285193
-0.5718218218218221 	300.0317062060786 	0.09183729477977091 	101362.4875072409
-0.5693193193193196 	300.0313159395046 	0.09070927600206066 	101362.0260114365
-0.5668168168168171 	300.0309216749107 	0.089569321529747 	101361.5597940203
-0.5643143143143147 	300.0305289834355 	0.08843151375670391 	101361.0954395849
-0.5618118118118121 	300.030137144286 	0.08729380795141459 	101360.6320910693
-0.5593093093093094 	300.0297393152929 	0.0861385895977777 	101360.1616560506
-0.5568068068068072 	300.0293283104353 	0.08494753495320249 	101359.6756398844
-0.5543043043043046 	300.0289030742695 	0.08371818338666377 	101359.1727998002
-0.551801801801802 	300.028470176306 	0.08246766697169272 	101358.6609076999
-0.5492992992992995 	300.0280388067946 	0.08121973417858371 	101358.1508291888
-0.5467967967967969 	300.0276132709105 	0.07998537029595355 	101357.6476498303
-0.5442942942942947 	300.0271891483593 	0.07875291348625031 	101357.1461377263
-0.5417917917917919 	300.0267563466568 	0.0774960529364168 	101356.634358272
-0.5392892892892895 	300.0263067997926 	0.07619389861610552 	101356.102778214
-0.536786786786787 	300.0258409322147 	0.07484780402200779 	101355.5519058669
-0.5342842842842846 	300.0253679131237 	0.07348196012402756 	101354.9925872568
-0.531781781781782 	300.0248993768315 	0.07212691687843568 	101354.4385773491
-0.5292792792792794 	300.0244411306066 	0.07079782540757174 	101353.8967365683
-0.526776776776777 	300.0239887934839 	0.06948296653569183 	101353.3618783745
-0.5242742742742745 	300.0235304227159 	0.06815068826368391 	101352.8198792381
-0.521771771771772 	300.0230543356928 	0.0667701140538997 	101352.2569292563
-0.5192692692692695 	300.0225569344778 	0.06533188338567608 	101351.6687816941
-0.516766766766767 	300.0220454427865 	0.06385539791741082 	101351.0639839103
-0.5142642642642645 	300.0215338026118 	0.06237790720243237 	101350.4590226297
-0.511761761761762 	300.0210343386116 	0.06093230971413277 	101349.8684658499
-0.5092592592592596 	300.0205503425162 	0.05952732576136498 	101349.2961980478
-0.506756756756757 	300.0200739528726 	0.05814174819664042 	101348.7329176549
-0.5042542542542544 	300.0195903843259 	0.05673574747008605 	101348.1611409931
-0.5017517517517521 	300.0190859705012 	0.05527253091649544 	101347.5647135829
-0.4992492492492494 	300.0185556012103 	0.0537384304365059 	101346.9376010889
-0.496746746746747 	300.0180056676666 	0.05215088159578811 	101346.2873676389
-0.4942442442442445 	300.0174510998213 	0.05055044385229654 	101345.6316690664
-0.4917417417417421 	300.0169081541896 	0.04898130687142609 	101344.9897238738
-0.4892392392392395 	300.0163866708328 	0.04747025978796814 	101344.3731597174
-0.486736736736737 	300.0158855091275 	0.04601416303885433 	101343.7806200204
-0.4842342342342345 	300.0153930340362 	0.04458113836385013 	101343.1983426509
-0.481731731731732 	300.0148920888851 	0.04312410038308873 	101342.6060413947
-0.4792292292292296 	300.0143670859022 	0.0416002311185806 	101341.985290754
-0.4767267267267268 	300.0138102838252 	0.0399882938344064 	101341.3269453027
-0.4742242242242246 	300.0132248915582 	0.03829722670171481 	101340.6348065883
-0.471721721721722 	300.012623988991 	0.03656321664218432 	101339.924344934
-0.4692192192192195 	300.0120258787517 	0.0348369392910297 	101339.2172007356
-0.4667167167167169 	300.0114477805122 	0.03316619678809735 	101338.5337297156
-0.4642142142142145 	300.0109002400558 	0.03158037005513035 	101337.8863933592
-0.461711711711712 	300.0103839976688 	0.03008158292343985 	101337.2760597313
-0.4592092092092094 	300.0098899754948 	0.02864453268178005 	101336.6919898764
-0.456706706706707 	300.0094020223598 	0.0272239895150636 	101336.1150850198
-0.4542042042042045 	300.0089012381205 	0.02576685315541948 	101335.5230002068
-0.451701701701702 	300.008370563609 	0.02422509108142188 	101334.8955695697
-0.4491991991991995 	300.0077985838109 	0.0225665257659686 	101334.2193032354
-0.4466966966966969 	300.0071818658188 	0.02078149098668412 	101333.4901491854
-0.4441941941941945 	300.0065255399055 	0.01888451570143396 	101332.7141790179
-0.441691691691692 	300.0058422027453 	0.0169112577685516 	101331.9062903585
-0.4391891891891895 	300.0051495297245 	0.0149117883127235 	101331.0873823542
-0.436686686686687 	300.0044671962499 	0.01294196542303974 	101330.2807163809
-0.4341841841841846 	300.0038138573836 	0.01105504964550178 	101329.5083449537
-0.431681681681682 	300.0032049913039 	0.009295535197803474 	101328.788563596
-0.4291791791791794 	300.0026518315021 	0.007695903044254081 	101328.1346487228
-0.426676676676677 	300.0021611123686 	0.006275781077933184 	101327.5545578171
-0.4241741741741744 	300.0017353803505 	0.005042772179826095 	101327.0512977585
-0.421671671671672 	300.0013736611675 	0.003994326695683781 	101326.6237139129
-0.4191691691691694 	300.0010722983558 	0.003120125833208106 	101326.267481409
-0.4166666666666669 	300.000825816779 	0.002404553998858211 	101325.9761261148
-0.4141641641641645 	300.0006277107806 	0.001828966351169033 	101325.7419564075
-0.411661661661662 	300.0004710997131 	0.001373580570195506 	101325.5568371632
-0.4091591591591594 	300.0003492247447 	0.001018922212085531 	101325.4127786137
-0.406656656656657 	300.0002557938429 	0.0007468269519190907 	101325.3023425849
-0.4041541541541545 	300.0001851888081 	0.0005410493671171039 	101325.2188874288
-0.401651651651652 	300.0001325612727 	0.0003875521350718901 	101325.1566824191
-0.3991491491491494 	300.0000938487274 	0.0002745559069090896 	101325.1109248705
-0.396646646646647 	300.0000657314084 	0.0001924257033530715 	101325.0776910711
-0.3941441441441444 	300.0000455584677 	0.0001334580004612185 	101325.0538473748
-0.3916416416416419 	300.0000312555336 	9.161929401644503e-05 	101325.0369420303
-0.3891391391391395 	300.0000212302139 	6.22724154455113e-05 	101325.0250925916
-0.3866366366366368 	300.0000142807148 	4.191517825615973e-05 	101325.016878705
-0.3841341341341344 	300.0000095150618 	2.794530790208282e-05 	101325.0112459674
-0.381631631631632 	300.0000062809094 	1.8458613191568e-05 	101325.0074235059
-0.3791291291291294 	300.0000041084999 	1.208169316755188e-05 	101325.0048558119
-0.3766266266266269 	300.0000026635759 	7.837492571745171e-06 	101325.0031480166
-0.3741241241241244 	300.0000017117761 	5.039938196542203e-06 	101325.0020230781
-0.371621621621622 	300.000001090687 	3.21326349909123e-06 	101325.0012890299
-0.3691191191191194 	300.0000006891235 	2.03147927318222e-06 	101325.0008144394
-0.366616616616617 	300.0000004318375 	1.273766401339676e-06 	101325.0005103501
-0.3641141141141143 	300.0000002683591 	7.922214972012776e-07 	101325.0003172161
-0.3616116116116119 	300.000000165445 	4.888109901494149e-07 	101325.0001956055
-0.3591091091091095 	300.000000101261 	2.992535260976265e-07 	101325.0001196748
-0.356606606606607 	300.0000000614564 	1.817997131535692e-07 	101325.0000726569
-0.3541041041041044 	300.0000000370321 	1.096136493160139e-07 	101325.0000437777
-0.3516016016016019 	300.0000000221614 	6.560061637877826e-08 	101325.0000261805
-0.3490990990990994 	300.0000000131409 	3.897168867251352e-08 	101325.0000155414
-0.346596596596597 	300.0000000078152 	2.298856753189561e-08 	101325.000009158
-0.3440940940940944 	300.0000000046103 	1.346234652242239e-08 	101325.0000053567
-0.3415915915915919 	300.000000002659 	7.832581410674751e-09 	101325.00000311
-0.3390890890890895 	300.000000001496 	4.523052540377843e-09 	101325.0000017912
-0.3365865865865869 	300.0000000009017 	2.596775965532306e-09 	101325.0000010227
-0.3340840840840844 	300.0000000005079 	1.478491949511086e-09 	101325.0000005779
-0.3315815815815819 	300.0000000003114 	8.385424325782611e-10 	101325.0000003224
-0.3290790790790794 	300.0000000001802 	4.707494700902074e-10 	101325.0000001765
-0.3265765765765769 	299.9999999999989 	2.649201137513915e-10 	101325.0000000939
-0.3240740740740744 	300.0000000000404 	1.454037770785211e-10 	101325.0000000475
-0.3215715715715718 	300.0000000000331 	8.308830421244375e-11 	101325.0000000215
-0.3190690690690695 	299.9999999999204 	4.419668524966971e-11 	101325.0000000071
-0.3165665665665668 	299.999999999996 	2.729694828271316e-11 	101324.9999999991
-0.3140640640640644 	300.0000000000075 	1.329174490646799e-11 	101324.9999999945
-0.311561561561562 	299.9999999999069 	1.14673895183117e-11 	101324.9999999922
-0.3090590590590593 	299.9999999999935 	2.578673000832003e-12 	101324.999999991
-0.3065565565565568 	300.0000000000011 	6.631602568720686e-12 	101324.9999999902
-0.3040540540540545 	300.0000000000256 	1.950640374162076e-12 	101324.9999999896
-0.3015515515515518 	300.0000000000458 	5.557278457940232e-12 	101324.9999999891
-0.2990490490490494 	299.9999999999289 	1.035496885421534e-12 	101324.9999999888
-0.2965465465465469 	299.9999999999768 	3.61499360513076e-12 	101324.9999999888
-0.2940440440440444 	299.9999999999999 	1.50163203713719e-12 	101324.999999989
-0.2915415415415418 	299.9999999999941 	3.020365832249688e-12 	101324.9999999894
-0.2890390390390395 	300.0000000000031 	2.762901221782428e-12 	101324.9999999894
-0.2865365365365368 	299.9999999999741 	3.266071180554798e-12 	101324.9999999894
-0.2840340340340343 	300.0000000000056 	4.322953544708883e-12 	101324.9999999894
-0.2815315315315318 	299.9999999999117 	2.419193230068446e-12 	101324.9999999895
-0.2790290290290295 	299.9999999999469 	3.19924136960153e-12 	101324.9999999894
-0.2765265265265269 	300.0000000000178 	2.661583448159826e-12 	101324.9999999893
-0.2740240240240244 	300.0000000000427 	3.505484357384281e-12 	101324.9999999895
-0.2715215215215219 	300.0000000000198 	3.703181224790734e-12 	101324.9999999893
-0.2690190190190194 	299.9999999999334 	3.42641277812757e-12 	101324.9999999895
-0.2665165165165169 	299.9999999999955 	4.632358946090787e-12 	101324.9999999897
-0.2640140140140144 	299.9999999999561 	3.81912760347096e-12 	101324.9999999896
-0.2615115115115119 	300.000000000001 	5.954403647963895e-12 	101324.9999999897
-0.2590090090090094 	299.9999999999193 	4.488133587141916e-12 	101324.9999999897
-0.2565065065065068 	299.9999999999978 	5.232124715811669e-12 	101324.9999999898
-0.2540040040040044 	300.0000000000026 	5.774849754596738e-12 	101324.9999999899
-0.2515015015015019 	300.0000000000516 	4.393979493909793e-12 	101324.9999999895
-0.2489989989989994 	300.0000000000615 	6.821762910075143e-12 	101324.9999999894
-0.2464964964964968 	299.9999999999925 	3.795228508077607e-12 	101324.9999999893
-0.2439939939939944 	299.9999999999998 	7.576705670040733e-12 	101324.9999999893
-0.2414914914914919 	299.9999999999678 	3.637055758200168e-12 	101324.9999999891
-0.2389889889889893 	300.0000000000042 	8.03430795674845e-12 	101324.999999989
-0.2364864864864869 	300.000000000028 	3.488674570931934e-12 	101324.9999999893
-0.2339839839839843 	299.9999999999059 	8.538297477770652e-12 	101324.9999999894
-0.2314814814814819 	299.9999999999786 	3.956349559396077e-12 	101324.9999999895
-0.2289789789789792 	299.9999999999018 	7.866002133306898e-12 	101324.9999999896
-0.2264764764764769 	299.9999999999339 	5.147615967123001e-12 	101324.9999999895
-0.2239739739739743 	299.9999999999479 	7.784407299679396e-12 	101324.9999999891
-0.2214714714714718 	299.9999999999232 	6.233369448263997e-12 	101324.999999989
-0.2189689689689693 	299.9999999999636 	5.796990587380938e-12 	101324.9999999891
-0.2164664664664669 	299.9999999999723 	6.320632020367542e-12 	101324.9999999891
-0.2139639639639643 	299.9999999999074 	4.816160795104914e-12 	101324.9999999892
-0.2114614614614618 	299.9999999999645 	5.480076598343782e-12 	101324.9999999896
-0.2089589589589593 	299.9999999999887 	5.010102771373234e-12 	101324.9999999897
-0.2064564564564568 	299.9999999999887 	3.403994454131463e-12 	101324.9999999898
-0.2039539539539543 	299.9999999998829 	3.859754025265526e-12 	101324.9999999896
-0.2014514514514518 	299.9999999999382 	8.986763587879185e-13 	101324.9999999896
-0.1989489489489494 	299.9999999999679 	3.376233537554768e-12 	101324.9999999894
-0.1964464464464468 	299.9999999999962 	9.432054382716147e-13 	101324.9999999895
-0.1939439439439443 	299.9999999999814 	3.284832757625955e-12 	101324.9999999895
-0.1914414414414418 	299.9999999998977 	4.581902911989714e-13 	101324.9999999898
-0.1889389389389393 	300.0000000000086 	2.368624460900821e-12 	101324.9999999894
-0.1864364364364368 	300.0000000000517 	7.30149570324594e-13 	101324.9999999895
-0.1839339339339343 	299.9999999999683 	3.007344045169339e-12 	101324.9999999893
-0.1814314314314318 	299.9999999999938 	7.843597808290385e-13 	101324.9999999895
-0.1789289289289293 	299.9999999998772 	2.679791087929873e-12 	101324.9999999892
-0.1764264264264268 	299.9999999999693 	1.276575069501992e-12 	101324.9999999892
-0.1739239239239243 	299.9999999998687 	3.621368453457213e-12 	101324.9999999892
-0.1714214214214218 	299.9999999999874 	1.843372119919307e-12 	101324.9999999892
-0.1689189189189193 	299.9999999999425 	5.658316561291855e-12 	101324.9999999893
-0.1664164164164168 	300.0000000000076 	2.392327732514347e-12 	101324.9999999892
-0.1639139139139143 	299.9999999999868 	8.382015732396743e-12 	101324.9999999894
-0.1614114114114118 	300.0000000000393 	2.21315184822599e-12 	101324.9999999894
-0.1589089089089093 	299.9999999999978 	1.084918945482208e-11 	101324.9999999892
-0.1564064064064068 	299.9999999999863 	3.259552909711368e-12 	101324.9999999891
-0.1539039039039043 	299.9999999999879 	1.149308031859663e-11 	101324.999999989
-0.1514014014014018 	300.00000000003 	1.454700985737632e-12 	101324.9999999892
-0.1488988988988993 	299.9999999999909 	1.158999288206035e-11 	101324.9999999891
-0.1463963963963968 	299.9999999999999 	1.018996210624064e-12 	101324.9999999887
-0.1438938938938943 	299.9999999999376 	9.436499237108298e-12 	101324.9999999885
-0.1413913913913918 	299.9999999999051 	1.029806168376999e-12 	101324.9999999887
-0.1388888888888893 	299.9999999999737 	7.562770572512314e-12 	101324.9999999886
-0.1363863863863868 	299.9999999998615 	2.436445666201702e-12 	101324.9999999886
-0.1338838838838843 	299.9999999998985 	7.937405456924423e-12 	101324.9999999887
-0.1313813813813818 	299.9999999999918 	4.027175904743035e-12 	101324.9999999887
-0.1288788788788793 	299.9999999999583 	8.050293093692533e-12 	101324.999999989
-0.1263763763763768 	299.9999999999664 	3.473957455811496e-12 	101324.999999989
-0.1238738738738743 	299.9999999999075 	7.571773792092765e-12 	101324.9999999894
-0.1213713713713717 	299.9999999999685 	1.928005237761333e-12 	101324.9999999898
-0.1188688688688693 	300.0000000000017 	7.03256105395911e-12 	101324.9999999899
-0.1163663663663668 	299.9999999998759 	7.716972321820054e-13 	101324.9999999897
-0.1138638638638643 	299.9999999999837 	7.227029007324105e-12 	101324.9999999897
-0.1113613613613618 	299.9999999999833 	4.222348166579189e-13 	101324.9999999897
-0.1088588588588592 	299.9999999999691 	7.043097327393081e-12 	101324.9999999897
-0.1063563563563568 	299.9999999999328 	7.549866489796486e-13 	101324.9999999894
-0.1038538538538543 	299.9999999999692 	5.64334050131249e-12 	101324.9999999895
-0.1013513513513517 	300.0000000000191 	6.618126215175743e-13 	101324.9999999893
-0.09884884884884926 	299.9999999999177 	5.011529046544127e-12 	101324.9999999892
-0.09634634634634676 	299.9999999998658 	1.6829078305313e-12 	101324.9999999894
-0.09384384384384425 	299.9999999999126 	4.496427989487971e-12 	101324.9999999891
-0.09134134134134177 	300.0000000000335 	2.08398955471254e-12 	101324.9999999891
-0.08883883883883925 	300.0000000000038 	4.339596942649702e-12 	101324.9999999888
-0.08633633633633674 	299.9999999999401 	2.841475172042605e-12 	101324.9999999888
-0.08383383383383426 	300.0000000000136 	4.098900207178891e-12 	101324.9999999887
-0.08133133133133173 	299.9999999999545 	4.046077441812197e-12 	101324.9999999884
-0.07882882882882926 	299.9999999998565 	3.895823739414276e-12 	101324.9999999883
-0.07632632632632676 	299.9999999999521 	2.952882538528576e-12 	101324.9999999882
-0.07382382382382424 	299.9999999998739 	3.220568338434813e-12 	101324.9999999884
-0.07132132132132173 	300.0000000000209 	1.907907694218706e-12 	101324.9999999886
-0.06881881881881925 	299.9999999999519 	1.818058530521109e-12 	101324.9999999887
-0.06631631631631671 	299.9999999998714 	4.606696502910007e-13 	101324.9999999889
-0.06381381381381425 	299.9999999999446 	3.229973752186838e-13 	101324.9999999891
-0.06131131131131173 	299.9999999999488 	4.122838238892883e-14 	101324.9999999894
-0.05880880880880923 	299.9999999999002 	1.285716572427586e-13 	101324.9999999897
-0.05630630630630672 	299.999999999958 	3.598967528428196e-13 	101324.9999999896
-0.05380380380380424 	300.0000000000194 	1.889331584821414e-13 	101324.9999999897
-0.05130130130130173 	300.0000000000159 	1.544258963889046e-13 	101324.9999999897
-0.04879879879879922 	299.9999999999262 	7.480814636577357e-13 	101324.9999999897
-0.04629629629629672 	299.9999999999106 	8.976964372069025e-13 	101324.9999999896
-0.04379379379379422 	299.9999999998942 	1.748635260028404e-12 	101324.9999999891
-0.04129129129129173 	299.9999999999695 	1.394014587439628e-12 	101324.999999989
-0.03878878878878922 	299.9999999999764 	1.699255011909477e-12 	101324.9999999891
-0.03628628628628671 	299.9999999999768 	1.204685323371865e-12 	101324.9999999892
-0.03378378378378422 	299.9999999999025 	1.555172600867531e-12 	101324.9999999892
-0.03128128128128172 	299.9999999999563 	3.473832720543378e-14 	101324.9999999892
-0.02877877877877922 	299.9999999999569 	2.26744537946347e-13 	101324.9999999894
-0.0262762762762767 	299.999999999879 	6.521018863242187e-13 	101324.9999999894
-0.02377377377377422 	300.0000000000245 	8.51144599275291e-13 	101324.9999999896
-0.0212712712712717 	299.999999999882 	1.120178761626753e-12 	101324.9999999893
-0.01876876876876921 	299.9999999999515 	1.154552522312755e-12 	101324.9999999891
-0.01626626626626671 	300.0000000000194 	6.334199773562716e-13 	101324.999999989
-0.0137637637637642 	299.9999999999602 	7.164892218225358e-13 	101324.9999999887
-0.0112612612612617 	300.0000000000229 	4.546863708062195e-13 	101324.9999999889
-0.008758758758759198 	299.9999999999921 	5.958467401391556e-13 	101324.9999999886
-0.006256256256256697 	299.9999999998583 	9.18151387388238e-13 	101324.9999999887
-0.003753753753754195 	299.9999999999487 	1.115376646820488e-12 	101324.9999999888
-0.001251251251251693 	299.9999999999149 	7.726720364139739e-13 	101324.9999999886
0.00125125125125081 	299.9999999999405 	1.250426352989227e-12 	101324.9999999885
0.003753753753753312 	299.9999999999517 	6.814573932041079e-13 	101324.9999999885
0.006256256256255817 	299.9999999998626 	1.077463154837385e-12 	101324.9999999884
0.008758758758758317 	299.9999999999824 	5.879778953726795e-13 	101324.9999999887
0.01126126126126082 	300.0000000000018 	6.908120484188704e-13 	101324.9999999885
0.01376376376376332 	299.9999999999576 	3.926822817464057e-13 	101324.9999999886
0.01626626626626582 	300.0000000000122 	8.419798213245693e-13 	101324.9999999887
0.01876876876876833 	299.9999999999387 	7.075136604540689e-14 	101324.999999989
0.02127127127127083 	299.9999999999544 	1.338122572576747e-13 	101324.999999989
0.02377377377377332 	299.9999999999901 	6.200117859619718e-13 	101324.999999989
0.02627627627627583 	299.9999999998777 	4.644642294370688e-13 	101324.9999999892
0.02877877877877833 	300.0000000000139 	1.014261419504716e-13 	101324.9999999891
0.03128128128128083 	299.9999999999382 	1.266362644554588e-13 	101324.9999999892
0.03378378378378333 	299.9999999998739 	7.604328386632797e-13 	101324.999999989
0.03628628628628584 	299.9999999999581 	7.707182769098942e-13 	101324.9999999886
0.03878878878878834 	299.9999999999786 	3.449887169939712e-13 	101324.999999988
0.04129129129129084 	299.9999999999724 	3.295233455506322e-13 	101324.9999999881
0.04379379379379333 	299.9999999999322 	3.001054481794591e-13 	101324.9999999881
0.04629629629629585 	299.9999999998578 	4.462212346748434e-13 	101324.9999999882
0.04879879879879834 	299.9999999999441 	1.859959441357792e-12 	101324.9999999884
0.05130130130130085 	300.0000000000164 	1.351045093374514e-12 	101324.9999999884
0.05380380380380335 	300.0000000000257 	1.15743586888002e-12 	101324.9999999885
0.05630630630630584 	299.9999999999894 	6.526258414696976e-13 	101324.9999999887
0.05880880880880836 	299.9999999999016 	1.195912169493436e-12 	101324.9999999889
0.06131131131131085 	299.9999999999571 	1.281075932832731e-12 	101324.9999999894
0.06381381381381336 	299.999999999947 	1.604049036678657e-12 	101324.9999999893
0.06631631631631586 	299.9999999998637 	1.391830833822983e-12 	101324.9999999895
0.06881881881881835 	299.99999999994 	1.56996749430265e-12 	101324.9999999893
0.07132132132132088 	299.9999999999841 	4.108145511486832e-13 	101324.9999999891
0.07382382382382337 	299.9999999998667 	3.824946415685684e-13 	101324.999999989
0.07632632632632587 	299.9999999999576 	1.106959232298882e-12 	101324.9999999889
0.07882882882882837 	299.9999999999176 	1.572062494840199e-12 	101324.9999999884
0.08133133133133086 	299.9999999999715 	1.553997560902263e-12 	101324.9999999885
0.08383383383383337 	299.9999999999816 	1.507705717019218e-12 	101324.9999999886
0.08633633633633589 	299.999999999878 	1.950714119721067e-12 	101324.9999999886
0.08883883883883838 	300.0000000000037 	2.599101795516336e-12 	101324.9999999884
0.09134134134134086 	299.9999999999771 	1.899503864214095e-12 	101324.9999999886
0.09384384384384339 	299.9999999998613 	2.492685808484914e-12 	101324.9999999886
0.09634634634634588 	299.9999999999506 	2.972428129093023e-12 	101324.9999999887
0.09884884884884838 	299.9999999999685 	2.46856302626598e-12 	101324.9999999885
0.1013513513513509 	300.0000000000231 	2.208630663171642e-12 	101324.9999999888
0.1038538538538534 	299.9999999999389 	1.958289370184145e-12 	101324.9999999886
0.1063563563563559 	300.0000000000088 	1.687739646122608e-12 	101324.9999999888
0.1088588588588584 	300.0000000000314 	5.735584508115448e-13 	101324.9999999887
0.1113613613613609 	299.9999999998994 	2.716509553441038e-14 	101324.9999999887
0.1138638638638634 	299.9999999999318 	4.209978496784233e-13 	101324.9999999887
0.1163663663663659 	299.9999999999429 	6.842794900933692e-13 	101324.9999999889
0.1188688688688684 	299.9999999999706 	9.105925541854219e-13 	101324.9999999891
0.1213713713713709 	300.0000000000017 	9.084936787531325e-14 	101324.9999999892
0.1238738738738734 	299.9999999999054 	7.105426017746793e-13 	101324.9999999893
0.1263763763763759 	299.9999999999773 	9.242427295831239e-13 	101324.9999999891
0.1288788788788784 	299.9999999999795 	1.321847779048382e-12 	101324.999999989
0.1313813813813809 	299.9999999999804 	4.37668240353244e-13 	101324.9999999892
0.1338838838838834 	299.9999999999698 	5.14751632430149e-13 	101324.9999999892
0.1363863863863859 	300.0000000000203 	2.220198423197072e-13 	101324.999999989
0.1388888888888884 	300.0000000000526 	4.260543544395021e-13 	101324.999999989
0.1413913913913909 	300.0000000000091 	1.146812882009245e-12 	101324.9999999889
0.1438938938938934 	299.9999999999899 	1.954205776377929e-13 	101324.9999999888
0.1463963963963959 	299.9999999999488 	1.326524093743899e-12 	101324.9999999893
0.1488988988988985 	299.9999999998896 	1.2165520950146e-12 	101324.9999999895
0.1514014014014009 	299.9999999999595 	5.332461889235788e-13 	101324.9999999896
0.1539039039039035 	299.9999999999528 	2.214805373986601e-12 	101324.9999999894
0.1564064064064059 	299.9999999999135 	7.268462321737481e-13 	101324.9999999894
0.1589089089089084 	299.999999999966 	2.862139161965674e-12 	101324.9999999892
0.1614114114114109 	299.9999999999602 	4.246466197345053e-13 	101324.9999999889
0.1639139139139134 	299.9999999998908 	1.967723552985788e-12 	101324.999999989
0.166416416416416 	300.0000000000095 	8.22837287599399e-13 	101324.9999999888
0.1689189189189185 	300.0000000000414 	8.121046607576171e-13 	101324.9999999888
0.1714214214214209 	300.0000000000027 	1.526992923688302e-12 	101324.9999999883
0.1739239239239235 	299.9999999999908 	3.92093038429037e-13 	101324.9999999881
0.1764264264264259 	299.9999999999621 	1.991450418350511e-12 	101324.999999988
0.1789289289289284 	300.0000000000136 	8.140697385414836e-13 	101324.999999988
0.181431431431431 	299.9999999999573 	1.894772372113835e-12 	101324.9999999882
0.1839339339339334 	299.999999999963 	1.754765948334108e-13 	101324.9999999883
0.186436436436436 	299.9999999999138 	9.562885974151044e-13 	101324.9999999885
0.1889389389389385 	299.9999999999738 	6.201663311797924e-13 	101324.9999999886
0.191441441441441 	299.9999999999683 	3.625837546475414e-13 	101324.999999989
0.1939439439439434 	299.9999999999009 	1.399075125753554e-12 	101324.999999989
0.196446446446446 	299.9999999999301 	2.455940206881794e-13 	101324.9999999889
0.1989489489489485 	299.9999999999571 	2.112103553040528e-12 	101324.9999999889
0.2014514514514509 	299.9999999999789 	3.452392132261225e-13 	101324.9999999889
0.2039539539539535 	299.9999999999886 	1.66289493825544e-12 	101324.9999999888
0.2064564564564559 	299.9999999999446 	1.768587063919707e-12 	101324.9999999888
0.2089589589589585 	299.9999999999811 	2.526349226162439e-12 	101324.9999999891
0.211461461461461 	299.9999999999142 	2.355483116418007e-12 	101324.9999999891
0.2139639639639635 	299.9999999999706 	1.758350978230358e-12 	101324.9999999889
0.2164664664664659 	299.9999999999987 	3.319142127845507e-12 	101324.9999999888
0.2189689689689684 	299.9999999999958 	1.490792577999908e-12 	101324.9999999888
0.221471471471471 	299.9999999999953 	3.577532424353951e-12 	101324.9999999888
0.2239739739739735 	299.9999999999412 	1.171689452328749e-12 	101324.9999999885
0.226476476476476 	299.9999999999686 	2.71956831381296e-12 	101324.9999999889
0.2289789789789785 	299.9999999999941 	1.372127897113291e-12 	101324.9999999892
0.231481481481481 	299.9999999999821 	1.411675645759136e-12 	101324.9999999894
0.2339839839839835 	299.9999999999813 	1.597290129208139e-12 	101324.9999999893
0.236486486486486 	300.0000000000279 	9.792292677013459e-13 	101324.9999999891
0.2389889889889885 	300.0000000000064 	2.197628366445643e-12 	101324.9999999889
0.241491491491491 	299.9999999998952 	2.627246798153526e-13 	101324.9999999887
0.2439939939939935 	299.9999999999753 	1.907413012769414e-12 	101324.9999999885
0.246496496496496 	299.9999999999897 	9.262588040401923e-13 	101324.9999999884
0.2489989989989985 	300.0000000000441 	2.429348860594931e-13 	101324.9999999884
0.251501501501501 	300.0000000000382 	5.334031447779299e-13 	101324.9999999886
0.2540040040040035 	299.9999999999898 	5.414882947657729e-13 	101324.9999999888
0.256506506506506 	300.0000000000374 	1.038307155269687e-12 	101324.9999999888
0.2590090090090086 	299.9999999998945 	9.229133931495865e-13 	101324.9999999886
0.261511511511511 	299.9999999999974 	1.759916070800099e-12 	101324.9999999886
0.2640140140140135 	299.9999999999847 	1.277042958303937e-12 	101324.9999999887
0.2665165165165161 	299.999999999909 	1.214696458661778e-12 	101324.9999999889
0.2690190190190185 	300.0000000000161 	6.950996347646181e-13 	101324.9999999888
0.271521521521521 	300.0000000000194 	1.332332764748555e-12 	101324.9999999887
0.2740240240240235 	300.0000000000214 	2.034504064021763e-12 	101324.9999999887
0.276526526526526 	300.0000000000091 	1.664624187885522e-12 	101324.9999999885
0.2790290290290286 	299.9999999999201 	2.627546635511914e-12 	101324.9999999882
0.281531531531531 	299.9999999999052 	1.889691660808031e-12 	101324.9999999882
0.2840340340340335 	299.9999999999764 	3.264498288979893e-12 	101324.999999988
0.2865365365365361 	299.9999999999474 	2.585204999979617e-12 	101324.9999999879
0.2890390390390385 	299.9999999999964 	2.514943141830232e-12 	101324.9999999881
0.291541541541541 	299.9999999999962 	2.510439872815755e-12 	101324.9999999881
0.2940440440440436 	299.9999999999858 	1.464986126194849e-12 	101324.9999999881
0.296546546546546 	299.9999999999919 	3.20732230528896e-12 	101324.9999999881
0.2990490490490486 	299.9999999999242 	9.089899538283095e-13 	101324.9999999881
0.3015515515515511 	300.0000000000461 	5.091938205812269e-12 	101324.999999988
0.3040540540540535 	299.9999999999956 	1.545208784673496e-12 	101324.999999988
0.3065565565565562 	299.9999999999895 	5.623212495350148e-12 	101324.9999999879
0.3090590590590585 	299.9999999999812 	1.403214798339729e-12 	101324.9999999883
0.3115615615615611 	299.9999999999241 	5.224893532547652e-12 	101324.9999999886
0.3140640640640635 	300.0000000000118 	7.990968616569393e-13 	101324.9999999888
0.316566566566566 	299.9999999999941 	3.768354746869208e-12 	101324.9999999892
0.3190690690690687 	299.9999999999446 	8.005458062665834e-13 	101324.9999999893
0.3215715715715711 	300.0000000000183 	2.992892824359419e-12 	101324.9999999892
0.3240740740740735 	299.9999999999931 	1.321538729552105e-12 	101324.9999999892
0.326576576576576 	299.9999999998781 	1.623559660101282e-12 	101324.9999999891
0.3290790790790786 	300.0000000000099 	8.552411084538163e-13 	101324.9999999888
0.3315815815815811 	300.0000000000387 	1.211177034050046e-12 	101324.9999999885
0.3340840840840836 	299.9999999999853 	8.874992040253147e-13 	101324.9999999884
0.3365865865865861 	300.0000000000653 	1.220220510014143e-12 	101324.9999999885
0.3390890890890886 	300.0000000000583 	1.080376287443259e-12 	101324.9999999884
0.3415915915915911 	300.000000000004 	8.053783335769942e-13 	101324.9999999885
0.3440940940940935 	299.9999999999448 	1.005069466141977e-12 	101324.9999999885
0.3465965965965962 	300.000000000048 	8.184666143489819e-13 	101324.9999999885
0.3490990990990985 	300.0000000000333 	4.298407224786379e-13 	101324.9999999885
0.3516016016016011 	299.9999999999782 	5.740274386815197e-13 	101324.9999999885
0.3541041041041035 	300.0000000000058 	8.103052583481455e-13 	101324.9999999884
0.3566066066066061 	299.9999999999502 	3.820020329847465e-13 	101324.9999999885
0.3591091091091085 	299.9999999998999 	2.236016738606004e-12 	101324.9999999883
0.3616116116116112 	299.9999999999282 	1.175349312194909e-12 	101324.9999999886
0.3641141141141137 	299.9999999999176 	3.571426159162616e-12 	101324.9999999887
0.3666166166166161 	299.9999999999039 	1.192999197327999e-12 	101324.9999999888
0.3691191191191185 	300.0000000000467 	5.158547105150286e-12 	101324.999999989
0.371621621621621 	300.0000000000212 	1.284382523371575e-12 	101324.9999999889
0.3741241241241237 	300.000000000062 	3.188290510379308e-12 	101324.9999999888
0.3766266266266261 	300.0000000000389 	1.770468624705283e-12 	101324.9999999889
0.3791291291291286 	299.9999999999847 	2.355189287832723e-12 	101324.9999999889
0.3816316316316311 	299.9999999998996 	1.350745113267367e-12 	101324.999999989
0.3841341341341336 	300.0000000000127 	2.38680814792597e-12 	101324.9999999889
0.3866366366366362 	299.9999999999972 	1.364445727004482e-12 	101324.9999999891
0.3891391391391387 	299.9999999999455 	1.660753721821912e-12 	101324.9999999892
0.391641641641641 	299.9999999999938 	4.032389293393188e-13 	101324.9999999892
0.3941441441441436 	300.0000000000047 	1.966609233913264e-12 	101324.9999999894
0.3966466466466462 	299.9999999999943 	8.710332285749501e-13 	101324.9999999895
0.3991491491491486 	299.9999999999321 	2.174178813034995e-12 	101324.9999999897
0.4016516516516512 	299.9999999998893 	6.524876228225784e-13 	101324.9999999897
0.4041541541541536 	299.9999999999393 	1.896801153848694e-12 	101324.9999999896
0.4066566566566561 	299.9999999999363 	5.145159076366052e-13 	101324.9999999896
0.4091591591591587 	299.999999999986 	1.499967104915119e-12 	101324.9999999894
0.4116616616616612 	300.0000000000024 	9.099204467710785e-13 	101324.9999999892
0.4141641641641635 	300.0000000000489 	1.11771836963835e-12 	101324.9999999891
0.4166666666666662 	299.9999999999974 	1.296790211548967e-12 	101324.999999989
0.4191691691691687 	299.9999999999324 	1.388963992897381e-12 	101324.9999999892
0.421671671671671 	300.0000000000134 	2.081975086214855e-12 	101324.9999999891
0.4241741741741737 	299.9999999999695 	2.37932613873609e-12 	101324.9999999893
0.4266766766766761 	299.999999999947 	2.684506350799015e-12 	101324.9999999891
0.4291791791791785 	300.0000000000226 	3.801027074697686e-12 	101324.999999989
0.4316816816816812 	300.0000000000167 	2.717099630967081e-12 	101324.9999999891
0.4341841841841836 	299.9999999999825 	3.934166347023507e-12 	101324.9999999891
0.4366866866866862 	299.9999999999001 	1.613683058510361e-12 	101324.9999999894
0.4391891891891885 	299.9999999999833 	2.382741492695976e-12 	101324.99999999
0.4416916916916913 	299.9999999999823 	1.843989792754869e-12 	101324.9999999903
0.4441941941941936 	299.9999999999837 	1.609528035776759e-12 	101324.9999999902
0.4466966966966961 	299.9999999998947 	1.399516719263937e-12 	101324.9999999902
0.4491991991991987 	299.99999999997 	7.588322232520758e-13 	101324.9999999901
0.4517017017017012 	299.9999999999633 	1.895173183962569e-12 	101324.9999999903
0.4542042042042035 	299.9999999999959 	1.483273506383959e-12 	101324.9999999904
0.4567067067067062 	299.9999999999959 	1.378824194349333e-12 	101324.9999999901
0.4592092092092087 	299.9999999999085 	1.156384443238773e-12 	101324.9999999899
0.4617117117117112 	300.0000000000252 	5.891266317629229e-13 	101324.9999999897
0.4642142142142137 	299.9999999999523 	3.256956702145482e-13 	101324.9999999897
0.4667167167167162 	299.9999999999882 	1.632059177488908e-13 	101324.9999999896
0.4692192192192187 	299.9999999999464 	1.317060039185072e-13 	101324.9999999894
0.4717217217217212 	300.0000000000211 	1.807486179832167e-13 	101324.9999999895
0.4742242242242236 	299.9999999999482 	3.139244950705665e-13 	101324.9999999895
0.4767267267267262 	299.9999999999718 	5.835420568463784e-13 	101324.9999999896
0.4792292292292287 	300.0000000000203 	8.264192427581411e-13 	101324.9999999897
0.4817317317317312 	300.0000000000415 	1.062805068125316e-13 	101324.9999999898
0.4842342342342336 	299.999999999981 	5.464225121777833e-13 	101324.9999999899
0.4867367367367362 	299.9999999999395 	8.088608781874669e-13 	101324.9999999901
0.4892392392392387 	300.0000000000327 	9.642501727595053e-13 	101324.9999999899
0.4917417417417412 	300.0000000000077 	1.444093644492671e-12 	101324.99999999
0.4942442442442437 	299.9999999998863 	7.74786240697394e-13 	101324.9999999898
0.4967467467467462 	299.9999999999113 	1.620890910466718e-12 	101324.9999999899
0.4992492492492487 	299.9999999999027 	8.290738524201507e-13 	101324.9999999897
0.5017517517517511 	299.9999999999411 	4.798682103421455e-13 	101324.9999999895
0.5042542542542537 	299.9999999999555 	5.657289134926236e-13 	101324.9999999891
0.5067567567567562 	299.9999999999281 	1.369934561527551e-12 	101324.9999999889
0.5092592592592589 	299.9999999999612 	1.713598196910951e-12 	101324.9999999891
0.5117617617617611 	299.99999999995 	3.172461124661231e-12 	101324.9999999891
0.5142642642642637 	299.9999999999841 	1.393928347245464e-12 	101324.9999999894
0.5167667667667663 	299.9999999999675 	3.869186297701176e-12 	101324.9999999895
0.5192692692692688 	299.9999999999108 	2.496913901674073e-12 	101324.9999999895
0.5217717717717714 	299.9999999999356 	4.718074702478594e-12 	101324.9999999896
0.5242742742742736 	299.9999999999383 	2.387042438927973e-12 	101324.9999999894
0.5267767767767763 	299.9999999999503 	3.479396619672535e-12 	101324.9999999892
0.5292792792792789 	299.9999999999248 	2.294323814009715e-12 	101324.999999989
0.5317817817817813 	299.9999999998931 	1.65460551701673e-12 	101324.9999999891
0.5342842842842837 	300.0000000000242 	1.635171116186212e-12 	101324.9999999889
0.5367867867867864 	300.0000000000057 	1.60816007395998e-12 	101324.9999999887
0.5392892892892888 	299.9999999999536 	1.323061041476021e-12 	101324.9999999887
0.5417917917917912 	300.0000000000069 	1.514755858008974e-12 	101324.9999999889
0.5442942942942938 	299.9999999999851 	7.384154742803246e-13 	101324.9999999888
0.5467967967967964 	299.9999999999526 	2.043879368879339e-12 	101324.9999999886
0.5492992992992988 	299.9999999999393 	7.04852609681392e-13 	101324.9999999883
0.5518018018018012 	299.9999999999275 	2.282756437774921e-12 	101324.9999999881
0.5543043043043039 	300.0000000000236 	1.575275871445304e-12 	101324.9999999882
0.5568068068068063 	299.9999999999894 	2.152883776970081e-12 	101324.9999999882
0.5593093093093087 	299.9999999998902 	7.868427114034943e-13 	101324.9999999887
0.5618118118118114 	299.9999999999589 	1.796906411664415e-12 	101324.999999989
0.5643143143143137 	299.9999999999396 	4.140741404554446e-13 	101324.9999999889
0.5668168168168163 	299.9999999999878 	8.667439992454751e-13 	101324.9999999887
0.5693193193193188 	300.0000000000387 	7.857475043517412e-13 	101324.9999999887
0.5718218218218213 	300.0000000000287 	9.138580090170074e-13 	101324.9999999888
0.5743243243243239 	300.0000000000061 	1.980012590476248e-12 	101324.9999999886
0.5768268268268262 	300.0000000000091 	2.202264031463075e-12 	101324.9999999886
0.5793293293293288 	299.9999999999403 	3.025949939680947e-12 	101324.9999999884
0.5818318318318314 	299.9999999999003 	3.179062002935952e-12 	101324.9999999882
0.5843343343343338 	299.9999999999765 	3.58022834300533e-12 	101324.9999999881
0.5868368368368363 	299.9999999999711 	2.637298934227865e-12 	101324.9999999879
0.5893393393393387 	299.9999999999383 	3.128881706653117e-12 	101324.9999999878
0.5918418418418413 	299.9999999999293 	1.55172119714404e-12 	101324.9999999878
0.5943443443443439 	300.0000000000188 	2.998596095076184e-12 	101324.9999999878
0.5968468468468463 	300.0000000000179 	1.113660734820419e-12 	101324.9999999877
0.5993493493493487 	300.0000000000389 	2.328690940747684e-12 	101324.9999999877
0.6018518518518514 	299.9999999999752 	9.464674683537581e-13 	101324.9999999878
0.6043543543543537 	299.999999999995 	2.105499131567076e-12 	101324.9999999879
0.6068568568568564 	299.999999999982 	9.296795943360667e-13 	101324.999999988
0.6093593593593587 	299.9999999999238 	1.619117576408421e-12 	101324.999999988
0.6118618618618614 	299.9999999999108 	1.014082691542087e-12 	101324.999999988
0.6143643643643638 	300.0000000000223 	1.828383634232055e-12 	101324.9999999885
0.6168668668668662 	299.999999999989 	1.620679379750726e-12 	101324.9999999886
0.6193693693693688 	299.9999999999509 	1.510949549889127e-12 	101324.9999999887
0.6218718718718714 	299.9999999999595 	1.183282427119746e-12 	101324.9999999888
0.6243743743743737 	299.9999999999216 	1.222556112923248e-12 	101324.999999989
0.6268768768768762 	299.9999999999093 	8.621142147178825e-13 	101324.999999989
0.629379379379379 	299.9999999999462 	6.868982885918555e-13 	101324.999999989
0.6318818818818812 	299.9999999999762 	9.465842329508546e-13 	101324.9999999887
0.6343843843843838 	300.0000000000168 	1.355300357120733e-12 	101324.9999999886
0.6368868868868864 	299.9999999999774 	1.471829825013378e-12 	101324.9999999884
0.6393893893893888 	299.9999999999092 	3.346556039698388e-12 	101324.9999999884
0.6418918918918912 	300.000000000001 	1.837938780774478e-12 	101324.9999999883
0.6443943943943939 	299.9999999999655 	4.187839098032748e-12 	101324.9999999884
0.6468968968968963 	299.9999999999728 	2.980986273168417e-12 	101324.9999999884
0.6493993993993988 	299.9999999999664 	3.726734268905024e-12 	101324.9999999882
0.6519019019019012 	299.9999999999725 	2.647851833281982e-12 	101324.9999999881
0.6544044044044038 	299.999999999887 	3.337869714935543e-12 	101324.9999999881
0.6569069069069065 	299.9999999999409 	2.312913240140415e-12 	101324.9999999881
0.6594094094094087 	299.9999999999514 	2.898606885156281e-12 	101324.9999999881
0.6619119119119113 	299.9999999999417 	2.090508024807607e-12 	101324.999999988
0.664414414414414 	300.0000000000028 	2.098526048129808e-12 	101324.9999999881
0.6669169169169162 	300.0000000000221 	1.344483254572526e-12 	101324.999999988
0.6694194194194188 	299.99999999998 	1.882443600675246e-12 	101324.9999999882
0.6719219219219214 	299.9999999999048 	1.433237096814962e-12 	101324.9999999883
0.674424424424424 	299.9999999999679 	6.646693207233688e-13 	101324.9999999883
0.6769269269269262 	299.9999999999083 	1.77907282667105e-12 	101324.9999999882
0.679429429429429 	300.0000000000084 	7.22304821651316e-13 	101324.9999999883
0.6819319319319311 	299.999999999975 	1.259025468707829e-12 	101324.9999999883
0.6844344344344341 	299.999999999992 	5.383795903710807e-13 	101324.9999999881
0.686936936936936 	299.9999999999899 	7.535045474066686e-13 	101324.999999988
0.6894394394394392 	299.9999999999901 	3.262527623893055e-13 	101324.9999999882
0.6919419419419413 	299.9999999999802 	6.911062513049461e-13 	101324.9999999882
0.694444444444444 	299.9999999999142 	7.617111440033125e-13 	101324.999999988
0.6969469469469463 	299.9999999999111 	8.568969608602978e-13 	101324.9999999878
0.6994494494494489 	299.9999999999036 	1.635161889518283e-12 	101324.9999999877
0.7019519519519515 	299.9999999999821 	1.480590868699221e-12 	101324.9999999876
0.7044544544544538 	299.999999999945 	2.067296747790116e-12 	101324.9999999876
0.7069569569569564 	299.9999999999898 	2.262538364501532e-12 	101324.9999999876
0.7094594594594589 	299.9999999999555 	1.718975166936173e-12 	101324.9999999875
0.7119619619619615 	299.9999999998971 	2.069912946765542e-12 	101324.9999999875
0.7144644644644638 	299.9999999999332 	8.115048314732227e-13 	101324.9999999875
0.7169669669669665 	299.9999999999011 	2.037043736598726e-12 	101324.9999999878
0.7194694694694688 	299.9999999999821 	9.934489601607839e-13 	101324.999999988
0.7219719719719715 	299.9999999999753 	1.994555819134984e-12 	101324.9999999882
0.7244744744744737 	300.0000000000013 	1.444648122592722e-12 	101324.9999999884
0.7269769769769764 	299.999999999992 	2.262778519740751e-12 	101324.9999999884
0.7294794794794791 	299.9999999999848 	3.127851447899649e-12 	101324.9999999882
0.7319819819819813 	299.9999999999783 	2.138823775373897e-12 	101324.9999999882
0.7344844844844839 	299.9999999999076 	2.685638186004798e-12 	101324.9999999881
0.7369869869869864 	299.9999999999372 	1.617452747546589e-12 	101324.999999988
0.739489489489489 	299.9999999999227 	1.69868650923793e-12 	101324.9999999881
0.7419919919919914 	299.9999999999051 	2.062441697240173e-12 	101324.9999999881
0.7444944944944939 	299.9999999999695 	1.436605034159891e-12 	101324.9999999882
0.7469969969969963 	299.9999999999638 	3.093929258084353e-12 	101324.9999999882
0.7494994994994989 	299.9999999999329 	2.088089503494095e-12 	101324.9999999885
0.7520020020020015 	299.999999999971 	3.517694355760787e-12 	101324.9999999886
0.7545045045045039 	299.999999999966 	1.66601153677373e-12 	101324.9999999884
0.7570070070070062 	299.9999999999277 	2.294865838220532e-12 	101324.9999999884
0.7595095095095092 	299.9999999999094 	8.337422634424769e-13 	101324.9999999886
0.7620120120120112 	300.0000000000034 	1.992872607477283e-12 	101324.9999999886
0.7645145145145138 	299.9999999999816 	2.059458090843106e-12 	101324.9999999887
0.7670170170170165 	299.9999999999143 	1.891205531670945e-12 	101324.9999999886
0.7695195195195191 	299.9999999999096 	2.289961202683649e-12 	101324.9999999886
0.7720220220220213 	299.999999999916 	1.053920179103708e-12 	101324.9999999883
0.7745245245245239 	299.9999999999211 	1.996509060556918e-12 	101324.999999988
0.7770270270270263 	299.9999999999675 	5.659774125904475e-13 	101324.9999999878
0.779529529529529 	299.999999999975 	7.05294415747701e-13 	101324.9999999878
0.7820320320320313 	299.9999999999611 	1.843427018471136e-13 	101324.9999999878
0.784534534534534 	299.9999999999933 	7.618238724516048e-13 	101324.9999999877
0.7870370370370364 	299.9999999999882 	1.365682295747522e-12 	101324.9999999878
0.7895395395395389 	299.9999999999676 	1.670534023936904e-12 	101324.9999999878
0.7920420420420413 	299.9999999999634 	2.029638820097693e-12 	101324.9999999881
0.794544544544544 	299.9999999999661 	2.32151349377343e-12 	101324.9999999883
0.7970470470470463 	300.0000000000018 	2.237256890185205e-12 	101324.9999999882
0.799549549549549 	299.9999999999739 	2.565425756302163e-12 	101324.999999988
0.8020520520520515 	299.9999999999877 	1.230991786066775e-12 	101324.9999999878
0.8045545545545539 	299.9999999999398 	1.318177111423907e-12 	101324.9999999881
0.8070570570570563 	299.9999999999787 	1.589723365259338e-12 	101324.9999999884
0.8095595595595589 	299.9999999999507 	1.287205581340306e-12 	101324.9999999884
0.8120620620620614 	299.9999999999213 	1.191963926134342e-12 	101324.9999999881
0.8145645645645638 	299.9999999999949 	1.426023435678699e-12 	101324.9999999877
0.8170670670670666 	299.999999999983 	1.390083644939406e-12 	101324.9999999878
0.8195695695695689 	299.999999999965 	2.638169075330513e-12 	101324.999999988
0.8220720720720714 	299.9999999999341 	1.694523780090691e-12 	101324.999999988
0.8245745745745739 	299.9999999999973 	3.092879740097474e-12 	101324.9999999881
0.8270770770770765 	299.9999999999729 	1.799968247119873e-12 	101324.9999999881
0.8295795795795788 	299.9999999999364 	2.649967937477595e-12 	101324.9999999881
0.8320820820820815 	300.0000000000153 	1.846489037902986e-12 	101324.999999988
0.834584584584584 	300.0000000000043 	2.820030899778315e-12 	101324.999999988
0.8370870870870865 	299.9999999999653 	2.553473208155749e-12 	101324.9999999881
0.8395895895895891 	299.9999999999176 	2.402104176847842e-12 	101324.9999999881
0.8420920920920915 	299.9999999999288 	2.451345857722099e-12 	101324.9999999879
0.844594594594594 	299.9999999999207 	1.937091148757866e-12 	101324.9999999877
0.8470970970970964 	299.9999999999298 	1.024270566191442e-12 	101324.9999999875
0.8495995995995991 	299.9999999999761 	1.35433822521852e-12 	101324.9999999873
0.8521021021021015 	299.9999999999689 	1.417642052525993e-12 	101324.9999999874
0.8546046046046039 	299.9999999999692 	2.517708458795274e-12 	101324.9999999873
0.8571071071071066 	299.999999999994 	1.948695248936805e-12 	101324.9999999873
0.8596096096096089 	299.9999999999487 	3.428503047112343e-12 	101324.9999999873
0.8621121121121116 	299.9999999999077 	1.565261420028292e-12 	101324.9999999874
0.8646146146146139 	299.9999999999802 	3.369660281639803e-12 	101324.9999999875
0.8671171171171166 	299.9999999999578 	2.4905050092198e-12 	101324.9999999874
0.8696196196196189 	299.9999999999318 	3.108246440121239e-12 	101324.9999999876
0.8721221221221216 	299.9999999999736 	2.637840992957156e-12 	101324.9999999877
0.874624624624624 	299.9999999999994 	3.072434388236147e-12 	101324.9999999877
0.8771271271271264 	299.9999999999979 	3.380796315077152e-12 	101324.9999999877
0.879629629629629 	300.0000000000095 	2.997456764557794e-12 	101324.9999999876
0.8821321321321317 	299.9999999999811 	3.758349646701346e-12 	101324.9999999876
0.8846346346346339 	299.9999999998989 	1.680207368424317e-12 	101324.9999999875
0.8871371371371364 	299.9999999999377 	3.072548981221449e-12 	101324.9999999873
0.8896396396396391 	299.9999999999463 	2.010215913151767e-12 	101324.9999999872
0.8921421421421414 	299.9999999999491 	3.098501724761105e-12 	101324.999999987
0.8946446446446441 	299.999999999976 	2.41913198590589e-12 	101324.9999999869
0.8971471471471464 	300.0000000000032 	3.25503477963595e-12 	101324.999999987
0.8996496496496489 	299.9999999999756 	3.426879924160162e-12 	101324.999999987
0.9021521521521517 	299.9999999999578 	2.92961449922466e-12 	101324.999999987
0.9046546546546541 	299.9999999999918 	3.350992500425041e-12 	101324.9999999868
0.9071571571571564 	299.9999999999379 	3.072675170544395e-12 	101324.9999999869
0.9096596596596589 	299.9999999999344 	2.744218696026335e-12 	101324.999999987
0.9121621621621616 	300.0000000000034 	2.762834670065611e-12 	101324.999999987
0.9146646646646639 	299.9999999999755 	2.725231095185769e-12 	101324.9999999871
0.9171671671671666 	299.9999999999395 	3.427945337303193e-12 	101324.9999999873
0.9196696696696689 	300.0000000000022 	3.252471370385189e-12 	101324.9999999875
0.9221721721721714 	300.0000000000013 	4.708775985957112e-12 	101324.9999999878
0.9246746746746741 	299.9999999999333 	3.274244716891708e-12 	101324.999999988
0.9271771771771765 	299.9999999999408 	5.449485333879423e-12 	101324.999999988
0.9296796796796791 	299.9999999999907 	4.06085962746077e-12 	101324.9999999879
0.9321821821821816 	299.9999999999558 	4.517283216777631e-12 	101324.9999999877
0.9346846846846838 	299.9999999999284 	3.191605816317491e-12 	101324.9999999878
0.9371871871871866 	299.999999999996 	3.625020291810053e-12 	101324.9999999878
0.9396896896896891 	299.9999999999941 	3.818820899082475e-12 	101324.9999999879
0.9421921921921914 	299.999999999993 	3.770584922271397e-12 	101324.9999999878
0.9446946946946939 	299.9999999999536 	4.948089314711965e-12 	101324.9999999876
0.9471971971971965 	299.999999999906 	3.593329120121346e-12 	101324.9999999874
0.9496996996996991 	299.9999999999513 	5.242817565484221e-12 	101324.9999999873
0.9522022022022016 	299.9999999999691 	4.110199483964669e-12 	101324.9999999871
0.9547047047047038 	299.999999999965 	5.095044229298035e-12 	101324.999999987
0.9572072072072064 	299.9999999999505 	4.583110934603938e-12 	101324.999999987
0.9597097097097093 	299.9999999999628 	5.153500987240101e-12 	101324.9999999871
0.9622122122122114 	299.9999999999573 	5.027289472732671e-12 	101324.9999999873
0.964714714714714 	299.9999999999521 	4.149114125528694e-12 	101324.9999999871
0.9672172172172167 	299.9999999999519 	4.414190816835184e-12 	101324.9999999874
0.969719719719719 	299.9999999999841 	4.447751430679037e-12 	101324.9999999877
0.9722222222222214 	299.9999999999786 	4.69295138018367e-12 	101324.9999999879
0.9747247247247239 	299.9999999999688 	4.627286358764456e-12 	101324.9999999883
0.9772272272272267 	300.0000000000005 	4.399892364671345e-12 	101324.9999999887
0.9797297297297292 	299.9999999999881 	5.119424355416526e-12 	101324.9999999888
0.9822322322322313 	299.9999999999908 	4.585309530152477e-12 	101324.9999999887
0.9847347347347344 	299.9999999999822 	5.97535520407802e-12 	101324.9999999887
0.9872372372372363 	299.9999999999407 	4.09911829970764e-12 	101324.9999999886
0.9897397397397389 	299.9999999999576 	5.846570962960799e-12 	101324.9999999886
0.9922422422422417 	299.9999999999304 	4.386351234232026e-12 	101324.9999999884
0.9947447447447441 	299.9999999999445 	4.987506601230293e-12 	101324.9999999882
0.9972472472472468 	299.9999999999551 	3.852417371433353e-12 	101324.9999999882
0.999749749749749 	299.9999999999529 	4.047571389829723e-12 	101324.999999988
1.002252252252252 	299.9999999999778 	3.850278584503352e-12 	101324.9999999878
1.004754754754754 	299.9999999999758 	3.718405339126262e-12 	101324.9999999876
1.007257257257256 	299.9999999999511 	4.196866457241148e-12 	101324.9999999875
1.009759759759759 	299.9999999999385 	3.147804687602818e-12 	101324.9999999875
1.012262262262261 	299.9999999999516 	4.668522405912567e-12 	101324.9999999875
1.014764764764764 	299.9999999999113 	4.181120787806928e-12 	101324.9999999876
1.017267267267267 	299.9999999998968 	5.410318599233207e-12 	101324.9999999877
1.019769769769769 	299.9999999999611 	4.552062728292633e-12 	101324.9999999876
1.022272272272272 	299.99999999997 	4.99465015863835e-12 	101324.9999999875
1.024774774774774 	299.9999999999592 	4.811415517669931e-12 	101324.9999999876
1.027277277277277 	299.9999999999596 	4.530088289821746e-12 	101324.9999999876
1.029779779779779 	300.0000000000007 	4.697649206590866e-12 	101324.9999999877
1.032282282282282 	300.0000000000002 	4.303427287964897e-12 	101324.9999999878
1.034784784784784 	299.9999999999861 	4.332395341488818e-12 	101324.9999999877
1.037287287287286 	299.9999999999516 	4.261157474210283e-12 	101324.9999999875
1.039789789789789 	299.9999999999682 	3.968492374270047e-12 	101324.9999999872
1.042292292292291 	300.000000000006 	3.97131358586927e-12 	101324.999999987
1.044794794794794 	300.0000000000155 	3.884843057719538e-12 	101324.9999999868
1.047297297297296 	300.0000000000435 	4.942652265387344e-12 	101324.9999999866
1.049799799799799 	299.99999999998 	4.161498754488288e-12 	101324.9999999867
1.052302302302302 	299.9999999999404 	5.980512884730636e-12 	101324.999999987
1.054804804804804 	299.9999999999186 	5.427176771430695e-12 	101324.9999999871
1.057307307307306 	299.999999999895 	6.751857743456257e-12 	101324.9999999872
1.059809809809809 	299.9999999999401 	6.110397764830302e-12 	101324.9999999873
1.062312312312312 	299.999999999942 	6.077194361217773e-12 	101324.9999999873
1.064814814814814 	299.9999999999436 	5.429306322357816e-12 	101324.9999999873
1.067317317317317 	299.9999999999053 	5.655823637907611e-12 	101324.9999999874
1.069819819819819 	299.9999999999003 	5.300458770658964e-12 	101324.9999999874
1.072322322322321 	299.9999999999736 	3.982857799401051e-12 	101324.9999999874
1.074824824824824 	299.9999999999856 	5.555475520793515e-12 	101324.9999999876
1.077327327327327 	300.0000000000144 	4.935862448293417e-12 	101324.9999999878
1.079829829829829 	300.0000000000381 	5.525945337204469e-12 	101324.9999999877
1.082332332332332 	300.0000000000026 	5.22514744217554e-12 	101324.9999999876
1.084834834834834 	299.9999999999745 	5.471873755069705e-12 	101324.9999999875
1.087337337337337 	299.9999999999238 	5.831291803705701e-12 	101324.9999999873
1.089839839839839 	299.999999999917 	4.864458855179245e-12 	101324.999999987
1.092342342342342 	299.999999999958 	5.879186223651031e-12 	101324.999999987
1.094844844844844 	299.9999999999657 	5.0798033810853e-12 	101324.9999999868
1.097347347347347 	299.9999999999302 	6.353193271820998e-12 	101324.9999999867
1.099849849849849 	299.9999999999169 	4.50981082376339e-12 	101324.9999999867
1.102352352352352 	299.9999999999394 	5.951084607910829e-12 	101324.9999999867
1.104854854854854 	299.9999999999599 	4.572334029524365e-12 	101324.9999999867
1.107357357357357 	299.999999999948 	5.988846353776284e-12 	101324.9999999865
1.109859859859859 	299.9999999999271 	4.903255469018176e-12 	101324.9999999865
1.112362362362362 	300.0000000000065 	5.671467794298718e-12 	101324.9999999866
1.114864864864865 	300.000000000005 	5.583875509938402e-12 	101324.9999999869
1.117367367367367 	299.9999999999561 	5.328131468160537e-12 	101324.999999987
1.119869869869869 	299.9999999999125 	5.856952289755822e-12 	101324.9999999867
1.122372372372372 	299.9999999999269 	4.814649290458154e-12 	101324.9999999865
1.124874874874874 	299.9999999999242 	5.205766488584748e-12 	101324.9999999864
1.127377377377377 	299.9999999999485 	5.029128449940039e-12 	101324.9999999863
1.129879879879879 	300.0000000000227 	5.731975722981408e-12 	101324.9999999864
1.132382382382382 	300.0000000000323 	5.957988753059703e-12 	101324.9999999867
1.134884884884884 	299.999999999998 	6.620228422658996e-12 	101324.9999999868
1.137387387387387 	300.0000000000097 	6.95450924988406e-12 	101324.9999999868
1.139889889889889 	299.9999999999506 	6.274866483947235e-12 	101324.999999987
1.142392392392392 	299.9999999999391 	7.092522696110378e-12 	101324.9999999873
1.144894894894894 	300.0000000000011 	6.764437264175742e-12 	101324.9999999875
1.147397397397397 	299.9999999999804 	8.175147443790681e-12 	101324.9999999876
1.149899899899899 	299.9999999999179 	7.819126319400478e-12 	101324.9999999876
1.152402402402402 	299.999999999906 	8.138654232172501e-12 	101324.9999999877
1.154904904904904 	299.999999999944 	7.113161593226525e-12 	101324.9999999878
1.157407407407407 	299.9999999999437 	6.816700722850375e-12 	101324.9999999876
1.159909909909909 	299.999999999917 	6.236638070994079e-12 	101324.9999999874
1.162412412412412 	299.999999999916 	4.721701243772658e-12 	101324.999999987
1.164914914914914 	299.9999999999369 	4.760601986343592e-12 	101324.9999999865
1.167417417417417 	299.9999999999324 	3.128035784277834e-12 	101324.9999999862
1.169919919919919 	299.9999999999895 	3.073590256340534e-12 	101324.9999999861
1.172422422422422 	300.0000000000312 	2.50443170226541e-12 	101324.9999999861
1.174924924924925 	299.9999999999746 	3.582200799462486e-12 	101324.9999999861
1.177427427427427 	299.9999999999375 	3.687438357991116e-12 	101324.9999999861
1.179929929929929 	299.9999999999978 	3.504639793859782e-12 	101324.9999999861
1.182432432432432 	300.0000000000336 	4.863534449533302e-12 	101324.9999999861
1.184934934934934 	300.0000000000007 	4.354827575582713e-12 	101324.9999999859
1.187437437437437 	299.9999999999724 	5.063374820150342e-12 	101324.9999999859
1.189939939939939 	299.9999999999613 	4.379235531692934e-12 	101324.9999999858
1.192442442442442 	299.9999999999163 	4.680179722683571e-12 	101324.9999999857
1.194944944944944 	299.9999999999155 	3.665325702311858e-12 	101324.9999999857
1.197447447447447 	299.999999999981 	4.23363769815809e-12 	101324.9999999857
1.199949949949949 	299.9999999999985 	4.860258074947818e-12 	101324.9999999857
1.202452452452452 	299.9999999999407 	4.692133137753089e-12 	101324.9999999857
1.204954954954955 	299.9999999999338 	5.696798786765304e-12 	101324.9999999857
1.207457457457457 	299.9999999999594 	5.04582215286825e-12 	101324.9999999857
1.20995995995996 	299.9999999999565 	6.03525424244544e-12 	101324.9999999857
1.212462462462462 	299.999999999973 	5.495404170660653e-12 	101324.9999999857
1.214964964964964 	299.999999999979 	6.070370071062995e-12 	101324.9999999856
1.217467467467467 	299.9999999999862 	4.888004464434089e-12 	101324.9999999856
1.219969969969969 	299.9999999999532 	5.264696639753042e-12 	101324.9999999857
1.222472472472472 	299.9999999999991 	4.939048537183322e-12 	101324.9999999859
1.224974974974975 	300.000000000047 	5.117711682241435e-12 	101324.9999999859
1.227477477477477 	299.9999999999867 	6.698057044246571e-12 	101324.9999999859
1.229979979979979 	299.9999999999676 	6.220847535525035e-12 	101324.999999986
1.232482482482482 	299.9999999999404 	7.457222423206116e-12 	101324.9999999861
1.234984984984984 	299.999999999941 	6.56431509522889e-12 	101324.9999999861
1.237487487487487 	299.9999999999667 	7.220301881680436e-12 	101324.999999986
1.239989989989989 	299.9999999999701 	6.132415425695709e-12 	101324.9999999861
1.242492492492492 	300.0000000000059 	5.143323768410256e-12 	101324.9999999861
1.244994994994994 	299.9999999999745 	5.996111104516396e-12 	101324.9999999861
1.247497497497497 	299.9999999999899 	5.697674996079389e-12 	101324.9999999864
1.249999999999999 	300.0000000000359 	6.829713627521135e-12 	101324.9999999866
