-1.25 	306.2666616782128 	0.0004774556662272095 	101325.0050265482
-1.247497497497497 	300.186165142157 	0.0005515801011389911 	101324.9885992578
-1.244994994994995 	300.0005244538242 	0.0007168431334739498 	101325.0036762625
-1.242492492492492 	299.9999929778869 	0.0008675167843397787 	101324.9906558932
-1.23998998998999 	300.000002674773 	0.0009917802424961489 	101325.0031507698
-1.237487487487487 	299.9999928166939 	0.001093723884984508 	101324.9915193669
-1.234984984984985 	300.0000005508547 	0.001174981600738439 	101325.0006425556
-1.232482482482482 	299.9999927898666 	0.001236669585623408 	101324.9914841784
-1.22997997997998 	300.0000000129389 	0.001281356313248433 	101325.000007004
-1.227477477477477 	299.9999929991819 	0.001308038936111306 	101324.9917326788
-1.224974974974975 	299.9999988514577 	0.001326223489405235 	101324.998638965
-1.222472472472472 	299.9999945027201 	0.001329739410573444 	101324.9935110188
-1.21996996996997 	299.9999992163308 	0.001319207033884162 	101324.9990718208
-1.217467467467467 	299.99999488317 	0.001301317865263576 	101324.9939556827
-1.214964964964965 	299.999998678906 	0.001277707634984462 	101324.9984349692
-1.212462462462462 	299.9999948150907 	0.001245349407586227 	101324.993873171
-1.20995995995996 	299.9999981326494 	0.001209478244490769 	101324.9977918002
-1.207457457457457 	299.9999953191864 	0.001168672880659496 	101324.994468728
-1.204954954954955 	299.9999986141012 	0.001123467839059486 	101324.9983623868
-1.202452452452452 	299.9999960669861 	0.001075760022640411 	101324.9953503024
-1.19994994994995 	299.9999981932678 	0.001028149594268181 	101324.9978652939
-1.197447447447447 	299.9999951982314 	0.0009749332192066033 	101324.9943236353
-1.194944944944945 	299.9999969418604 	0.0009259536981651027 	101324.9963868585
-1.192442442442442 	299.9999948671427 	0.0008735510311193109 	101324.9939313177
-1.18993993993994 	299.9999973205826 	0.0008221277721272848 	101324.9968353133
-1.187437437437437 	299.9999960231806 	0.0007723585948122113 	101324.9952974662
-1.184934934934935 	299.9999981536573 	0.0007228023738206294 	101324.9978200521
-1.182432432432432 	299.9999964317716 	0.0006737128173888393 	101324.9957797032
-1.17992992992993 	299.9999978030962 	0.0006286688652075518 	101324.9974055873
-1.177427427427427 	299.9999960206389 	0.0005819939565036205 	101324.9952931708
-1.174924924924925 	299.9999974188603 	0.0005401366863096557 	101324.9969510538
-1.172422422422422 	299.9999960916896 	0.0004979854480791024 	101324.9953762949
-1.16991991991992 	299.9999975299377 	0.0004596532589093184 	101324.9970820302
-1.167417417417417 	299.999996271357 	0.0004212662692133445 	101324.9955924036
-1.164914914914915 	299.9999973845785 	0.000387745352900083 	101324.9969102703
-1.162412412412412 	299.9999961138007 	0.0003530098852573003 	101324.9954028749
-1.15990990990991 	299.999997132849 	0.0003235572678907649 	101324.9966121026
-1.157407407407407 	299.9999962287081 	0.0002936088078120772 	101324.9955395051
-1.154904904904904 	299.9999973888014 	0.0002674516367972437 	101324.9969142303
-1.152402402402403 	299.9999968471571 	0.0002422230048987906 	101324.9962709743
-1.1498998998999 	299.9999978155419 	0.0002200290498805128 	101324.9974188605
-1.147397397397397 	299.9999972721388 	0.0001983769074303563 	101324.9967739418
-1.144894894894895 	299.9999978771824 	0.0001806134581739154 	101324.9974918771
-1.142392392392392 	299.9999971483366 	0.0001615133935244898 	101324.9966283984
-1.13988988988989 	299.9999973777102 	0.0001471508981896281 	101324.9969010496
-1.137387387387387 	299.9999969948921 	0.0001303542047204313 	101324.9964466847
-1.134884884884885 	299.9999971523498 	0.0001177706272328231 	101324.9966337058
-1.132382382382382 	299.9999970320311 	0.0001028942888930732 	101324.9964903678
-1.12987987987988 	299.9999972186762 	9.226624733405328e-05 	101324.9967121544
-1.127377377377377 	299.9999971141702 	7.990884344691873e-05 	101324.9965885697
-1.124874874874875 	299.9999973713799 	7.123357818204147e-05 	101324.996893205
-1.122372372372372 	299.9999973447422 	6.087725531915882e-05 	101324.996860826
-1.11986986986987 	299.9999975708859 	5.380971185348166e-05 	101324.9971273808
-1.117367367367367 	299.9999975783552 	4.520640338940344e-05 	101324.997136131
-1.114864864864865 	299.9999977567937 	3.96219034225977e-05 	101324.9973473217
-1.112362362362362 	299.9999977989348 	3.2338855792573e-05 	101324.9973981156
-1.10985985985986 	299.9999978699656 	2.812403509148502e-05 	101324.9974829445
-1.107357357357357 	299.9999979363453 	2.21108808309264e-05 	101324.997561198
-1.104854854854855 	299.9999979803302 	1.906495014365052e-05 	101324.9976122267
-1.102352352352353 	299.9999980578631 	1.422944804200314e-05 	101324.9977030602
-1.09984984984985 	299.9999980771187 	1.233968075230134e-05 	101324.9977253118
-1.097347347347347 	299.9999981578582 	8.576559395295689e-06 	101324.997820859
-1.094844844844845 	299.9999982008333 	7.556389806247868e-06 	101324.9978715384
-1.092342342342342 	299.9999982854691 	5.111543439113263e-06 	101324.9979722743
-1.08983983983984 	299.9999983461336 	4.640241473711169e-06 	101324.998045271
-1.087337337337337 	299.9999984410587 	4.656084093581021e-06 	101324.9981577249
-1.084834834834835 	299.9999985177415 	4.164637612662609e-06 	101324.9982479068
-1.082332332332332 	299.9999986046341 	4.155199548829176e-06 	101324.9983502272
-1.07982982982983 	299.9999986706662 	3.769104269787416e-06 	101324.9984275433
-1.077327327327327 	299.9999987368236 	3.732089105127645e-06 	101324.9985052351
-1.074824824824825 	299.9999987984036 	3.434588399012916e-06 	101324.9985779604
-1.072322322322323 	299.9999988682592 	3.313616109338282e-06 	101324.9986609065
-1.06981981981982 	299.9999989452801 	3.034385341760402e-06 	101324.998752347
-1.067317317317317 	299.9999990302596 	2.816255069430754e-06 	101324.9988529861
-1.064814814814815 	299.9999991228171 	2.53816986093261e-06 	101324.9989623574
-1.062312312312312 	299.9999992235222 	2.251581821462243e-06 	101324.9990813613
-1.05980980980981 	299.9999993245435 	1.963555652250083e-06 	101324.9992008859
-1.057307307307307 	299.9999994131798 	1.708417598449771e-06 	101324.9993057992
-1.054804804804805 	299.9999994857902 	1.493661082189596e-06 	101324.9993915381
-1.052302302302302 	299.9999995540082 	1.291005046339858e-06 	101324.9994719726
-1.0497997997998 	299.9999996314234 	1.066185272753774e-06 	101324.9995634422
-1.047297297297297 	299.9999997196774 	8.120145434031196e-07 	101324.9996679368
-1.044794794794795 	299.9999998138784 	5.392212547163078e-07 	101324.9997795612
-1.042292292292292 	299.9999999118782 	2.556576339083784e-07 	101324.9998954803
-1.03978978978979 	300.0000000121888 	1.468542332921486e-07 	101325.0000139262
-1.037287287287287 	300.000000112616 	3.243726171557949e-07 	101325.0001324983
-1.034784784784785 	300.0000002130813 	6.153734518408111e-07 	101325.0002512651
-1.032282282282283 	300.0000003131782 	9.043577518592228e-07 	101325.000369791
-1.02977977977978 	300.0000004095177 	1.183069375176629e-06 	101325.0004838529
-1.027277277277277 	300.0000005004782 	1.447931296187785e-06 	101325.0005913745
-1.024774774774775 	300.0000005895923 	1.70649367991773e-06 	101325.0006964385
-1.022272272272272 	300.000000679392 	1.965324922703661e-06 	101325.0008023668
-1.01976976976977 	300.0000007680886 	2.222623542304489e-06 	101325.0009073919
-1.017267267267267 	300.0000008559651 	2.480757282811474e-06 	101325.0010117811
-1.014764764764765 	300.0000009494483 	2.754157596850024e-06 	101325.0011225624
-1.012262262262262 	300.0000010536077 	3.053469320641447e-06 	101325.0012453443
-1.00975975975976 	300.0000011642965 	3.368949533878034e-06 	101325.0013754271
-1.007257257257257 	300.0000012726061 	3.680530213471171e-06 	101325.0015029796
-1.004754754754755 	300.0000013753667 	3.980645182694749e-06 	101325.001624818
-1.002252252252252 	300.00000147628 	4.276322015859023e-06 	101325.001745203
-0.9997497497497498 	300.0000015777996 	4.570835996192345e-06 	101325.0018660386
-0.9972472472472473 	300.0000016768159 	4.855700837149889e-06 	101325.0019827945
-0.9947447447447449 	300.0000017703002 	5.125101092759949e-06 	101325.0020920803
-0.9922422422422421 	300.000001861652 	5.389926668895186e-06 	101325.0021988953
-0.9897397397397399 	300.0000019577363 	5.669283238946268e-06 	101325.0023124934
-0.9872372372372376 	300.0000020609858 	5.969206847729946e-06 	101325.0024357955
-0.9847347347347346 	300.0000021665984 	6.276158620575398e-06 	101325.0025621271
-0.9822322322322323 	300.0000022690711 	6.574042948522991e-06 	101325.002683673
-0.9797297297297296 	300.000002368762 	6.862420260892763e-06 	101325.0028005055
-0.9772272272272275 	300.0000024702067 	7.153352578775829e-06 	101325.0029187867
-0.9747247247247248 	300.0000025750836 	7.453276260618361e-06 	101325.0030417223
-0.9722222222222224 	300.0000026793111 	7.754022716013529e-06 	101325.0031652901
-0.9697197197197196 	300.0000027780397 	8.043276357944537e-06 	101325.0032833673
-0.9672172172172175 	300.0000028718645 	8.321153634670011e-06 	101325.0033958059
-0.9647147147147147 	300.0000029675532 	8.602458775296839e-06 	101325.0035097292
-0.9622122122122124 	300.0000030707297 	8.899942853263656e-06 	101325.0036314886
-0.9597097097097099 	300.0000031788229 	9.207461255485382e-06 	101325.0037583227
-0.9572072072072073 	300.0000032828956 	9.503909591186575e-06 	101325.0038802482
-0.9547047047047047 	300.0000033766963 	9.7743716116106e-06 	101325.0039902261
-0.9522022022022023 	300.0000034625715 	1.002554031106949e-05 	101325.0040913032
-0.9496996996996998 	300.0000035497865 	1.028089527980343e-05 	101325.0041942417
-0.9471971971971973 	300.0000036466596 	1.056132727306915e-05 	101325.0043086214
-0.9446946946946947 	300.0000037535767 	1.086803565615136e-05 	101325.0044349213
-0.9421921921921923 	300.000003863517 	1.11832669734409e-05 	101325.0045647136
-0.93968968968969 	300.0000039690559 	1.148820648420071e-05 	101325.0046893131
-0.9371871871871872 	300.0000040687929 	1.177820413567613e-05 	101325.0048071777
-0.9346846846846848 	300.0000041653406 	1.205851985765109e-05 	101325.0049214847
-0.9321821821821823 	300.0000042592061 	1.232996366864649e-05 	101325.0050327626
-0.9296796796796799 	300.000004347416 	1.258559319003293e-05 	101325.005137411
-0.9271771771771771 	300.0000044281149 	1.282154434585999e-05 	101325.0052332103
-0.9246746746746748 	300.000004504757 	1.304716359346086e-05 	101325.0053240838
-0.9221721721721724 	300.0000045851605 	1.328323765060338e-05 	101325.0054192451
-0.9196696696696698 	300.000004676739 	1.354909630779252e-05 	101325.005527567
-0.9171671671671672 	300.000004780352 	1.384594407077312e-05 	101325.0056500714
-0.9146646646646649 	300.0000048871841 	1.415021780748335e-05 	101325.0057762744
-0.9121621621621623 	300.0000049842178 	1.442925646828038e-05 	101325.005890942
-0.9096596596596597 	300.0000050663868 	1.467085979301483e-05 	101325.0059881869
-0.9071571571571573 	300.0000051422397 	1.489568446705512e-05 	101325.0060779342
-0.9046546546546547 	300.0000052241277 	1.513382026900908e-05 	101325.0061748268
-0.9021521521521524 	300.0000053138289 	1.538985427764283e-05 	101325.0062810281
-0.8996496496496498 	300.0000054010101 	1.563899672113448e-05 	101325.0063841794
-0.8971471471471473 	300.0000054766867 	1.586012692411989e-05 	101325.0064737104
-0.894644644644645 	300.0000055452302 	1.606389176282221e-05 	101325.0065548506
-0.892142142142142 	300.0000056189474 	1.627970562706122e-05 	101325.0066421337
-0.8896396396396397 	300.0000057025935 	1.651917847029862e-05 	101325.0067411355
-0.8871371371371374 	300.0000057882349 	1.676387677221255e-05 	101325.0068425214
-0.8846346346346349 	300.0000058666874 	1.699151245018357e-05 	101325.0069352927
-0.8821321321321324 	300.0000059388079 	1.720348185826676e-05 	101325.0070205012
-0.8796296296296297 	300.0000060125172 	1.741825670253764e-05 	101325.0071076218
-0.8771271271271271 	300.000006090856 	1.764304275406674e-05 	101325.0072002826
-0.8746246246246248 	300.0000061678381 	1.786352298537214e-05 	101325.007291321
-0.8721221221221224 	300.0000062365558 	1.806297335076022e-05 	101325.0073725588
-0.8696196196196196 	300.0000062978997 	1.824315313080528e-05 	101325.0074450399
-0.8671171171171175 	300.0000063586342 	1.8420294504768e-05 	101325.0075167797
-0.8646146146146148 	300.0000064224403 	1.860400980975339e-05 	101325.0075923308
-0.8621121121121121 	300.0000064860509 	1.878639291439516e-05 	101325.0076676768
-0.8596096096096097 	300.0000065437007 	1.89535916550058e-05 	101325.007735904
-0.857107107107107 	300.0000065951938 	1.910590550402377e-05 	101325.0077967507
-0.8546046046046049 	300.0000066487169 	1.926434521177171e-05 	101325.0078597827
-0.8521021021021022 	300.0000067143291 	1.945458782172091e-05 	101325.0079371322
-0.8495995995995997 	300.0000067937451 	1.968018696552836e-05 	101325.0080310644
-0.8470970970970974 	300.0000068752995 	1.991024202414327e-05 	101325.0081278062
-0.8445945945945946 	300.0000069413937 	2.009908975510023e-05 	101325.0082061995
-0.8420920920920922 	300.0000069838529 	2.022620738644722e-05 	101325.0082563683
-0.8395895895895897 	300.0000070130408 	2.031818667918975e-05 	101325.0082906304
-0.8370870870870872 	300.0000070487907 	2.042470261522699e-05 	101325.0083325678
-0.8345845845845846 	300.0000070999041 	2.056808145904348e-05 	101325.0083928776
-0.8320820820820823 	300.0000071548627 	2.072077046417036e-05 	101325.008458136
-0.8295795795795798 	300.0000071960429 	2.084036851359515e-05 	101325.0085072806
-0.8270770770770772 	300.000007222807 	2.092634269386015e-05 	101325.0085391786
-0.8245745745745746 	300.0000072562873 	2.103105131400694e-05 	101325.0085787035
-0.8220720720720721 	300.0000073170119 	2.120309756609573e-05 	101325.0086500886
-0.8195695695695699 	300.0000073969402 	2.141967782265925e-05 	101325.0087441643
-0.817067067067067 	300.0000074592552 	2.158759505833119e-05 	101325.0088177852
-0.8145645645645651 	300.0000074714182 	2.162655406944634e-05 	101325.0088324724
-0.8120620620620621 	300.0000074410353 	2.15583966895406e-05 	101325.0087969299
-0.8095595595595597 	300.0000074164299 	2.150708307976302e-05 	101325.008768092
-0.8070570570570572 	300.0000074463429 	2.159555757002522e-05 	101325.0088034433
-0.8045545545545546 	300.0000075338996 	2.182944783679147e-05 	101325.0089065906
-0.8020520520520523 	300.0000076288345 	2.207941552054185e-05 	101325.009018316
-0.7995495495495494 	300.0000076690094 	2.218750538664337e-05 	101325.0090655159
-0.7970470470470474 	300.0000076356494 	2.2107819202728e-05 	101325.0090261822
-0.7945445445445446 	300.0000075734966 	2.195645215358225e-05 	101325.0089530838
-0.7920420420420423 	300.0000075556213 	2.192160926516864e-05 	101325.0089324719
-0.7895395395395397 	300.0000076228326 	2.210697712398622e-05 	101325.0090124199
-0.7870370370370371 	300.0000077473912 	2.243883037748923e-05 	101325.0091599496
-0.7845345345345348 	300.0000078520366 	2.271537335039302e-05 	101325.0092836004
-0.7820320320320323 	300.000007868724 	2.27593813091158e-05 	101325.0093028596
-0.7795295295295296 	300.0000077907735 	2.255479293476512e-05 	101325.0092100086
-0.7770270270270272 	300.0000076794557 	2.226226294146745e-05 	101325.0090776012
-0.7745245245245247 	300.0000076187114 	2.210278060119679e-05 	101325.0090051841
-0.7720220220220222 	300.0000076549379 	2.219855967226005e-05 	101325.0090478301
-0.7695195195195199 	300.00000776421 	2.248710115958919e-05 	101325.0091774231
-0.767017017017017 	300.0000078699054 	2.276623551592622e-05 	101325.0093032531
-0.7645145145145147 	300.0000078957692 	2.283401493567471e-05 	101325.009334985
-0.7620120120120122 	300.0000078171882 	2.262564803015291e-05 	101325.0092432873
-0.7595095095095097 	300.0000076788169 	2.225990658269708e-05 	101325.0090807465
-0.7570070070070072 	300.0000075675259 	2.196811158982946e-05 	101325.0089497437
-0.7545045045045048 	300.0000075599193 	2.195526224655113e-05 	101325.0089408722
-0.7520020020020022 	300.0000076772454 	2.22772585830109e-05 	101325.0090795101
-0.7494994994994997 	300.0000078706192 	2.28013809453931e-05 	101325.0093078933
-0.7469969969969972 	300.0000080447379 	2.3269049831104e-05 	101325.0095134497
-0.7444944944944945 	300.0000081044876 	2.342123234209332e-05 	101325.0095838714
-0.7419919919919924 	300.0000079990502 	2.312042635238227e-05 	101325.0094589816
-0.7394894894894897 	300.0000077466404 	2.24183830192024e-05 	101325.009160321
-0.7369869869869872 	300.0000074297212 	2.154087300264663e-05 	101325.0087852167
-0.7344844844844846 	300.0000071606153 	2.079837631617206e-05 	101325.0084665932
-0.7319819819819822 	300.0000070402735 	2.047156252196825e-05 	101325.0083237188
-0.7294794794794797 	300.0000071254868 	2.071764147562353e-05 	101325.0084239414
-0.7269769769769773 	300.0000074103814 	2.151827527159232e-05 	101325.0087603101
-0.7244744744744747 	300.0000078262082 	2.268281988083891e-05 	101325.0092516774
-0.721971971971972 	300.000008264287 	2.390951258226282e-05 	101325.0097696279
-0.7194694694694695 	300.0000086098187 	2.487462430264567e-05 	101325.0101782524
-0.7169669669669674 	300.0000087677136 	2.530827673983542e-05 	101325.0103652636
-0.7144644644644647 	300.0000086785745 	2.504063214022376e-05 	101325.0102602102
-0.711961961961962 	300.0000083248285 	2.402115314517231e-05 	101325.0098423372
-0.7094594594594597 	300.0000077294898 	2.231416102718154e-05 	101325.0091388369
-0.7069569569569573 	300.0000069475188 	2.00741032210859e-05 	101325.0082145988
-0.7044544544544545 	300.0000060520229 	1.750696744170667e-05 	101325.0071560352
-0.7019519519519523 	300.000005118808 	1.482705763306575e-05 	101325.0060528091
-0.6994494494494495 	300.0000042129661 	1.221988150038545e-05 	101325.004981922
-0.6969469469469471 	300.0000033812989 	9.820501939985167e-06 	101325.0039985761
-0.6944444444444446 	300.0000026511604 	7.709716993628484e-06 	101325.0031352247
-0.6919419419419421 	300.00000203387 	5.921761838991336e-06 	101325.0024052205
-0.6894394394394396 	300.0000015285767 	4.456013067176264e-06 	101325.0018077472
-0.6869369369369374 	300.0000011268336 	3.288697467530129e-06 	101325.0013326462
-0.6844344344344344 	300.0000008155765 	2.382981236895766e-06 	101325.0009645446
-0.6819319319319321 	300.0000005800203 	1.696767641373747e-06 	101325.000686033
-0.6794294294294296 	300.0000004056836 	1.188154597871545e-06 	101325.000479872
-0.6769269269269272 	300.0000002792311 	8.188043509058693e-07 	101325.0003303471
-0.6744244244244245 	300.0000001893175 	5.556751814204715e-07 	101325.0002239526
-0.6719219219219222 	300.0000001264436 	3.715768178671028e-07 	101325.0001496006
-0.6694194194194195 	300.0000000832942 	2.449575545937791e-07 	101325.0000985213
-0.6669169169169172 	300.0000000541254 	1.592806558601591e-07 	101325.000063996
-0.6644144144144146 	300.0000000346542 	1.022004779215371e-07 	101325.0000410197
-0.661911911911912 	300.0000000219167 	6.47367888036301e-08 	101325.000025955
-0.6594094094094097 	300.0000000136936 	4.049462888758579e-08 	101325.0000162179
-0.656906906906907 	300.0000000084098 	2.502538636678424e-08 	101325.0000100103
-0.6544044044044046 	300.0000000051147 	1.528140130281328e-08 	101325.0000061054
-0.6519019019019021 	300.0000000030983 	9.226520566469097e-09 	101325.0000036802
-0.6493993993993996 	300.0000000018818 	5.505713442402934e-09 	101325.0000021925
-0.6468968968968971 	300.000000001129 	3.252859969727078e-09 	101325.0000012908
-0.6443943943943946 	300.0000000006391 	1.897833988530974e-09 	101325.0000007508
-0.6418918918918921 	300.0000000003662 	1.098568689997737e-09 	101325.000000431
-0.6393893893893897 	300.0000000002098 	6.276785551048355e-10 	101325.0000002437
-0.6368868868868871 	300.0000000001026 	3.564804462962068e-10 	101325.0000001352
-0.6343843843843846 	300.0000000000586 	1.99621697343907e-10 	101325.000000073
-0.6318818818818821 	299.9999999999927 	1.112039117410669e-10 	101325.0000000377
-0.6293793793793795 	300.0000000000218 	6.121014419756205e-11 	101325.000000018
-0.6268768768768773 	300.0000000000307 	3.319464186252202e-11 	101325.000000007
-0.6243743743743745 	299.9999999999851 	1.895069896777377e-11 	101325.0000000009
-0.6218718718718721 	300.0000000000076 	9.568907893212103e-12 	101324.9999999976
-0.6193693693693696 	299.9999999999426 	6.008603549238934e-12 	101324.9999999959
-0.6168668668668671 	299.9999999999801 	2.290502947722671e-12 	101324.9999999949
-0.6143643643643645 	300.0000000000151 	2.31356300474352e-12 	101324.9999999942
-0.6118618618618621 	299.9999999999863 	8.674379866407112e-13 	101324.9999999939
-0.6093593593593596 	299.9999999999902 	1.123869798396564e-12 	101324.9999999936
-0.6068568568568571 	299.9999999999927 	5.632401731569343e-13 	101324.9999999936
-0.6043543543543546 	299.999999999958 	1.137923374084942e-12 	101324.9999999934
-0.6018518518518521 	299.9999999999659 	6.217811096948626e-13 	101324.9999999933
-0.5993493493493496 	299.999999999947 	1.19301504158529e-12 	101324.9999999932
-0.5968468468468471 	299.9999999999549 	9.716420149177753e-13 	101324.9999999931
-0.5943443443443446 	299.9999999999931 	1.691413565018045e-12 	101324.9999999932
-0.591841841841842 	299.9999999999669 	1.48651595894484e-12 	101324.9999999933
-0.5893393393393397 	299.9999999999465 	2.013781526256135e-12 	101324.9999999934
-0.5868368368368371 	299.9999999999929 	2.415664363398134e-12 	101324.9999999935
-0.5843343343343346 	300.0000000000031 	2.504320160791293e-12 	101324.9999999936
-0.5818318318318321 	300.0000000000317 	2.64138033394623e-12 	101324.9999999937
-0.5793293293293297 	299.9999999999914 	2.42498321686799e-12 	101324.9999999938
-0.5768268268268271 	300.0000000000065 	1.835088348269735e-12 	101324.9999999939
-0.5743243243243245 	300.0000000000197 	1.610272930849069e-12 	101324.9999999939
-0.5718218218218221 	300.0000000000166 	7.79920946476376e-13 	101324.9999999941
-0.5693193193193196 	300.0000000000402 	3.655732583736231e-13 	101324.999999994
-0.5668168168168171 	299.9999999999861 	1.326857679749104e-12 	101324.9999999938
-0.5643143143143147 	299.9999999999489 	1.240140455684114e-12 	101324.9999999937
-0.5618118118118121 	300.0000000000097 	2.83627877750641e-12 	101324.9999999937
-0.5593093093093094 	300.0000000000312 	1.766272956300318e-12 	101324.9999999938
-0.5568068068068072 	300.0000000000138 	3.275289221357496e-12 	101324.9999999938
-0.5543043043043046 	300.0000000000118 	2.581272312045989e-12 	101324.9999999937
-0.551801801801802 	299.9999999999567 	3.27875113631418e-12 	101324.9999999934
-0.5492992992992995 	299.9999999999944 	2.157556382109849e-12 	101324.9999999932
-0.5467967967967969 	300.0000000000102 	3.253106513129666e-12 	101324.999999993
-0.5442942942942947 	300.0000000000051 	2.157002439882574e-12 	101324.9999999928
-0.5417917917917919 	299.999999999961 	3.285345346914368e-12 	101324.9999999928
-0.5392892892892895 	299.9999999999371 	1.103984584491892e-12 	101324.9999999929
-0.536786786786787 	299.9999999999566 	2.617397653297768e-12 	101324.9999999928
-0.5342842842842846 	299.9999999999632 	1.75440778153474e-12 	101324.9999999927
-0.531781781781782 	299.9999999999361 	2.443005627403422e-12 	101324.9999999927
-0.5292792792792794 	299.9999999999309 	2.934643274584995e-12 	101324.9999999926
-0.526776776776777 	299.9999999999123 	3.385459397383834e-12 	101324.9999999927
-0.5242742742742745 	299.9999999999773 	4.246509257935313e-12 	101324.9999999925
-0.521771771771772 	300.0000000000138 	4.989571179379179e-12 	101324.9999999925
-0.5192692692692695 	299.9999999999632 	5.137149161896121e-12 	101324.9999999923
-0.516766766766767 	300.000000000004 	5.118957354341494e-12 	101324.9999999922
-0.5142642642642645 	299.9999999999772 	4.628006608712128e-12 	101324.9999999921
-0.511761761761762 	299.9999999999553 	4.237953732528063e-12 	101324.9999999919
-0.5092592592592596 	299.9999999999729 	4.00351426927197e-12 	101324.9999999921
-0.506756756756757 	299.9999999999434 	3.508187709518268e-12 	101324.9999999922
-0.5042542542542544 	299.9999999999887 	2.739815815617569e-12 	101324.9999999922
-0.5017517517517521 	300.0000000000231 	3.264627196293863e-12 	101324.9999999921
-0.4992492492492494 	300.0000000000265 	7.584001317692373e-13 	101324.9999999921
-0.496746746746747 	299.999999999983 	3.812292395641647e-12 	101324.999999992
-0.4942442442442445 	299.9999999999509 	2.046978709767362e-12 	101324.9999999919
-0.4917417417417421 	299.9999999999451 	4.061162619628623e-12 	101324.9999999921
-0.4892392392392395 	299.9999999999579 	1.729034695298867e-12 	101324.9999999923
-0.486736736736737 	299.9999999999595 	3.17924255585388e-12 	101324.9999999925
-0.4842342342342345 	299.9999999999279 	7.720423772177655e-13 	101324.9999999926
-0.481731731731732 	300.0000000000321 	3.130679254229709e-12 	101324.9999999926
-0.4792292292292296 	300.0000000000198 	1.247308554744631e-12 	101324.9999999925
-0.4767267267267268 	299.9999999999608 	3.561234519018976e-12 	101324.9999999923
-0.4742242242242246 	299.9999999999968 	2.850110551294302e-12 	101324.9999999923
-0.471721721721722 	299.9999999999642 	2.825902324899708e-12 	101324.9999999922
-0.4692192192192195 	299.9999999999824 	2.108251433446101e-12 	101324.9999999922
-0.4667167167167169 	299.9999999999221 	2.323254558126449e-12 	101324.9999999921
-0.4642142142142145 	299.9999999999944 	1.094713000223769e-12 	101324.999999992
-0.461711711711712 	300.0000000000141 	2.560261949230378e-12 	101324.9999999921
-0.4592092092092094 	300.0000000000109 	5.474013337138489e-13 	101324.9999999922
-0.456706706706707 	300.0000000000448 	2.649852214011432e-12 	101324.9999999923
-0.4542042042042045 	299.9999999999454 	1.977375519314053e-12 	101324.9999999922
-0.451701701701702 	299.9999999999548 	3.647246298488344e-12 	101324.9999999922
-0.4491991991991995 	299.9999999999611 	2.352989784521776e-12 	101324.999999992
-0.4466966966966969 	299.9999999999554 	4.247272315676269e-12 	101324.9999999922
-0.4441941941941945 	299.9999999999912 	1.710416508690189e-12 	101324.9999999924
-0.441691691691692 	299.999999999962 	4.037563699806981e-12 	101324.9999999924
-0.4391891891891895 	299.9999999999882 	1.249648732237691e-12 	101324.9999999924
-0.436686686686687 	299.9999999999679 	4.596100097132075e-12 	101324.9999999927
-0.4341841841841846 	299.9999999999997 	2.441217728511672e-12 	101324.9999999927
-0.431681681681682 	299.9999999999556 	3.757127661020941e-12 	101324.9999999925
-0.4291791791791794 	299.9999999999357 	1.440421241075657e-12 	101324.9999999922
-0.426676676676677 	299.9999999999199 	3.162078570385839e-12 	101324.999999992
-0.4241741741741744 	299.9999999999689 	1.128789310732626e-12 	101324.9999999921
-0.421671671671672 	299.9999999999988 	2.718295437092385e-12 	101324.9999999922
-0.4191691691691694 	300.00000000004 	7.593507957473985e-13 	101324.9999999922
-0.4166666666666669 	300.0000000000479 	2.611314859162113e-12 	101324.9999999923
-0.4141641641641645 	299.9999999999434 	1.431442865554371e-12 	101324.9999999921
-0.411661661661662 	300.000000000004 	2.828822782680153e-12 	101324.999999992
-0.4091591591591594 	300.0000000000028 	2.194480397999712e-12 	101324.9999999918
-0.406656656656657 	299.9999999999573 	3.144800999341968e-12 	101324.9999999919
-0.4041541541541545 	300.0000000000132 	1.034390399675928e-12 	101324.9999999922
-0.401651651651652 	299.9999999999293 	3.11740935406041e-12 	101324.9999999921
-0.3991491491491494 	300.0000000000013 	1.358129844959654e-12 	101324.9999999918
-0.396646646646647 	299.9999999999618 	3.881574848113098e-12 	101324.9999999919
-0.3941441441441444 	299.9999999999795 	1.951888290642512e-12 	101324.999999992
-0.3916416416416419 	299.9999999999366 	3.946638148857472e-12 	101324.9999999922
-0.3891391391391395 	299.999999999964 	8.871061202994919e-13 	101324.9999999923
-0.3866366366366368 	299.9999999999624 	2.621459453090481e-12 	101324.9999999925
-0.3841341341341344 	299.9999999999974 	1.073919913942559e-12 	101324.9999999925
-0.381631631631632 	299.9999999999586 	2.463958774016843e-12 	101324.9999999923
-0.3791291291291294 	300.000000000003 	1.897446901732799e-12 	101324.9999999921
-0.3766266266266269 	300.0000000000193 	2.212770367217581e-12 	101324.9999999919
-0.3741241241241244 	300.0000000000215 	3.435831406929056e-12 	101324.9999999916
-0.371621621621622 	300.000000000019 	2.198327290485729e-12 	101324.9999999917
-0.3691191191191194 	300.000000000002 	4.787542992311425e-12 	101324.9999999919
-0.366616616616617 	300.0000000000001 	1.497021538683902e-12 	101324.9999999919
-0.3641141141141143 	299.9999999999703 	3.900620656731519e-12 	101324.9999999919
-0.3616116116116119 	299.9999999999546 	2.040352405989867e-12 	101324.999999992
-0.3591091091091095 	299.9999999999865 	3.325458522541035e-12 	101324.9999999918
-0.356606606606607 	299.9999999999905 	2.103937942530742e-12 	101324.9999999916
-0.3541041041041044 	299.9999999999887 	1.800139842941553e-12 	101324.9999999916
-0.3516016016016019 	300.0000000000079 	2.450254700721323e-12 	101324.9999999918
-0.3490990990990994 	299.9999999999916 	1.456383441686084e-12 	101324.9999999919
-0.346596596596597 	300.0000000000323 	4.140463146479421e-12 	101324.9999999921
-0.3440940940940944 	300.0000000000398 	2.430134449415078e-12 	101324.9999999922
-0.3415915915915919 	300.0000000000218 	5.226097640797213e-12 	101324.9999999921
-0.3390890890890895 	299.9999999999837 	4.153221909983788e-12 	101324.9999999919
-0.3365865865865869 	300.0000000000177 	5.269013496054298e-12 	101324.9999999921
-0.3340840840840844 	299.9999999999992 	4.271153439988108e-12 	101324.9999999921
-0.3315815815815819 	300.0000000000187 	4.867455172980136e-12 	101324.999999992
-0.3290790790790794 	300.0000000000186 	4.429787406433904e-12 	101324.999999992
-0.3265765765765769 	299.9999999999378 	4.401502843702394e-12 	101324.9999999922
-0.3240740740740744 	299.9999999999988 	3.000569737619681e-12 	101324.9999999923
-0.3215715715715718 	300.0000000000094 	3.956382991141552e-12 	101324.9999999923
-0.3190690690690695 	299.9999999999448 	1.978027816518486e-12 	101324.9999999922
-0.3165665665665668 	299.9999999999926 	2.708224435941127e-12 	101324.9999999924
-0.3140640640640644 	300.0000000000076 	4.392941780535955e-13 	101324.9999999923
-0.311561561561562 	299.9999999999344 	3.331987832422597e-12 	101324.9999999925
-0.3090590590590593 	299.9999999999908 	2.036335831918411e-12 	101324.9999999924
-0.3065565565565568 	300.000000000002 	4.413117948784557e-12 	101324.9999999922
-0.3040540540540545 	299.9999999999991 	2.600901097796537e-12 	101324.9999999921
-0.3015515515515518 	300.0000000000249 	4.148572885370073e-12 	101324.9999999919
-0.2990490490490494 	299.9999999999545 	7.80888019991004e-13 	101324.9999999919
-0.2965465465465469 	299.9999999999865 	2.941458588133682e-12 	101324.9999999916
-0.2940440440440444 	299.9999999999898 	1.771130861004578e-12 	101324.9999999914
-0.2915415415415418 	300.000000000003 	2.669578443381685e-12 	101324.9999999913
-0.2890390390390395 	300.0000000000045 	3.821052783152092e-12 	101324.9999999913
-0.2865365365365368 	299.9999999999812 	3.465812756580921e-12 	101324.9999999912
-0.2840340340340343 	299.9999999999949 	5.891341238943076e-12 	101324.9999999914
-0.2815315315315318 	299.9999999999408 	3.673471607985606e-12 	101324.9999999919
-0.2790290290290295 	299.9999999999688 	5.637739290703128e-12 	101324.9999999919
-0.2765265265265269 	300.0000000000051 	4.80522922572435e-12 	101324.9999999919
-0.2740240240240244 	300.0000000000182 	6.055135138308415e-12 	101324.9999999922
-0.2715215215215219 	300.0000000000167 	6.372580935903597e-12 	101324.9999999922
-0.2690190190190194 	299.9999999999461 	5.892266645553882e-12 	101324.9999999923
-0.2665165165165169 	299.9999999999999 	6.549622315462786e-12 	101324.9999999926
-0.2640140140140144 	299.9999999999746 	5.429866402608052e-12 	101324.9999999924
-0.2615115115115119 	300.0000000000024 	6.805430642199393e-12 	101324.9999999925
-0.2590090090090094 	299.9999999999404 	4.482289341193522e-12 	101324.9999999923
-0.2565065065065068 	299.9999999999893 	5.15815722735687e-12 	101324.9999999925
-0.2540040040040044 	299.9999999999949 	4.973421244935316e-12 	101324.9999999925
-0.2515015015015019 	300.0000000000299 	4.731012817388581e-12 	101324.9999999924
-0.2489989989989994 	300.0000000000335 	6.555556430699828e-12 	101324.9999999922
-0.2464964964964968 	299.9999999999899 	4.467301509988324e-12 	101324.999999992
-0.2439939939939944 	300.0000000000021 	7.422122299554118e-12 	101324.999999992
-0.2414914914914919 	299.9999999999757 	3.262584689538123e-12 	101324.9999999921
-0.2389889889889893 	299.9999999999964 	6.254502477966858e-12 	101324.9999999918
-0.2364864864864869 	300.0000000000231 	2.345249314745235e-12 	101324.9999999919
-0.2339839839839843 	299.9999999999425 	6.111250421842817e-12 	101324.999999992
-0.2314814814814819 	299.9999999999847 	2.150556587997752e-12 	101324.9999999919
-0.2289789789789792 	299.9999999999246 	5.3642007309976e-12 	101324.9999999918
-0.2264764764764769 	299.9999999999591 	3.38176826567202e-12 	101324.9999999918
-0.2239739739739743 	299.9999999999687 	4.749578457795146e-12 	101324.999999992
-0.2214714714714718 	299.9999999999482 	4.093274803731396e-12 	101324.9999999922
-0.2189689689689693 	299.9999999999737 	3.060021855331525e-12 	101324.9999999923
-0.2164664664664669 	299.9999999999823 	4.578964094472114e-12 	101324.9999999923
-0.2139639639639643 	299.9999999999395 	2.794599449149898e-12 	101324.9999999922
-0.2114614614614618 	299.9999999999817 	3.630507930971102e-12 	101324.9999999922
-0.2089589589589593 	299.9999999999898 	2.748373105312592e-12 	101324.9999999921
-0.2064564564564568 	299.9999999999887 	3.125487446307279e-12 	101324.9999999921
-0.2039539539539543 	299.999999999926 	4.382021914523288e-12 	101324.9999999923
-0.2014514514514518 	299.9999999999568 	2.021238744274691e-12 	101324.9999999924
-0.1989489489489494 	299.9999999999706 	4.367794416370574e-12 	101324.9999999926
-0.1964464464464468 	299.9999999999914 	8.965983423948783e-13 	101324.9999999925
-0.1939439439439443 	299.9999999999918 	4.253079230973723e-12 	101324.9999999926
-0.1914414414414418 	299.9999999999308 	2.293875263670727e-12 	101324.9999999927
-0.1889389389389393 	300.0000000000111 	3.746576847868061e-12 	101324.9999999925
-0.1864364364364368 	300.0000000000387 	3.123358709090256e-12 	101324.9999999927
-0.1839339339339343 	299.9999999999829 	4.052192719580846e-12 	101324.9999999925
-0.1814314314314318 	299.9999999999973 	3.5383265947622e-12 	101324.9999999925
-0.1789289289289293 	299.9999999999193 	3.947743135123417e-12 	101324.9999999923
-0.1764264264264268 	299.9999999999819 	2.240394208841487e-12 	101324.9999999924
-0.1739239239239243 	299.9999999999185 	3.801066659375041e-12 	101324.9999999922
-0.1714214214214218 	299.9999999999819 	1.091211587150132e-12 	101324.9999999923
-0.1689189189189193 	299.9999999999562 	5.012321246779768e-12 	101324.9999999927
-0.1664164164164168 	299.999999999999 	5.475849349408134e-13 	101324.9999999929
-0.1639139139139143 	299.9999999999883 	6.258397882481046e-12 	101324.9999999932
-0.1614114114114118 	300.0000000000236 	2.412001267192592e-12 	101324.9999999933
-0.1589089089089093 	299.9999999999987 	7.63312956612478e-12 	101324.9999999936
-0.1564064064064068 	299.9999999999887 	3.061085177446543e-12 	101324.9999999935
-0.1539039039039043 	299.9999999999942 	8.305384757880352e-12 	101324.9999999932
-0.1514014014014018 	300.000000000021 	2.577132637726632e-12 	101324.9999999932
-0.1488988988988993 	299.9999999999915 	7.880276850952283e-12 	101324.9999999933
-0.1463963963963968 	300.0000000000011 	1.016573705366654e-12 	101324.9999999933
-0.1438938938938943 	299.9999999999641 	6.685863347986989e-12 	101324.9999999931
-0.1413913913913918 	299.9999999999419 	1.359380304333985e-12 	101324.9999999929
-0.1388888888888893 	299.9999999999836 	5.497808474853096e-12 	101324.9999999926
-0.1363863863863868 	299.9999999999118 	2.392159307477183e-12 	101324.9999999927
-0.1338838838838843 	299.9999999999234 	4.144012595634175e-12 	101324.9999999927
-0.1313813813813818 	299.9999999999943 	2.13366484857374e-12 	101324.9999999927
-0.1288788788788793 	299.9999999999636 	3.44765989899424e-12 	101324.9999999929
-0.1263763763763768 	299.999999999971 	1.336639122242771e-12 	101324.9999999929
-0.1238738738738743 	299.9999999999329 	2.766695332736967e-12 	101324.999999993
-0.1213713713713717 	299.9999999999732 	5.000971374557461e-13 	101324.9999999929
-0.1188688688688693 	300.000000000004 	2.959049424100339e-12 	101324.9999999928
-0.1163663663663668 	299.9999999999253 	1.435766387870744e-12 	101324.9999999929
-0.1138638638638643 	299.9999999999966 	3.005655888145781e-12 	101324.9999999929
-0.1113613613613618 	299.9999999999908 	2.037069715728848e-12 	101324.9999999928
-0.1088588588588592 	299.9999999999825 	4.370759294984574e-12 	101324.999999993
-0.1063563563563568 	299.9999999999548 	1.24400653598402e-12 	101324.9999999934
-0.1038538538538543 	299.9999999999736 	3.895986707563639e-12 	101324.9999999934
-0.1013513513513517 	300.0000000000138 	8.628196827428672e-13 	101324.9999999934
-0.09884884884884926 	299.9999999999499 	4.177948457002755e-12 	101324.9999999933
-0.09634634634634676 	299.9999999999055 	1.251783914782482e-12 	101324.9999999935
-0.09384384384384425 	299.9999999999422 	2.080692508894322e-12 	101324.9999999934
-0.09134134134134177 	300.0000000000213 	6.963858879177967e-13 	101324.9999999937
-0.08883883883883925 	300.0000000000105 	1.834330082578751e-12 	101324.9999999939
-0.08633633633633674 	299.9999999999571 	2.226383272083767e-12 	101324.9999999941
-0.08383383383383426 	300.0000000000086 	2.274067711341058e-12 	101324.999999994
-0.08133133133133173 	299.9999999999748 	2.657929500621946e-12 	101324.9999999936
-0.07882882882882926 	299.9999999998993 	1.601697007970963e-12 	101324.9999999934
-0.07632632632632676 	299.9999999999641 	1.581580698292601e-12 	101324.9999999931
-0.07382382382382424 	299.9999999999135 	1.165025432622889e-12 	101324.9999999932
-0.07132132132132173 	300.0000000000115 	1.017439875391854e-12 	101324.9999999932
-0.06881881881881925 	299.9999999999582 	1.556837725455798e-12 	101324.9999999932
-0.06631631631631671 	299.9999999999109 	1.2826754037538e-12 	101324.9999999933
-0.06381381381381425 	299.9999999999673 	1.127958603860751e-12 	101324.999999993
-0.06131131131131173 	299.99999999997 	1.561443607724035e-12 	101324.9999999927
-0.05880880880880923 	299.9999999999362 	1.657671655320992e-12 	101324.9999999925
-0.05630630630630672 	299.9999999999795 	1.304500562925416e-12 	101324.9999999925
-0.05380380380380424 	300.0000000000153 	1.425984417650097e-12 	101324.9999999923
-0.05130130130130173 	300.0000000000098 	1.379905415338854e-12 	101324.9999999925
-0.04879879879879922 	299.9999999999436 	1.873451067072331e-12 	101324.9999999924
-0.04629629629629672 	299.99999999993 	1.785971450384743e-12 	101324.9999999924
-0.04379379379379422 	299.9999999999386 	1.364360674176006e-12 	101324.9999999928
-0.04129129129129173 	299.9999999999797 	8.979354442047659e-13 	101324.999999993
-0.03878878878878922 	299.9999999999881 	5.837391667555681e-13 	101324.9999999929
-0.03628628628628671 	299.9999999999866 	4.219116111574183e-13 	101324.999999993
-0.03378378378378422 	299.9999999999371 	7.999935116737296e-14 	101324.9999999929
-0.03128128128128172 	299.9999999999703 	9.561264376235898e-13 	101324.9999999927
-0.02877877877877922 	299.9999999999707 	8.349570558754331e-13 	101324.9999999924
-0.0262762762762767 	299.9999999999152 	1.643362066783768e-12 	101324.9999999924
-0.02377377377377422 	300.0000000000177 	1.788625943617434e-12 	101324.9999999925
-0.0212712712712717 	299.9999999999165 	1.243873780650036e-12 	101324.9999999924
-0.01876876876876921 	299.9999999999726 	1.300552688236996e-12 	101324.9999999925
-0.01626626626626671 	300.0000000000128 	5.636708519665303e-13 	101324.9999999927
-0.0137637637637642 	299.9999999999747 	1.169120295860649e-12 	101324.9999999926
-0.0112612612612617 	300.0000000000092 	9.233137968309897e-13 	101324.9999999923
-0.008758758758759198 	299.9999999999908 	9.557123430773609e-13 	101324.999999992
-0.006256256256256697 	299.9999999999033 	2.010730112484455e-13 	101324.999999992
-0.003753753753754195 	299.9999999999579 	5.710717304305842e-13 	101324.9999999922
-0.001251251251251693 	299.9999999999386 	5.08983598931919e-13 	101324.9999999923
0.00125125125125081 	299.9999999999602 	4.348461745729976e-13 	101324.9999999922
0.003753753753753312 	299.9999999999639 	1.136377493193095e-12 	101324.9999999921
0.006256256256255817 	299.9999999998996 	4.698011161838837e-13 	101324.9999999919
0.008758758758758317 	299.9999999999932 	1.15714114540814e-12 	101324.9999999919
0.01126126126126082 	300.0000000000058 	5.300206489553581e-13 	101324.999999992
0.01376376376376332 	299.9999999999717 	3.207977764397345e-13 	101324.9999999921
0.01626626626626582 	300.0000000000123 	4.821856393946589e-13 	101324.9999999923
0.01876876876876833 	299.9999999999596 	9.998877888830567e-14 	101324.9999999925
0.02127127127127083 	299.9999999999771 	3.766153734841492e-13 	101324.9999999925
0.02377377377377332 	299.9999999999966 	7.795588672993389e-15 	101324.9999999924
0.02627627627627583 	299.9999999999135 	4.624606416859432e-13 	101324.9999999925
0.02877877877877833 	300.000000000005 	6.956749016904196e-13 	101324.9999999924
0.03128128128128083 	299.9999999999561 	6.406338103741915e-13 	101324.9999999927
0.03378378378378333 	299.9999999999179 	1.55104884472001e-12 	101324.9999999928
0.03628628628628584 	299.9999999999712 	1.742391107403905e-12 	101324.9999999927
0.03878878878878834 	299.9999999999823 	1.506134769268446e-12 	101324.9999999926
0.04129129129129084 	299.9999999999785 	1.434140220414174e-12 	101324.9999999927
0.04379379379379333 	299.999999999951 	1.861711814081862e-12 	101324.9999999928
0.04629629629629585 	299.9999999999078 	2.256238012180458e-12 	101324.9999999929
0.04879879879879834 	299.9999999999646 	2.814774624960769e-12 	101324.9999999928
0.05130130130130085 	300.000000000011 	2.084217737291164e-12 	101324.999999993
0.05380380380380335 	300.0000000000168 	1.988235260567369e-12 	101324.9999999927
0.05630630630630584 	299.999999999994 	1.406979277948045e-12 	101324.9999999927
0.05880880880880836 	299.9999999999333 	1.807936640954614e-12 	101324.9999999925
0.06131131131131085 	299.9999999999742 	2.228442623929596e-12 	101324.9999999925
0.06381381381381336 	299.9999999999643 	2.347570569959105e-12 	101324.9999999927
0.06631631631631586 	299.99999999991 	1.786749942959529e-12 	101324.9999999927
0.06881881881881835 	299.9999999999663 	2.046924452216458e-12 	101324.9999999928
0.07132132132132088 	299.9999999999881 	1.964188696446727e-12 	101324.9999999926
0.07382382382382337 	299.9999999999157 	2.034510175644095e-12 	101324.9999999926
0.07632632632632587 	299.9999999999711 	2.00412669391263e-12 	101324.9999999926
0.07882882882882837 	299.9999999999523 	1.24237167435415e-12 	101324.9999999926
0.08133133133133086 	299.9999999999808 	4.73439516845162e-13 	101324.9999999923
0.08383383383383337 	299.9999999999917 	3.709940962777899e-13 	101324.9999999921
0.08633633633633589 	299.9999999999232 	9.220631999848075e-14 	101324.999999992
0.08883883883883838 	300.0000000000015 	6.369385187680706e-13 	101324.999999992
0.09134134134134086 	299.9999999999816 	5.113732339447503e-13 	101324.9999999922
0.09384384384384339 	299.9999999999123 	1.704978795472492e-12 	101324.9999999923
0.09634634634634588 	299.9999999999726 	2.633355231173509e-12 	101324.9999999922
0.09884884884884838 	299.9999999999778 	2.717015912028964e-12 	101324.9999999923
0.1013513513513509 	300.0000000000152 	3.000302501004563e-12 	101324.9999999925
0.1038538538538534 	299.9999999999599 	3.158639152254853e-12 	101324.9999999928
0.1063563563563559 	300.0000000000085 	3.533930972373655e-12 	101324.999999993
0.1088588588588584 	300.0000000000196 	2.925305468144051e-12 	101324.9999999931
0.1113613613613609 	299.9999999999286 	3.054795585151481e-12 	101324.9999999932
0.1138638638638634 	299.9999999999511 	2.872611835352572e-12 	101324.9999999932
0.1163663663663659 	299.9999999999584 	2.279109434551594e-12 	101324.999999993
0.1188688688688684 	299.9999999999705 	2.101271500845058e-12 	101324.9999999929
0.1213713713713709 	299.9999999999994 	1.4381525433972e-12 	101324.9999999928
0.1238738738738734 	299.9999999999423 	1.239866850609955e-12 	101324.9999999925
0.1263763763763759 	299.9999999999845 	1.183991405903964e-12 	101324.9999999925
0.1288788788788784 	299.9999999999864 	9.712596418403409e-13 	101324.9999999925
0.1313813813813809 	299.9999999999852 	1.454393161957158e-12 	101324.9999999926
0.1338838838838834 	299.9999999999798 	1.860650950854463e-12 	101324.9999999929
0.1363863863863859 	300.0000000000153 	2.81387837566459e-12 	101324.9999999928
0.1388888888888884 	300.0000000000416 	3.606780852237695e-12 	101324.9999999929
0.1413913913913909 	300.0000000000055 	3.374033287644394e-12 	101324.9999999924
0.1438938938938934 	299.9999999999939 	3.374629820642607e-12 	101324.9999999922
0.1463963963963959 	299.9999999999577 	1.89484841374711e-12 	101324.9999999923
0.1488988988988985 	299.9999999999253 	3.11953229626215e-12 	101324.9999999923
0.1514014014014009 	299.9999999999721 	1.53220104391467e-12 	101324.9999999922
0.1539039039039035 	299.9999999999691 	3.809052363597221e-12 	101324.9999999923
0.1564064064064059 	299.999999999942 	1.614133937197708e-12 	101324.9999999924
0.1589089089089084 	299.9999999999809 	5.53224380909068e-12 	101324.9999999925
0.1614114114114109 	299.999999999977 	2.551481718460484e-12 	101324.9999999927
0.1639139139139134 	299.9999999999228 	4.603304682466103e-12 	101324.9999999926
0.166416416416416 	300.0000000000053 	3.300310720711054e-12 	101324.9999999927
0.1689189189189185 	300.0000000000245 	3.317134811522404e-12 	101324.9999999927
0.1714214214214209 	300.0000000000098 	3.225152956737753e-12 	101324.9999999928
0.1739239239239235 	299.9999999999868 	1.442022769920791e-12 	101324.9999999928
0.1764264264264259 	299.999999999974 	2.931456034871343e-12 	101324.9999999926
0.1789289289289284 	300.0000000000048 	3.980246757435167e-13 	101324.9999999925
0.181431431431431 	299.9999999999677 	2.961503904831272e-12 	101324.9999999923
0.1839339339339334 	299.9999999999754 	1.043184665346205e-12 	101324.9999999923
0.186436436436436 	299.9999999999408 	3.174118976124171e-12 	101324.9999999922
0.1889389389389385 	299.9999999999833 	3.480664209397277e-12 	101324.9999999921
0.191441441441441 	299.9999999999791 	3.327683497615264e-12 	101324.9999999921
0.1939439439439434 	299.9999999999316 	4.334223421954334e-12 	101324.9999999924
0.196446446446446 	299.9999999999529 	2.619353289445014e-12 	101324.9999999926
0.1989489489489485 	299.9999999999688 	4.852951130690512e-12 	101324.9999999926
0.2014514514514509 	299.9999999999854 	2.925867954474966e-12 	101324.9999999929
0.2039539539539535 	299.9999999999956 	4.351119951965562e-12 	101324.9999999929
0.2064564564564559 	299.9999999999631 	3.610402570789201e-12 	101324.9999999927
0.2089589589589585 	299.9999999999912 	4.194111106543775e-12 	101324.9999999927
0.211461461461461 	299.9999999999403 	4.244115185074857e-12 	101324.9999999926
0.2139639639639635 	299.9999999999855 	3.381802083873158e-12 	101324.9999999927
0.2164664664664659 	300.000000000006 	4.421343010312554e-12 	101324.9999999927
0.2189689689689684 	300.0000000000056 	2.079477787282453e-12 	101324.9999999928
0.221471471471471 	299.9999999999984 	4.379881291246432e-12 	101324.9999999926
0.2239739739739735 	299.9999999999676 	1.67262980099464e-12 	101324.9999999923
0.226476476476476 	299.9999999999859 	3.605037739451121e-12 	101324.9999999924
0.2289789789789785 	299.9999999999907 	3.002165692431824e-12 	101324.9999999923
0.231481481481481 	299.9999999999766 	3.429204700628728e-12 	101324.9999999923
0.2339839839839835 	299.999999999993 	3.882704041647424e-12 	101324.9999999922
0.236486486486486 	300.0000000000224 	2.374560805407384e-12 	101324.9999999922
0.2389889889889885 	300.0000000000007 	3.868624100833459e-12 	101324.9999999922
0.241491491491491 	299.9999999999291 	1.934794774708574e-12 	101324.9999999919
0.2439939939939935 	299.9999999999749 	5.873522220765464e-12 	101324.9999999919
0.246496496496496 	299.9999999999922 	3.253684966430904e-12 	101324.9999999919
0.2489989989989985 	300.0000000000321 	4.992642111643083e-12 	101324.9999999923
0.251501501501501 	300.0000000000269 	3.963992187948572e-12 	101324.9999999921
0.2540040040040035 	299.9999999999894 	3.793861469619335e-12 	101324.999999992
0.256506506506506 	300.000000000023 	4.116683912536352e-12 	101324.9999999919
0.2590090090090086 	299.9999999999289 	2.212685554621471e-12 	101324.9999999921
0.261511511511511 	300.0000000000011 	4.643583343339665e-12 	101324.9999999922
0.2640140140140135 	299.9999999999947 	2.045351399903058e-12 	101324.9999999924
0.2665165165165161 	299.9999999999446 	4.425021583430147e-12 	101324.9999999925
0.2690190190190185 	300.0000000000085 	3.208923725652863e-12 	101324.9999999924
0.271521521521521 	300.0000000000121 	3.664231814371326e-12 	101324.9999999927
0.2740240240240235 	300.0000000000152 	3.317979987286867e-12 	101324.9999999929
0.276526526526526 	300.0000000000077 	2.69096430433008e-12 	101324.9999999925
0.2790290290290286 	299.9999999999523 	3.832775914201012e-12 	101324.9999999923
0.281531531531531 	299.9999999999367 	2.195976090518241e-12 	101324.9999999921
0.2840340340340335 	299.9999999999793 	4.194076319451825e-12 	101324.999999992
0.2865365365365361 	299.9999999999665 	2.027839503997482e-12 	101324.9999999922
0.2890390390390385 	299.9999999999991 	2.637154731517801e-12 	101324.9999999924
0.291541541541541 	299.9999999999997 	2.073950615517004e-12 	101324.9999999922
0.2940440440440436 	299.9999999999977 	1.510123094929416e-12 	101324.9999999922
0.296546546546546 	299.9999999999917 	2.276877114211099e-12 	101324.9999999922
0.2990490490490486 	299.9999999999457 	8.142828841985803e-13 	101324.999999992
0.3015515515515511 	300.0000000000268 	3.616674414059534e-12 	101324.999999992
0.3040540540540535 	300.0000000000055 	2.665303476449543e-12 	101324.9999999919
0.3065565565565562 	299.9999999999903 	3.802410432945599e-12 	101324.9999999917
0.3090590590590585 	299.9999999999887 	2.331061077271025e-12 	101324.9999999915
0.3115615615615611 	299.999999999944 	2.756505347387161e-12 	101324.9999999913
0.3140640640640635 	300.0000000000088 	4.385718403839938e-13 	101324.9999999909
0.316566566566566 	299.9999999999941 	2.977576548476921e-12 	101324.999999991
0.3190690690690687 	299.9999999999517 	1.598685105251095e-12 	101324.9999999909
0.3215715715715711 	300.0000000000086 	3.373880507192439e-12 	101324.9999999907
0.3240740740740735 	299.999999999996 	1.424674061367967e-12 	101324.9999999905
0.326576576576576 	299.999999999921 	1.994114478438608e-12 	101324.9999999904
0.3290790790790786 	300.0000000000028 	9.920953439503279e-13 	101324.9999999906
0.3315815815815811 	300.0000000000248 	1.164930894788014e-12 	101324.9999999907
0.3340840840840836 	299.9999999999909 	4.235843792132745e-13 	101324.9999999909
0.3365865865865861 	300.0000000000438 	1.026327684009069e-12 	101324.999999991
0.3390890890890886 	300.0000000000385 	9.299792229859543e-13 	101324.9999999913
0.3415915915915911 	299.9999999999977 	8.22381987671319e-13 	101324.9999999914
0.3440940940940935 	299.9999999999599 	1.374287902880567e-12 	101324.9999999913
0.3465965965965962 	300.0000000000256 	1.066765066192861e-12 	101324.9999999914
0.3490990990990985 	300.00000000002 	7.221669255524449e-13 	101324.9999999913
0.3516016016016011 	299.9999999999895 	5.069341520079522e-13 	101324.9999999914
0.3541041041041035 	300.0000000000028 	1.778662250271872e-13 	101324.9999999914
0.3566066066066061 	299.9999999999608 	7.593587914596243e-13 	101324.9999999918
0.3591091091091085 	299.9999999999363 	8.09628772013165e-13 	101324.999999992
0.3616116116116112 	299.9999999999519 	1.666658250894648e-12 	101324.9999999923
0.3641141141141137 	299.9999999999464 	1.531583295439364e-12 	101324.9999999924
0.3666166166166161 	299.999999999942 	2.741490874092571e-12 	101324.9999999925
0.3691191191191185 	300.0000000000331 	2.539805757103704e-12 	101324.9999999926
0.371621621621621 	300.000000000009 	1.870949180491837e-12 	101324.9999999924
0.3741241241241237 	300.000000000042 	2.602123091262976e-12 	101324.9999999924
0.3766266266266261 	300.0000000000225 	9.379335141958782e-13 	101324.9999999923
0.3791291291291286 	299.9999999999895 	1.942661236067539e-12 	101324.9999999922
0.3816316316316311 	299.9999999999419 	9.900212890317161e-13 	101324.9999999923
0.3841341341341336 	300.0000000000142 	2.213372385225966e-12 	101324.9999999922
0.3866366366366362 	299.9999999999985 	9.322961768490514e-13 	101324.9999999919
0.3891391391391387 	299.999999999962 	2.442633409049076e-12 	101324.9999999918
0.391641641641641 	300.0000000000005 	1.486711773905687e-12 	101324.9999999916
0.3941441441441436 	300.0000000000059 	1.825635696025729e-12 	101324.9999999915
0.3966466466466462 	299.9999999999991 	1.827542395631421e-13 	101324.9999999915
0.3991491491491486 	299.9999999999582 	1.039030806963528e-12 	101324.9999999915
0.4016516516516512 	299.9999999999259 	9.084109163855127e-13 	101324.9999999914
0.4041541541541536 	299.9999999999557 	1.204586416496278e-12 	101324.9999999912
0.4066566566566561 	299.9999999999556 	1.501134729773099e-12 	101324.9999999912
0.4091591591591587 	299.9999999999922 	9.007702107151417e-13 	101324.9999999913
0.4116616616616612 	300.0000000000057 	1.115438540528572e-12 	101324.9999999915
0.4141641641641635 	300.000000000035 	3.410633227739219e-13 	101324.9999999917
0.4166666666666662 	299.9999999999973 	6.772571057705864e-13 	101324.9999999918
0.4191691691691687 	299.9999999999503 	1.249834193766837e-12 	101324.9999999919
0.421671671671671 	300.0000000000083 	1.673463342469352e-12 	101324.9999999918
0.4241741741741737 	299.9999999999828 	2.283017235555712e-12 	101324.9999999919
0.4266766766766761 	299.9999999999623 	2.832557250707701e-12 	101324.9999999917
0.4291791791791785 	300.0000000000164 	2.452247399109549e-12 	101324.9999999916
0.4316816816816812 	300.0000000000073 	3.46610296399972e-12 	101324.9999999915
0.4341841841841836 	299.9999999999825 	1.935018590606819e-12 	101324.9999999914
0.4366866866866862 	299.999999999933 	2.59986097459241e-12 	101324.9999999916
0.4391891891891885 	299.9999999999895 	7.660536483490517e-13 	101324.9999999916
0.4416916916916913 	299.9999999999834 	2.101574110588436e-12 	101324.9999999917
0.4441941941941936 	299.9999999999881 	6.894700103258702e-13 	101324.9999999918
0.4466966966966961 	299.9999999999333 	1.153032317369839e-12 	101324.9999999917
0.4491991991991987 	299.999999999983 	1.283636036733428e-12 	101324.9999999915
0.4517017017017012 	299.9999999999834 	1.482266618979918e-12 	101324.9999999914
0.4542042042042035 	299.9999999999895 	2.217187760914937e-12 	101324.9999999915
0.4567067067067062 	300.0000000000006 	1.369164903537009e-12 	101324.9999999916
0.4592092092092087 	299.999999999942 	1.164186438238102e-12 	101324.9999999916
0.4617117117117112 	300.000000000017 	3.753550804476598e-13 	101324.9999999918
0.4642142142142137 	299.9999999999699 	2.841930593078659e-13 	101324.9999999916
0.4667167167167162 	299.9999999999977 	1.837903574750165e-13 	101324.9999999915
0.4692192192192187 	299.9999999999643 	5.109372666202259e-13 	101324.9999999915
0.4717217217217212 	300.0000000000063 	4.614721757275815e-13 	101324.9999999917
0.4742242242242236 	299.9999999999653 	1.112098475338515e-12 	101324.999999992
0.4767267267267262 	299.9999999999728 	9.815508766378957e-13 	101324.999999992
0.4792292292292287 	300.0000000000181 	1.04151659005544e-12 	101324.9999999921
0.4817317317317312 	300.0000000000291 	1.110625397838484e-12 	101324.9999999921
0.4842342342342336 	299.9999999999839 	1.083834619678416e-12 	101324.9999999921
0.4867367367367362 	299.9999999999636 	1.388179858229866e-12 	101324.9999999921
0.4892392392392387 	300.0000000000263 	5.4908131908442e-13 	101324.9999999921
0.4917417417417412 	300.0000000000067 	2.085997502436639e-12 	101324.9999999923
0.4942442442442437 	299.9999999999274 	1.234006645795281e-12 	101324.9999999922
0.4967467467467462 	299.9999999999443 	2.414942775384813e-12 	101324.999999992
0.4992492492492487 	299.999999999939 	7.218859629495465e-13 	101324.9999999921
0.5017517517517511 	299.9999999999721 	2.043894179871507e-12 	101324.9999999922
0.5042542542542537 	299.9999999999724 	1.079776659450761e-12 	101324.9999999923
0.5067567567567562 	299.9999999999587 	1.587097562405829e-12 	101324.9999999921
0.5092592592592589 	299.9999999999717 	1.553799797315091e-12 	101324.9999999922
0.5117617617617611 	299.9999999999708 	6.844435823638827e-13 	101324.9999999923
0.5142642642642637 	299.9999999999955 	2.1130090846369e-12 	101324.9999999923
0.5167667667667663 	299.9999999999832 	1.824207585300136e-12 	101324.9999999923
0.5192692692692688 	299.9999999999364 	3.808261592078381e-12 	101324.9999999923
0.5217717717717714 	299.9999999999579 	2.682501090099542e-12 	101324.9999999922
0.5242742742742736 	299.9999999999567 	3.559261709198749e-12 	101324.999999992
0.5267767767767763 	299.9999999999713 	2.140409366200068e-12 	101324.9999999918
0.5292792792792789 	299.9999999999553 	2.315313893040314e-12 	101324.9999999917
0.5317817817817813 	299.999999999928 	1.256920039304156e-12 	101324.9999999919
0.5342842842842837 	300.0000000000119 	2.122738854698235e-12 	101324.9999999919
0.5367867867867864 	300.0000000000005 	1.634597612486122e-12 	101324.9999999921
0.5392892892892888 	299.9999999999659 	2.321876624574775e-12 	101324.9999999923
0.5417917917917912 	300.0000000000011 	1.223578164984394e-12 	101324.9999999923
0.5442942942942938 	299.9999999999868 	1.825679062775782e-12 	101324.9999999926
0.5467967967967964 	299.9999999999557 	1.184357551876248e-12 	101324.9999999925
0.5492992992992988 	299.9999999999529 	1.553457947412746e-12 	101324.9999999926
0.5518018018018012 	299.9999999999525 	7.950473271005446e-13 	101324.9999999928
0.5543043043043039 	300.0000000000163 	1.655308530446476e-12 	101324.9999999928
0.5568068068068063 	299.9999999999914 	1.282622923832844e-12 	101324.9999999925
0.5593093093093087 	299.9999999999262 	2.222902199830223e-12 	101324.9999999925
0.5618118118118114 	299.9999999999699 	6.954272253710053e-13 	101324.9999999924
0.5643143143143137 	299.999999999953 	1.909923841558349e-12 	101324.9999999923
0.5668168168168163 	299.999999999991 	1.099596835088008e-12 	101324.9999999924
0.5693193193193188 	300.0000000000254 	2.1420811202542e-12 	101324.9999999924
0.5718218218218213 	300.0000000000202 	2.832828558133844e-12 	101324.9999999925
0.5743243243243239 	300.0000000000036 	2.583227611101054e-12 	101324.9999999924
0.5768268268268262 	300.000000000004 	3.379770187231821e-12 	101324.9999999925
0.5793293293293288 	299.9999999999569 	1.32112222561266e-12 	101324.9999999926
0.5818318318318314 	299.9999999999346 	3.982722002650975e-12 	101324.9999999925
0.5843343343343338 	299.9999999999854 	2.378217527479368e-12 	101324.9999999924
0.5868368368368363 	299.9999999999811 	3.069188318312633e-12 	101324.9999999923
0.5893393393393387 	299.9999999999615 	1.111788464564546e-12 	101324.9999999921
0.5918418418418413 	299.9999999999565 	2.301277805243155e-12 	101324.999999992
0.5943443443443439 	300.0000000000143 	9.677734615015516e-13 	101324.9999999921
0.5968468468468463 	300.0000000000136 	2.076885231482146e-12 	101324.9999999922
0.5993493493493487 	300.0000000000319 	1.336280372544012e-12 	101324.9999999924
0.6018518518518514 	299.9999999999862 	1.840009272502335e-12 	101324.9999999926
0.6043543543543537 	299.9999999999956 	9.364036589100247e-13 	101324.9999999928
0.6068568568568564 	299.9999999999862 	2.141757037391245e-12 	101324.9999999925
0.6093593593593587 	299.9999999999475 	2.144798982455665e-12 	101324.9999999924
0.6118618618618614 	299.9999999999404 	2.512128999335755e-12 	101324.9999999923
0.6143643643643638 	300.0000000000132 	1.896966446043243e-12 	101324.9999999926
0.6168668668668662 	299.9999999999882 	3.119066188207855e-12 	101324.9999999927
0.6193693693693688 	299.9999999999677 	1.856020386547737e-12 	101324.9999999928
0.6218718718718714 	299.9999999999742 	3.12092884523485e-12 	101324.999999993
0.6243743743743737 	299.999999999949 	6.574179274532706e-13 	101324.999999993
0.6268768768768762 	299.9999999999393 	1.546672067969193e-12 	101324.999999993
0.629379379379379 	299.9999999999605 	5.331449781702106e-13 	101324.9999999931
0.6318818818818812 	299.9999999999786 	3.959203478819714e-13 	101324.9999999929
0.6343843843843838 	300.0000000000155 	7.730879795720801e-13 	101324.9999999929
0.6368868868868864 	299.9999999999886 	1.523980053584746e-12 	101324.9999999928
0.6393893893893888 	299.9999999999388 	1.894252055389099e-12 	101324.9999999928
0.6418918918918912 	300.000000000003 	2.750477645424188e-12 	101324.9999999926
0.6443943943943939 	299.9999999999869 	3.838314586964749e-12 	101324.9999999925
0.6468968968968963 	299.9999999999896 	2.82572680288226e-12 	101324.9999999926
0.6493993993993988 	299.9999999999824 	3.358549725037945e-12 	101324.9999999925
0.6519019019019012 	299.9999999999823 	1.972105160148904e-12 	101324.9999999928
0.6544044044044038 	299.9999999999235 	3.148148639686089e-12 	101324.9999999929
0.6569069069069065 	299.9999999999624 	1.708988761293474e-12 	101324.9999999929
0.6594094094094087 	299.9999999999677 	2.056997997970059e-12 	101324.999999993
0.6619119119119113 	299.9999999999624 	1.281995845329556e-12 	101324.9999999932
0.664414414414414 	300.0000000000049 	1.253190974803532e-12 	101324.9999999935
0.6669169169169162 	300.000000000008 	1.010066172181918e-12 	101324.9999999934
0.6694194194194188 	299.9999999999825 	1.139174382805529e-12 	101324.9999999935
0.6719219219219214 	299.9999999999389 	5.868130214627921e-13 	101324.9999999934
0.674424424424424 	299.9999999999796 	7.048569389852704e-13 	101324.9999999935
0.6769269269269262 	299.9999999999334 	7.451554403371577e-13 	101324.9999999934
0.679429429429429 	299.9999999999999 	5.30940946166934e-13 	101324.9999999934
0.6819319319319311 	299.999999999977 	9.943361537060266e-13 	101324.9999999933
0.6844344344344341 	299.9999999999921 	7.871868925712284e-13 	101324.9999999932
0.686936936936936 	299.999999999994 	6.788105574232952e-13 	101324.999999993
0.6894394394394392 	299.9999999999986 	4.763861219649301e-13 	101324.999999993
0.6919419419419413 	299.9999999999899 	2.495571942709707e-13 	101324.9999999931
0.694444444444444 	299.9999999999512 	4.328676300549236e-13 	101324.9999999932
0.6969469469469463 	299.9999999999431 	8.204469561512337e-13 	101324.9999999933
0.6994494494494489 	299.9999999999382 	7.855126349914678e-13 	101324.9999999934
0.7019519519519515 	299.9999999999886 	1.718003786861044e-12 	101324.9999999936
0.7044544544544538 	299.9999999999621 	1.468513842301469e-12 	101324.9999999936
0.7069569569569564 	299.9999999999958 	2.522456277272568e-12 	101324.9999999939
0.7094594594594589 	299.9999999999728 	1.682276965180293e-12 	101324.999999994
0.7119619619619615 	299.9999999999309 	1.204009088773939e-12 	101324.9999999941
0.7144644644644638 	299.9999999999626 	1.252350837733882e-12 	101324.9999999942
0.7169669669669665 	299.9999999999384 	5.932203036857067e-13 	101324.9999999942
0.7194694694694688 	299.9999999999891 	1.003225455843182e-12 	101324.9999999943
0.7219719719719715 	299.9999999999873 	9.450745099641767e-14 	101324.9999999942
0.7244744744744737 	300.0000000000033 	4.707671611491198e-13 	101324.9999999942
0.7269769769769764 	299.9999999999969 	1.047924156022545e-12 	101324.9999999941
0.7294794794794791 	299.9999999999893 	1.304765337580755e-12 	101324.999999994
0.7319819819819813 	299.999999999987 	1.174765892498927e-12 	101324.999999994
0.7344844844844839 	299.9999999999407 	6.616969470330316e-13 	101324.9999999939
0.7369869869869864 	299.9999999999637 	8.143230218813861e-13 	101324.999999994
0.739489489489489 	299.9999999999523 	6.944411719632401e-13 	101324.999999994
0.7419919919919914 	299.9999999999396 	1.056573972866602e-12 	101324.9999999941
0.7444944944944939 	299.9999999999785 	2.417535542091882e-12 	101324.9999999941
0.7469969969969963 	299.9999999999712 	1.84908755700637e-12 	101324.999999994
0.7494994994994989 	299.9999999999519 	2.534607830102564e-12 	101324.999999994
0.7520020020020015 	299.9999999999754 	2.361151358195354e-12 	101324.9999999941
0.7545045045045039 	299.9999999999746 	1.999743247012411e-12 	101324.9999999941
0.7570070070070062 	299.9999999999534 	1.182204375387679e-12 	101324.9999999939
0.7595095095095092 	299.9999999999407 	1.35386589625649e-12 	101324.9999999937
0.7620120120120112 	300.0000000000017 	5.027757235628773e-13 	101324.9999999936
0.7645145145145138 	299.9999999999906 	6.112986742670766e-13 	101324.9999999936
0.7670170170170165 	299.9999999999506 	1.269119874198893e-12 	101324.9999999937
0.7695195195195191 	299.9999999999385 	1.541655144371926e-12 	101324.999999994
0.7720220220220213 	299.999999999946 	1.870459109588288e-12 	101324.999999994
0.7745245245245239 	299.99999999995 	1.675961419583735e-12 	101324.9999999941
0.7770270270270263 	299.9999999999864 	9.830329173332777e-13 	101324.9999999941
0.779529529529529 	299.9999999999849 	9.650548233624921e-13 	101324.9999999941
0.7820320320320313 	299.9999999999778 	1.621936220168284e-12 	101324.9999999942
0.784534534534534 	299.9999999999991 	1.60081034932557e-12 	101324.9999999942
0.7870370370370364 	299.9999999999992 	1.416331608070237e-12 	101324.9999999942
0.7895395395395389 	299.9999999999949 	2.330312578074497e-12 	101324.9999999942
0.7920420420420413 	299.9999999999792 	1.46320886434437e-12 	101324.9999999942
0.794544544544544 	299.9999999999718 	2.839763900126595e-12 	101324.9999999943
0.7970470470470463 	300.0000000000022 	2.344318734400699e-12 	101324.9999999944
0.799549549549549 	299.9999999999865 	2.369015992689617e-12 	101324.9999999945
0.8020520520520515 	299.9999999999912 	1.759350989099337e-12 	101324.9999999944
0.8045545545545539 	299.9999999999587 	1.262705941640151e-12 	101324.9999999945
0.8070570570570563 	299.9999999999826 	5.399809892643976e-13 	101324.9999999943
0.8095595595595589 	299.9999999999642 	1.526213860891685e-12 	101324.9999999941
0.8120620620620614 	299.9999999999501 	2.093807724461383e-12 	101324.999999994
0.8145645645645638 	299.9999999999974 	2.560625378417106e-12 	101324.9999999939
0.8170670670670666 	299.9999999999944 	3.43396131399035e-12 	101324.9999999938
0.8195695695695689 	299.9999999999839 	2.366039997804948e-12 	101324.9999999937
0.8220720720720714 	299.9999999999588 	3.874613064409085e-12 	101324.9999999935
0.8245745745745739 	299.999999999996 	2.20495923225771e-12 	101324.9999999935
0.8270770770770765 	299.999999999976 	3.798512065352535e-12 	101324.9999999937
0.8295795795795788 	299.9999999999607 	2.884946458131879e-12 	101324.9999999939
0.8320820820820815 	300.0000000000123 	3.2264014738406e-12 	101324.999999994
0.834584584584584 	300.0000000000042 	2.14465050293881e-12 	101324.9999999939
0.8370870870870865 	299.9999999999768 	1.902163155848588e-12 	101324.9999999938
0.8395895895895891 	299.9999999999418 	2.777671164054872e-12 	101324.9999999938
0.8420920920920915 	299.999999999954 	2.424045412110426e-12 	101324.9999999938
0.844594594594594 	299.9999999999528 	2.57679282140912e-12 	101324.999999994
0.8470970970970964 	299.999999999966 	2.40235980201744e-12 	101324.9999999942
0.8495995995995991 	299.999999999987 	2.251313940703863e-12 	101324.9999999942
0.8521021021021015 	299.9999999999836 	2.688506321969676e-12 	101324.9999999943
0.8546046046046039 	299.9999999999874 	2.241215423938078e-12 	101324.9999999943
0.8571071071071066 	300.0000000000019 	3.256134328344196e-12 	101324.9999999944
0.8596096096096089 	299.9999999999686 	1.733167841989494e-12 	101324.9999999945
0.8621121121121116 	299.9999999999458 	3.688429857582029e-12 	101324.9999999946
0.8646146146146139 	299.9999999999949 	2.134794042161082e-12 	101324.9999999948
0.8671171171171166 	299.9999999999799 	3.507511373680102e-12 	101324.9999999949
0.8696196196196189 	299.9999999999575 	2.856380435237527e-12 	101324.9999999948
0.8721221221221216 	299.9999999999779 	3.65608659719647e-12 	101324.9999999948
0.874624624624624 	299.9999999999999 	3.576505194574417e-12 	101324.9999999948
0.8771271271271264 	299.999999999998 	3.501042112078645e-12 	101324.9999999946
0.879629629629629 	300.0000000000035 	4.31887905600648e-12 	101324.9999999943
0.8821321321321317 	299.9999999999853 	3.401123812417539e-12 	101324.9999999944
0.8846346346346339 	299.9999999999357 	5.575422682187625e-12 	101324.9999999944
0.8871371371371364 	299.9999999999659 	4.027554185948309e-12 	101324.9999999942
0.8896396396396391 	299.9999999999728 	5.489515256401139e-12 	101324.9999999943
0.8921421421421414 	299.9999999999702 	4.448473539090122e-12 	101324.9999999943
0.8946446446446441 	299.9999999999857 	4.919396033953767e-12 	101324.9999999944
0.8971471471471464 	299.9999999999979 	4.571689475892445e-12 	101324.9999999943
0.8996496496496489 	299.9999999999855 	5.055274249034127e-12 	101324.9999999944
0.9021521521521517 	299.9999999999773 	6.394922441965171e-12 	101324.9999999945
0.9046546546546541 	299.9999999999971 	5.827151494559007e-12 	101324.9999999945
0.9071571571571564 	299.9999999999653 	6.257290922344909e-12 	101324.9999999946
0.9096596596596589 	299.9999999999609 	6.034590534089974e-12 	101324.9999999947
0.9121621621621616 	300.0000000000012 	5.968787801951496e-12 	101324.9999999947
0.9146646646646639 	299.9999999999825 	5.740214799842618e-12 	101324.9999999946
0.9171671671671666 	299.9999999999645 	5.285306564245825e-12 	101324.9999999947
0.9196696696696689 	300.0000000000051 	5.651469948659752e-12 	101324.9999999948
0.9221721721721714 	299.9999999999958 	4.589702757183803e-12 	101324.9999999948
0.9246746746746741 	299.9999999999536 	6.6117500768371e-12 	101324.9999999947
0.9271771771771765 	299.999999999964 	4.725733449298607e-12 	101324.9999999946
0.9296796796796791 	299.9999999999933 	6.307650045593669e-12 	101324.9999999944
0.9321821821821816 	299.9999999999748 	5.308759624368272e-12 	101324.9999999942
0.9346846846846838 	299.9999999999598 	6.486017520749898e-12 	101324.9999999942
0.9371871871871866 	300.0000000000074 	6.079340525816282e-12 	101324.9999999942
0.9396896896896891 	300.0000000000066 	6.017430268229053e-12 	101324.9999999943
0.9421921921921914 	300.0000000000041 	6.467189890891324e-12 	101324.9999999944
0.9446946946946939 	299.9999999999767 	5.718343615638638e-12 	101324.9999999946
0.9471971971971965 	299.9999999999444 	7.700963416755212e-12 	101324.9999999945
0.9496996996996991 	299.9999999999711 	6.156121048097281e-12 	101324.9999999944
0.9522022022022016 	299.9999999999842 	7.561869950052715e-12 	101324.9999999944
0.9547047047047038 	299.999999999981 	7.189226040530398e-12 	101324.9999999946
0.9572072072072064 	299.9999999999687 	8.220503888787409e-12 	101324.9999999944
0.9597097097097093 	299.9999999999706 	8.075356464923465e-12 	101324.9999999945
0.9622122122122114 	299.9999999999679 	7.759471149000305e-12 	101324.9999999948
0.964714714714714 	299.9999999999637 	8.435562552161527e-12 	101324.9999999948
0.9672172172172167 	299.9999999999656 	7.810226012182152e-12 	101324.9999999947
0.969719719719719 	299.9999999999852 	8.612429210273444e-12 	101324.9999999947
0.9722222222222214 	299.9999999999825 	8.225442951023654e-12 	101324.9999999947
0.9747247247247239 	299.9999999999793 	8.209029193908707e-12 	101324.9999999949
0.9772272272272267 	300.0000000000026 	7.954247874674268e-12 	101324.9999999951
0.9797297297297292 	299.9999999999893 	7.534836066861114e-12 	101324.9999999954
0.9822322322322313 	299.9999999999952 	8.046130162177056e-12 	101324.9999999956
0.9847347347347344 	299.9999999999928 	6.871668525594824e-12 	101324.9999999956
0.9872372372372363 	299.9999999999599 	8.752607203685608e-12 	101324.9999999955
0.9897397397397389 	299.9999999999734 	6.733160741153915e-12 	101324.9999999955
0.9922422422422417 	299.9999999999625 	8.889775691515012e-12 	101324.9999999955
0.9947447447447441 	299.9999999999742 	8.304440224065938e-12 	101324.9999999954
0.9972472472472468 	299.999999999979 	9.526430911312462e-12 	101324.9999999953
0.999749749749749 	299.9999999999729 	9.148116432663204e-12 	101324.9999999953
1.002252252252252 	299.9999999999778 	9.439224352846324e-12 	101324.9999999953
1.004754754754754 	299.9999999999895 	9.493993686121232e-12 	101324.9999999954
1.007257257257256 	299.9999999999766 	9.121999724361126e-12 	101324.9999999956
1.009759759759759 	299.999999999972 	1.102662799003156e-11 	101324.9999999958
1.012262262262261 	299.9999999999706 	9.73837513940047e-12 	101324.9999999959
1.014764764764764 	299.9999999999488 	1.137673888711028e-11 	101324.9999999961
1.017267267267267 	299.9999999999408 	1.08646332897282e-11 	101324.999999996
1.019769769769769 	299.9999999999798 	1.158219754263061e-11 	101324.999999996
1.022272272272272 	299.9999999999889 	1.128277468082729e-11 	101324.999999996
1.024774774774774 	299.9999999999858 	1.160711417136449e-11 	101324.999999996
1.027277277277277 	299.9999999999824 	1.259699181524692e-11 	101324.9999999958
1.029779779779779 	300.0000000000053 	1.183241397192179e-11 	101324.9999999958
1.032282282282282 	300.0000000000063 	1.254815588207235e-11 	101324.9999999958
1.034784784784784 	299.9999999999991 	1.178504103015816e-11 	101324.9999999957
1.037287287287286 	299.9999999999733 	1.154647952091514e-11 	101324.9999999956
1.039789789789789 	299.9999999999762 	1.086258918801145e-11 	101324.9999999957
1.042292292292291 	300.000000000004 	1.084630760240975e-11 	101324.9999999958
1.044794794794794 	300.0000000000181 	1.106872996625432e-11 	101324.9999999958
1.047297297297296 	300.0000000000325 	1.023821807466408e-11 	101324.999999996
1.049799799799799 	299.999999999994 	1.134627181815028e-11 	101324.999999996
1.052302302302302 	299.999999999966 	9.714782119046191e-12 	101324.9999999961
1.054804804804804 	299.9999999999502 	1.143926006076443e-11 	101324.9999999963
1.057307307307306 	299.999999999938 	1.091729234612201e-11 	101324.9999999964
1.059809809809809 	299.999999999968 	1.181905995331589e-11 	101324.9999999964
1.062312312312312 	299.9999999999655 	1.099951531932283e-11 	101324.9999999964
1.064814814814814 	299.9999999999638 	1.115076222323758e-11 	101324.9999999964
1.067317317317317 	299.9999999999451 	1.073397930290238e-11 	101324.9999999964
1.069819819819819 	299.9999999999472 	1.056526288672055e-11 	101324.9999999964
1.072322322322321 	299.999999999998 	1.19243303234778e-11 	101324.9999999964
1.074824824824824 	300.0000000000108 	1.032342775049528e-11 	101324.9999999964
1.077327327327327 	300.0000000000241 	1.16404685040283e-11 	101324.9999999964
1.079829829829829 	300.000000000033 	1.055084468960147e-11 	101324.9999999966
1.082332332332332 	300.0000000000081 	1.097401671937069e-11 	101324.9999999967
1.084834834834834 	299.9999999999875 	1.037913582959294e-11 	101324.9999999967
1.087337337337337 	299.999999999957 	1.049245667085349e-11 	101324.9999999966
1.089839839839839 	299.9999999999471 	1.168928161037262e-11 	101324.9999999965
1.092342342342342 	299.9999999999756 	1.052126192889176e-11 	101324.9999999966
1.094844844844844 	299.999999999975 	1.136879242153028e-11 	101324.9999999967
1.097347347347347 	299.9999999999529 	1.036403292886873e-11 	101324.9999999967
1.099849849849849 	299.9999999999444 	1.265150223032786e-11 	101324.9999999967
1.102352352352352 	299.9999999999656 	1.063718910036369e-11 	101324.999999997
1.104854854854854 	299.9999999999809 	1.222245321276464e-11 	101324.9999999972
1.107357357357357 	299.999999999969 	1.102570129026432e-11 	101324.9999999972
1.109859859859859 	299.9999999999658 	1.252105465517879e-11 	101324.9999999971
1.112362362362362 	300.0000000000152 	1.169113522432627e-11 	101324.9999999971
1.114864864864865 	300.0000000000147 	1.177258070204578e-11 	101324.9999999971
1.117367367367367 	299.9999999999767 	1.30677117296718e-11 	101324.9999999971
1.119869869869869 	299.9999999999473 	1.294187803270253e-11 	101324.9999999971
1.122372372372372 	299.9999999999708 	1.485077421500902e-11 	101324.999999997
1.124874874874874 	299.9999999999661 	1.370610690234206e-11 	101324.9999999969
1.127377377377377 	299.9999999999721 	1.434443868417784e-11 	101324.9999999969
1.129879879879879 	300.0000000000161 	1.342222783647764e-11 	101324.999999997
1.132382382382382 	300.0000000000285 	1.346829140252321e-11 	101324.999999997
1.134884884884884 	300.0000000000045 	1.245760794254232e-11 	101324.9999999968
1.137387387387387 	300.0000000000099 	1.204299052424555e-11 	101324.9999999966
1.139889889889889 	299.9999999999715 	1.313480414219041e-11 	101324.9999999967
1.142392392392392 	299.9999999999641 	1.251313994512494e-11 	101324.9999999968
1.144894894894894 	300.0000000000093 	1.399417176969005e-11 	101324.999999997
1.147397397397397 	299.9999999999928 	1.299109933713488e-11 	101324.9999999972
1.149899899899899 	299.9999999999491 	1.388456142509521e-11 	101324.9999999972
1.152402402402402 	299.9999999999443 	1.385575493752792e-11 	101324.9999999971
1.154904904904904 	299.9999999999725 	1.469519534260278e-11 	101324.9999999974
1.157407407407407 	299.9999999999726 	1.381484727757638e-11 	101324.9999999976
1.159909909909909 	299.9999999999521 	1.383898953026773e-11 	101324.9999999978
1.162412412412412 	299.9999999999498 	1.536922159110211e-11 	101324.9999999981
1.164914914914914 	299.9999999999671 	1.386183277357386e-11 	101324.999999998
1.167417417417417 	299.9999999999713 	1.462495613000293e-11 	101324.9999999978
1.169919919919919 	300.0000000000127 	1.349052571354156e-11 	101324.9999999978
1.172422422422422 	300.0000000000341 	1.467094178673946e-11 	101324.9999999978
1.174924924924925 	299.999999999993 	1.415340051597373e-11 	101324.9999999981
1.177427427427427 	299.9999999999676 	1.51056628004602e-11 	101324.9999999982
1.179929929929929 	300.0000000000069 	1.62291582334505e-11 	101324.9999999982
1.182432432432432 	300.0000000000294 	1.486720830777982e-11 	101324.9999999983
1.184934934934934 	300.0000000000006 	1.604400924414526e-11 	101324.9999999985
1.187437437437437 	299.9999999999778 	1.534818824816273e-11 	101324.9999999985
1.189939939939939 	299.999999999974 	1.63879944178299e-11 	101324.9999999983
1.192442442442442 	299.9999999999503 	1.573009006533828e-11 	101324.9999999983
1.194944944944944 	299.999999999951 	1.674846821865706e-11 	101324.9999999985
1.197447447447447 	299.9999999999943 	1.611346373272904e-11 	101324.9999999986
1.199949949949949 	300.0000000000084 	1.631276481672637e-11 	101324.9999999987
1.202452452452452 	299.9999999999678 	1.725104822276885e-11 	101324.999999999
1.204954954954955 	299.9999999999625 	1.62887767262631e-11 	101324.999999999
1.207457457457457 	299.9999999999823 	1.7169781457522e-11 	101324.9999999991
1.20995995995996 	299.9999999999765 	1.573859288184951e-11 	101324.9999999992
1.212462462462462 	299.9999999999887 	1.616221665674401e-11 	101324.9999999992
1.214964964964964 	299.9999999999907 	1.53811870879298e-11 	101324.9999999993
1.217467467467467 	299.9999999999839 	1.66899957248184e-11 	101324.9999999994
1.219969969969969 	299.9999999999759 	1.596950699168796e-11 	101324.9999999994
1.222472472472472 	300.0000000000156 	1.609332424809822e-11 	101324.9999999992
1.224974974974975 	300.0000000000334 	1.626879763388815e-11 	101324.999999999
1.227477477477477 	299.9999999999961 	1.468823950281784e-11 	101324.999999999
1.229979979979979 	299.9999999999865 	1.603133605082871e-11 	101324.9999999989
1.232482482482482 	299.999999999964 	1.547539715376644e-11 	101324.9999999988
1.234984984984984 	299.9999999999629 	1.716445943777569e-11 	101324.9999999988
1.237487487487487 	299.9999999999782 	1.611894029583542e-11 	101324.9999999987
1.239989989989989 	299.9999999999777 	1.705814507780093e-11 	101324.9999999987
1.242492492492492 	300.0000000000011 	1.739134894613625e-11 	101324.9999999988
1.244994994994994 	299.9999999999792 	1.587467471227944e-11 	101324.9999999988
1.247497497497497 	299.9999999999895 	1.676175425693548e-11 	101324.999999999
1.249999999999999 	300.0000000001837 	1.581037147884063e-11 	101324.9999999991
