-1.25 	300 	0 	101370.2413526233
-1.247497497497497 	300.0269031726607 	1.586993573286908 	101358.8958472279
-1.244994994994995 	300.0361596753026 	1.406628277229416 	101369.1109859055
-1.242492492492492 	300.0282420401513 	1.241606849672895 	101359.2249977908
-1.23998998998999 	300.0350074030899 	1.088257623908201 	101367.2204570569
-1.237487487487487 	300.028650984294 	0.9431251165573011 	101359.338738352
-1.234984984984985 	300.0341341026862 	0.8108551607970704 	101365.8362111739
-1.232482482482482 	300.0288004850623 	0.6867736142025096 	101359.2828816478
-1.22997997997998 	300.0332899023051 	0.5767790339930007 	101364.6162870555
-1.227477477477477 	300.0288516119006 	0.4731507499725157 	101359.2096751587
-1.224974974974975 	300.0323213990044 	0.3849127860151349 	101363.3403992304
-1.222472472472472 	300.0287888649424 	0.3017354580765285 	101359.06812194
-1.21996996996997 	300.0312888136796 	0.234506203492432 	101362.0489722356
-1.217467467467467 	300.0285305404416 	0.1706993814608684 	101358.73534831
-1.214964964964965 	300.0302754819245 	0.1234241701664972 	101360.8164873423
-1.212462462462462 	300.0282674205295 	0.100309005099766 	101358.4177278431
-1.20995995995996 	300.0292878877455 	0.07074294100362188 	101359.634043831
-1.207457457457457 	300.0279915766148 	0.09113003028722319 	101358.0929824184
-1.204954954954955 	300.0282782522643 	0.07590679818378829 	101358.4349704058
-1.202452452452452 	300.0276253287112 	0.0816318799304379 	101357.661792362
-1.19994994994995 	300.0272754068754 	0.07894202176022855 	101357.2484737633
-1.197447447447447 	300.0268953652437 	0.07789683445929306 	101356.799089453
-1.194944944944945 	300.0265134418575 	0.07679224181598253 	101356.3474822612
-1.192442442442442 	300.0261315643845 	0.07568597930855728 	101355.8959307333
-1.18993993993994 	300.0257493489595 	0.07457835179351124 	101355.4439811386
-1.187437437437437 	300.025365195806 	0.07346504877766201 	101354.9897418836
-1.184934934934935 	300.024977342997 	0.07234124914401764 	101354.5311295779
-1.182432432432432 	300.0245846442448 	0.07120376762401695 	101354.0667887838
-1.17992992992993 	300.0241869063138 	0.07005191522570094 	101353.5964910304
-1.177427427427427 	300.0237845973101 	0.06888694197145878 	101353.1207898408
-1.174924924924925 	300.023378520549 	0.06771099382794876 	101352.6406350729
-1.172422422422422 	300.0229693350129 	0.06652585152479661 	101352.156805998
-1.16991991991992 	300.0225572523735 	0.06533226200739001 	101351.6695530208
-1.167417417417417 	300.0221423105954 	0.06413033399622867 	101351.178921047
-1.164914914914915 	300.0217244450399 	0.06292003593217169 	101350.6848336402
-1.162412412412412 	300.0213038930004 	0.06170221848210559 	101350.1875713923
-1.15990990990991 	300.0208815161783 	0.06047901376655264 	101349.6881532057
-1.157407407407407 	300.0204579513965 	0.0592520739799073 	101349.1873321103
-1.154904904904904 	300.0200330755749 	0.05802103347276746 	101348.6849626999
-1.152402402402403 	300.0196059001216 	0.05678289391153894 	101348.1798761945
-1.1498998998999 	300.0191743809247 	0.05553225792988616 	101347.6696556793
-1.147397397397397 	300.018736764153 	0.05426470061330352 	101347.1522273903
-1.144894894894895 	300.0182931893297 	0.05298044698376031 	101346.6277562481
-1.142392392392392 	300.0178453843818 	0.05168436138106169 	101346.0982852683
-1.13988988988989 	300.0173962784048 	0.05038486298480834 	101345.567277633
-1.137387387387387 	300.0169495888381 	0.04909171879681068 	101345.0391288198
-1.134884884884885 	300.0165072702864 	0.04780972548824049 	101344.5161501387
-1.132382382382382 	300.0160673871633 	0.04653380950399258 	101343.9960532391
-1.12987987987988 	300.0156253697581 	0.04525159046055395 	101343.4734352497
-1.127377377377377 	300.0151762580977 	0.04394918378854307 	101342.9424317305
-1.124874874874875 	300.0147162333978 	0.0426164824368741 	101342.3985274163
-1.122372372372372 	300.0142451670486 	0.04125408150474601 	101341.841569928
-1.11986986986987 	300.0137689180978 	0.03987814973418587 	101341.2784863372
-1.117367367367367 	300.0132970814882 	0.03851387673328562 	101340.7206211035
-1.114864864864865 	300.012836196782 	0.03717800460070127 	101340.175706638
-1.112362362362362 	300.012384068688 	0.03586450534272752 	101339.6411479888
-1.10985985985986 	300.0119307580395 	0.03454762671138286 	101339.1051940937
-1.107357357357357 	300.0114665933355 	0.03320274315995623 	101338.5564097341
-1.104854854854855 	300.0109908870589 	0.03182818541907662 	101337.993981385
-1.102352352352353 	300.0105126144842 	0.03044645470229109 	101337.4285203315
-1.09984984984985 	300.0100413946302 	0.02908175195932192 	101336.8713995264
-1.097347347347347 	300.009578158745 	0.02773704329739922 	101336.3237206115
-1.094844844844845 	300.0091158274931 	0.02639544594741045 	101335.7771139098
-1.092342342342342 	300.0086485091723 	0.02504238987942489 	101335.2246133092
-1.08983983983984 	300.0081778613081 	0.02368127911951554 	101334.6681780681
-1.087337337337337 	300.0077095975745 	0.02232551435007306 	101334.1145634044
-1.084834834834835 	300.0072455378537 	0.0209794947166272 	101333.5659213283
-1.082332332332332 	300.0067814115606 	0.01963322512526809 	101333.017203016
-1.07982982982983 	300.0063129071139 	0.01827695823032358 	101332.4633106925
-1.077327327327327 	300.0058426246141 	0.0169181355150754 	101331.9073178303
-1.074824824824825 	300.0053797540407 	0.01558036260794722 	101331.3600891409
-1.072322322322323 	300.0049322571002 	0.01428362615683624 	101330.8310377288
-1.06981981981982 	300.0044989130922 	0.01302398682333392 	101330.3187211056
-1.067317317317317 	300.0040683629533 	0.01177106209337767 	101329.8097105927
-1.064814814814815 	300.0036259027646 	0.01048587378744001 	101329.2866224563
-1.062312312312312 	300.0031631206925 	0.009146561641086525 	101328.7395111978
-1.05980980980981 	300.0026843668356 	0.007765782703031852 	101328.173518723
-1.057307307307307 	300.0022065918025 	0.006390314641264428 	101327.6086837312
-1.054804804804805 	300.0017530750781 	0.005084546023062217 	101327.0725273085
-1.052302302302302 	300.0013452869282 	0.003908794390070748 	101326.5904318976
-1.0497997997998 	300.0009974929209 	0.002903975826405118 	101326.1792624902
-1.047297297297297 	300.0007152430047 	0.002086607540305408 	101325.8455803496
-1.044794794794795 	300.0004965119868 	0.00145160596612804 	101325.5869913492
-1.042292292292292 	300.0003340951406 	0.0009788921814584107 	101325.3949779934
-1.03978978978979 	300.0002181808276 	0.0006406657340535213 	101325.257940879
-1.037287287287287 	300.0001384519021 	0.0004074387737151523 	101325.1636829332
-1.034784784784785 	300.0000854720315 	0.000252075232676222 	101325.1010483825
-1.032282282282283 	300.0000513890272 	0.0001518835899785406 	101325.0607542439
-1.02977977977978 	300.0000301221951 	8.921775177029845e-05 	101325.0356117853
-1.027277277277277 	300.0000172302298 	5.114100388863026e-05 	101325.0203704022
-1.024774774774775 	300.0000096266388 	2.863219044085877e-05 	101325.0113811093
-1.022272272272272 	300.0000052577674 	1.567006029188317e-05 	101325.0062160204
-1.01976976976977 	300.0000028093722 	8.389893756673717e-06 	101325.003321407
-1.017267267267267 	300.0000014696418 	4.397726906784577e-06 	101325.0017375201
-1.014764764764765 	300.0000007531936 	2.25830112150009e-06 	101325.0008904943
-1.012262262262262 	300.0000003784206 	1.136825330882455e-06 	101325.0004474064
-1.00975975975976 	300.0000001864926 	5.61337731722218e-07 	101325.0002204966
-1.007257257257257 	300.000000090199 	2.72029583194077e-07 	101325.0001066531
-1.004754754754755 	300.0000000428502 	1.294500781124021e-07 	101325.0000506574
-1.002252252252252 	300.0000000199932 	6.052000841588735e-08 	101325.0000236387
-0.9997497497497498 	300.0000000091663 	2.781061478175013e-08 	101325.000010842
-0.9972472472472473 	300.0000000041343 	1.256763564200073e-08 	101325.0000048895
-0.9947447447447449 	300.0000000018201 	5.587207534620513e-09 	101325.0000021686
-0.9922422422422421 	300.0000000007908 	2.44561270621433e-09 	101325.000000946
-0.9897397397397399 	300.0000000003367 	1.053415834465907e-09 	101325.0000004055
-0.9872372372372376 	300.0000000001389 	4.477008310664139e-10 	101325.0000001703
-0.9847347347347346 	300.0000000000429 	1.871284243666903e-10 	101325.0000000696
-0.9822322322322323 	300.0000000000088 	7.782102592885226e-11 	101325.0000000271
-0.9797297297297296 	300.0000000000017 	3.205515701822957e-11 	101325.0000000095
-0.9772272272272275 	300.0000000000016 	1.315162414605304e-11 	101325.0000000023
-0.9747247247247248 	300.0000000000051 	5.913579264823989e-12 	101324.9999999995
-0.9722222222222224 	299.9999999999824 	2.754320457154794e-12 	101324.9999999983
-0.9697197197197196 	299.9999999999765 	1.559544753956037e-12 	101324.9999999978
-0.9672172172172175 	299.9999999999798 	9.324060984921905e-13 	101324.9999999977
-0.9647147147147147 	299.9999999999856 	5.434481935403726e-13 	101324.9999999977
-0.9622122122122124 	299.9999999999884 	7.566022734780015e-13 	101324.9999999974
-0.9597097097097099 	299.9999999999924 	6.512150442600947e-13 	101324.9999999974
-0.9572072072072073 	299.9999999999887 	4.451700392045467e-13 	101324.9999999974
-0.9547047047047047 	300.0000000000009 	6.874133738832659e-13 	101324.9999999974
-0.9522022022022023 	299.9999999999953 	8.53938935318229e-13 	101324.9999999974
-0.9496996996996998 	299.9999999999933 	1.086624652104197e-12 	101324.9999999973
-0.9471971971971973 	299.9999999999981 	2.124166494730839e-12 	101324.9999999971
-0.9446946946946947 	299.9999999999772 	1.203095566494274e-12 	101324.9999999969
-0.9421921921921923 	299.9999999999874 	1.757450208708389e-12 	101324.9999999968
-0.93968968968969 	299.9999999999993 	1.800125514134735e-12 	101324.9999999968
-0.9371871871871872 	299.9999999999964 	2.209776550191481e-12 	101324.9999999969
-0.9346846846846848 	299.9999999999836 	2.147517471815731e-12 	101324.9999999971
-0.9321821821821823 	299.9999999999895 	1.473305099330523e-12 	101324.999999997
-0.9296796796796799 	300 	2.21714718420368e-12 	101324.999999997
-0.9271771771771771 	299.9999999999962 	1.740786646691269e-12 	101324.9999999971
-0.9246746746746748 	299.9999999999912 	2.690199015026859e-12 	101324.9999999973
-0.9221721721721724 	299.9999999999994 	1.344882933051202e-12 	101324.9999999975
-0.9196696696696698 	299.9999999999955 	1.940232666148793e-12 	101324.9999999974
-0.9171671671671672 	299.9999999999833 	1.702416829435275e-12 	101324.9999999972
-0.9146646646646649 	299.9999999999949 	1.482175503423946e-12 	101324.9999999971
-0.9121621621621623 	300.0000000000028 	1.611864552382757e-12 	101324.9999999972
-0.9096596596596597 	299.9999999999875 	1.050695360172462e-12 	101324.9999999972
-0.9071571571571573 	299.9999999999965 	7.168206189252812e-13 	101324.9999999973
-0.9046546546546547 	300.0000000000062 	7.404459979858633e-13 	101324.9999999974
-0.9021521521521524 	299.9999999999883 	1.851193257446533e-12 	101324.9999999974
-0.8996496496496498 	299.9999999999948 	1.291165333537426e-12 	101324.9999999975
-0.8971471471471473 	300.0000000000045 	1.322624537331659e-12 	101324.9999999976
-0.894644644644645 	300.0000000000019 	1.450245367027272e-12 	101324.9999999978
-0.892142142142142 	300.0000000000024 	9.564256384945909e-13 	101324.9999999977
-0.8896396396396397 	300.0000000000041 	2.210708252671886e-12 	101324.9999999976
-0.8871371371371374 	299.9999999999873 	1.216762604123157e-12 	101324.9999999975
-0.8846346346346349 	299.9999999999801 	2.498537636101912e-12 	101324.9999999976
-0.8821321321321324 	299.9999999999808 	2.240088449954643e-12 	101324.9999999976
-0.8796296296296297 	299.9999999999835 	2.662871705370825e-12 	101324.9999999975
-0.8771271271271271 	299.9999999999836 	2.240880961487046e-12 	101324.9999999975
-0.8746246246246248 	299.9999999999954 	2.48797580694605e-12 	101324.9999999976
-0.8721221221221224 	300.0000000000003 	1.569664087499162e-12 	101324.9999999976
-0.8696196196196196 	299.9999999999896 	1.730089425254246e-12 	101324.9999999976
-0.8671171171171175 	299.9999999999965 	1.101690702309094e-12 	101324.9999999976
-0.8646146146146148 	299.9999999999825 	1.424832173288833e-12 	101324.9999999976
-0.8621121121121121 	299.9999999999918 	8.499287923734348e-13 	101324.9999999977
-0.8596096096096097 	300.0000000000053 	6.790127575618624e-13 	101324.9999999976
-0.857107107107107 	299.9999999999877 	1.003247904376877e-12 	101324.9999999975
-0.8546046046046049 	299.999999999997 	1.030563905767372e-12 	101324.9999999973
-0.8521021021021022 	300.0000000000012 	9.655566081654345e-13 	101324.9999999969
-0.8495995995995997 	299.9999999999957 	1.225567471361587e-12 	101324.9999999969
-0.8470970970970974 	299.9999999999765 	6.364954576385357e-13 	101324.999999997
-0.8445945945945946 	299.9999999999835 	6.08552625463082e-13 	101324.999999997
-0.8420920920920922 	300.0000000000015 	1.21646797652825e-12 	101324.9999999969
-0.8395895895895897 	299.9999999999962 	1.599559927264301e-12 	101324.9999999969
-0.8370870870870872 	299.9999999999985 	1.648931213558901e-12 	101324.9999999969
-0.8345845845845846 	300.0000000000028 	1.544014655634986e-12 	101324.9999999971
-0.8320820820820823 	299.9999999999843 	6.720484721878047e-13 	101324.9999999972
-0.8295795795795798 	299.9999999999699 	4.298634447452762e-13 	101324.9999999974
-0.8270770770770772 	299.9999999999822 	8.603583573035562e-13 	101324.9999999975
-0.8245745745745746 	299.9999999999746 	1.00550133793045e-12 	101324.9999999977
-0.8220720720720721 	299.9999999999822 	8.541703653783137e-13 	101324.9999999979
-0.8195695695695699 	299.9999999999962 	7.648079221405882e-13 	101324.9999999979
-0.817067067067067 	299.9999999999843 	1.296889044786053e-12 	101324.9999999978
-0.8145645645645651 	299.9999999999741 	1.9915371601926e-12 	101324.9999999975
-0.8120620620620621 	299.9999999999941 	1.017621419954987e-12 	101324.9999999974
-0.8095595595595597 	300.0000000000019 	1.128249120180163e-12 	101324.9999999974
-0.8070570570570572 	299.9999999999796 	1.805134239397498e-12 	101324.9999999975
-0.8045545545545546 	299.9999999999789 	1.329888536287562e-12 	101324.9999999976
-0.8020520520520523 	299.9999999999957 	2.350399083521193e-12 	101324.9999999976
-0.7995495495495494 	300.0000000000066 	1.713444073772319e-12 	101324.9999999976
-0.7970470470470474 	299.9999999999988 	2.882066833849114e-12 	101324.9999999976
-0.7945445445445446 	300.0000000000003 	2.293651515373264e-12 	101324.9999999974
-0.7920420420420423 	300.0000000000035 	2.833127009076523e-12 	101324.9999999975
-0.7895395395395397 	300.0000000000031 	2.713005683032151e-12 	101324.9999999976
-0.7870370370370371 	299.9999999999999 	2.236323867775321e-12 	101324.9999999976
-0.7845345345345348 	299.999999999989 	2.214940601258793e-12 	101324.9999999976
-0.7820320320320323 	299.9999999999889 	1.888304900485523e-12 	101324.9999999974
-0.7795295295295296 	299.9999999999746 	2.484784831296198e-12 	101324.9999999971
-0.7770270270270272 	299.9999999999679 	2.521758501836173e-12 	101324.9999999969
-0.7745245245245247 	299.9999999999671 	2.217546648669543e-12 	101324.9999999969
-0.7720220220220222 	299.9999999999822 	1.854438497060206e-12 	101324.999999997
-0.7695195195195199 	299.999999999984 	1.646034266667335e-12 	101324.9999999971
-0.767017017017017 	299.9999999999927 	2.119271907510483e-12 	101324.999999997
-0.7645145145145147 	300.0000000000043 	2.051333264651809e-12 	101324.9999999972
-0.7620120120120122 	300.0000000000071 	2.98850347143819e-12 	101324.9999999974
-0.7595095095095097 	299.999999999976 	3.095975420835819e-12 	101324.9999999976
-0.7570070070070072 	299.9999999999769 	4.244743360311627e-12 	101324.9999999978
-0.7545045045045048 	299.9999999999951 	3.556003301214701e-12 	101324.9999999979
-0.7520020020020022 	299.9999999999872 	4.174534742299511e-12 	101324.9999999979
-0.7494994994994997 	299.9999999999841 	2.114015294768222e-12 	101324.9999999977
-0.7469969969969972 	299.9999999999966 	2.992366858503927e-12 	101324.9999999978
-0.7444944944944945 	299.9999999999947 	1.381871131435141e-12 	101324.9999999977
-0.7419919919919924 	299.9999999999956 	1.2958419252185e-12 	101324.9999999976
-0.7394894894894897 	299.9999999999845 	9.708674826543554e-13 	101324.9999999975
-0.7369869869869872 	299.999999999996 	7.438252511292598e-13 	101324.9999999974
-0.7344844844844846 	299.9999999999893 	1.436505538254313e-12 	101324.9999999972
-0.7319819819819822 	300.0000000000018 	9.179128361294571e-13 	101324.9999999973
-0.7294794794794797 	299.999999999999 	1.761009406562769e-12 	101324.9999999975
-0.7269769769769773 	300.0000000000034 	1.013636511327861e-12 	101324.9999999977
-0.7244744744744747 	300.0000000000049 	9.132387700243739e-13 	101324.9999999976
-0.721971971971972 	299.9999999999829 	1.052342165666738e-12 	101324.9999999974
-0.7194694694694695 	299.9999999999941 	1.81457293160013e-12 	101324.9999999975
-0.7169669669669674 	299.9999999999765 	1.7593808454576e-12 	101324.9999999976
-0.7144644644644647 	299.9999999999905 	1.394687821292082e-12 	101324.9999999975
-0.711961961961962 	300.0000000000032 	1.002031203122372e-12 	101324.9999999976
-0.7094594594594597 	300.0000000000027 	6.141685246426452e-13 	101324.9999999974
-0.7069569569569573 	300.0000000000073 	5.606486628891945e-13 	101324.9999999974
-0.7044544544544545 	300.0000000000106 	9.949287317202362e-13 	101324.9999999974
-0.7019519519519523 	300.0000000000015 	9.065599218024678e-13 	101324.9999999973
-0.6994494494494495 	299.9999999999745 	3.831305639840389e-13 	101324.9999999974
-0.6969469469469471 	299.9999999999803 	5.733061196414263e-13 	101324.9999999976
-0.6944444444444446 	299.9999999999877 	8.897242975214659e-13 	101324.9999999975
-0.6919419419419421 	300.0000000000095 	9.08069318306436e-13 	101324.9999999975
-0.6894394394394396 	299.9999999999972 	9.212615123209212e-13 	101324.9999999974
-0.6869369369369374 	300.000000000003 	1.080436529500422e-12 	101324.9999999973
-0.6844344344344344 	300.0000000000081 	5.280257508776465e-13 	101324.9999999974
-0.6819319319319321 	299.9999999999863 	3.369966623391955e-13 	101324.9999999974
-0.6794294294294296 	299.9999999999794 	5.74983354793354e-13 	101324.9999999974
-0.6769269269269272 	299.9999999999693 	4.569337341335933e-13 	101324.9999999973
-0.6744244244244245 	299.9999999999873 	3.544426492792107e-13 	101324.999999997
-0.6719219219219222 	299.9999999999854 	2.991246125478669e-13 	101324.9999999969
-0.6694194194194195 	299.9999999999997 	8.145863171810665e-13 	101324.9999999968
-0.6669169169169172 	300.0000000000054 	6.676606219948006e-13 	101324.9999999968
-0.6644144144144146 	299.9999999999849 	1.035129592704379e-12 	101324.9999999968
-0.661911911911912 	299.9999999999872 	8.224204731911679e-13 	101324.9999999967
-0.6594094094094097 	299.999999999991 	1.207083860288977e-12 	101324.9999999968
-0.656906906906907 	299.9999999999765 	8.897186933495729e-13 	101324.9999999968
-0.6544044044044046 	299.9999999999779 	1.665682008939844e-12 	101324.9999999969
-0.6519019019019021 	299.9999999999941 	7.885720626787671e-13 	101324.999999997
-0.6493993993993996 	300.0000000000071 	1.712972996305231e-12 	101324.9999999968
-0.6468968968968971 	300.0000000000102 	1.439087739755342e-12 	101324.9999999968
-0.6443943943943946 	299.9999999999976 	1.856093528998469e-12 	101324.9999999969
-0.6418918918918921 	299.9999999999978 	9.548832057465985e-13 	101324.9999999969
-0.6393893893893897 	299.9999999999982 	8.44978687690095e-13 	101324.9999999969
-0.6368868868868871 	299.9999999999897 	6.223311935081948e-13 	101324.9999999969
-0.6343843843843846 	299.9999999999989 	9.027049507936075e-13 	101324.999999997
-0.6318818818818821 	299.9999999999847 	1.193451280709351e-12 	101324.9999999969
-0.6293793793793795 	300 	9.78554331636632e-13 	101324.9999999968
-0.6268768768768773 	300.0000000000053 	7.481558338234041e-13 	101324.9999999967
-0.6243743743743745 	299.9999999999923 	3.720847808720185e-13 	101324.9999999968
-0.6218718718718721 	300.0000000000007 	1.363300119395103e-12 	101324.999999997
-0.6193693693693696 	299.9999999999773 	1.043582493915444e-12 	101324.9999999971
-0.6168668668668671 	299.9999999999928 	2.190352974348046e-12 	101324.9999999973
-0.6143643643643645 	300.0000000000044 	1.712458919302951e-12 	101324.9999999974
-0.6118618618618621 	299.9999999999948 	1.327975829531179e-12 	101324.9999999973
-0.6093593593593596 	299.9999999999935 	3.315626261959349e-13 	101324.9999999973
-0.6068568568568571 	299.9999999999935 	2.612111383437275e-13 	101324.9999999975
-0.6043543543543546 	299.9999999999862 	9.851643596943362e-13 	101324.9999999975
-0.6018518518518521 	299.9999999999885 	1.153580828086964e-12 	101324.9999999973
-0.5993493493493496 	299.9999999999777 	1.32279837508382e-12 	101324.9999999973
-0.5968468468468471 	299.999999999983 	8.623053804786911e-13 	101324.9999999974
-0.5943443443443446 	299.9999999999962 	1.028712710943758e-12 	101324.9999999973
-0.591841841841842 	299.9999999999843 	9.68160606885043e-13 	101324.9999999974
-0.5893393393393397 	299.999999999984 	8.419383412996726e-13 	101324.9999999976
-0.5868368368368371 	299.9999999999966 	1.178444288331781e-12 	101324.9999999977
-0.5843343343343346 	300.0000000000001 	2.06906006518156e-12 	101324.9999999977
-0.5818318318318321 	300.0000000000101 	9.910636668484133e-13 	101324.9999999976
-0.5793293293293297 	299.9999999999939 	1.766984114746831e-12 	101324.9999999974
-0.5768268268268271 	300.0000000000002 	1.028745593458458e-12 	101324.9999999975
-0.5743243243243245 	300.0000000000074 	1.168509192373318e-12 	101324.9999999974
-0.5718218218218221 	300.0000000000074 	8.515714688736535e-13 	101324.9999999972
-0.5693193193193196 	300.0000000000149 	7.515587355560897e-13 	101324.9999999971
-0.5668168168168171 	299.9999999999955 	1.264000110387735e-12 	101324.9999999971
-0.5643143143143147 	299.9999999999805 	7.416722523729214e-13 	101324.9999999971
-0.5618118118118121 	300.0000000000048 	1.131640794042084e-12 	101324.9999999972
-0.5593093093093094 	300.0000000000122 	5.551195524759325e-13 	101324.9999999973
-0.5568068068068072 	300.0000000000061 	8.542259119118474e-13 	101324.9999999974
-0.5543043043043046 	300.000000000008 	6.207370728153742e-13 	101324.9999999976
-0.551801801801802 	299.999999999985 	4.164934525138004e-13 	101324.9999999978
-0.5492992992992995 	299.9999999999993 	7.242242672602468e-13 	101324.9999999978
-0.5467967967967969 	300.0000000000057 	8.918614134698555e-13 	101324.9999999978
-0.5442942942942947 	300.0000000000026 	1.060012365824665e-12 	101324.9999999977
-0.5417917917917919 	299.9999999999853 	7.334307500456531e-13 	101324.9999999975
-0.5392892892892895 	299.9999999999779 	6.094598629223678e-13 	101324.9999999976
-0.536786786786787 	299.9999999999855 	5.01128801644363e-13 	101324.999999998
-0.5342842842842846 	299.9999999999875 	8.187480553434391e-13 	101324.9999999983
-0.531781781781782 	299.9999999999783 	5.343908742111957e-13 	101324.9999999984
-0.5292792792792794 	299.9999999999758 	1.46146292812121e-12 	101324.9999999982
-0.526776776776777 	299.9999999999703 	1.360189635925667e-12 	101324.9999999979
-0.5242742742742745 	299.9999999999916 	1.874188260080498e-12 	101324.9999999977
-0.521771771771772 	300.0000000000043 	2.733971356192567e-12 	101324.9999999976
-0.5192692692692695 	299.9999999999857 	3.013536853196418e-12 	101324.9999999977
-0.516766766766767 	299.9999999999991 	2.156553597588383e-12 	101324.9999999975
-0.5142642642642645 	299.9999999999877 	2.553731531030101e-12 	101324.9999999977
-0.511761761761762 	299.9999999999829 	1.379318211066691e-12 	101324.9999999977
-0.5092592592592596 	299.9999999999909 	1.949159886887782e-12 	101324.9999999977
-0.506756756756757 	299.9999999999825 	7.775246726342406e-13 	101324.9999999979
-0.5042542542542544 	299.9999999999984 	1.252067483722783e-12 	101324.999999998
-0.5017517517517521 	300.0000000000107 	6.303937536486476e-13 	101324.999999998
-0.4992492492492494 	300.0000000000114 	5.148525719079255e-13 	101324.999999998
-0.496746746746747 	299.9999999999976 	5.42721320471712e-13 	101324.999999998
-0.4942442442442445 	299.9999999999791 	1.340009037336976e-13 	101324.9999999977
-0.4917417417417421 	299.99999999998 	2.948997549823793e-13 	101324.9999999978
-0.4892392392392395 	299.9999999999858 	1.894638276319853e-13 	101324.999999998
-0.486736736736737 	299.9999999999848 	5.530943162579975e-13 	101324.9999999982
-0.4842342342342345 	299.9999999999728 	6.769694679830448e-13 	101324.9999999982
-0.481731731731732 	300.000000000013 	7.776743865024038e-13 	101324.9999999982
-0.4792292292292296 	300.0000000000088 	1.161340769727124e-12 	101324.9999999981
-0.4767267267267268 	299.9999999999878 	1.148195213983632e-12 	101324.9999999983
-0.4742242242242246 	300.0000000000007 	2.327038209779449e-12 	101324.9999999983
-0.471721721721722 	299.9999999999867 	5.945392283536466e-13 	101324.9999999982
-0.4692192192192195 	299.9999999999949 	2.528832008940621e-12 	101324.9999999982
-0.4667167167167169 	299.99999999997 	1.841545621544012e-12 	101324.9999999983
-0.4642142142142145 	299.9999999999985 	2.313402398701946e-12 	101324.9999999982
-0.461711711711712 	300.0000000000075 	1.03343681270712e-12 	101324.9999999981
-0.4592092092092094 	300.0000000000037 	1.412138309881889e-12 	101324.9999999982
-0.456706706706707 	300.000000000018 	3.143837725582253e-13 	101324.9999999981
-0.4542042042042045 	299.9999999999815 	4.288253178840691e-14 	101324.9999999982
-0.451701701701702 	299.9999999999847 	7.282334952784811e-14 	101324.999999998
-0.4491991991991995 	299.9999999999874 	4.886869747583423e-13 	101324.9999999978
-0.4466966966966969 	299.9999999999861 	7.345753514724776e-13 	101324.9999999979
-0.4441941941941945 	299.9999999999978 	1.394473744275922e-12 	101324.9999999981
-0.441691691691692 	299.9999999999879 	4.824933689916437e-13 	101324.9999999983
-0.4391891891891895 	299.9999999999962 	1.92521921403001e-12 	101324.9999999982
-0.436686686686687 	299.9999999999908 	9.133959659945107e-13 	101324.9999999983
-0.4341841841841846 	299.9999999999998 	2.554472249233442e-12 	101324.9999999981
-0.431681681681682 	299.999999999984 	6.409092619421671e-13 	101324.9999999979
-0.4291791791791794 	299.9999999999748 	2.329020524023543e-12 	101324.9999999978
-0.426676676676677 	299.9999999999726 	1.793682807096867e-12 	101324.9999999977
-0.4241741741741744 	299.9999999999886 	2.267121189671084e-12 	101324.9999999978
-0.421671671671672 	300.0000000000026 	9.619403508199873e-13 	101324.999999998
-0.4191691691691694 	300.0000000000171 	8.793069715877047e-13 	101324.9999999982
-0.4166666666666669 	300.0000000000201 	5.026046168059893e-13 	101324.9999999981
-0.4141641641641645 	299.9999999999799 	6.57140862595955e-13 	101324.9999999982
-0.411661661661662 	300.000000000002 	1.215474530206457e-12 	101324.9999999981
-0.4091591591591594 	300.0000000000026 	3.106849409233801e-13 	101324.999999998
-0.406656656656657 	299.9999999999821 	6.519301920560785e-13 	101324.9999999977
-0.4041541541541545 	300.0000000000072 	1.028120706836572e-12 	101324.9999999976
-0.401651651651652 	299.9999999999753 	2.275058329361779e-13 	101324.9999999978
-0.3991491491491494 	299.9999999999999 	1.829693175964177e-12 	101324.9999999976
-0.396646646646647 	299.9999999999861 	9.724289336966556e-13 	101324.9999999978
-0.3941441441441444 	299.9999999999935 	2.669965321065457e-12 	101324.9999999979
-0.3916416416416419 	299.9999999999791 	7.2378128613016e-13 	101324.9999999981
-0.3891391391391395 	299.9999999999873 	2.472147525381742e-12 	101324.999999998
-0.3866366366366368 	299.9999999999869 	1.01947239303288e-12 	101324.999999998
-0.3841341341341344 	300 	1.12163718428704e-12 	101324.999999998
-0.381631631631632 	299.9999999999846 	8.152720361566399e-13 	101324.9999999978
-0.3791291291291294 	300.0000000000022 	1.052952486052159e-12 	101324.9999999977
-0.3766266266266269 	300.0000000000074 	1.313630428810204e-12 	101324.9999999978
-0.3741241241241244 	300.0000000000081 	3.036897737657473e-13 	101324.9999999978
-0.371621621621622 	300.0000000000078 	1.639546202315988e-12 	101324.9999999975
-0.3691191191191194 	300.0000000000056 	7.917331968283386e-13 	101324.9999999975
-0.366616616616617 	300.0000000000058 	2.469902838830475e-12 	101324.9999999976
-0.3641141141141143 	299.9999999999919 	8.43186950696917e-13 	101324.9999999974
-0.3616116116116119 	299.9999999999799 	2.038350928662689e-12 	101324.9999999977
-0.3591091091091095 	299.9999999999921 	8.733503724889116e-13 	101324.9999999978
-0.356606606606607 	299.9999999999943 	1.15464549921309e-12 	101324.9999999979
-0.3541041041041044 	299.9999999999984 	1.236250687148133e-12 	101324.9999999976
-0.3516016016016019 	300.0000000000073 	6.770932826357204e-13 	101324.9999999976
-0.3490990990990994 	299.9999999999986 	1.734971420754776e-12 	101324.9999999977
-0.346596596596597 	300.0000000000097 	3.710426173497303e-13 	101324.9999999974
-0.3440940940940944 	300.0000000000117 	1.738642109930873e-12 	101324.9999999975
-0.3415915915915919 	300.0000000000097 	4.289209347876313e-13 	101324.9999999976
-0.3390890890890895 	299.999999999994 	6.717201235943948e-13 	101324.9999999976
-0.3365865865865869 	300.0000000000048 	4.596486304832773e-13 	101324.9999999975
-0.3340840840840844 	299.9999999999955 	1.095084071061324e-13 	101324.9999999975
-0.3315815815815819 	300.0000000000076 	6.513056552186463e-13 	101324.9999999976
-0.3290790790790794 	300.0000000000113 	1.405335901486033e-12 	101324.9999999978
-0.3265765765765769 	299.99999999998 	1.494193707641079e-12 	101324.9999999978
-0.3240740740740744 	300.0000000000019 	1.09390818224337e-12 	101324.9999999978
-0.3215715715715718 	300.0000000000061 	1.099592559566105e-12 	101324.9999999978
-0.3190690690690695 	299.9999999999814 	3.645378388891132e-13 	101324.9999999977
-0.3165665665665668 	299.9999999999959 	5.985261963898404e-13 	101324.9999999978
-0.3140640640640644 	299.9999999999976 	1.526524769089005e-13 	101324.9999999978
-0.311561561561562 	299.999999999977 	1.436404485129756e-12 	101324.9999999977
-0.3090590590590593 	300 	1.038267100087508e-12 	101324.9999999977
-0.3065565565565568 	300.0000000000028 	2.32041286163668e-12 	101324.9999999978
-0.3040540540540545 	299.9999999999982 	1.288038816316708e-12 	101324.9999999978
-0.3015515515515518 	300.0000000000084 	2.076152459401196e-12 	101324.9999999978
-0.2990490490490494 	299.9999999999797 	5.376132182591875e-13 	101324.9999999978
-0.2965465465465469 	300.0000000000002 	1.61727931698377e-12 	101324.9999999977
-0.2940440440440444 	299.9999999999965 	1.644460377566532e-12 	101324.9999999976
-0.2915415415415418 	300.0000000000055 	2.08598974422526e-12 	101324.9999999976
-0.2890390390390395 	300.0000000000064 	2.512521113428731e-12 	101324.9999999977
-0.2865365365365368 	299.9999999999906 	1.265523841803674e-12 	101324.9999999977
-0.2840340340340343 	299.9999999999987 	2.306245909974649e-12 	101324.9999999975
-0.2815315315315318 	299.999999999974 	7.424667684110954e-13 	101324.9999999976
-0.2790290290290295 	299.9999999999892 	1.851665002811281e-12 	101324.9999999973
-0.2765265265265269 	300.000000000003 	1.113437195557573e-12 	101324.9999999973
-0.2740240240240244 	300.0000000000083 	1.47310094401784e-12 	101324.9999999973
-0.2715215215215219 	300.0000000000074 	2.03501918245758e-12 	101324.9999999972
-0.2690190190190194 	299.9999999999795 	1.97186554091369e-12 	101324.9999999973
-0.2665165165165169 	299.9999999999981 	2.294988904379653e-12 	101324.9999999975
-0.2640140140140144 	299.9999999999987 	1.346368117358292e-12 	101324.9999999977
-0.2615115115115119 	299.9999999999994 	2.569219882535901e-12 	101324.9999999975
-0.2590090090090094 	299.999999999974 	1.636642003056202e-12 	101324.9999999977
-0.2565065065065068 	299.9999999999955 	2.563692841714687e-12 	101324.9999999977
-0.2540040040040044 	299.9999999999935 	2.593780183419596e-12 	101324.9999999976
-0.2515015015015019 	300.0000000000086 	2.616540544717717e-12 	101324.9999999976
-0.2489989989989994 	300.0000000000115 	3.464329819715514e-12 	101324.9999999977
-0.2464964964964968 	299.9999999999911 	2.595481885554796e-12 	101324.9999999975
-0.2439939939939944 	299.9999999999932 	4.007660584294732e-12 	101324.9999999977
-0.2414914914914919 	299.9999999999845 	1.392143836184183e-12 	101324.9999999978
-0.2389889889889893 	299.9999999999963 	3.171561518328398e-12 	101324.9999999974
-0.2364864864864869 	300.0000000000067 	2.237216990573024e-12 	101324.9999999972
-0.2339839839839843 	299.9999999999852 	4.621243602597327e-12 	101324.9999999969
-0.2314814814814819 	299.99999999999 	2.726164650069455e-12 	101324.999999997
-0.2289789789789792 	299.999999999971 	4.142792859279624e-12 	101324.9999999971
-0.2264764764764769 	299.999999999978 	2.839206093087968e-12 	101324.9999999973
-0.2239739739739743 	299.9999999999916 	3.471992714416091e-12 	101324.9999999973
-0.2214714714714718 	299.9999999999804 	2.970645532380485e-12 	101324.9999999973
-0.2189689689689693 	299.9999999999874 	2.432934412267905e-12 	101324.9999999974
-0.2164664664664669 	299.9999999999916 	3.983353154696583e-12 	101324.9999999972
-0.2139639639639643 	299.9999999999763 	2.726879921761982e-12 	101324.9999999972
-0.2114614614614618 	299.9999999999896 	3.067058275575161e-12 	101324.9999999971
-0.2089589589589593 	300.0000000000023 	2.721733138011906e-12 	101324.9999999969
-0.2064564564564568 	300.0000000000023 	2.699639985425577e-12 	101324.9999999969
-0.2039539539539543 	299.9999999999738 	3.131121755500775e-12 	101324.9999999967
-0.2014514514514518 	299.9999999999719 	1.919857114821431e-12 	101324.9999999968
-0.1989489489489494 	299.9999999999904 	3.758260467913213e-12 	101324.9999999966
-0.1964464464464468 	300.0000000000032 	1.917311982274777e-12 	101324.9999999966
-0.1939439439439443 	300.0000000000012 	3.919033195362889e-12 	101324.9999999965
-0.1914414414414418 	299.9999999999802 	2.655841649404211e-12 	101324.9999999965
-0.1889389389389393 	299.9999999999968 	2.722091479824511e-12 	101324.9999999967
-0.1864364364364368 	300.0000000000045 	2.678668651230139e-12 	101324.9999999968
-0.1839339339339343 	299.9999999999916 	2.794428366356688e-12 	101324.9999999969
-0.1814314314314318 	299.9999999999951 	2.985441174755603e-12 	101324.9999999968
-0.1789289289289293 	299.9999999999676 	2.819430319356077e-12 	101324.999999997
-0.1764264264264268 	299.9999999999889 	2.914145820086532e-12 	101324.999999997
-0.1739239239239243 	299.9999999999663 	3.450394322445562e-12 	101324.9999999969
-0.1714214214214218 	299.9999999999966 	2.89679287787528e-12 	101324.9999999968
-0.1689189189189193 	299.9999999999807 	3.176892907687545e-12 	101324.9999999967
-0.1664164164164168 	299.9999999999969 	1.393518730940309e-12 	101324.9999999966
-0.1639139139139143 	299.9999999999946 	3.228326473316119e-12 	101324.9999999967
-0.1614114114114118 	300.0000000000041 	6.513560766592635e-13 	101324.9999999967
-0.1589089089089093 	300.0000000000006 	4.93571241987077e-12 	101324.999999997
-0.1564064064064068 	299.9999999999888 	6.412280243842142e-13 	101324.9999999972
-0.1539039039039043 	300.0000000000006 	5.424694154119206e-12 	101324.999999997
-0.1514014014014018 	300.0000000000077 	1.024478863286366e-12 	101324.9999999971
-0.1488988988988993 	300.0000000000022 	5.39793426150238e-12 	101324.9999999971
-0.1463963963963968 	300.0000000000016 	1.5304167069637e-12 	101324.999999997
-0.1438938938938943 	299.9999999999885 	4.311133885622947e-12 	101324.999999997
-0.1413913913913918 	299.9999999999728 	2.172379489319132e-12 	101324.999999997
-0.1388888888888893 	299.9999999999896 	3.524507200313403e-12 	101324.9999999971
-0.1363863863863868 	299.9999999999631 	2.470311724704685e-12 	101324.9999999972
-0.1338838838838843 	299.9999999999824 	2.190294363577611e-12 	101324.999999997
-0.1313813813813818 	299.9999999999977 	1.656770165931119e-12 	101324.999999997
-0.1288788788788793 	299.9999999999856 	2.130686343275153e-12 	101324.999999997
-0.1263763763763768 	299.999999999994 	1.507119546303005e-12 	101324.9999999965
-0.1238738738738743 	299.9999999999835 	1.738675823692351e-12 	101324.9999999965
-0.1213713713713717 	299.9999999999995 	9.081828764348189e-13 	101324.9999999964
-0.1188688688688693 	300.0000000000064 	3.012929320174382e-12 	101324.9999999965
-0.1163663663663668 	299.9999999999649 	1.34394034250682e-12 	101324.9999999966
-0.1138638638638643 	299.9999999999947 	2.711299201510851e-12 	101324.9999999965
-0.1113613613613618 	299.9999999999957 	5.295536900561287e-13 	101324.9999999962
-0.1088588588588592 	299.9999999999936 	2.833454494395086e-12 	101324.9999999963
-0.1063563563563568 	299.9999999999911 	6.84532772495105e-13 	101324.9999999964
-0.1038538538538543 	299.9999999999982 	2.962816895649939e-12 	101324.9999999963
-0.1013513513513517 	300.0000000000009 	2.125415169774053e-12 	101324.999999996
-0.09884884884884926 	299.9999999999879 	3.330197542089831e-12 	101324.9999999957
-0.09634634634634676 	299.9999999999714 	2.722391293386609e-12 	101324.9999999957
-0.09384384384384425 	299.9999999999704 	2.542354495927671e-12 	101324.9999999959
-0.09134134134134177 	300.0000000000045 	1.570514440273528e-12 	101324.9999999962
-0.08883883883883925 	300.0000000000015 	2.376648224373113e-12 	101324.999999996
-0.08633633633633674 	299.9999999999843 	2.728756118455839e-12 	101324.9999999961
-0.08383383383383426 	300.0000000000001 	2.528307307449849e-12 	101324.9999999961
-0.08133133133133173 	299.9999999999874 	2.700046012008649e-12 	101324.9999999961
-0.07882882882882926 	299.9999999999634 	2.243375084684604e-12 	101324.999999996
-0.07632632632632676 	299.9999999999907 	2.153001007344504e-12 	101324.9999999961
-0.07382382382382424 	299.9999999999649 	2.207773946310297e-12 	101324.9999999962
-0.07132132132132173 	299.9999999999998 	2.313372705305879e-12 	101324.9999999961
-0.06881881881881925 	299.9999999999866 	2.304063056201806e-12 	101324.9999999958
-0.06631631631631671 	299.9999999999642 	2.008075889744599e-12 	101324.9999999962
-0.06381381381381425 	299.9999999999852 	2.053136677428557e-12 	101324.9999999963
-0.06131131131131173 	299.9999999999861 	2.718766492004045e-12 	101324.9999999965
-0.05880880880880923 	299.9999999999753 	2.053754408968575e-12 	101324.9999999963
-0.05630630630630672 	299.9999999999862 	2.178433854938437e-12 	101324.999999996
-0.05380380380380424 	300.0000000000076 	2.401036697977019e-12 	101324.9999999959
-0.05130130130130173 	300.0000000000038 	2.565837934684287e-12 	101324.9999999958
-0.04879879879879922 	299.9999999999818 	2.592566496602207e-12 	101324.999999996
-0.04629629629629672 	299.9999999999797 	2.641301948281073e-12 	101324.9999999961
-0.04379379379379422 	299.9999999999679 	2.51624254457218e-12 	101324.999999996
-0.04129129129129173 	299.9999999999937 	1.941831850283215e-12 	101324.9999999963
-0.03878878878878922 	299.9999999999951 	2.315083551815572e-12 	101324.999999996
-0.03628628628628671 	299.9999999999943 	1.503459339143293e-12 	101324.9999999958
-0.03378378378378422 	299.9999999999768 	1.950589878704347e-12 	101324.9999999958
-0.03128128128128172 	299.9999999999869 	1.050423425218009e-12 	101324.9999999955
-0.02877877877877922 	299.9999999999868 	1.087112456598388e-12 	101324.9999999954
-0.0262762762762767 	299.9999999999656 	6.004564303414077e-13 	101324.9999999953
-0.02377377377377422 	300.0000000000046 	1.572044868735259e-13 	101324.9999999955
-0.0212712712712717 	299.9999999999671 	2.674662491968751e-14 	101324.9999999955
-0.01876876876876921 	299.9999999999886 	1.05590873601234e-12 	101324.9999999955
-0.01626626626626671 	300.0000000000003 	8.945707119999235e-13 	101324.9999999954
-0.0137637637637642 	299.9999999999861 	9.305779289725655e-13 	101324.9999999957
-0.0112612612612617 	300.0000000000022 	1.976596696729423e-13 	101324.9999999959
-0.008758758758759198 	299.9999999999977 	8.807659422223664e-15 	101324.9999999959
-0.006256256256256697 	299.9999999999634 	2.173878607625765e-13 	101324.999999996
-0.003753753753754195 	299.9999999999823 	1.154631631272828e-15 	101324.999999996
-0.001251251251251693 	299.9999999999757 	1.514569380962694e-13 	101324.999999996
0.00125125125125081 	299.9999999999831 	1.42824496854415e-13 	101324.9999999961
0.003753753753753312 	299.999999999987 	8.275978771602644e-13 	101324.9999999963
0.006256256256255817 	299.9999999999632 	7.123279526810451e-13 	101324.9999999963
0.008758758758758317 	299.9999999999948 	5.977920804518051e-13 	101324.9999999963
0.01126126126126082 	300.0000000000009 	1.025367664696434e-12 	101324.9999999963
0.01376376376376332 	299.9999999999886 	4.999204164049747e-13 	101324.9999999964
0.01626626626626582 	300.0000000000021 	1.630909740943531e-13 	101324.9999999964
0.01876876876876833 	299.999999999984 	3.536338514727897e-13 	101324.9999999962
0.02127127127127083 	299.9999999999908 	1.522079705721996e-12 	101324.9999999962
0.02377377377377332 	299.999999999997 	1.561502654653978e-12 	101324.9999999961
0.02627627627627583 	299.9999999999694 	1.087119529911091e-12 	101324.999999996
0.02877877877877833 	299.9999999999987 	4.664671438124527e-13 	101324.999999996
0.03128128128128083 	299.9999999999797 	1.719543875733658e-13 	101324.9999999961
0.03378378378378333 	299.9999999999643 	4.177002176397336e-13 	101324.9999999963
0.03628628628628584 	299.9999999999928 	4.570644505222152e-13 	101324.9999999964
0.03878878878878834 	299.9999999999937 	6.650272384082138e-14 	101324.9999999965
0.04129129129129084 	299.9999999999895 	4.197050084672197e-13 	101324.9999999966
0.04379379379379333 	299.9999999999776 	7.234216041397997e-13 	101324.9999999965
0.04629629629629585 	299.9999999999623 	9.972603615942341e-13 	101324.9999999962
0.04879879879879834 	299.9999999999835 	1.478466626973983e-12 	101324.999999996
0.05130130130130085 	300.0000000000003 	1.557239240003278e-12 	101324.999999996
0.05380380380380335 	300.0000000000088 	1.206431802124669e-12 	101324.999999996
0.05630630630630584 	299.9999999999949 	1.502122504080685e-12 	101324.9999999961
0.05880880880880836 	299.9999999999761 	1.504541516323299e-12 	101324.9999999959
0.06131131131131085 	299.9999999999919 	1.800119243563524e-12 	101324.999999996
0.06381381381381336 	299.9999999999843 	1.481590558247337e-12 	101324.9999999959
0.06631631631631586 	299.9999999999608 	1.212079016191313e-12 	101324.999999996
0.06881881881881835 	299.999999999981 	1.750931109452525e-12 	101324.9999999959
0.07132132132132088 	300.0000000000008 	1.516797049958502e-12 	101324.9999999958
0.07382382382382337 	299.9999999999671 	1.622519534742616e-12 	101324.9999999959
0.07632632632632587 	299.9999999999874 	1.995134174934495e-12 	101324.999999996
0.07882882882882837 	299.9999999999765 	1.605121034909256e-12 	101324.9999999959
0.08133133133133086 	299.9999999999978 	1.941491994378345e-12 	101324.9999999959
0.08383383383383337 	299.9999999999987 	1.627541490001571e-12 	101324.9999999961
0.08633633633633589 	299.9999999999684 	2.03839548694787e-12 	101324.9999999966
0.08883883883883838 	300.0000000000045 	2.733867870310287e-12 	101324.9999999966
0.09134134134134086 	299.9999999999973 	2.279925328738409e-12 	101324.9999999966
0.09384384384384339 	299.9999999999671 	3.008612771806741e-12 	101324.9999999964
0.09634634634634588 	299.9999999999878 	3.083066116764761e-12 	101324.9999999962
0.09884884884884838 	299.9999999999895 	3.173067854701615e-12 	101324.9999999962
0.1013513513513509 	300.000000000011 	3.008231612507802e-12 	101324.999999996
0.1038538538538534 	299.9999999999779 	2.882713646823531e-12 	101324.9999999962
0.1063563563563559 	300.0000000000032 	3.139746934253051e-12 	101324.9999999962
0.1088588588588584 	300.0000000000038 	2.429631951754141e-12 	101324.9999999961
0.1113613613613609 	299.9999999999845 	2.43934323769269e-12 	101324.9999999962
0.1138638638638634 	299.999999999987 	2.106631287573356e-12 	101324.9999999963
0.1163663663663659 	299.9999999999793 	2.966053916803742e-12 	101324.9999999963
0.1188688688688684 	299.9999999999873 	3.381073552793688e-12 	101324.9999999964
0.1213713713713709 	299.9999999999952 	3.29337504973268e-12 	101324.9999999966
0.1238738738738734 	299.9999999999711 	3.544758612480285e-12 	101324.9999999968
0.1263763763763759 	299.999999999997 	3.685663300760057e-12 	101324.9999999966
0.1288788788788784 	299.999999999998 	2.842854088390837e-12 	101324.9999999966
0.1313813813813809 	299.9999999999972 	3.228669828585918e-12 	101324.9999999966
0.1338838838838834 	299.9999999999871 	2.806931506571319e-12 	101324.9999999967
0.1363863863863859 	300.0000000000095 	2.482126448482378e-12 	101324.999999997
0.1388888888888884 	300.0000000000105 	2.459092717009352e-12 	101324.999999997
0.1413913913913909 	299.9999999999979 	2.725791551861385e-12 	101324.9999999968
0.1438938938938934 	299.9999999999957 	2.923355455160458e-12 	101324.9999999969
0.1463963963963959 	299.9999999999887 	3.190265482586734e-12 	101324.9999999968
0.1488988988988985 	299.9999999999713 	3.697582649503288e-12 	101324.999999997
0.1514014014014009 	299.9999999999889 	4.207033952636033e-12 	101324.9999999969
0.1539039039039035 	299.9999999999842 	5.175726218360193e-12 	101324.9999999969
0.1564064064064059 	299.9999999999875 	3.755380856809445e-12 	101324.9999999968
0.1589089089089084 	299.9999999999904 	5.545329110437381e-12 	101324.9999999969
0.1614114114114109 	299.9999999999892 	3.608758657696677e-12 	101324.9999999969
0.1639139139139134 	299.9999999999752 	4.3141391323667e-12 	101324.9999999972
0.166416416416416 	299.9999999999982 	3.645757411938864e-12 	101324.9999999972
0.1689189189189185 	300.0000000000102 	2.950771718802526e-12 	101324.999999997
0.1714214214214209 	299.999999999995 	3.151932910667483e-12 	101324.9999999969
0.1739239239239235 	299.9999999999985 	2.696868249375905e-12 	101324.9999999969
0.1764264264264259 	299.9999999999841 	3.581007100917101e-12 	101324.999999997
0.1789289289289284 	300.0000000000039 	1.758802561671563e-12 	101324.999999997
0.181431431431431 	299.9999999999926 	3.622106569889575e-12 	101324.9999999972
0.1839339339339334 	299.9999999999937 	2.460120664542589e-12 	101324.9999999974
0.186436436436436 	299.9999999999812 	3.460645378775301e-12 	101324.9999999972
0.1889389389389385 	299.999999999993 	3.200360434313787e-12 	101324.999999997
0.191441441441441 	299.9999999999916 	3.172881327901511e-12 	101324.999999997
0.1939439439439434 	299.999999999975 	3.820038808539691e-12 	101324.9999999968
0.196446446446446 	299.9999999999869 	2.516932183543717e-12 	101324.9999999967
0.1989489489489485 	299.9999999999906 	3.455475618962041e-12 	101324.9999999969
0.2014514514514509 	299.9999999999935 	1.727897384192239e-12 	101324.9999999973
0.2039539539539535 	299.9999999999953 	2.628935547186814e-12 	101324.9999999973
0.2064564564564559 	299.9999999999854 	1.986185601568964e-12 	101324.9999999974
0.2089589589589585 	299.9999999999932 	2.443623706299337e-12 	101324.9999999974
0.211461461461461 	299.9999999999842 	2.590217913423581e-12 	101324.999999997
0.2139639639639635 	299.999999999999 	3.014172743677175e-12 	101324.9999999975
0.2164664664664659 	300.0000000000036 	3.733554582700203e-12 	101324.9999999975
0.2189689689689684 	300.0000000000021 	2.916722981317927e-12 	101324.9999999974
0.221471471471471 	300.000000000002 	4.715573520924224e-12 	101324.9999999973
0.2239739739739735 	299.9999999999844 	3.305411821264511e-12 	101324.999999997
0.226476476476476 	299.9999999999969 	4.171828699755089e-12 	101324.9999999968
0.2289789789789785 	300.0000000000014 	3.062745011310468e-12 	101324.9999999969
0.231481481481481 	299.999999999995 	2.390113159115581e-12 	101324.999999997
0.2339839839839835 	299.9999999999936 	2.299820528759124e-12 	101324.9999999972
0.236486486486486 	300.0000000000071 	1.745963447841768e-12 	101324.9999999974
0.2389889889889885 	299.9999999999994 	2.817384805637761e-12 	101324.9999999975
0.241491491491491 	299.9999999999749 	1.773682680640893e-12 	101324.9999999974
0.2439939939939935 	299.9999999999973 	3.726078205465304e-12 	101324.9999999974
0.246496496496496 	299.9999999999955 	2.18268254794341e-12 	101324.9999999972
0.2489989989989985 	300.0000000000061 	2.791415046118787e-12 	101324.9999999972
0.251501501501501 	300.0000000000051 	1.837073243534652e-12 	101324.9999999973
0.2540040040040035 	299.999999999996 	1.643650359082574e-12 	101324.9999999974
0.256506506506506 	300.0000000000057 	1.790388648638843e-12 	101324.9999999974
0.2590090090090086 	299.9999999999734 	8.563008618014149e-13 	101324.9999999974
0.261511511511511 	300.0000000000065 	2.868289341439561e-12 	101324.9999999976
0.2640140140140135 	299.9999999999939 	1.555875416142267e-12 	101324.9999999976
0.2665165165165161 	299.9999999999819 	3.053087200394358e-12 	101324.9999999977
0.2690190190190185 	300.0000000000095 	1.84424917121947e-12 	101324.9999999978
0.271521521521521 	300.000000000001 	1.867497108890885e-12 	101324.9999999977
0.2740240240240235 	300.0000000000026 	1.782251448646352e-12 	101324.9999999975
0.276526526526526 	299.9999999999989 	1.057142641706978e-12 	101324.9999999976
0.2790290290290286 	299.9999999999835 	1.699213884225058e-12 	101324.9999999974
0.281531531531531 	299.9999999999734 	8.58649157817949e-13 	101324.9999999975
0.2840340340340335 	299.9999999999936 	2.626683474444674e-12 	101324.9999999977
0.2865365365365361 	299.999999999988 	1.969946768507531e-12 	101324.9999999978
0.2890390390390385 	299.9999999999971 	2.386424338918091e-12 	101324.9999999975
0.291541541541541 	299.9999999999974 	1.256634329939317e-12 	101324.9999999975
0.2940440440440436 	299.9999999999976 	1.231664219528173e-12 	101324.9999999975
0.296546546546546 	299.9999999999945 	1.065745384985597e-12 	101324.9999999974
0.2990490490490486 	299.9999999999761 	5.015492075762974e-13 	101324.9999999976
0.3015515515515511 	300.0000000000092 	2.038420176624562e-12 	101324.9999999977
0.3040540540540535 	299.9999999999941 	1.383873703879815e-12 	101324.9999999978
0.3065565565565562 	299.9999999999976 	2.057906918866651e-12 	101324.9999999979
0.3090590590590585 	299.9999999999956 	1.207175812337814e-12 	101324.9999999978
0.3115615615615611 	299.9999999999771 	1.725826856758937e-12 	101324.999999998
0.3140640640640635 	300.0000000000001 	6.841457560228827e-13 	101324.9999999979
0.316566566566566 	299.9999999999962 	8.563231796617892e-13 	101324.9999999977
0.3190690690690687 	299.9999999999842 	3.003188058626831e-13 	101324.9999999977
0.3215715715715711 	300.000000000002 	5.795359982019063e-13 	101324.9999999974
0.3240740740740735 	299.9999999999964 	8.985692754719951e-13 	101324.9999999973
0.326576576576576 	299.9999999999665 	6.065139467973555e-13 	101324.9999999974
0.3290790790790786 	299.9999999999993 	7.096314043292536e-13 	101324.9999999975
0.3315815815815811 	300.000000000013 	7.163021734492697e-13 	101324.9999999973
0.3340840840840836 	299.9999999999994 	6.064371235313927e-13 	101324.9999999973
0.3365865865865861 	300.0000000000202 	2.532349639528102e-13 	101324.9999999974
0.3390890890890886 	300.0000000000138 	3.778921324175799e-13 	101324.9999999975
0.3415915915915911 	299.9999999999996 	5.094986501928942e-13 	101324.9999999975
0.3440940940940935 	299.9999999999836 	1.045092018258619e-12 	101324.9999999976
0.3465965965965962 	300.0000000000117 	6.204837846535358e-13 	101324.9999999975
0.3490990990990985 	300.0000000000086 	1.581457106013822e-12 	101324.9999999977
0.3516016016016011 	299.9999999999944 	1.512799108768634e-12 	101324.9999999978
0.3541041041041035 	300.0000000000026 	2.032455267136139e-12 	101324.9999999977
0.3566066066066061 	299.9999999999873 	2.014969923459173e-12 	101324.9999999975
0.3591091091091085 	299.999999999975 	1.524833564949429e-12 	101324.9999999973
0.3616116116116112 	299.9999999999814 	2.196285730055174e-12 	101324.9999999975
0.3641141141141137 	299.9999999999775 	1.105901414349593e-12 	101324.9999999975
0.3666166166166161 	299.9999999999745 	2.322615143606595e-12 	101324.9999999976
0.3691191191191185 	300.0000000000089 	1.002795054618954e-12 	101324.9999999975
0.371621621621621 	300.0000000000053 	1.606464652341053e-12 	101324.9999999974
0.3741241241241237 	300.0000000000158 	2.882240652608661e-13 	101324.9999999974
0.3766266266266261 	300.0000000000067 	1.347498186745501e-12 	101324.9999999974
0.3791291291291286 	299.9999999999946 	1.027072135534108e-12 	101324.9999999974
0.3816316316316311 	299.9999999999756 	1.486021301081938e-12 	101324.9999999978
0.3841341341341336 	300.0000000000017 	6.101268440083208e-13 	101324.9999999979
0.3866366366366362 	299.9999999999986 	4.310254772139891e-13 	101324.9999999979
0.3891391391391387 	299.9999999999862 	1.580808949561982e-13 	101324.9999999978
0.391641641641641 	299.9999999999986 	5.371571318694507e-13 	101324.9999999978
0.3941441441441436 	300.0000000000018 	6.926772695435692e-13 	101324.9999999975
0.3966466466466462 	299.9999999999992 	1.061012201285454e-12 	101324.9999999973
0.3991491491491486 	299.9999999999841 	1.313104545798182e-12 	101324.9999999973
0.4016516516516512 	299.9999999999741 	1.63351713778371e-12 	101324.9999999975
0.4041541541541536 	299.9999999999866 	1.230184509509533e-12 	101324.9999999977
0.4066566566566561 	299.9999999999854 	2.889421805111105e-12 	101324.9999999979
0.4091591591591587 	299.9999999999997 	1.104056092527066e-12 	101324.9999999981
0.4116616616616612 	300.0000000000035 	2.234898832313808e-12 	101324.9999999983
0.4141641641641635 	300.0000000000122 	1.091158263775415e-12 	101324.9999999983
0.4166666666666662 	299.9999999999989 	1.634631817291486e-12 	101324.9999999981
0.4191691691691687 	299.9999999999824 	1.571978937701652e-12 	101324.9999999982
0.421671671671671 	300.0000000000053 	1.325527389348056e-12 	101324.999999998
0.4241741741741737 	299.9999999999931 	2.694237603008947e-12 	101324.9999999979
0.4266766766766761 	299.9999999999857 	8.55559437440281e-13 	101324.9999999977
0.4291791791791785 	300.0000000000069 	3.084506906601854e-12 	101324.9999999978
0.4316816816816812 	300.0000000000003 	7.438158764688714e-13 	101324.9999999978
0.4341841841841836 	299.9999999999941 	2.651016801590066e-12 	101324.9999999978
0.4366866866866862 	299.9999999999772 	7.704007039505158e-13 	101324.9999999978
0.4391891891891885 	299.9999999999985 	1.665665667502539e-12 	101324.9999999979
0.4416916916916913 	299.999999999997 	1.434615592351343e-12 	101324.9999999978
0.4441941941941936 	299.9999999999942 	1.872723343571032e-12 	101324.9999999979
0.4466966966966961 	299.9999999999761 	1.998346775906437e-12 	101324.999999998
0.4491991991991987 	299.999999999996 	1.877679074220267e-12 	101324.9999999979
0.4517017017017012 	299.9999999999955 	2.149087197286953e-12 	101324.999999998
0.4542042042042035 	299.9999999999948 	1.508893099765808e-12 	101324.9999999978
0.4567067067067062 	299.999999999996 	2.161234140184799e-12 	101324.9999999977
0.4592092092092087 	299.9999999999764 	1.494222157249553e-12 	101324.9999999975
0.4617117117117112 	300.0000000000043 	1.670931446081144e-12 	101324.9999999977
0.4642142142142137 	299.9999999999881 	1.651639835783735e-12 	101324.9999999976
0.4667167167167162 	299.9999999999949 	1.955340157497303e-12 	101324.9999999975
0.4692192192192187 	299.999999999985 	2.431178444518365e-12 	101324.9999999975
0.4717217217217212 	300.0000000000055 	2.311942634454518e-12 	101324.9999999977
0.4742242242242236 	299.9999999999858 	2.259245506799011e-12 	101324.9999999977
0.4767267267267262 	299.999999999996 	1.739055495937922e-12 	101324.9999999976
0.4792292292292287 	300.0000000000039 	2.033751854881348e-12 	101324.9999999975
0.4817317317317312 	300.000000000008 	1.865745308874853e-12 	101324.9999999974
0.4842342342342336 	299.9999999999935 	2.221176226470978e-12 	101324.9999999973
0.4867367367367362 	299.999999999984 	2.607799364117378e-12 	101324.9999999973
0.4892392392392387 	300.0000000000047 	2.396938429124615e-12 	101324.9999999972
0.4917417417417412 	299.9999999999992 	3.249241304430901e-12 	101324.9999999971
0.4942442442442437 	299.9999999999695 	2.996548382771189e-12 	101324.9999999973
0.4967467467467462 	299.9999999999756 	3.586613458532464e-12 	101324.9999999972
0.4992492492492487 	299.9999999999749 	1.433510932966699e-12 	101324.999999997
0.5017517517517511 	299.9999999999841 	1.633997522660499e-12 	101324.9999999971
0.5042542542542537 	299.9999999999894 	1.051365312245069e-12 	101324.9999999974
0.5067567567567562 	299.9999999999824 	1.580614097726256e-12 	101324.9999999976
0.5092592592592589 	299.9999999999894 	1.600058517157945e-12 	101324.9999999976
0.5117617617617611 	299.9999999999871 	1.719827306875799e-12 	101324.9999999977
0.5142642642642637 	299.9999999999972 	2.523048114640977e-12 	101324.9999999977
0.5167667667667663 	299.9999999999934 	1.854519528687697e-12 	101324.9999999977
0.5192692692692688 	299.9999999999757 	3.057395431647302e-12 	101324.9999999977
0.5217717717717714 	299.9999999999783 	8.443472292709746e-13 	101324.9999999977
0.5242742742742736 	299.9999999999779 	2.499400124174091e-12 	101324.9999999977
0.5267767767767763 	299.9999999999872 	3.734414652042682e-13 	101324.9999999977
0.5292792792792789 	299.9999999999818 	1.020592418304459e-12 	101324.9999999975
0.5317817817817813 	299.9999999999717 	5.487792449956402e-13 	101324.9999999974
0.5342842842842837 	300.0000000000038 	7.389870706325003e-13 	101324.9999999974
0.5367867867867864 	300.0000000000002 	1.243692411931733e-12 	101324.9999999975
0.5392892892892888 	299.9999999999863 	1.667640795071842e-12 	101324.9999999974
0.5417917917917912 	300.0000000000004 	1.596782896307525e-12 	101324.9999999972
0.5442942942942938 	299.9999999999927 	1.735248916642772e-12 	101324.9999999971
0.5467967967967964 	299.9999999999856 	1.58498195639227e-12 	101324.9999999973
0.5492992992992988 	299.9999999999786 	1.435795836342059e-12 	101324.9999999971
0.5518018018018012 	299.999999999979 	7.97610019160591e-13 	101324.9999999969
0.5543043043043039 	300.0000000000047 	7.455420208670688e-13 	101324.9999999969
0.5568068068068063 	299.9999999999952 	7.317538874610625e-13 	101324.9999999967
0.5593093093093087 	299.9999999999714 	8.960341501690573e-13 	101324.9999999968
0.5618118118118114 	299.999999999988 	4.923828026363284e-13 	101324.999999997
0.5643143143143137 	299.9999999999831 	9.09880425882897e-13 	101324.9999999969
0.5668168168168163 	299.999999999996 	3.661646161049591e-13 	101324.999999997
0.5693193193193188 	300.0000000000099 	4.121688197627038e-13 	101324.9999999969
0.5718218218218213 	300.0000000000093 	8.944236804936609e-13 	101324.999999997
0.5743243243243239 	300.0000000000032 	1.133063364827459e-12 	101324.999999997
0.5768268268268262 	299.9999999999998 	1.795969472365754e-12 	101324.9999999969
0.5793293293293288 	299.9999999999852 	7.193804418211438e-13 	101324.9999999968
0.5818318318318314 	299.999999999978 	2.06029141257005e-12 	101324.9999999968
0.5843343343343338 	299.9999999999949 	1.376700225892317e-12 	101324.9999999969
0.5868368368368363 	299.9999999999899 	1.25189088783017e-12 	101324.9999999968
0.5893393393393387 	299.9999999999798 	1.043644107199941e-12 	101324.9999999967
0.5918418418418413 	299.9999999999804 	7.451426590906384e-13 	101324.9999999968
0.5943443443443439 	300.0000000000038 	1.433172228831227e-12 	101324.999999997
0.5968468468468463 	300.0000000000044 	1.092231334178731e-12 	101324.9999999971
0.5993493493493487 	300.0000000000139 	1.10530595526775e-12 	101324.9999999971
0.6018518518518514 	299.9999999999936 	5.661507625733608e-13 	101324.9999999971
0.6043543543543537 	299.9999999999985 	4.432665980345906e-13 	101324.999999997
0.6068568568568564 	299.9999999999934 	3.884761012268383e-13 	101324.9999999969
0.6093593593593587 	299.9999999999755 	5.186938579803061e-13 	101324.9999999969
0.6118618618618614 	299.9999999999753 	4.716816756964679e-13 	101324.9999999969
0.6143643643643638 	300.0000000000016 	7.699282325476529e-13 	101324.9999999969
0.6168668668668662 	299.9999999999961 	1.175950573792326e-12 	101324.9999999968
0.6193693693693688 	299.9999999999863 	5.394519961160968e-13 	101324.999999997
0.6218718718718714 	299.9999999999899 	1.147687399729384e-12 	101324.9999999969
0.6243743743743737 	299.999999999979 	6.778739523701946e-13 	101324.9999999968
0.6268768768768762 	299.9999999999763 	9.980625933735399e-13 	101324.9999999969
0.629379379379379 	299.9999999999829 	4.735528214708206e-13 	101324.9999999968
0.6318818818818812 	299.9999999999876 	8.967095567448748e-13 	101324.9999999968
0.6343843843843838 	300.0000000000033 	9.125483663684285e-13 	101324.9999999968
0.6368868868868864 	299.9999999999936 	1.172795228255986e-12 	101324.9999999968
0.6393893893893888 	299.9999999999769 	1.623885807447751e-12 	101324.9999999967
0.6418918918918912 	299.9999999999992 	1.080908921361755e-12 	101324.999999997
0.6443943943943939 	299.9999999999949 	2.396159104379303e-12 	101324.9999999972
0.6468968968968963 	299.9999999999915 	1.064068660730285e-12 	101324.9999999973
0.6493993993993988 	299.9999999999894 	2.072485058238187e-12 	101324.9999999974
0.6519019019019012 	299.999999999988 	9.855213880716291e-13 	101324.9999999972
0.6544044044044038 	299.9999999999691 	1.773605233949055e-12 	101324.999999997
0.6569069069069065 	299.9999999999879 	3.933969776650758e-13 	101324.9999999968
0.6594094094094087 	299.9999999999856 	1.016867849319867e-12 	101324.9999999967
0.6619119119119113 	299.9999999999817 	4.621860554671073e-13 	101324.9999999966
0.664414414414414 	299.9999999999961 	4.42294945756518e-13 	101324.9999999965
0.6669169169169162 	300.0000000000026 	4.206142239508169e-13 	101324.9999999965
0.6694194194194188 	299.9999999999951 	4.228461027243754e-13 	101324.9999999966
0.6719219219219214 	299.9999999999801 	7.037179908195858e-14 	101324.9999999966
0.674424424424424 	299.9999999999915 	1.523574659358623e-13 	101324.9999999966
0.6769269269269262 	299.9999999999737 	4.403420469801528e-13 	101324.9999999967
0.679429429429429 	300.0000000000003 	8.230214230622362e-13 	101324.9999999967
0.6819319319319311 	299.9999999999911 	9.467757515791224e-13 	101324.9999999966
0.6844344344344341 	299.9999999999975 	4.997609882400636e-13 	101324.9999999965
0.686936936936936 	299.9999999999964 	8.120960734127259e-13 	101324.9999999963
0.6894394394394392 	299.9999999999953 	2.246142960146835e-13 	101324.9999999964
0.6919419419419413 	299.999999999995 	2.925699751939901e-13 	101324.9999999965
0.694444444444444 	299.999999999985 	2.999765357713197e-13 	101324.9999999966
0.6969469469469463 	299.9999999999778 	3.764199029507471e-13 	101324.9999999968
0.6994494494494489 	299.9999999999732 	2.290380129565141e-13 	101324.9999999968
0.7019519519519515 	299.999999999994 	7.058965124256471e-13 	101324.9999999967
0.7044544544544538 	299.9999999999838 	7.361885410485546e-13 	101324.9999999966
0.7069569569569564 	299.9999999999984 	1.198274762424915e-12 	101324.9999999966
0.7094594594594589 	299.999999999989 	9.037908328394793e-13 	101324.9999999966
0.7119619619619615 	299.9999999999728 	1.007847471420615e-12 	101324.9999999967
0.7144644644644638 	299.9999999999826 	2.652424954238209e-13 	101324.9999999968
0.7169669669669665 	299.9999999999755 	6.203213679370096e-13 	101324.9999999968
0.7194694694694688 	299.9999999999978 	6.26362151139821e-13 	101324.9999999968
0.7219719719719715 	299.9999999999985 	4.516759442517311e-13 	101324.9999999967
0.7244744744744737 	299.9999999999997 	5.687747667456212e-13 	101324.9999999966
0.7269769769769764 	299.9999999999976 	1.245553989480528e-12 	101324.9999999965
0.7294794794794791 	299.9999999999956 	1.442772439550409e-12 	101324.9999999964
0.7319819819819813 	299.9999999999932 	1.427427220824405e-12 	101324.9999999963
0.7344844844844839 	299.9999999999759 	8.763499548124114e-13 	101324.9999999963
0.7369869869869864 	299.9999999999871 	5.256728002783036e-13 	101324.9999999964
0.739489489489489 	299.9999999999826 	4.495695804634105e-13 	101324.9999999964
0.7419919919919914 	299.9999999999792 	8.724368223925622e-13 	101324.9999999966
0.7444944944944939 	299.9999999999913 	1.070623514215747e-12 	101324.9999999967
0.7469969969969963 	299.9999999999917 	1.428484107455674e-12 	101324.9999999968
0.7494994994994989 	299.9999999999826 	2.148143552240263e-12 	101324.999999997
0.7520020020020015 	299.9999999999905 	1.779953866911908e-12 	101324.9999999972
0.7545045045045039 	299.9999999999905 	1.490748028349839e-12 	101324.9999999973
0.7570070070070062 	299.9999999999836 	1.150516479692583e-12 	101324.9999999973
0.7595095095095092 	299.9999999999777 	3.955992918842006e-13 	101324.9999999974
0.7620120120120112 	300.0000000000006 	6.592760407489511e-13 	101324.9999999973
0.7645145145145138 	299.9999999999969 	8.655270874579155e-13 	101324.9999999971
0.7670170170170165 	299.9999999999806 	7.793766865706005e-13 	101324.999999997
0.7695195195195191 	299.9999999999753 	1.668452650258521e-12 	101324.9999999971
0.7720220220220213 	299.9999999999841 	1.240789263096832e-12 	101324.9999999971
0.7745245245245239 	299.9999999999861 	1.48400540606876e-12 	101324.9999999969
0.7770270270270263 	299.9999999999903 	9.118136614456626e-13 	101324.9999999968
0.779529529529529 	299.9999999999919 	3.875044810277872e-13 	101324.9999999967
0.7820320320320313 	299.9999999999888 	6.409508431677354e-13 	101324.9999999966
0.784534534534534 	299.9999999999953 	6.019604842411056e-13 	101324.9999999966
0.7870370370370364 	299.9999999999936 	6.227283476119779e-13 	101324.9999999968
0.7895395395395389 	299.9999999999906 	8.652035545216441e-13 	101324.9999999969
0.7920420420420413 	299.9999999999944 	1.433653539816413e-12 	101324.9999999969
0.794544544544544 	299.9999999999987 	1.369164979951007e-12 	101324.9999999967
0.7970470470470463 	300.0000000000014 	2.076280838398106e-12 	101324.9999999966
0.799549549549549 	299.9999999999955 	1.223009285608504e-12 	101324.9999999966
0.8020520520520515 	299.9999999999965 	1.355531438285528e-12 	101324.9999999966
0.8045545545545539 	299.9999999999835 	4.229046199357859e-13 	101324.9999999966
0.8070570570570563 	299.999999999998 	2.574508191139645e-13 	101324.9999999968
0.8095595595595589 	299.9999999999887 	3.34190549503098e-13 	101324.9999999969
0.8120620620620614 	299.9999999999787 	6.401797030017421e-13 	101324.9999999969
0.8145645645645638 	299.9999999999959 	8.021923715571629e-13 	101324.999999997
0.8170670670670666 	299.9999999999956 	1.684650070870978e-12 	101324.9999999971
0.8195695695695689 	299.9999999999912 	1.464675149228229e-12 	101324.999999997
0.8220720720720714 	299.9999999999814 	1.531855249164131e-12 	101324.9999999969
0.8245745745745739 	299.9999999999981 	6.96003100109051e-13 	101324.999999997
0.8270770770770765 	299.9999999999913 	4.713439072330945e-13 	101324.9999999971
0.8295795795795788 	299.9999999999843 	5.360962765388264e-13 	101324.9999999972
0.8320820820820815 	300.000000000006 	2.774869307215989e-13 	101324.9999999972
0.834584584584584 	300.0000000000027 	4.411179132308181e-13 	101324.9999999972
0.8370870870870865 	299.9999999999892 	8.609175257917905e-13 	101324.9999999971
0.8395895895895891 	299.9999999999742 	8.863888680445578e-13 	101324.999999997
0.8420920920920915 	299.9999999999783 	8.805713098146184e-13 	101324.9999999969
0.844594594594594 	299.9999999999771 	1.340881719419082e-12 	101324.9999999967
0.8470970970970964 	299.9999999999807 	1.152830370090732e-12 	101324.9999999967
0.8495995995995991 	299.9999999999928 	8.684704913690016e-13 	101324.9999999966
0.8521021021021015 	299.9999999999916 	8.46814959543206e-13 	101324.9999999967
0.8546046046046039 	299.9999999999924 	7.715239316805889e-13 	101324.9999999968
0.8571071071071066 	299.9999999999968 	1.444050450857729e-12 	101324.9999999968
0.8596096096096089 	299.9999999999847 	1.461017351991409e-12 	101324.9999999969
0.8621121121121116 	299.999999999976 	2.170917764601249e-12 	101324.9999999968
0.8646146146146139 	299.9999999999954 	8.497722940079701e-13 	101324.9999999969
0.8671171171171166 	299.9999999999928 	9.67800355129392e-13 	101324.9999999968
0.8696196196196189 	299.9999999999861 	5.442204824175333e-13 	101324.9999999969
0.8721221221221216 	299.9999999999868 	1.158712811069392e-12 	101324.9999999969
0.874624624624624 	299.9999999999994 	9.484126677167865e-13 	101324.9999999969
0.8771271271271264 	300.0000000000024 	8.582729643708419e-13 	101324.9999999969
0.879629629629629 	299.9999999999994 	1.585124879038045e-12 	101324.9999999969
0.8821321321321317 	299.9999999999934 	1.479452594429624e-12 	101324.9999999969
0.8846346346346339 	299.9999999999766 	1.754872295933717e-12 	101324.9999999969
0.8871371371371364 	299.9999999999856 	1.106003068425456e-12 	101324.999999997
0.8896396396396391 	299.9999999999859 	1.965456406631172e-12 	101324.9999999972
0.8921421421421414 	299.9999999999885 	1.443180107486224e-12 	101324.9999999973
0.8946446446446441 	299.9999999999958 	1.687989902634831e-12 	101324.9999999972
0.8971471471471464 	299.9999999999993 	1.530724121725776e-12 	101324.9999999971
0.8996496496496489 	299.99999999999 	1.263947290485396e-12 	101324.9999999971
0.9021521521521517 	299.9999999999856 	1.5891026648281e-12 	101324.999999997
0.9046546546546541 	299.9999999999947 	8.639212746531607e-13 	101324.9999999971
0.9071571571571564 	299.9999999999823 	1.165998497629556e-12 	101324.9999999969
0.9096596596596589 	299.9999999999839 	1.151392405419333e-12 	101324.9999999969
0.9121621621621616 	300.0000000000006 	1.031018312552649e-12 	101324.999999997
0.9146646646646639 	299.9999999999938 	7.372284015506992e-13 	101324.999999997
0.9171671671671666 	299.9999999999839 	8.838561336935932e-13 	101324.9999999971
0.9196696696696689 	299.9999999999992 	1.546817299101303e-12 	101324.9999999973
0.9221721721721714 	300 	1.675542027092852e-12 	101324.9999999974
0.9246746746746741 	299.9999999999823 	1.434360621395023e-12 	101324.9999999973
0.9271771771771765 	299.9999999999814 	9.272371401182817e-13 	101324.9999999973
0.9296796796796791 	299.9999999999984 	9.703818689452799e-13 	101324.9999999974
0.9321821821821816 	299.9999999999957 	6.219230268253558e-13 	101324.9999999974
0.9346846846846838 	299.9999999999861 	1.067825523914854e-12 	101324.9999999974
0.9371871871871866 	300.0000000000014 	1.019212602772332e-12 	101324.9999999972
0.9396896896896891 	300.0000000000041 	9.960249361942056e-13 	101324.9999999972
0.9421921921921914 	300.000000000003 	1.465069691115592e-12 	101324.9999999972
0.9446946946946939 	299.9999999999872 	1.473192757715697e-12 	101324.9999999972
0.9471971971971965 	299.9999999999743 	1.679988328329645e-12 	101324.9999999971
0.9496996996996991 	299.9999999999841 	7.404013392941658e-13 	101324.9999999972
0.9522022022022016 	299.9999999999882 	1.44863496733153e-12 	101324.9999999972
0.9547047047047038 	299.9999999999897 	1.040869491682796e-12 	101324.9999999971
0.9572072072072064 	299.999999999988 	1.101200400261898e-12 	101324.9999999972
0.9597097097097093 	299.9999999999886 	9.707016142116766e-13 	101324.9999999971
0.9622122122122114 	299.9999999999861 	7.709218242304772e-13 	101324.999999997
0.964714714714714 	299.999999999987 	6.285743641097909e-13 	101324.9999999968
0.9672172172172167 	299.9999999999883 	5.369645717344446e-13 	101324.9999999967
0.969719719719719 	299.9999999999964 	1.214835257147784e-12 	101324.9999999967
0.9722222222222214 	299.999999999991 	1.057445283940195e-12 	101324.9999999968
0.9747247247247239 	299.9999999999866 	1.490915180199292e-12 	101324.999999997
0.9772272272272267 	299.9999999999955 	1.507592714660616e-12 	101324.9999999971
0.9797297297297292 	299.9999999999941 	1.637728142065035e-12 	101324.9999999972
0.9822322322322313 	299.9999999999998 	2.185649935754994e-12 	101324.9999999974
0.9847347347347344 	300.0000000000006 	1.758321629422827e-12 	101324.9999999975
0.9872372372372363 	299.999999999987 	2.521943258959261e-12 	101324.9999999975
0.9897397397397389 	299.9999999999946 	1.275604669279964e-12 	101324.9999999974
0.9922422422422417 	299.9999999999871 	1.745476334748756e-12 	101324.9999999975
0.9947447447447441 	299.9999999999826 	9.360434528123506e-13 	101324.9999999974
0.9972472472472468 	299.9999999999868 	1.166626229040085e-12 	101324.9999999974
0.999749749749749 	299.9999999999874 	8.305210283172354e-13 	101324.9999999972
1.002252252252252 	299.9999999999924 	8.964573666138284e-13 	101324.9999999972
1.004754754754754 	299.999999999991 	1.580644929750674e-12 	101324.9999999971
1.007257257257256 	299.9999999999859 	1.571034123530482e-12 	101324.9999999971
1.009759759759759 	299.9999999999842 	1.432776728395751e-12 	101324.9999999971
1.012262262262261 	299.9999999999835 	6.360968130489915e-13 	101324.9999999971
1.014764764764764 	299.9999999999752 	6.50346732409476e-13 	101324.9999999973
1.017267267267267 	299.9999999999727 	4.435723347629228e-13 	101324.9999999974
1.019769769769769 	299.9999999999852 	1.165764070402513e-12 	101324.9999999975
1.022272272272272 	299.999999999989 	8.800828724472296e-13 	101324.9999999975
1.024774774774774 	299.9999999999902 	7.20342645193945e-13 	101324.9999999974
1.027277277277277 	299.999999999989 	1.223030755254154e-12 	101324.9999999975
1.029779779779779 	299.9999999999956 	1.317497015572227e-12 	101324.9999999977
1.032282282282282 	299.9999999999952 	1.959323382369213e-12 	101324.9999999977
1.034784784784784 	299.9999999999939 	1.944450283225088e-12 	101324.9999999976
1.037287287287286 	299.9999999999866 	2.21061761463028e-12 	101324.9999999976
1.039789789789789 	299.9999999999914 	2.111984993888695e-12 	101324.9999999976
1.042292292292291 	300.0000000000034 	1.997872175427807e-12 	101324.9999999976
1.044794794794794 	300.0000000000052 	1.931240972995611e-12 	101324.9999999976
1.047297297297296 	300.0000000000097 	1.267716089197827e-12 	101324.9999999977
1.049799799799799 	299.9999999999948 	1.668561032641701e-12 	101324.9999999978
1.052302302302302 	299.9999999999883 	9.370651990243631e-13 	101324.9999999979
1.054804804804804 	299.9999999999852 	1.657552209567337e-12 	101324.999999998
1.057307307307306 	299.999999999975 	1.4829062635943e-12 	101324.999999998
1.059809809809809 	299.9999999999843 	2.320883233111104e-12 	101324.9999999979
1.062312312312312 	299.9999999999813 	2.480873276548483e-12 	101324.9999999978
1.064814814814814 	299.9999999999805 	2.797124110866117e-12 	101324.9999999978
1.067317317317317 	299.9999999999745 	2.754404200498668e-12 	101324.9999999978
1.069819819819819 	299.9999999999746 	2.913660298898519e-12 	101324.9999999978
1.072322322322321 	299.9999999999962 	3.504288609334327e-12 	101324.9999999978
1.074824824824824 	300.0000000000039 	2.299581724278239e-12 	101324.999999998
1.077327327327327 	300.000000000009 	2.771014581983848e-12 	101324.9999999981
1.079829829829829 	300.000000000009 	1.982621527304191e-12 	101324.9999999982
1.082332332332332 	300.0000000000007 	2.359356610579105e-12 	101324.9999999984
1.084834834834834 	299.9999999999948 	2.166201458983455e-12 	101324.9999999986
1.087337337337337 	299.9999999999832 	2.138879793915413e-12 	101324.9999999986
1.089839839839839 	299.9999999999823 	2.643826365841369e-12 	101324.9999999986
1.092342342342342 	299.9999999999944 	2.083017684556331e-12 	101324.9999999985
1.094844844844844 	299.9999999999966 	2.655133560899135e-12 	101324.9999999985
1.097347347347347 	299.9999999999866 	1.973793231087418e-12 	101324.9999999985
1.099849849849849 	299.9999999999832 	2.669246494535513e-12 	101324.9999999985
1.102352352352352 	299.9999999999903 	2.369606337324517e-12 	101324.9999999986
1.104854854854854 	299.9999999999943 	3.441519972252256e-12 	101324.9999999987
1.107357357357357 	299.9999999999892 	2.872344408274801e-12 	101324.9999999987
1.109859859859859 	299.9999999999839 	3.858701333644339e-12 	101324.9999999987
1.112362362362362 	300.0000000000053 	3.680403364279914e-12 	101324.9999999986
1.114864864864865 	300.0000000000053 	3.690091267529236e-12 	101324.9999999987
1.117367367367367 	299.9999999999902 	4.126880262475884e-12 	101324.9999999986
1.119869869869869 	299.9999999999789 	3.770678841681879e-12 	101324.9999999985
1.122372372372372 	299.9999999999847 	4.881182575048704e-12 	101324.9999999985
1.124874874874874 	299.9999999999835 	4.556845826425057e-12 	101324.9999999984
1.127377377377377 	299.9999999999883 	4.933644847809296e-12 	101324.9999999983
1.129879879879879 	300.0000000000065 	4.188402302819687e-12 	101324.9999999985
1.132382382382382 	300.0000000000078 	3.800569693046345e-12 	101324.9999999986
1.134884884884884 	299.9999999999985 	3.187389528015869e-12 	101324.9999999988
1.137387387387387 	300.0000000000033 	2.914546668215602e-12 	101324.9999999989
1.139889889889889 	299.9999999999893 	3.024777752304728e-12 	101324.999999999
1.142392392392392 	299.9999999999868 	2.436770338104022e-12 	101324.999999999
1.144894894894894 	300.000000000001 	3.017799479918913e-12 	101324.9999999991
1.147397397397397 	299.9999999999959 	2.509496519174482e-12 	101324.9999999994
1.149899899899899 	299.9999999999803 	3.185131709806495e-12 	101324.9999999993
1.152402402402402 	299.9999999999785 	3.381869772067357e-12 	101324.9999999992
1.154904904904904 	299.9999999999915 	3.807144247322047e-12 	101324.9999999993
1.157407407407407 	299.9999999999923 	3.115845986552699e-12 	101324.9999999996
1.159909909909909 	299.9999999999853 	3.244617319696785e-12 	101324.9999999996
1.162412412412412 	299.9999999999824 	4.250028740601039e-12 	101324.9999999994
1.164914914914914 	299.9999999999858 	3.756829770514429e-12 	101324.9999999994
1.167417417417417 	299.9999999999857 	4.64478249883534e-12 	101324.9999999993
1.169919919919919 	299.9999999999997 	4.032256897084641e-12 	101324.9999999993
1.172422422422422 	300.0000000000088 	4.372583714090773e-12 	101324.9999999992
1.174924924924925 	299.9999999999941 	3.800256793511022e-12 	101324.9999999992
1.177427427427427 	299.9999999999837 	4.020865077417165e-12 	101324.9999999991
1.179929929929929 	299.9999999999998 	4.378062221766482e-12 	101324.9999999992
1.182432432432432 	300.0000000000092 	3.210897297340139e-12 	101324.9999999994
1.184934934934934 	299.9999999999986 	3.554289526657027e-12 	101324.9999999996
1.187437437437437 	299.9999999999914 	3.437626887142435e-12 	101324.9999999995
1.189939939939939 	299.9999999999905 	4.137158992331559e-12 	101324.9999999992
1.192442442442442 	299.9999999999792 	4.145310256042329e-12 	101324.9999999992
1.194944944944944 	299.9999999999789 	5.108474162115395e-12 	101324.9999999992
1.197447447447447 	299.9999999999955 	4.579831340900147e-12 	101324.9999999993
1.199949949949949 	299.9999999999999 	4.420712575164137e-12 	101324.9999999992
1.202452452452452 	299.9999999999857 	5.035311154433656e-12 	101324.9999999992
1.204954954954955 	299.9999999999829 	4.789717753205233e-12 	101324.9999999991
1.207457457457457 	299.999999999992 	5.545506284204293e-12 	101324.9999999991
1.20995995995996 	299.9999999999937 	5.004556764884294e-12 	101324.9999999992
1.212462462462462 	299.9999999999972 	5.124111952772114e-12 	101324.9999999994
1.214964964964964 	299.9999999999976 	4.426548204430159e-12 	101324.9999999996
1.217467467467467 	299.9999999999949 	4.535931912417959e-12 	101324.9999999998
1.219969969969969 	299.9999999999891 	3.895333942992243e-12 	101324.9999999998
1.222472472472472 	300.0000000000046 	3.942894939078468e-12 	101324.9999999998
1.224974974974975 	300.0000000000155 	3.841796188142724e-12 	101324.9999999999
1.227477477477477 	299.9999999999998 	3.161546634819655e-12 	101325
1.229979979979979 	299.9999999999935 	4.011959114804715e-12 	101325.0000000002
1.232482482482482 	299.9999999999889 	3.308931679415471e-12 	101325.0000000003
1.234984984984984 	299.9999999999889 	4.030343925694648e-12 	101325.0000000003
1.237487487487487 	299.9999999999909 	3.477401287593898e-12 	101325.0000000003
1.239989989989989 	299.9999999999916 	4.133612649063518e-12 	101325.0000000002
1.242492492492492 	300.0000000000016 	4.502903710412801e-12 	101325.0000000001
1.244994994994994 	299.9999999999937 	3.783604080509534e-12 	101325.0000000001
1.247497497497497 	299.9999999999967 	4.738499751401615e-12 	101325.0000000001
1.249999999999999 	300.0000000000558 	4.478514583938884e-12 	101325
