-1.25 	257.7836037248986 	0.1011019819574625 	101282.7836037249
-1.247497497497497 	301.1997129871938 	0.1019715351318534 	101283.1381661961
-1.244994994994995 	299.9839941611394 	0.1022683793420139 	101283.5259536845
-1.242492492492492 	299.9654397481893 	0.1007132065892642 	101283.9042064294
-1.23998998998999 	299.9655626230085 	0.0996739205270373 	101284.294454734
-1.237487487487487 	299.9658992049696 	0.09887227542432933 	101284.692223997
-1.234984984984985 	299.966241810149 	0.09775307426369172 	101285.0969604342
-1.232482482482482 	299.9665903514467 	0.09681354661935099 	101285.5089091692
-1.22997997997998 	299.966945239132 	0.09575446262830629 	101285.9283442187
-1.227477477477477 	299.967307137955 	0.09471648321873233 	101286.3560715754
-1.224974974974975 	299.9676756544671 	0.0936477836210315 	101286.7916201473
-1.222472472472472 	299.9680492819937 	0.09256230497333605 	101287.2332111173
-1.21996996996997 	299.9684280392356 	0.0914680189629456 	101287.6808668855
-1.217467467467467 	299.9688130052225 	0.09035571294704864 	101288.1358617073
-1.214964964964965 	299.9692037714449 	0.08922468515167238 	101288.5977130051
-1.212462462462462 	299.9696001000037 	0.0880758464165225 	101289.0661400101
-1.20995995995996 	299.9700019996278 	0.08690916612247541 	101289.5411526994
-1.207457457457457 	299.9704088004096 	0.08572845392437517 	101290.021959734
-1.204954954954955 	299.9708218205959 	0.08453191462143438 	101290.5101186802
-1.202452452452452 	299.9712409974377 	0.08332174012241166 	101291.0055563772
-1.19994994994995 	299.9716647017514 	0.08209451598935036 	101291.5063476515
-1.197447447447447 	299.9720935948377 	0.08085035559131457 	101292.0132724374
-1.194944944944945 	299.9725275654169 	0.07959251893320003 	101292.526199878
-1.192442442442442 	299.9729665164722 	0.07831995292611485 	101293.0450163379
-1.18993993993994 	299.9734109277767 	0.07703552574384054 	101293.5702879815
-1.187437437437437 	299.9738595868073 	0.0757364919871916 	101294.1005822412
-1.184934934934935 	299.9743128027503 	0.07442078897067192 	101294.6362647995
-1.182432432432432 	299.9747715397045 	0.07308926947515547 	101295.1784735845
-1.17992992992993 	299.9752345072069 	0.07174699821366476 	101295.7256847167
-1.177427427427427 	299.9757019162208 	0.07039592327721494 	101296.2781491129
-1.174924924924925 	299.9761746214925 	0.06902851396715567 	101296.836874874
-1.172422422422422 	299.9766508804277 	0.06764810901848481 	101297.3998034855
-1.16991991991992 	299.9771310265958 	0.06625213596936264 	101297.9673294074
-1.167417417417417 	299.9776168901103 	0.06484292643555284 	101298.5416125435
-1.164914914914915 	299.9781064371632 	0.06343064691917527 	101299.1202507535
-1.162412412412412 	299.9785984760195 	0.06200597909723791 	101299.7018399599
-1.15990990990991 	299.97909531903 	0.06056585881887047 	101300.289113569
-1.157407407407407 	299.9795968870774 	0.05911013668601758 	101300.8819737529
-1.154904904904904 	299.9801016225064 	0.05764457522613584 	101301.4785751257
-1.152402402402403 	299.9806096090331 	0.05617722841616302 	101302.0790174322
-1.1498998998999 	299.9811203940552 	0.05469945625293207 	101302.682770106
-1.147397397397397 	299.9816345211433 	0.05320818359353539 	101303.2904821494
-1.144894894894895 	299.9821549599581 	0.05169985014214947 	101303.905664231
-1.142392392392392 	299.9826799321906 	0.05018046269922377 	101304.5262078951
-1.13988988988989 	299.9832038515789 	0.04866402395253944 	101305.1455054872
-1.137387387387387 	299.9837277187548 	0.04714431949019333 	101305.764739665
-1.134884884884885 	299.9842583905807 	0.04560759250716635 	101306.3920151951
-1.132382382382382 	299.9847968053896 	0.04404999060108563 	101307.0284385876
-1.12987987987988 	299.9853364734976 	0.04248716056106685 	101307.6663406934
-1.127377377377377 	299.9858730621407 	0.04093091795540176 	101308.3006073237
-1.124874874874875 	299.9864102136515 	0.03937137293332203 	101308.9355478584
-1.122372372372372 	299.9869537400165 	0.03779807902689584 	101309.5780308461
-1.11986986986987 	299.9875035385647 	0.03620807833672265 	101310.2279324285
-1.117367367367367 	299.9880556351503 	0.03460831867048262 	101310.8805537297
-1.114864864864865 	299.9886084557027 	0.03300625356690615 	101311.5340341937
-1.112362362362362 	299.9891620659515 	0.03140338579244854 	101312.1884521764
-1.10985985985986 	299.9897161250505 	0.0298001845035371 	101312.8434050583
-1.107357357357357 	299.9902710780197 	0.02819308596722259 	101313.499418407
-1.104854854854855 	299.9908276155235 	0.02657859334599596 	101314.1573091942
-1.102352352352353 	299.9913872507997 	0.02495235048745084 	101314.8188655881
-1.09984984984985 	299.9919521810178 	0.02331519125137703 	101315.4866838356
-1.097347347347347 	299.9925210914706 	0.02167266126238558 	101316.1592092869
-1.094844844844845 	299.9930892822778 	0.02002735211674868 	101316.8308849665
-1.092342342342342 	299.9936552492514 	0.01838670185522458 	101317.4999336764
-1.08983983983984 	299.9942198051108 	0.01674882166998549 	101318.1673203084
-1.087337337337337 	299.9947855347442 	0.01510888933228455 	101318.8360994156
-1.084834834834835 	299.9953549525067 	0.01346566181015102 	101319.5092406839
-1.082332332332332 	299.9959270790784 	0.01181117983492538 	101320.1855861354
-1.07982982982983 	299.996498647998 	0.01014845927394061 	101320.8612760839
-1.077327327327327 	299.9970714552609 	0.008483839082853375 	101321.5384337619
-1.074824824824825 	299.9976444006816 	0.006823591964405679 	101322.2157581333
-1.072322322322323 	299.9982166187347 	0.005170063118247657 	101322.8922216223
-1.06981981981982 	299.9987889167828 	0.003513354186956885 	101323.5687816923
-1.067317317317317 	299.9993639075189 	0.001846902797416191 	101324.2485352544
-1.064814814814815 	299.9999431586633 	0.0007949845268266425 	101324.9333333712
-1.062312312312312 	300.0005227585052 	0.001505952746955929 	101325.6185434077
-1.05980980980981 	300.0010996657655 	0.003177050325217408 	101326.3005644393
-1.057307307307307 	300.0016739796059 	0.004840998883573633 	101326.9795162374
-1.054804804804805 	300.0022465366767 	0.00649983257624985 	101327.6563979575
-1.052302302302302 	300.0028179663153 	0.008155350391448794 	101328.3319614747
-1.0497997997998 	300.0033886296624 	0.009808603973804609 	101329.0066310046
-1.047297297297297 	300.0039586792336 	0.01146002914101352 	101329.680575202
-1.044794794794795 	300.0045281254619 	0.01310965148432346 	101330.3537964007
-1.042292292292292 	300.0050968910594 	0.0147572618296298 	101331.0262037913
-1.03978978978979 	300.0056648535094 	0.01640254074509846 	101331.6976637722
-1.037287287287287 	300.0062318773083 	0.01804513053194558 	101332.3680290527
-1.034784784784785 	300.0067978336685 	0.01968466777677621 	101333.0371512888
-1.032282282282283 	300.0073626056105 	0.02132079568758872 	101333.7048847174
-1.02977977977978 	300.0079260839316 	0.02295316779776646 	101334.3710877413
-1.027277277277277 	300.0084881618155 	0.02458145000632879 	101335.0356243428
-1.024774774774775 	300.0090487310321 	0.02620532084239794 	101335.6983636142
-1.022272272272272 	300.0096076789253 	0.02782446526138461 	101336.3591771537
-1.01976976976977 	300.0101648874721 	0.02943856917194406 	101337.0179369772
-1.017267267267267 	300.0107202386843 	0.0310473216551278 	101337.6745159407
-1.014764764764765 	300.0112736221 	0.03265041752492971 	101338.3287892667
-1.012262262262262 	300.0118249359508 	0.03424755696424066 	101338.9806349407
-1.00975975975976 	300.0123740818021 	0.03583844414771855 	101339.6299324174
-1.007257257257257 	300.0129209602594 	0.0374227829796689 	101340.2765607475
-1.004754754754755 	300.0134654729303 	0.03900027514933292 	101340.9203981485
-1.002252252252252 	300.0140075241433 	0.04057062456644213 	101341.5613235089
-0.9997497497497498 	300.0145470172252 	0.04213354079945466 	101342.1992180991
-0.9972472472472473 	300.0150838513197 	0.04368873799108999 	101342.8339655849
-0.9947447447447449 	300.0156179246809 	0.04523593223175629 	101343.4654502241
-0.9922422422422421 	300.0161491405989 	0.04677483848510926 	101344.0935554801
-0.9897397397397399 	300.0166774055415 	0.04830517063338073 	101344.718164515
-0.9872372372372376 	300.0172026211475 	0.04982664499957456 	101345.3391613221
-0.9847347347347346 	300.0177246828837 	0.051338981240122 	101345.9564313757
-0.9822322322322323 	300.0182434885677 	0.05284190207102627 	101346.5698616834
-0.9797297297297296 	300.0187589473635 	0.05433513388287843 	101347.1793404428
-0.9772272272272275 	300.0192709754763 	0.0558184046197451 	101347.7847565541
-0.9747247247247248 	300.0197794821098 	0.0572914411921708 	101348.3859987691
-0.9722222222222224 	300.0202843635399 	0.05875397066835424 	101348.9829553949
-0.9697197197197196 	300.0207855136999 	0.06020572254510928 	101349.5755156104
-0.9672172172172175 	300.0212828400467 	0.06164643055487427 	101350.1635708362
-0.9647147147147147 	300.0217762657455 	0.06307583384958382 	101350.7470147006
-0.9622122122122124 	300.022265715492 	0.06449367444734228 	101351.3257419252
-0.9597097097097099 	300.0227510996323 	0.06589969417917131 	101351.8996470879
-0.9572072072072073 	300.0232323131328 	0.06729363503831404 	101352.4686246535
-0.9547047047047047 	300.0237092514105 	0.06867523970897584 	101353.0325696414
-0.9522022022022023 	300.0241818247142 	0.07004425090021507 	101353.591377119
-0.9496996996996998 	300.0246499598623 	0.07140041054877014 	101354.1449415194
-0.9471971971971973 	300.0251135867368 	0.07274345955346694 	101354.6931569587
-0.9446946946946947 	300.0255726223342 	0.07407314070834579 	101355.2359182371
-0.9421921921921923 	300.0260269675156 	0.07538920268910644 	101355.7731224043
-0.93968968968969 	300.0264765161815 	0.07669139933992934 	101356.3046692017
-0.9371871871871872 	300.0269211702093 	0.07797948756138784 	101356.8304595978
-0.9346846846846848 	300.0273608490596 	0.07925322674027133 	101357.3503950422
-0.9321821821821823 	300.027795487984 	0.08051237840088754 	101357.8643780551
-0.9296796796796799 	300.0282250272786 	0.08175670840396551 	101358.3723129314
-0.9271771771771771 	300.0286493995142 	0.08298598926714515 	101358.874106651
-0.9246746746746748 	300.0290685232166 	0.08419999815177598 	101359.3696685106
-0.9221721721721724 	300.0294823049031 	0.08539851376682017 	101359.8589081761
-0.9196696696696698 	300.0298906481069 	0.08658131547313366 	101360.3417352681
-0.9171671671671672 	300.030293464331 	0.08774818392137536 	101360.8180602654
-0.9146646646646649 	300.0306906778009 	0.08889890345596031 	101361.2877948971
-0.9121621621621623 	300.0310822255454 	0.09003326403534222 	101361.7508531532
-0.9096596596596597 	300.0314680536316 	0.09115106060134191 	101362.2071516576
-0.9071571571571573 	300.0318481094225 	0.09225209108085609 	101362.6566079373
-0.9046546546546547 	300.0322223355408 	0.09333615460826201 	101363.099139704
-0.9021521521521524 	300.0325906668785 	0.09440305123911283 	101363.5346654308
-0.8996496496496498 	300.0329530311781 	0.09545258278990904 	101363.9631039823
-0.8971471471471473 	300.0333093525792 	0.09648455444592249 	101364.3843754112
-0.894644644644645 	300.0336595564831 	0.09749877712815885 	101364.798402715
-0.892142142142142 	300.0340035714293 	0.09849506736141342 	101365.205111008
-0.8896396396396397 	300.0343413286495 	0.09947324469958288 	101365.6044263752
-0.8871371371371374 	300.0346727631631 	0.1004331317612587 	101365.9962765616
-0.8846346346346349 	300.0349978130113 	0.1013745537348884 	101366.3805902263
-0.8821321321321324 	300.035316417482 	0.1022973361371647 	101366.7572958301
-0.8796296296296297 	300.0356285182401 	0.1032013074247757 	101367.1263232504
-0.8771271271271271 	300.0359340591333 	0.1040863008783345 	101367.4876044886
-0.8746246246246248 	300.0362329850875 	0.1049521522387936 	101367.8410722863
-0.8721221221221224 	300.0365252421684 	0.1057987013350128 	101368.1866610665
-0.8696196196196196 	300.03681077889 	0.1066257948046116 	101368.5243083394
-0.8671171171171175 	300.0370895448491 	0.1074332825249778 	101368.8539529063
-0.8646146146146148 	300.0373614894222 	0.1082210166575192 	101369.1755340617
-0.8621121121121121 	300.0376265641095 	0.1089888542536145 	101369.4889934003
-0.8596096096096097 	300.0378847214594 	0.1097366556675759 	101369.7942742283
-0.857107107107107 	300.038135913611 	0.1104642825922094 	101370.091319733
-0.8546046046046049 	300.0383800942925 	0.1111716003561067 	101370.3800746002
-0.8521021021021022 	300.0386172193431 	0.1118584798936877 	101370.6604865345
-0.8495995995995997 	300.0388472453701 	0.1125247952687794 	101370.9325040815
-0.8470970970970974 	300.0390701290235 	0.1131704217973754 	101371.1960758309
-0.8445945945945946 	300.0392858292545 	0.1137952400001273 	101371.451153098
-0.8420920920920922 	300.0394943074362 	0.1143991368305114 	101371.6976900356
-0.8395895895895897 	300.0396955244498 	0.1149820001353246 	101371.9356406274
-0.8370870870870872 	300.0398894420795 	0.1155437196807128 	101372.1649594188
-0.8345845845845846 	300.0400760253787 	0.1160841939555064 	101372.385605076
-0.8320820820820823 	300.0402552414051 	0.1166033262503708 	101372.5975386852
-0.8295795795795798 	300.0404270559685 	0.1171010178897235 	101372.8007195834
-0.8270770770770772 	300.040591435673 	0.1175771744047116 	101372.9951083808
-0.8245745745745746 	300.0407483523032 	0.1180317120704914 	101373.1806716036
-0.8220720720720721 	300.0408977781768 	0.1184645489611544 	101373.3573765326
-0.8195695695695699 	300.0410396822197 	0.1188755981097845 	101373.5251863458
-0.817067067067067 	300.0411740368514 	0.1192647814763191 	101373.6840684442
-0.8145645645645651 	300.0413008221432 	0.1196320370774088 	101373.8339992777
-0.8120620620620621 	300.0414200158131 	0.1199772984031295 	101373.9749522442
-0.8095595595595597 	300.0415315893397 	0.1203004892064057 	101374.106893803
-0.8070570570570572 	300.0416355223417 	0.1206015514499335 	101374.2297998818
-0.8045545545545546 	300.0417318038623 	0.1208804449565721 	101374.3436572808
-0.8020520520520523 	300.0418204133464 	0.1211371108119732 	101374.4484417835
-0.7995495495495494 	300.0419013230442 	0.1213714791301512 	101374.544120479
-0.7970470470470474 	300.0419745218782 	0.1215835161594455 	101374.6306804002
-0.7945445445445446 	300.0420400101161 	0.1217732093130488 	101374.7081217759
-0.7920420420420423 	300.0420977688077 	0.1219405079051199 	101374.7764221149
-0.7895395395395397 	300.0421477702965 	0.1220853482158382 	101374.8355488223
-0.7870370370370371 	300.0421900160036 	0.122207727164162 	101374.8855034723
-0.7845345345345348 	300.0422245190062 	0.1223076629087678 	101374.9263015606
-0.7820320320320323 	300.0422512578156 	0.1223851024395759 	101374.9579176317
-0.7795295295295296 	300.0422702003925 	0.1224399776596104 	101374.9803138806
-0.7770270270270272 	300.0422813621846 	0.1224723203910586 	101374.9935085109
-0.7745245245245247 	300.0422847752246 	0.1224821905211551 	101374.997538867
-0.7720220220220222 	300.0422804137995 	0.1224695304519534 	101374.9923750329
-0.7695195195195199 	300.0422682330616 	0.1224342537799811 	101374.9779650582
-0.767017017017017 	300.0422482646645 	0.1223764313687764 	101374.9543450847
-0.7645145145145147 	300.042220569046 	0.122296190268755 	101374.9215865469
-0.7620120120120122 	300.0421851208646 	0.1221934748062068 	101374.8796597321
-0.7595095095095097 	300.042141852024 	0.1220681485438 	101374.8284842013
-0.7570070070070072 	300.0420907977023 	0.121920299486417 	101374.7681016032
-0.7545045045045048 	300.0420320630933 	0.1217501539201466 	101374.6986362844
-0.7520020020020022 	300.0419656395682 	0.1215576892864405 	101374.6200780574
-0.7494994994994997 	300.0418914160466 	0.1213426779288126 	101374.5322952961
-0.7469969969969972 	300.0418094043735 	0.1211051706521305 	101374.4353023424
-0.7444944944944945 	300.0417197714044 	0.1208455410630327 	101374.3292967655
-0.7419919919919924 	300.0416225715138 	0.1205639011281548 	101374.2143426806
-0.7394894894894897 	300.0415176445928 	0.1202599073705941 	101374.0902506105
-0.7369869869869872 	300.0414049138161 	0.1199334238991618 	101373.9569296086
-0.7344844844844846 	300.0412845895096 	0.1195849413664019 	101373.8146286685
-0.7319819819819822 	300.0411568708626 	0.1192148971370433 	101373.6635833077
-0.7294794794794797 	300.0410216067837 	0.1188229533023604 	101373.5036151027
-0.7269769769769773 	300.0408785429385 	0.118408576059641 	101373.3344232646
-0.7244744744744747 	300.0407278135072 	0.1179721123134296 	101373.1561665128
-0.721971971971972 	300.040569828491 	0.117514492034108 	101372.9693294322
-0.7194694694694695 	300.0404046424233 	0.1170358163937551 	101372.7739761781
-0.7169669669669674 	300.0402318308887 	0.1165351365574138 	101372.5696053475
-0.7144644644644647 	300.0400511892103 	0.1160120488630115 	101372.3559754782
-0.711961961961962 	300.0398631902582 	0.1154676769539038 	101372.1336460598
-0.7094594594594597 	300.0396683709296 	0.1149032307923305 	101371.9032513909
-0.7069569569569573 	300.0394664921491 	0.1143181315219779 	101371.6645078427
-0.7044544544544545 	300.0392568381018 	0.1137107705405624 	101371.4165690715
-0.7019519519519523 	300.0390393623738 	0.1130811348910655 	101371.1593813602
-0.6994494494494495 	300.0388149600516 	0.1124313464713781 	101370.8940039591
-0.6969469469469471 	300.038584278089 	0.111762868385471 	101370.6212013862
-0.6944444444444446 	300.0383467041291 	0.1110742301897956 	101370.3402486887
-0.6919419419419421 	300.0381011456129 	0.1103629299231595 	101370.0498536097
-0.6894394394394396 	300.0378476891715 	0.1096292893417374 	101369.7501194792
-0.6869369369369374 	300.0375877607962 	0.1088767152096852 	101369.4427326761
-0.6844344344344344 	300.0373223090279 	0.1081073812041913 	101369.1288145384
-0.6819319319319321 	300.037050388721 	0.1073189795551912 	101368.8072471575
-0.6794294294294296 	300.0367702629629 	0.1065074444335612 	101368.4759772677
-0.6769269269269272 	300.0364818173162 	0.1056726655876447 	101368.1348709939
-0.6744244244244245 	300.0361870740435 	0.104819572385731 	101367.7863197478
-0.6719219219219222 	300.0358878254627 	0.103952393113722 	101367.4324413236
-0.6694194194194195 	300.0355832256262 	0.1030689644318459 	101367.0722332247
-0.6669169169169172 	300.0352705684396 	0.1021627620085753 	101366.7024957101
-0.6644144144144146 	300.0349486359088 	0.1012310146389249 	101366.3217911265
-0.661911911911912 	300.0346195856023 	0.1002791369084037 	101365.932673023
-0.6594094094094097 	300.0342867848956 	0.09931532513134537 	101365.5391231708
-0.656906906906907 	300.033950840327 	0.09834090147798334 	101365.1418565248
-0.6544044044044046 	300.0336085252879 	0.0973478566592349 	101364.737055869
-0.6519019019019021 	300.0332562242376 	0.09632741644815158 	101364.3204470147
-0.6493993993993996 	300.0328942605191 	0.09528062082708516 	101363.8924148583
-0.6468968968968971 	300.0325271195716 	0.09421869778856734 	101363.4582642657
-0.6443943943943946 	300.0321589087131 	0.0931517371734626 	101363.0228496197
-0.6418918918918921 	300.0317887510049 	0.09207734909634177 	101362.5851302791
-0.6393893893893897 	300.031411225293 	0.0909819347807618 	101362.1386951135
-0.6368868868868871 	300.0310217986388 	0.0898543272527407 	101361.6781874033
-0.6343843843843846 	300.0306218412963 	0.08869824628873299 	101361.2052320596
-0.6318818818818821 	300.0302179181504 	0.08753034754821991 	101360.7275937368
-0.6293793793793795 	300.0298156679406 	0.08636474277511522 	101360.2519369697
-0.6268768768768773 	300.0294141000539 	0.08519868922725191 	101359.7770845851
-0.6243743743743745 	300.0290059171841 	0.08401374803273795 	101359.2944937643
-0.6218718718718721 	300.028584263845 	0.08279229839408511 	101358.7959121065
-0.6193693693693696 	300.0281491632603 	0.08153460230863728 	101358.2813301492
-0.6168668668668671 	300.0277081381253 	0.08026045174402817 	101357.7598068911
-0.6143643643643645 	300.0272702770404 	0.07899305531431793 	101357.2420566828
-0.6118618618618621 	300.0268381579701 	0.07773877517923987 	101356.7310957975
-0.6093593593593596 	300.0264051665136 	0.07648035916629278 	101356.2190986112
-0.6068568568568571 	300.0259605646845 	0.07519004746235516 	101355.6933689752
-0.6043543543543546 	300.0254982513787 	0.07385224645497986 	101355.1466985104
-0.6018518518518521 	300.0250221492128 	0.07247742138741653 	101354.5837317293
-0.5993493493493496 	300.0245437779984 	0.07109571156015866 	101354.0180921063
-0.5968468468468471 	300.0240737495393 	0.06973475895567982 	101353.4623229641
-0.5943443443443446 	300.0236136579969 	0.06839854817095865 	101352.9183019769
-0.591841841841842 	300.023154475311 	0.06706321803056373 	101352.3753491918
-0.5893393393393397 	300.0226826492246 	0.06569309797750819 	101351.8174410414
-0.5868368368368371 	300.0221895802455 	0.0642656764850293 	101351.2344159181
-0.5843343343343346 	300.0216778960836 	0.06278813593476119 	101350.6293888521
-0.5818318318318321 	300.0211602299147 	0.06129409923260998 	101350.0173012931
-0.5793293293293297 	300.0206513191149 	0.05982271630131175 	101349.4155761414
-0.5768268268268271 	300.0201586459322 	0.05839381493471729 	101348.8330526347
-0.5743243243243245 	300.0196775865525 	0.05699492246626279 	101348.2642558402
-0.5718218218218221 	300.0191939212799 	0.05558789605723004 	101347.6923693186
-0.5693193193193196 	300.0186919996071 	0.05413077712885819 	101347.0988911881
-0.5668168168168171 	300.0181637292903 	0.05260195003142885 	101346.4742614787
-0.5643143143143147 	300.0176133576543 	0.05101302199262882 	101345.8235103094
-0.5618118118118121 	300.0170555191685 	0.04940360134595727 	101345.1639452667
-0.5593093093093094 	300.0165077704803 	0.04782121809844336 	101344.5163230232
-0.5568068068068072 	300.0159817226073 	0.04629735544249349 	101343.8943648415
-0.5543043043043046 	300.0154773218751 	0.0448318375871267 	101343.2979985025
-0.551801801801802 	300.0149828420552 	0.04339264629960244 	101342.7133534017
-0.5492992992992995 	300.014480186494 	0.04193028035863714 	101342.119031832
-0.5467967967967969 	300.0139527995881 	0.04039940834377623 	101341.4954641625
-0.5442942942942947 	300.0133927143942 	0.03877824810910002 	101340.8332389255
-0.5417917917917919 	300.0128039303165 	0.03707789429812226 	101340.1370931578
-0.5392892892892895 	300.0122009649932 	0.03533839554116427 	101339.4241967384
-0.536786786786787 	300.0116034000527 	0.03361383122016064 	101338.7177017643
-0.5342842842842846 	300.0110287792616 	0.03195280031601662 	101338.0383461681
-0.531781781781782 	300.010486641448 	0.03038183740566683 	101337.3974002009
-0.5292792792792794 	300.0099755873842 	0.02889712062301874 	101336.7932015503
-0.526776776776777 	300.0094839528888 	0.02746617051742168 	101336.2119537107
-0.5242742742742745 	300.0089934207896 	0.02603774216624889 	101335.6319977742
-0.521771771771772 	300.008484070249 	0.02455592688011011 	101335.0297830235
-0.5192692692692695 	300.0079393663528 	0.02297422577656386 	101334.3857652246
-0.516766766766767 	300.0073499635192 	0.02126633496097299 	101333.6889016678
-0.5142642642642645 	300.0067156597003 	0.01943172022839196 	101332.9389609683
-0.511761761761762 	300.0060453162946 	0.017495431390134 	101332.1464257948
-0.5092592592592596 	300.0053549770503 	0.01550283050378645 	101331.3302682012
-0.506756756756757 	300.0046647606865 	0.01351087597923291 	101330.5142751312
-0.5042542542542544 	300.0039953225846 	0.01157828118052897 	101329.722864812
-0.5017517517517521 	300.0033648546528 	0.009757141423678613 	101328.9775413652
-0.4992492492492494 	300.0027873248394 	0.008087729012605942 	101328.2948139865
-0.496746746746747 	300.0022718245568 	0.006596443862725153 	101327.6854263787
-0.4942442442442445 	300.0018226879141 	0.005296058641782434 	101327.1544983159
-0.4917417417417421 	300.0014401142245 	0.004187444457398326 	101326.702261971
-0.4892392392392395 	300.0011210610421 	0.003262097999405002 	101326.3251179916
-0.486736736736737 	300.0008602172444 	0.002504919663229115 	101326.0167858404
-0.4842342342342345 	300.0006509194874 	0.001896845233768032 	101325.7693871145
-0.481731731731732 	300.0004859295428 	0.001417088074446392 	101325.5743640812
-0.4792292292292296 	300.0003580339014 	0.001044879237554851 	101325.4231893382
-0.4767267267267268 	300.0002604648653 	0.0007606914449883903 	101325.307862355
-0.4742242242242246 	300.0001871583275 	0.0005469961767715162 	101325.221214401
-0.471721721721722 	300.0001328787921 	0.0003886378014317091 	101325.1570569084
-0.4692192192192195 	300.0000932465396 	0.0002729192921467549 	101325.1102125859
-0.4667167167167169 	300.0000646957122 	0.0001894905771855643 	101325.0764665833
-0.4642142142142145 	300.0000443929753 	0.0001301168549704378 	101325.0524695111
-0.461711711711712 	300.0000301348518 	8.838806217362349e-05 	101325.0356171172
-0.4592092092092094 	300.0000202420755 	5.94131790858474e-05 	101325.023924453
-0.456706706706707 	300.0000134580769 	3.95284857850714e-05 	101325.015906176
-0.4542042042042045 	300.0000088582491 	2.603628403496326e-05 	101325.0104696793
-0.451701701701702 	300.0000057737683 	1.698194516527003e-05 	101325.0068240594
-0.4491991991991995 	300.0000037273818 	1.097054812879064e-05 	101325.0044054172
-0.4466966966966969 	300.0000023837938 	7.020863516016059e-06 	101325.0028174386
-0.4441941941941945 	300.0000015106187 	4.452024493781827e-06 	101325.0017853733
-0.441691691691692 	300.0000009486351 	2.797762845387691e-06 	101325.0011212198
-0.4391891891891895 	300.0000005905309 	1.742708253034897e-06 	101325.000697936
-0.436686686686687 	300.0000003644014 	1.076159367469302e-06 	101325.0004307015
-0.4341841841841846 	300.0000002229856 	6.589143479467052e-07 	101325.0002635372
-0.431681681681682 	300.000000135249 	4.000933509509729e-07 	101325.0001599104
-0.4291791791791794 	300.000000081338 	2.409455557889415e-07 	101325.0000962369
-0.426676676676677 	300.0000000485215 	1.439436172887181e-07 	101325.0000574506
-0.4241741741741744 	300.0000000287614 	8.53106013477985e-08 	101325.0000340242
-0.421671671671672 	300.0000000169366 	5.017362503515829e-08 	101325.0000199923
-0.4191691691691694 	300.000000009932 	2.928056889866877e-08 	101325.0000116561
-0.4166666666666669 	300.0000000057855 	1.696385376052713e-08 	101325.0000067431
-0.4141641641641645 	300.0000000032085 	9.753090532313002e-09 	101325.0000038705
-0.411661661661662 	300.0000000018786 	5.569387651031563e-09 	101325.0000022038
-0.4091591591591594 	300.0000000010625 	3.156062558420249e-09 	101325.0000012439
-0.406656656656657 	300.0000000005251 	1.778406271271326e-09 	101325.0000006953
-0.4041541541541545 	300.0000000003565 	9.920098578375488e-10 	101325.0000003842
-0.401651651651652 	300.0000000000926 	5.532753721174071e-10 	101325.0000002088
-0.3991491491491494 	300.0000000000947 	3.024884803663552e-10 	101325.0000001106
-0.396646646646647 	300.0000000000055 	1.702009820928529e-10 	101325.0000000558
-0.3941441441441444 	299.9999999999998 	8.949801017810566e-11 	101325.0000000257
-0.3916416416416419 	299.9999999999374 	5.271858771971071e-11 	101325.0000000089
-0.3891391391391395 	299.9999999999692 	2.626376447482212e-11 	101325.0000000002
-0.3866366366366368 	299.9999999999577 	1.660249817664784e-11 	101324.9999999956
-0.3841341341341344 	299.9999999999979 	7.722370054830883e-12 	101324.9999999931
-0.381631631631632 	299.9999999999417 	4.726428159693838e-12 	101324.9999999917
-0.3791291291291294 	300.0000000000072 	1.65294714159914e-12 	101324.9999999909
-0.3766266266266269 	300.0000000000276 	5.837410713285985e-13 	101324.9999999905
-0.3741241241241244 	300.0000000000306 	1.53847771194357e-12 	101324.9999999903
-0.371621621621622 	300.0000000000127 	9.529925201614696e-13 	101324.9999999901
-0.3691191191191194 	300.0000000000061 	3.495148457859508e-12 	101324.9999999902
-0.366616616616617 	300.0000000000093 	8.093730700979164e-13 	101324.9999999905
-0.3641141141141143 	299.9999999999476 	3.737552243902286e-12 	101324.9999999908
-0.3616116116116119 	299.9999999999439 	1.590356941490576e-12 	101324.9999999908
-0.3591091091091095 	299.9999999999886 	3.869602284739239e-12 	101324.9999999907
-0.356606606606607 	299.9999999999601 	2.856907198385951e-12 	101324.9999999908
-0.3541041041041044 	299.9999999999929 	2.829669107962991e-12 	101324.9999999908
-0.3516016016016019 	300.0000000000054 	3.252076762227409e-12 	101324.9999999909
-0.3490990990990994 	299.9999999999929 	1.439150505440207e-12 	101324.9999999913
-0.346596596596597 	300.0000000000552 	3.868369551735607e-12 	101324.9999999916
-0.3440940940940944 	300.000000000065 	2.276026737683805e-12 	101324.9999999913
-0.3415915915915919 	300.0000000000162 	4.789603917491359e-12 	101324.9999999913
-0.3390890890890895 	299.9999999999764 	2.868815488977827e-12 	101324.9999999909
-0.3365865865865869 	300.0000000000197 	4.749827706445002e-12 	101324.9999999905
-0.3340840840840844 	300.0000000000081 	3.233920216380151e-12 	101324.9999999906
-0.3315815815815819 	300.000000000027 	4.521129387846099e-12 	101324.9999999904
-0.3290790790790794 	300.0000000000247 	3.585862639093858e-12 	101324.9999999904
-0.3265765765765769 	299.9999999999178 	4.916878332241234e-12 	101324.9999999905
-0.3240740740740744 	299.9999999999916 	2.41807556033841e-12 	101324.9999999903
-0.3215715715715718 	300.0000000000048 	4.200371131585643e-12 	101324.9999999905
-0.3190690690690695 	299.999999999926 	1.107917850966873e-12 	101324.9999999904
-0.3165665665665668 	299.9999999999911 	3.783879458718901e-12 	101324.9999999905
-0.3140640640640644 	300.0000000000071 	6.745747460447874e-13 	101324.9999999906
-0.311561561561562 	299.9999999999146 	4.780470426687774e-12 	101324.9999999907
-0.3090590590590593 	299.9999999999914 	1.403822744834801e-12 	101324.9999999909
-0.3065565565565568 	300.0000000000024 	6.332948916106506e-12 	101324.9999999906
-0.3040540540540545 	300.0000000000019 	1.694330569407245e-12 	101324.9999999907
-0.3015515515515518 	300.0000000000415 	5.411177649091085e-12 	101324.9999999907
-0.2990490490490494 	299.9999999999425 	1.028379733516028e-12 	101324.9999999907
-0.2965465465465469 	299.9999999999897 	3.811304096612097e-12 	101324.9999999906
-0.2940440440440444 	300.0000000000048 	2.538788381578581e-12 	101324.9999999909
-0.2915415415415418 	300.0000000000041 	4.147290995431543e-12 	101324.999999991
-0.2890390390390395 	300.0000000000067 	3.595047797512131e-12 	101324.9999999909
-0.2865365365365368 	299.9999999999848 	2.279464288507476e-12 	101324.9999999907
-0.2840340340340343 	299.9999999999917 	3.574115871191593e-12 	101324.9999999905
-0.2815315315315318 	299.9999999999227 	1.516219222794143e-12 	101324.9999999904
-0.2790290290290295 	299.9999999999441 	3.158210639593682e-12 	101324.9999999906
-0.2765265265265269 	300.0000000000082 	2.81296573337216e-12 	101324.9999999906
-0.2740240240240244 	300.0000000000334 	4.677487352268158e-12 	101324.9999999906
-0.2715215215215219 	300.0000000000118 	4.862690245264889e-12 	101324.9999999905
-0.2690190190190194 	299.9999999999359 	4.1370593516963e-12 	101324.9999999901
-0.2665165165165169 	299.9999999999961 	4.588232437445114e-12 	101324.9999999899
-0.2640140140140144 	299.999999999955 	3.080356534194184e-12 	101324.9999999895
-0.2615115115115119 	300.0000000000005 	4.871025258760221e-12 	101324.9999999895
-0.2590090090090094 	299.9999999999186 	3.56342246239531e-12 	101324.9999999894
-0.2565065065065068 	299.9999999999918 	4.266842606514211e-12 	101324.9999999896
-0.2540040040040044 	299.9999999999965 	3.930347943893e-12 	101324.9999999894
-0.2515015015015019 	300.0000000000467 	2.55111328840128e-12 	101324.9999999895
-0.2489989989989994 	300.0000000000555 	4.486537884795854e-12 	101324.9999999897
-0.2464964964964968 	299.9999999999913 	1.255474097696921e-12 	101324.9999999897
-0.2439939939939944 	299.9999999999975 	4.772321498525663e-12 	101324.9999999899
-0.2414914914914919 	299.9999999999678 	7.136803937730791e-13 	101324.99999999
-0.2389889889889893 	300.0000000000062 	5.296838992270313e-12 	101324.9999999902
-0.2364864864864869 	300.000000000029 	1.71447763385706e-12 	101324.9999999902
-0.2339839839839843 	299.999999999914 	6.686365011510959e-12 	101324.9999999906
-0.2314814814814819 	299.9999999999844 	2.271563477357278e-12 	101324.9999999905
-0.2289789789789792 	299.9999999999067 	5.732698510599579e-12 	101324.9999999903
-0.2264764764764769 	299.9999999999392 	2.894940646907352e-12 	101324.9999999903
-0.2239739739739743 	299.9999999999524 	4.794583830289084e-12 	101324.99999999
-0.2214714714714718 	299.9999999999267 	3.837526183183319e-12 	101324.9999999901
-0.2189689689689693 	299.9999999999632 	3.831441232015011e-12 	101324.9999999903
-0.2164664664664669 	299.9999999999762 	5.24387351434027e-12 	101324.9999999902
-0.2139639639639643 	299.999999999917 	3.916399164259327e-12 	101324.9999999903
-0.2114614614614618 	299.9999999999727 	4.211845017016245e-12 	101324.99999999
-0.2089589589589593 	299.9999999999885 	3.647819628143936e-12 	101324.99999999
-0.2064564564564568 	299.9999999999869 	2.881007635885456e-12 	101324.9999999901
-0.2039539539539543 	299.9999999998978 	3.396027267935941e-12 	101324.9999999902
-0.2014514514514518 	299.9999999999405 	7.974279082202928e-13 	101324.9999999903
-0.1989489489489494 	299.9999999999687 	3.413881557872559e-12 	101324.9999999905
-0.1964464464464468 	299.9999999999886 	6.179733472361362e-13 	101324.9999999901
-0.1939439439439443 	299.9999999999864 	4.502665957712824e-12 	101324.9999999905
-0.1914414414414418 	299.9999999999009 	2.022561445367586e-12 	101324.9999999906
-0.1889389389389393 	300.0000000000076 	3.608317809685467e-12 	101324.9999999904
-0.1864364364364368 	300.0000000000533 	2.180953361837001e-12 	101324.9999999908
-0.1839339339339343 	299.9999999999642 	4.34156144075694e-12 	101324.9999999908
-0.1814314314314318 	299.9999999999972 	2.639748227660912e-12 	101324.9999999905
-0.1789289289289293 	299.9999999998874 	4.657684231497755e-12 	101324.9999999902
-0.1764264264264268 	299.9999999999739 	1.505707559346935e-12 	101324.9999999901
-0.1739239239239243 	299.9999999998864 	5.645914723614548e-12 	101324.9999999903
-0.1714214214214218 	299.9999999999854 	1.249079294673258e-12 	101324.9999999905
-0.1689189189189193 	299.9999999999473 	7.116841764692517e-12 	101324.9999999904
-0.1664164164164168 	300.0000000000047 	8.052734522183993e-13 	101324.9999999903
-0.1639139139139143 	299.9999999999857 	8.254992319605837e-12 	101324.9999999903
-0.1614114114114118 	300.0000000000368 	1.865939804021177e-12 	101324.9999999906
-0.1589089089089093 	300.0000000000011 	1.006252746379907e-11 	101324.9999999908
-0.1564064064064068 	299.999999999983 	3.849096628789707e-12 	101324.9999999904
-0.1539039039039043 	299.9999999999862 	1.020635900795488e-11 	101324.9999999902
-0.1514014014014018 	300.0000000000305 	3.225374379573594e-12 	101324.99999999
-0.1488988988988993 	299.9999999999777 	9.186881297343085e-12 	101324.9999999898
-0.1463963963963968 	300.000000000001 	2.602152672036809e-12 	101324.9999999899
-0.1438938938938943 	299.9999999999463 	7.727077246055356e-12 	101324.9999999897
-0.1413913913913918 	299.999999999908 	9.863193045003587e-13 	101324.9999999898
-0.1388888888888893 	299.999999999977 	6.550522724363672e-12 	101324.9999999899
-0.1363863863863868 	299.9999999998761 	1.404618984405645e-12 	101324.9999999898
-0.1338838838838843 	299.9999999998983 	5.404676397224781e-12 	101324.9999999899
-0.1313813813813818 	299.9999999999946 	1.463866963230499e-12 	101324.9999999903
-0.1288788788788793 	299.9999999999506 	4.965758094662228e-12 	101324.9999999902
-0.1263763763763768 	299.9999999999608 	7.034461928523974e-13 	101324.99999999
-0.1238738738738743 	299.9999999999068 	4.313035434030352e-12 	101324.9999999901
-0.1213713713713717 	299.9999999999647 	7.257510091452547e-13 	101324.99999999
-0.1188688688688693 	300.0000000000065 	4.934170239584594e-12 	101324.9999999901
-0.1163663663663668 	299.999999999888 	1.592734067641988e-12 	101324.9999999904
-0.1138638638638643 	299.9999999999861 	3.902643967094436e-12 	101324.9999999902
-0.1113613613613618 	299.9999999999805 	3.503944076562928e-12 	101324.99999999
-0.1088588588588592 	299.9999999999653 	3.49320726706019e-12 	101324.9999999899
-0.1063563563563568 	299.9999999999385 	3.353148584365316e-12 	101324.9999999898
-0.1038538538538543 	299.9999999999678 	3.005287302850765e-12 	101324.9999999899
-0.1013513513513517 	300.0000000000153 	1.872322652098765e-12 	101324.99999999
-0.09884884884884926 	299.9999999999348 	2.885095749445664e-12 	101324.99999999
-0.09634634634634676 	299.9999999998766 	4.727154975749711e-13 	101324.99999999
-0.09384384384384425 	299.9999999999194 	1.889870064580224e-12 	101324.9999999904
-0.09134134134134177 	300.0000000000305 	3.821905684698697e-13 	101324.9999999903
-0.08883883883883925 	300.0000000000043 	2.261660830621155e-12 	101324.9999999901
-0.08633633633633674 	299.9999999999468 	1.058164104760389e-12 	101324.9999999904
-0.08383383383383426 	300.0000000000128 	2.236469043377065e-12 	101324.9999999903
-0.08133133133133173 	299.9999999999557 	2.032167719312462e-12 	101324.9999999904
-0.07882882882882926 	299.9999999998599 	2.50116006637785e-12 	101324.9999999902
-0.07632632632632676 	299.9999999999531 	2.118838947220461e-12 	101324.9999999898
-0.07382382382382424 	299.9999999998813 	2.237548799766808e-12 	101324.9999999898
-0.07132132132132173 	300.0000000000156 	2.078412994049434e-12 	101324.9999999897
-0.06881881881881925 	299.9999999999433 	2.493806398322408e-12 	101324.9999999899
-0.06631631631631671 	299.999999999875 	1.923459956990058e-12 	101324.9999999899
-0.06381381381381425 	299.9999999999493 	1.373654472081559e-12 	101324.9999999901
-0.06131131131131173 	299.9999999999487 	1.801529810612579e-12 	101324.9999999901
-0.05880880880880923 	299.9999999999027 	1.660706146710408e-12 	101324.9999999902
-0.05630630630630672 	299.999999999963 	2.123527131969013e-12 	101324.9999999903
-0.05380380380380424 	300.0000000000138 	2.229242015008601e-12 	101324.9999999905
-0.05130130130130173 	300.0000000000112 	2.855186055508883e-12 	101324.9999999904
-0.04879879879879922 	299.9999999999367 	2.9513339403598e-12 	101324.99999999
-0.04629629629629672 	299.9999999999231 	2.079923386163398e-12 	101324.99999999
-0.04379379379379422 	299.9999999999103 	1.584079561844698e-12 	101324.9999999898
-0.04129129129129173 	299.9999999999778 	1.410241825831788e-12 	101324.9999999898
-0.03878878878878922 	299.9999999999785 	1.665561824846286e-12 	101324.99999999
-0.03628628628628671 	299.9999999999745 	1.23566839497652e-12 	101324.9999999902
-0.03378378378378422 	299.999999999914 	7.809616461030967e-13 	101324.9999999903
-0.03128128128128172 	299.9999999999631 	1.951377458029099e-13 	101324.9999999902
-0.02877877877877922 	299.9999999999596 	8.937913685157618e-13 	101324.9999999901
-0.0262762762762767 	299.9999999998833 	1.096500763497807e-12 	101324.9999999898
-0.02377377377377422 	300.0000000000175 	1.511718604609856e-12 	101324.99999999
-0.0212712712712717 	299.9999999998903 	1.366829077834701e-12 	101324.9999999899
-0.01876876876876921 	299.999999999974 	1.419005568749563e-12 	101324.9999999898
-0.01626626626626671 	300.0000000000184 	1.770072076159413e-12 	101324.9999999895
-0.0137637637637642 	299.9999999999609 	1.590979415436059e-12 	101324.9999999895
-0.0112612612612617 	300.0000000000157 	1.537623795322798e-12 	101324.9999999898
-0.008758758758759198 	300.0000000000017 	1.710397289953972e-12 	101324.9999999899
-0.006256256256256697 	299.9999999998645 	2.099616296207049e-12 	101324.9999999898
-0.003753753753754195 	299.9999999999445 	1.117471664911578e-12 	101324.9999999897
-0.001251251251251693 	299.9999999999176 	1.310626127884201e-12 	101324.9999999898
0.00125125125125081 	299.9999999999377 	5.935522049419765e-13 	101324.9999999899
0.003753753753753312 	299.9999999999555 	4.85059626880363e-13 	101324.9999999897
0.006256256256255817 	299.9999999998777 	1.334211648425183e-13 	101324.9999999896
0.008758758758758317 	299.9999999999886 	5.707074631542435e-14 	101324.9999999896
0.01126126126126082 	300.0000000000096 	3.091056650754594e-13 	101324.9999999892
0.01376376376376332 	299.9999999999598 	5.576593469051816e-13 	101324.9999999893
0.01626626626626582 	300.0000000000147 	5.696022893671005e-14 	101324.9999999894
0.01876876876876833 	299.9999999999369 	4.756393576986388e-14 	101324.9999999896
0.02127127127127083 	299.9999999999603 	5.185017881694575e-13 	101324.9999999896
0.02377377377377332 	299.9999999999921 	8.669814323839652e-13 	101324.9999999898
0.02627627627627583 	299.9999999998878 	1.479705968626468e-12 	101324.9999999899
0.02877877877877833 	300.0000000000155 	2.188811940493387e-12 	101324.9999999901
0.03128128128128083 	299.9999999999336 	1.671243110300173e-12 	101324.99999999
0.03378378378378333 	299.9999999998899 	1.9505598196087e-12 	101324.9999999901
0.03628628628628584 	299.9999999999584 	1.584228364503013e-12 	101324.9999999903
0.03878878878878834 	299.9999999999808 	1.567137175468284e-12 	101324.9999999904
0.04129129129129084 	299.9999999999756 	7.067550885687849e-13 	101324.9999999902
0.04379379379379333 	299.9999999999386 	6.578958687641579e-13 	101324.9999999899
0.04629629629629585 	299.9999999998764 	7.220236818965893e-13 	101324.99999999
0.04879879879879834 	299.9999999999508 	1.333425605606201e-12 	101324.9999999899
0.05130130130130085 	300.0000000000101 	6.00611279854563e-13 	101324.9999999901
0.05380380380380335 	300.0000000000171 	5.361733687555437e-13 	101324.9999999899
0.05630630630630584 	299.999999999996 	1.207219523407291e-13 	101324.9999999899
0.05880880880880836 	299.9999999999094 	5.830005626770236e-13 	101324.9999999898
0.06131131131131085 	299.9999999999652 	1.175205555946111e-12 	101324.9999999897
0.06381381381381336 	299.9999999999578 	1.392808650037627e-12 	101324.9999999893
0.06631631631631586 	299.9999999998715 	1.852290675804512e-12 	101324.9999999895
0.06881881881881835 	299.9999999999487 	2.197950252868318e-12 	101324.9999999892
0.07132132132132088 	299.9999999999879 	1.411691133459476e-12 	101324.9999999894
0.07382382382382337 	299.9999999998855 	1.067567231618297e-12 	101324.9999999895
0.07632632632632587 	299.9999999999643 	7.139560781597131e-13 	101324.99999999
0.07882882882882837 	299.9999999999202 	3.624816123167849e-13 	101324.9999999897
0.08133133133133086 	299.9999999999774 	8.829421057631974e-13 	101324.9999999897
0.08383383383383337 	299.9999999999766 	5.619996712280594e-13 	101324.9999999898
0.08633633633633589 	299.9999999998914 	9.443404422072896e-13 	101324.9999999901
0.08883883883883838 	300.000000000003 	1.671309325843787e-12 	101324.9999999902
0.09134134134134086 	299.9999999999695 	1.935137433953053e-12 	101324.9999999903
0.09384384384384339 	299.9999999998745 	2.688480627516144e-12 	101324.9999999903
0.09634634634634588 	299.9999999999537 	3.310823428771954e-12 	101324.9999999903
0.09884884884884838 	299.9999999999686 	3.504953202428819e-12 	101324.9999999904
0.1013513513513509 	300.0000000000175 	3.242035185419725e-12 	101324.99999999
0.1038538538538534 	299.999999999949 	3.01154415731183e-12 	101324.9999999898
0.1063563563563559 	300.0000000000126 	3.058390042216136e-12 	101324.9999999897
0.1088588588588584 	300.000000000034 	2.466869442582185e-12 	101324.9999999894
0.1113613613613609 	299.999999999903 	1.988990728367945e-12 	101324.9999999896
0.1138638638638634 	299.999999999944 	1.570867772354186e-12 	101324.9999999898
0.1163663663663659 	299.9999999999414 	7.188977499718372e-13 	101324.9999999899
0.1188688688688684 	299.9999999999702 	5.161471774632148e-13 	101324.99999999
0.1213713713713709 	299.9999999999969 	7.843471940345415e-13 	101324.99999999
0.1238738738738734 	299.9999999999123 	1.570617076429529e-13 	101324.9999999898
0.1263763763763759 	299.999999999975 	2.727258344777673e-13 	101324.99999999
0.1288788788788784 	299.9999999999774 	1.746424838118904e-13 	101324.9999999899
0.1313813813813809 	299.9999999999777 	4.740423629750769e-13 	101324.9999999901
0.1338838838838834 	299.9999999999709 	1.42879488260219e-12 	101324.9999999899
0.1363863863863859 	300.0000000000241 	1.063811801851857e-12 	101324.9999999898
0.1388888888888884 	300.000000000058 	2.327300938832132e-12 	101324.99999999
0.1413913913913909 	300.0000000000029 	1.655573135674151e-12 	101324.99999999
0.1438938938938934 	299.9999999999901 	3.318183735703754e-12 	101324.9999999899
0.1463963963963959 	299.9999999999511 	2.247246499125725e-12 	101324.9999999898
0.1488988988988985 	299.9999999998931 	4.667977712656201e-12 	101324.9999999895
0.1514014014014009 	299.9999999999598 	2.922545425245871e-12 	101324.9999999895
0.1539039039039035 	299.9999999999538 	5.192989545460049e-12 	101324.9999999893
0.1564064064064059 	299.9999999999147 	1.886834348789187e-12 	101324.9999999894
0.1589089089089084 	299.9999999999787 	4.527784762688508e-12 	101324.9999999896
0.1614114114114109 	299.9999999999722 	9.24080450783164e-13 	101324.9999999897
0.1639139139139134 	299.9999999998936 	2.781242826619259e-12 	101324.9999999898
0.166416416416416 	300.0000000000059 	1.559214749187108e-12 	101324.9999999897
0.1689189189189185 	300.000000000031 	1.799290406191645e-12 	101324.9999999895
0.1714214214214209 	300.0000000000031 	2.185389280245033e-12 	101324.9999999893
0.1739239239239235 	299.9999999999795 	7.038836196643631e-13 	101324.9999999894
0.1764264264264259 	299.9999999999644 	3.422303223992538e-12 	101324.9999999893
0.1789289289289284 	300.000000000009 	1.528986105821294e-12 	101324.9999999896
0.181431431431431 	299.9999999999525 	3.803197910703499e-12 	101324.9999999895
0.1839339339339334 	299.9999999999601 	1.965702113190413e-12 	101324.9999999898
0.186436436436436 	299.9999999999109 	3.615137161435609e-12 	101324.9999999899
0.1889389389389385 	299.9999999999789 	3.056681998469719e-12 	101324.9999999897
0.191441441441441 	299.9999999999741 	3.071930647657924e-12 	101324.9999999898
0.1939439439439434 	299.9999999999074 	4.513739204700899e-12 	101324.9999999894
0.196446446446446 	299.99999999993 	3.369311690881718e-12 	101324.9999999894
0.1989489489489485 	299.999999999957 	5.850732092693454e-12 	101324.9999999897
0.2014514514514509 	299.999999999974 	3.904123090272952e-12 	101324.9999999896
0.2039539539539535 	299.9999999999969 	4.910045571387542e-12 	101324.9999999894
0.2064564564564559 	299.9999999999548 	3.220792267404032e-12 	101324.9999999895
0.2089589589589585 	299.9999999999837 	3.627214642758029e-12 	101324.9999999899
0.211461461461461 	299.9999999999202 	3.066700881224509e-12 	101324.9999999898
0.2139639639639635 	299.9999999999731 	2.204772814628377e-12 	101324.9999999898
0.2164664664664659 	299.9999999999977 	3.299266029362466e-12 	101324.9999999896
0.2189689689689684 	299.9999999999982 	1.58179649629776e-12 	101324.9999999896
0.221471471471471 	299.9999999999858 	4.187211604750993e-12 	101324.9999999893
0.2239739739739735 	299.9999999999481 	2.172385176306596e-12 	101324.9999999891
0.226476476476476 	299.9999999999748 	3.548026642644694e-12 	101324.9999999893
0.2289789789789785 	299.9999999999982 	2.268121580028646e-12 	101324.9999999894
0.231481481481481 	299.9999999999858 	2.233482852464133e-12 	101324.9999999897
0.2339839839839835 	299.9999999999797 	3.056101716783383e-12 	101324.9999999897
0.236486486486486 	300.0000000000285 	1.982109186836783e-12 	101324.9999999898
0.2389889889889885 	300.0000000000047 	3.173711167635446e-12 	101324.9999999898
0.241491491491491 	299.9999999999065 	1.201585407808436e-12 	101324.9999999898
0.2439939939939935 	299.9999999999786 	4.391732705847371e-12 	101324.9999999898
0.246496496496496 	299.9999999999906 	1.7225262565573e-12 	101324.9999999899
0.2489989989989985 	300.0000000000435 	3.110890188641174e-12 	101324.9999999898
0.251501501501501 	300.0000000000354 	1.842619099722535e-12 	101324.9999999896
0.2540040040040035 	299.999999999982 	1.589228107946147e-12 	101324.9999999894
0.256506506506506 	300.0000000000363 	1.483694874930089e-12 	101324.9999999897
0.2590090090090086 	299.9999999998921 	9.254364298578931e-13 	101324.9999999898
0.261511511511511 	299.9999999999978 	1.734970101551662e-12 	101324.9999999896
0.2640140140140135 	299.9999999999883 	1.599495033191973e-12 	101324.9999999895
0.2665165165165161 	299.9999999999224 	4.860057307070618e-13 	101324.9999999898
0.2690190190190185 	300.0000000000157 	9.413752145552486e-13 	101324.9999999897
0.271521521521521 	300.0000000000212 	2.455108174918931e-13 	101324.9999999896
0.2740240240240235 	300.0000000000237 	5.539562802063603e-13 	101324.9999999898
0.276526526526526 	300.000000000013 	2.568941220528747e-13 	101324.9999999898
0.2790290290290286 	299.9999999999317 	1.735317767606799e-12 	101324.9999999899
0.281531531531531 	299.9999999999133 	1.012263188847098e-12 	101324.9999999898
0.2840340340340335 	299.9999999999769 	3.042054264549418e-12 	101324.9999999894
0.2865365365365361 	299.9999999999486 	1.743920395480912e-12 	101324.999999989
0.2890390390390385 	300.0000000000013 	2.257386514102339e-12 	101324.9999999887
0.291541541541541 	299.9999999999997 	1.917466169395694e-12 	101324.9999999886
0.2940440440440436 	299.999999999989 	3.784821189462073e-13 	101324.9999999887
0.296546546546546 	299.9999999999935 	1.915103308423192e-12 	101324.9999999886
0.2990490490490486 	299.9999999999291 	1.655809855733817e-12 	101324.9999999889
0.3015515515515511 	300.000000000053 	4.103306441981743e-12 	101324.9999999889
0.3040540540540535 	300.0000000000082 	2.327393070301241e-12 	101324.9999999892
0.3065565565565562 	299.9999999999885 	4.562665236811489e-12 	101324.9999999891
0.3090590590590585 	299.9999999999861 	1.733541149370545e-12 	101324.9999999891
0.3115615615615611 	299.9999999999254 	3.96264669097977e-12 	101324.9999999892
0.3140640640640635 	300.0000000000084 	9.363125133691282e-13 	101324.9999999892
0.316566566566566 	299.9999999999907 	3.104787162599874e-12 	101324.9999999892
0.3190690690690687 	299.99999999995 	7.438931243170227e-13 	101324.9999999891
0.3215715715715711 	300.0000000000189 	3.282707945377116e-12 	101324.9999999892
0.3240740740740735 	299.999999999997 	1.166958982037183e-12 	101324.9999999894
0.326576576576576 	299.9999999998871 	3.022818180891361e-12 	101324.9999999895
0.3290790790790786 	300.000000000013 	1.242198135153392e-12 	101324.9999999894
0.3315815815815811 	300.0000000000437 	2.129801760062863e-12 	101324.9999999898
0.3340840840840836 	299.9999999999802 	6.955624291856567e-13 	101324.9999999898
0.3365865865865861 	300.0000000000684 	1.573283341310401e-12 	101324.9999999897
0.3390890890890886 	300.0000000000601 	3.059786835512314e-13 	101324.9999999898
0.3415915915915911 	300.0000000000066 	1.231556799130329e-12 	101324.9999999897
0.3440940940940935 	299.9999999999501 	8.187143660381022e-13 	101324.9999999894
0.3465965965965962 	300.0000000000413 	1.121225316058739e-12 	101324.9999999892
0.3490990990990985 	300.0000000000329 	3.591795118668832e-13 	101324.9999999888
0.3516016016016011 	299.9999999999885 	2.301135696927089e-13 	101324.999999989
0.3541041041041035 	300.000000000009 	6.27757757669318e-13 	101324.9999999893
0.3566066066066061 	299.9999999999415 	1.338261413316164e-12 	101324.9999999894
0.3591091091091085 	299.9999999999029 	8.687684118644558e-13 	101324.9999999893
0.3616116116116112 	299.9999999999295 	2.395229573345645e-12 	101324.9999999896
0.3641141141141137 	299.9999999999231 	1.091120417000635e-12 	101324.9999999898
0.3666166166166161 	299.9999999999116 	3.013274466155915e-12 	101324.99999999
0.3691191191191185 	300.0000000000425 	2.332399214872728e-12 	101324.9999999899
0.371621621621621 	300.0000000000242 	2.623195758461498e-12 	101324.9999999895
0.3741241241241237 	300.0000000000556 	2.01373565666053e-12 	101324.9999999893
0.3766266266266261 	300.0000000000277 	2.214837829046545e-12 	101324.999999989
0.3791291291291286 	299.9999999999841 	8.757568721084156e-13 	101324.9999999891
0.3816316316316311 	299.9999999999076 	2.774751416387302e-12 	101324.9999999891
0.3841341341341336 	300.0000000000149 	9.380381847480671e-13 	101324.9999999893
0.3866366366366362 	299.9999999999958 	1.997784975392748e-12 	101324.9999999893
0.3891391391391387 	299.9999999999516 	6.552172370956784e-13 	101324.9999999892
0.391641641641641 	299.9999999999957 	2.429335474169862e-12 	101324.9999999893
0.3941441441441436 	300.0000000000027 	1.343921906855398e-12 	101324.9999999892
0.3966466466466462 	299.9999999999944 	2.914246319576742e-12 	101324.9999999894
0.3991491491491486 	299.9999999999419 	1.527916688379508e-12 	101324.9999999896
0.4016516516516512 	299.9999999999075 	2.35377729967001e-12 	101324.9999999895
0.4041541541541536 	299.999999999938 	7.619626662038991e-13 	101324.9999999894
0.4066566566566561 	299.9999999999411 	2.215587362015797e-12 	101324.9999999893
0.4091591591591587 	299.999999999994 	5.605680336099284e-13 	101324.9999999893
0.4116616616616612 	300.0000000000055 	1.636662197280529e-12 	101324.9999999893
0.4141641641641635 	300.0000000000468 	1.184176866411928e-12 	101324.9999999892
0.4166666666666662 	299.999999999996 	1.692735753392826e-12 	101324.9999999893
0.4191691691691687 	299.9999999999348 	2.786200506281624e-12 	101324.9999999893
0.421671671671671 	300.0000000000098 	1.16251616005496e-12 	101324.9999999891
0.4241741741741737 	299.9999999999712 	3.481226236288734e-12 	101324.9999999889
0.4266766766766761 	299.9999999999492 	2.081308076801748e-12 	101324.9999999888
0.4291791791791785 	300.0000000000251 	3.774801909212683e-12 	101324.999999989
0.4316816816816812 	300.0000000000151 	2.74358806900758e-12 	101324.9999999888
0.4341841841841836 	299.9999999999841 	3.439934542716512e-12 	101324.9999999888
0.4366866866866862 	299.9999999999088 	2.040835291428831e-12 	101324.999999989
0.4391891891891885 	299.9999999999796 	2.574292555492484e-12 	101324.9999999891
0.4416916916916913 	299.999999999981 	1.345871316998089e-12 	101324.9999999889
0.4441941941941936 	299.9999999999892 	1.429118391095157e-12 	101324.9999999889
0.4466966966966961 	299.9999999999086 	1.747635968154998e-12 	101324.9999999892
0.4491991991991987 	299.9999999999794 	6.809091901931824e-13 	101324.9999999891
0.4517017017017012 	299.9999999999784 	7.071942345735419e-13 	101324.9999999892
0.4542042042042035 	299.9999999999834 	2.922305964861155e-13 	101324.9999999892
0.4567067067067062 	299.999999999997 	5.189005126179106e-13 	101324.9999999893
0.4592092092092087 	299.9999999999191 	3.429005527846856e-13 	101324.9999999893
0.4617117117117112 	300.0000000000197 	4.314748506047828e-13 	101324.9999999894
0.4642142142142137 	299.9999999999592 	4.346808747599911e-13 	101324.9999999897
0.4667167167167162 	299.999999999991 	5.674573325890874e-13 	101324.99999999
0.4692192192192187 	299.9999999999519 	7.625340725078629e-14 	101324.9999999901
0.4717217217217212 	300.0000000000099 	2.486716734310871e-13 	101324.9999999901
0.4742242242242236 	299.9999999999471 	4.743377831594909e-13 	101324.9999999901
0.4767267267267262 	299.9999999999745 	1.100734155059739e-12 	101324.9999999901
0.4792292292292287 	300.000000000021 	9.579671668251127e-13 	101324.9999999904
0.4817317317317312 	300.0000000000363 	1.059287781191967e-12 	101324.9999999905
0.4842342342342336 	299.9999999999798 	1.435360860618088e-12 	101324.9999999903
0.4867367367367362 	299.9999999999488 	8.417361225305576e-13 	101324.9999999904
0.4892392392392387 	300.0000000000285 	1.526731769515396e-12 	101324.9999999904
0.4917417417417412 	300.0000000000064 	5.930306124138472e-13 	101324.9999999901
0.4942442442442437 	299.9999999998945 	1.694428709997087e-12 	101324.99999999
0.4967467467467462 	299.9999999999204 	8.675336600814909e-13 	101324.99999999
0.4992492492492487 	299.9999999999101 	1.732664138854398e-12 	101324.9999999899
0.5017517517517511 	299.9999999999473 	8.733550881194415e-13 	101324.9999999899
0.5042542542542537 	299.9999999999623 	1.4783309581758e-12 	101324.9999999899
0.5067567567567562 	299.99999999994 	1.260554765063516e-12 	101324.9999999899
0.5092592592592589 	299.9999999999605 	7.521290284519719e-13 	101324.9999999898
0.5117617617617611 	299.9999999999566 	1.927164825551039e-12 	101324.9999999896
0.5142642642642637 	299.999999999986 	1.234188193932652e-12 	101324.9999999894
0.5167667667667663 	299.9999999999696 	3.11464425547028e-12 	101324.9999999895
0.5192692692692688 	299.9999999999088 	2.724140348443006e-12 	101324.9999999895
0.5217717717717714 	299.9999999999367 	5.013485009614822e-12 	101324.9999999893
0.5242742742742736 	299.9999999999365 	1.496346479069788e-12 	101324.9999999894
0.5267767767767763 	299.9999999999595 	4.621685755013264e-12 	101324.9999999896
0.5292792792792789 	299.9999999999361 	1.332463783621459e-12 	101324.9999999899
0.5317817817817813 	299.9999999998967 	4.695776820253627e-12 	101324.9999999902
0.5342842842842837 	300.0000000000167 	2.86011130606279e-12 	101324.9999999903
0.5367867867867864 	300.0000000000012 	4.660567477530451e-12 	101324.9999999901
0.5392892892892888 	299.9999999999562 	3.120965304515782e-12 	101324.99999999
0.5417917917917912 	300.00000000001 	4.547680375628932e-12 	101324.9999999901
0.5442942942942938 	299.9999999999803 	2.615033027306454e-12 	101324.99999999
0.5467967967967964 	299.99999999994 	3.461678548143639e-12 	101324.9999999901
0.5492992992992988 	299.9999999999337 	2.109747748162962e-12 	101324.9999999898
0.5518018018018012 	299.9999999999328 	3.490374926810714e-12 	101324.9999999896
0.5543043043043039 	300.0000000000231 	2.669958198659027e-12 	101324.9999999894
0.5568068068068063 	299.9999999999898 	3.397522103936178e-12 	101324.9999999893
0.5593093093093087 	299.9999999998949 	2.292875037631356e-12 	101324.9999999891
0.5618118118118114 	299.9999999999634 	3.924102678152226e-12 	101324.9999999893
0.5643143143143137 	299.9999999999418 	2.926378036048936e-12 	101324.9999999893
0.5668168168168163 	299.9999999999895 	3.34387169313794e-12 	101324.9999999893
0.5693193193193188 	300.0000000000309 	2.647535169428384e-12 	101324.9999999897
0.5718218218218213 	300.0000000000234 	1.578849597215066e-12 	101324.9999999899
0.5743243243243239 	300.0000000000057 	2.67695913457862e-12 	101324.99999999
0.5768268268268262 	300.0000000000019 	1.668368502741805e-12 	101324.99999999
0.5793293293293288 	299.9999999999371 	2.814028432374775e-12 	101324.99999999
0.5818318318318314 	299.9999999999084 	3.186719931779474e-12 	101324.9999999901
0.5843343343343338 	299.9999999999805 	3.128118578143029e-12 	101324.9999999901
0.5868368368368363 	299.9999999999761 	2.865265823468601e-12 	101324.9999999903
0.5893393393393387 	299.9999999999476 	2.89589821585976e-12 	101324.9999999905
0.5918418418418413 	299.999999999942 	1.595799722273753e-12 	101324.9999999907
0.5943443443443439 	300.0000000000245 	2.539062018964938e-12 	101324.9999999905
0.5968468468468463 	300.0000000000234 	1.066394020370666e-12 	101324.9999999902
0.5993493493493487 	300.0000000000432 	2.24007992403999e-12 	101324.9999999901
0.6018518518518514 	299.9999999999802 	9.180485656823158e-13 	101324.9999999901
0.6043543543543537 	299.9999999999908 	1.484798677798437e-12 	101324.9999999899
0.6068568568568564 	299.9999999999792 	1.14593850195325e-12 	101324.9999999901
0.6093593593593587 	299.9999999999283 	1.524974937757289e-12 	101324.9999999902
0.6118618618618614 	299.9999999999212 	1.228792644753871e-12 	101324.9999999903
0.6143643643643638 	300.0000000000213 	3.020284008011259e-12 	101324.9999999905
0.6168668668668662 	299.9999999999816 	1.819836567253381e-12 	101324.9999999907
0.6193693693693688 	299.9999999999513 	3.17804721221432e-12 	101324.9999999906
0.6218718718718714 	299.999999999959 	1.635625666857954e-12 	101324.9999999906
0.6243743743743737 	299.9999999999336 	3.345244567483335e-12 	101324.9999999904
0.6268768768768762 	299.9999999999187 	2.441582000094635e-12 	101324.9999999902
0.629379379379379 	299.9999999999473 	3.288582598523956e-12 	101324.99999999
0.6318818818818812 	299.9999999999708 	3.234806010779184e-12 	101324.9999999899
0.6343843843843838 	300.0000000000191 	3.385028184003448e-12 	101324.9999999899
0.6368868868868864 	299.999999999982 	3.892693562480478e-12 	101324.9999999899
0.6393893893893888 	299.9999999999147 	2.661553344839542e-12 	101324.99999999
0.6418918918918912 	300.0000000000083 	5.299280702809421e-12 	101324.99999999
0.6443943943943939 	299.9999999999797 	2.224838139547867e-12 	101324.9999999903
0.6468968968968963 	299.9999999999817 	5.647579858664563e-12 	101324.9999999906
0.6493993993993988 	299.9999999999704 	2.059674652701924e-12 	101324.9999999908
0.6519019019019012 	299.9999999999704 	5.313274989646946e-12 	101324.9999999908
0.6544044044044038 	299.9999999998956 	2.638325826051403e-12 	101324.9999999905
0.6569069069069065 	299.9999999999476 	6.246263173334055e-12 	101324.9999999907
0.6594094094094087 	299.9999999999623 	4.175100600203655e-12 	101324.9999999908
0.6619119119119113 	299.9999999999529 	6.378172063020976e-12 	101324.9999999909
0.664414414414414 	300.0000000000003 	4.165147295223667e-12 	101324.9999999909
0.6669169169169162 	300.0000000000171 	6.08431960720726e-12 	101324.9999999908
0.6694194194194188 	299.9999999999815 	5.517505241722557e-12 	101324.9999999907
0.6719219219219214 	299.9999999999173 	7.250823951018818e-12 	101324.9999999908
0.674424424424424 	299.9999999999715 	5.552830355174169e-12 	101324.999999991
0.6769269269269262 	299.9999999999092 	6.240561545177853e-12 	101324.9999999911
0.679429429429429 	300.000000000003 	4.960142581585631e-12 	101324.9999999912
0.6819319319319311 	299.9999999999748 	5.226856575743604e-12 	101324.9999999915
0.6844344344344341 	299.9999999999974 	4.565832116387651e-12 	101324.9999999918
0.686936936936936 	299.9999999999947 	5.256509416075229e-12 	101324.9999999921
0.6894394394394392 	299.9999999999894 	4.237251136732845e-12 	101324.9999999918
0.6919419419419413 	299.9999999999798 	4.453629532596793e-12 	101324.9999999916
0.694444444444444 	299.9999999999226 	4.760614377725268e-12 	101324.9999999916
0.6969469469469463 	299.9999999999156 	4.893295384667614e-12 	101324.9999999915
0.6994494494494489 	299.9999999999157 	5.429829537275034e-12 	101324.9999999913
0.7019519519519515 	299.9999999999809 	4.638165819760878e-12 	101324.999999991
0.7044544544544538 	299.9999999999448 	6.027167833668241e-12 	101324.9999999907
0.7069569569569564 	299.9999999999955 	4.293107366433773e-12 	101324.9999999905
0.7094594594594589 	299.9999999999604 	6.491965138296055e-12 	101324.9999999904
0.7119619619619615 	299.9999999999047 	4.257708881056881e-12 	101324.9999999906
0.7144644644644638 	299.9999999999461 	6.023536029001611e-12 	101324.9999999908
0.7169669669669665 	299.9999999999153 	5.368357892286325e-12 	101324.9999999912
0.7194694694694688 	299.9999999999922 	6.5594561740935e-12 	101324.9999999915
0.7219719719719715 	299.9999999999849 	5.691845052204168e-12 	101324.9999999916
0.7244744744744737 	300.0000000000036 	5.817939698931558e-12 	101324.9999999917
0.7269769769769764 	299.9999999999973 	5.83132516154852e-12 	101324.9999999918
0.7294794794794791 	299.9999999999887 	4.705366564217528e-12 	101324.9999999919
0.7319819819819813 	299.9999999999769 	5.983043978110276e-12 	101324.9999999919
0.7344844844844839 	299.9999999999162 	4.733652034891639e-12 	101324.9999999921
0.7369869869869864 	299.9999999999484 	5.694918271622038e-12 	101324.9999999921
0.739489489489489 	299.9999999999397 	5.080808899905564e-12 	101324.9999999922
0.7419919919919914 	299.9999999999257 	5.265999019412935e-12 	101324.9999999926
0.7444944944944939 	299.9999999999793 	6.238116333799247e-12 	101324.9999999927
0.7469969969969963 	299.999999999967 	4.448014205017353e-12 	101324.9999999927
0.7494994994994989 	299.9999999999336 	6.588687637149533e-12 	101324.9999999926
0.7520020020020015 	299.9999999999638 	4.092107571198693e-12 	101324.9999999928
0.7545045045045039 	299.9999999999629 	7.373128437089004e-12 	101324.9999999927
0.7570070070070062 	299.9999999999386 	5.060688855584704e-12 	101324.9999999929
0.7595095095095092 	299.9999999999271 	6.945224279081814e-12 	101324.9999999929
0.7620120120120112 	300.000000000003 	5.724891613238565e-12 	101324.9999999928
0.7645145145145138 	299.999999999983 	5.736525940053903e-12 	101324.9999999926
0.7670170170170165 	299.999999999927 	5.885371958953435e-12 	101324.9999999924
0.7695195195195191 	299.999999999918 	4.924476096979025e-12 	101324.9999999923
0.7720220220220213 	299.9999999999286 	7.050499048923856e-12 	101324.9999999923
0.7745245245245239 	299.9999999999263 	6.099114766381185e-12 	101324.9999999921
0.7770270270270263 	299.9999999999706 	8.496389543098079e-12 	101324.9999999922
0.779529529529529 	299.9999999999807 	8.166613918547161e-12 	101324.9999999924
0.7820320320320313 	299.9999999999633 	9.25036106482331e-12 	101324.9999999926
0.784534534534534 	300.0000000000021 	9.339273032249089e-12 	101324.9999999928
0.7870370370370364 	299.9999999999958 	8.911177482396854e-12 	101324.9999999927
0.7895395395395389 	299.9999999999834 	9.856654255083625e-12 	101324.9999999926
0.7920420420420413 	299.9999999999745 	8.661382880237023e-12 	101324.9999999925
0.794544544544544 	299.9999999999705 	9.829026022759971e-12 	101324.9999999924
0.7970470470470463 	299.9999999999986 	6.858063868573775e-12 	101324.9999999924
0.799549549549549 	299.9999999999818 	9.02776818050048e-12 	101324.9999999923
0.8020520520520515 	299.9999999999814 	5.673709818344151e-12 	101324.9999999923
0.8045545545545539 	299.9999999999359 	7.664383240194302e-12 	101324.9999999924
0.8070570570570563 	299.9999999999769 	6.756498892893719e-12 	101324.9999999927
0.8095595595595589 	299.9999999999482 	7.897159989831248e-12 	101324.9999999929
0.8120620620620614 	299.9999999999284 	8.472013231829724e-12 	101324.9999999929
0.8145645645645638 	299.9999999999986 	9.014993774244347e-12 	101324.9999999929
0.8170670670670666 	299.9999999999965 	9.698886811535678e-12 	101324.9999999929
0.8195695695695689 	299.9999999999753 	8.506213832124913e-12 	101324.9999999929
0.8220720720720714 	299.9999999999359 	1.106939133588151e-11 	101324.9999999925
0.8245745745745739 	299.999999999987 	8.760858399846616e-12 	101324.9999999926
0.8270770770770765 	299.99999999997 	9.798214293847898e-12 	101324.9999999926
0.8295795795795788 	299.9999999999511 	7.905713787411272e-12 	101324.999999993
0.8320820820820815 	300.0000000000167 	8.573761894180438e-12 	101324.9999999933
0.834584584584584 	300.0000000000068 	7.879588670985575e-12 	101324.9999999936
0.8370870870870865 	299.9999999999642 	7.920624737728287e-12 	101324.9999999933
0.8395895895895891 	299.999999999927 	9.061311409274389e-12 	101324.9999999931
0.8420920920920915 	299.999999999947 	8.807122908481622e-12 	101324.9999999932
0.844594594594594 	299.9999999999376 	9.407971327920834e-12 	101324.9999999936
0.8470970970970964 	299.9999999999411 	9.775004889060507e-12 	101324.9999999938
0.8495995995995991 	299.9999999999881 	9.891040656014738e-12 	101324.9999999939
0.8521021021021015 	299.9999999999785 	1.03394810568729e-11 	101324.9999999941
0.8546046046046039 	299.9999999999714 	9.712288481968447e-12 	101324.9999999943
0.8571071071071066 	300.0000000000012 	1.04930187310321e-11 	101324.9999999944
0.8596096096096089 	299.9999999999646 	8.420508251850296e-12 	101324.9999999945
0.8621121121121116 	299.9999999999308 	1.098999676635106e-11 	101324.9999999945
0.8646146146146139 	299.9999999999957 	8.74983093905352e-12 	101324.9999999942
0.8671171171171166 	299.9999999999729 	1.049476291794686e-11 	101324.9999999942
0.8696196196196189 	299.9999999999393 	9.875615252057847e-12 	101324.9999999942
0.8721221221221216 	299.9999999999716 	1.09471974161145e-11 	101324.999999994
0.874624624624624 	300.000000000002 	1.082259968057821e-11 	101324.9999999939
0.8771271271271264 	300.0000000000016 	9.798855656274421e-12 	101324.999999994
0.879629629629629 	300.000000000011 	1.019901005354306e-11 	101324.9999999941
0.8821321321321317 	299.9999999999861 	8.425996836830234e-12 	101324.9999999943
0.8846346346346339 	299.9999999999245 	1.102189754582366e-11 	101324.9999999945
0.8871371371371364 	299.9999999999588 	8.561859149552078e-12 	101324.9999999946
0.8896396396396391 	299.9999999999586 	1.041372010285217e-11 	101324.9999999945
0.8921421421421414 	299.9999999999615 	9.402750533198491e-12 	101324.9999999944
0.8946446446446441 	299.9999999999848 	1.035788672963041e-11 	101324.9999999944
0.8971471471471464 	300.0000000000038 	1.010201036383502e-11 	101324.9999999946
0.8996496496496489 	299.9999999999811 	1.03022370786078e-11 	101324.9999999948
0.9021521521521517 	299.9999999999641 	1.132234054615372e-11 	101324.9999999946
0.9046546546546541 	299.9999999999912 	1.051837460576005e-11 	101324.9999999945
0.9071571571571564 	299.9999999999467 	1.152977619610837e-11 	101324.9999999947
0.9096596596596589 	299.999999999945 	1.140811755981723e-11 	101324.999999995
0.9121621621621616 	300.0000000000103 	1.153495262992898e-11 	101324.9999999952
0.9146646646646639 	299.9999999999793 	1.16609737328623e-11 	101324.9999999953
0.9171671671671666 	299.9999999999448 	1.171483373459311e-11 	101324.9999999952
0.9196696696696689 	299.9999999999987 	1.253762192010323e-11 	101324.9999999951
0.9221721721721714 	299.9999999999998 	1.131620397475986e-11 	101324.9999999949
0.9246746746746741 	299.9999999999377 	1.44267342805649e-11 	101324.9999999947
0.9271771771771765 	299.9999999999416 	1.269815566733651e-11 	101324.9999999944
0.9296796796796791 	299.9999999999844 	1.514282899578195e-11 	101324.9999999945
0.9321821821821816 	299.9999999999635 	1.41923613712952e-11 	101324.9999999948
0.9346846846846838 	299.9999999999482 	1.511168451194027e-11 	101324.9999999951
0.9371871871871866 	300.0000000000176 	1.359790532394384e-11 	101324.9999999953
0.9396896896896891 	300.0000000000156 	1.261173674493267e-11 	101324.9999999953
0.9421921921921914 	300.0000000000093 	1.210928080346402e-11 	101324.9999999954
0.9446946946946939 	299.9999999999662 	1.072912268847702e-11 	101324.9999999954
0.9471971971971965 	299.9999999999226 	1.280157889567358e-11 	101324.9999999953
0.9496996996996991 	299.9999999999616 	1.030146615258125e-11 	101324.9999999953
0.9522022022022016 	299.9999999999778 	1.14572815086875e-11 	101324.9999999955
0.9547047047047038 	299.9999999999764 	1.028446377208307e-11 	101324.9999999958
0.9572072072072064 	299.9999999999661 	1.132815451106225e-11 	101324.9999999961
0.9597097097097093 	299.999999999967 	1.110791152568512e-11 	101324.9999999965
0.9622122122122114 	299.9999999999599 	1.126467151239616e-11 	101324.999999997
0.964714714714714 	299.9999999999569 	1.294288792021926e-11 	101324.9999999972
0.9672172172172167 	299.9999999999565 	1.237367635021592e-11 	101324.9999999969
0.969719719719719 	299.9999999999843 	1.327367034328719e-11 	101324.9999999967
0.9722222222222214 	299.9999999999757 	1.302315739352249e-11 	101324.9999999968
0.9747247247247239 	299.9999999999728 	1.369141520572151e-11 	101324.9999999966
0.9772272272272267 	300.0000000000074 	1.385324598518085e-11 	101324.9999999963
0.9797297297297292 	299.9999999999879 	1.331749357796009e-11 	101324.999999996
0.9822322322322313 	299.9999999999873 	1.414099879133621e-11 	101324.9999999958
0.9847347347347344 	299.9999999999849 	1.340209119921626e-11 	101324.9999999959
0.9872372372372363 	299.9999999999466 	1.677336198105109e-11 	101324.9999999956
0.9897397397397389 	299.9999999999663 	1.485571302567166e-11 	101324.9999999955
0.9922422422422417 	299.9999999999484 	1.729629519077286e-11 	101324.9999999958
0.9947447447447441 	299.9999999999626 	1.63883560126103e-11 	101324.9999999958
0.9972472472472468 	299.9999999999632 	1.743851659327108e-11 	101324.9999999956
0.999749749749749 	299.999999999967 	1.654083563896916e-11 	101324.9999999955
1.002252252252252 	299.9999999999861 	1.616884222340869e-11 	101324.9999999959
1.004754754754754 	299.9999999999906 	1.551402324986843e-11 	101324.999999996
1.007257257257256 	299.9999999999638 	1.4295125198261e-11 	101324.999999996
1.009759759759759 	299.9999999999516 	1.654675762747021e-11 	101324.9999999961
1.012262262262261 	299.9999999999654 	1.417341088307795e-11 	101324.9999999961
1.014764764764764 	299.9999999999337 	1.57626336367022e-11 	101324.999999996
1.017267267267267 	299.9999999999217 	1.510964094760658e-11 	101324.999999996
1.019769769769769 	299.999999999976 	1.651176193862528e-11 	101324.9999999962
1.022272272272272 	299.9999999999901 	1.587734457600162e-11 	101324.999999996
1.024774774774774 	299.9999999999862 	1.611862427863072e-11 	101324.9999999961
1.027277277277277 	299.9999999999828 	1.73360744157571e-11 	101324.999999996
1.029779779779779 	300.0000000000161 	1.652884027507205e-11 	101324.9999999958
1.032282282282282 	300.0000000000162 	1.716919505395544e-11 	101324.9999999959
1.034784784784784 	300.0000000000055 	1.631196802965386e-11 	101324.999999996
1.037287287287286 	299.9999999999728 	1.697693330031943e-11 	101324.9999999958
1.039789789789789 	299.9999999999732 	1.743714088348623e-11 	101324.9999999956
1.042292292292291 	300.0000000000054 	1.786380359933735e-11 	101324.9999999957
1.044794794794794 	300.0000000000238 	1.805883064476025e-11 	101324.9999999958
1.047297297297296 	300.0000000000404 	1.645379604317679e-11 	101324.9999999959
1.049799799799799 	299.9999999999902 	1.768481367257132e-11 	101324.9999999961
1.052302302302302 	299.9999999999512 	1.486466624791439e-11 	101324.9999999965
1.054804804804804 	299.9999999999295 	1.637521418212925e-11 	101324.9999999967
1.057307307307306 	299.9999999999209 	1.54281765398768e-11 	101324.9999999968
1.059809809809809 	299.9999999999599 	1.705582277223851e-11 	101324.9999999966
1.062312312312312 	299.9999999999595 	1.665449225926269e-11 	101324.9999999966
1.064814814814814 	299.9999999999579 	1.729930385525277e-11 	101324.9999999967
1.067317317317317 	299.9999999999234 	1.700749459564935e-11 	101324.999999997
1.069819819819819 	299.9999999999224 	1.694773350344857e-11 	101324.9999999975
1.072322322322321 	299.9999999999912 	1.901068643246661e-11 	101324.9999999976
1.074824824824824 	300.0000000000049 	1.725551821610774e-11 	101324.9999999976
1.077327327327327 	300.0000000000283 	1.922371667669572e-11 	101324.9999999973
1.079829829829829 	300.0000000000423 	1.810458705405435e-11 	101324.9999999971
1.082332332332332 	300.000000000007 	1.874633925085615e-11 	101324.9999999972
1.084834834834834 	299.9999999999833 	1.807506007317241e-11 	101324.9999999972
1.087337337337337 	299.9999999999417 	1.801831887003268e-11 	101324.9999999972
1.089839839839839 	299.9999999999297 	1.91403415231033e-11 	101324.9999999973
1.092342342342342 	299.999999999967 	1.683340294174026e-11 	101324.9999999975
1.094844844844844 	299.9999999999688 	1.752042133519529e-11 	101324.9999999976
1.097347347347347 	299.9999999999418 	1.602666005433992e-11 	101324.9999999977
1.099849849849849 	299.9999999999304 	1.921827870205681e-11 	101324.9999999978
1.102352352352352 	299.9999999999562 	1.727354632108007e-11 	101324.9999999977
1.104854854854854 	299.9999999999776 	1.951119817314375e-11 	101324.999999998
1.107357357357357 	299.9999999999572 	1.800407992781047e-11 	101324.9999999982
1.109859859859859 	299.9999999999504 	1.970660810943083e-11 	101324.9999999983
1.112362362362362 	300.0000000000221 	1.85077006341101e-11 	101324.999999998
1.114864864864865 	300.0000000000211 	1.872026224561571e-11 	101324.9999999979
1.117367367367367 	299.9999999999652 	2.012205265912213e-11 	101324.9999999979
1.119869869869869 	299.9999999999218 	1.88559544874005e-11 	101324.999999998
1.122372372372372 	299.9999999999519 	2.025799689159434e-11 	101324.9999999977
1.124874874874874 	299.999999999957 	1.889707986498745e-11 	101324.9999999975
1.127377377377377 	299.9999999999749 	2.025438339791574e-11 	101324.9999999976
1.129879879879879 	300.0000000000222 	1.97037993829837e-11 	101324.9999999976
1.132382382382382 	300.0000000000402 	2.000136069476082e-11 	101324.9999999977
1.134884884884884 	300.0000000000157 	1.90636036086473e-11 	101324.9999999977
1.137387387387387 	300.0000000000197 	1.917107559168463e-11 	101324.9999999976
1.139889889889889 	299.9999999999643 	2.106849298647829e-11 	101324.9999999978
1.142392392392392 	299.9999999999507 	2.038004450604988e-11 	101324.9999999978
1.144894894894894 	300.0000000000141 	2.219490426481195e-11 	101324.999999998
1.147397397397397 	299.9999999999988 	2.101361968556962e-11 	101324.9999999981
1.149899899899899 	299.9999999999407 	2.218203752041353e-11 	101324.9999999982
1.152402402402402 	299.9999999999267 	2.165848172426852e-11 	101324.9999999981
1.154904904904904 	299.9999999999627 	2.262607238022864e-11 	101324.9999999979
1.157407407407407 	299.9999999999621 	2.219165097326048e-11 	101324.9999999978
1.159909909909909 	299.9999999999343 	2.278277763053275e-11 	101324.9999999979
1.162412412412412 	299.999999999927 	2.461614521540387e-11 	101324.999999998
1.164914914914914 	299.9999999999545 	2.246972621420832e-11 	101324.999999998
1.167417417417417 	299.9999999999629 	2.339962726547845e-11 	101324.9999999981
1.169919919919919 	300.0000000000178 	2.209644047213265e-11 	101324.999999998
1.172422422422422 	300.0000000000508 	2.31701960983283e-11 	101324.9999999978
1.174924924924925 	299.9999999999966 	2.197616790042501e-11 	101324.999999998
1.177427427427427 	299.9999999999658 	2.295900350140979e-11 	101324.9999999983
1.179929929929929 	300.0000000000127 	2.446333745429361e-11 	101324.9999999985
1.182432432432432 	300.0000000000349 	2.286450745632745e-11 	101324.9999999986
1.184934934934934 	300.0000000000028 	2.389182179755163e-11 	101324.9999999987
1.187437437437437 	299.9999999999819 	2.21027483451534e-11 	101324.9999999988
1.189939939939939 	299.9999999999712 	2.254646537526695e-11 	101324.9999999989
1.192442442442442 	299.9999999999312 	2.142899020666698e-11 	101324.9999999989
1.194944944944944 	299.999999999938 	2.260342398379057e-11 	101324.9999999989
1.197447447447447 	299.9999999999953 	2.197708368303469e-11 	101324.9999999989
1.199949949949949 	300.0000000000075 	2.229787775579381e-11 	101324.9999999988
1.202452452452452 	299.9999999999535 	2.338950069181447e-11 	101324.9999999987
1.204954954954955 	299.999999999944 	2.21681437701016e-11 	101324.9999999986
1.207457457457457 	299.9999999999757 	2.362319793295509e-11 	101324.9999999987
1.20995995995996 	299.9999999999777 	2.266928169699366e-11 	101324.999999999
1.212462462462462 	299.9999999999916 	2.441216882430886e-11 	101324.9999999991
1.214964964964964 	299.9999999999917 	2.378678883217945e-11 	101324.999999999
1.217467467467467 	299.9999999999823 	2.492996814812385e-11 	101324.999999999
1.219969969969969 	299.9999999999673 	2.361662472824687e-11 	101324.9999999989
1.222472472472472 	300.0000000000198 	2.406078773912836e-11 	101324.999999999
1.224974974974975 	300.0000000000493 	2.495968073299179e-11 	101324.999999999
1.227477477477477 	299.9999999999947 	2.337705153516037e-11 	101324.9999999987
1.229979979979979 	299.9999999999781 	2.515927690506719e-11 	101324.9999999986
1.232482482482482 	299.9999999999529 	2.395972586604006e-11 	101324.9999999987
1.234984984984984 	299.9999999999562 	2.542449589506336e-11 	101324.9999999988
1.237487487487487 	299.9999999999794 	2.376723291966709e-11 	101324.9999999989
1.239989989989989 	299.9999999999793 	2.458580531852388e-11 	101324.9999999989
1.242492492492492 	300.0000000000127 	2.589263143099344e-11 	101324.9999999989
1.244994994994994 	299.9999999999787 	2.51949740641115e-11 	101324.9999999988
1.247497497497497 	299.9999999999873 	2.661696806513921e-11 	101324.9999999989
1.249999999999999 	300.0000000002722 	2.553007087885214e-11 	101324.9999999992
