-1.25 	300.0163340953277 	1 	101325
-1.247497497497497 	299.9898464873372 	0.8391374010924004 	101314.4522548201
-1.244994994994995 	299.9817774344558 	1.102924395120936 	101305.0588334539
-1.242492492492492 	299.9915805939469 	0.8708083556695476 	101315.4773773491
-1.23998998998999 	299.983364172583 	0.9472375037077716 	101305.511809076
-1.237487487487487 	299.9834103708265 	0.9728131126751659 	101305.2734061283
-1.234984984984985 	299.9828721510235 	0.9381860617712903 	101304.8451056733
-1.232482482482482 	299.9808850780288 	0.9511789255966665 	101302.3824351388
-1.22997997997998 	299.9777337472855 	0.9303548303020962 	101298.7060608623
-1.227477477477477 	299.9748281711014 	0.9304326237458744 	101295.2355441276
-1.224974974974975 	299.9734745718218 	0.9241562290519445 	101293.6475983238
-1.222472472472472 	299.9743316268705 	0.9257383934792232 	101294.6606490845
-1.21996996996997 	299.9770851589358 	0.9338925177616474 	101297.9132391109
-1.217467467467467 	299.9805770394579 	0.9436181505374972 	101302.0401724179
-1.214964964964965 	299.9835844448883 	0.9520860398554398 	101305.5951892208
-1.212462462462462 	299.9856373694818 	0.9581653680024642 	101308.0219045723
-1.20995995995996 	299.987061974044 	0.9625089087500867 	101309.7058877179
-1.207457457457457 	299.9884141083306 	0.9665589321198551 	101311.3040297316
-1.204954954954955 	299.9900664072177 	0.9713997484030857 	101313.257068411
-1.202452452452452 	299.9921734578526 	0.9775072972603414 	101315.7479592455
-1.19994994994995 	299.9947563261488 	0.9850127888247362 	101318.801142812
-1.197447447447447 	299.9978834433995 	0.9941314821272064 	101322.4974925902
-1.194944944944945 	300.0016876445544 	1.005080051763182 	101326.9946768428
-1.192442442442442 	300.0059474435773 	1.01711614358725 	101332.0309855217
-1.18993993993994 	300.0098601203752 	1.028130667343944 	101336.6567577896
-1.187437437437437 	300.0125946966139 	1.035993280028195 	101339.8897251886
-1.184934934934935 	300.0139962909791 	1.04027403709028 	101341.5472336557
-1.182432432432432 	300.0146540042341 	1.042528083096505 	101342.3249486176
-1.17992992992993 	300.015506899133 	1.045295559438362 	101343.3332626058
-1.177427427427427 	300.017336736169 	1.050631216385979 	101345.496843762
-1.174924924924925 	300.0202190178218 	1.058681341453547 	101348.9046927417
-1.172422422422422 	300.0233546334808 	1.067326714640841 	101352.6120564259
-1.16991991991992 	300.0255780011923 	1.073461764776802 	101355.2411521277
-1.167417417417417 	300.026074061998 	1.074868200063031 	101355.8269861297
-1.164914914914915 	300.0247748744272 	1.071346901038665 	101354.2906213958
-1.162412412412412 	300.0223346418251 	1.06462512624882 	101351.4061272251
-1.15990990990991 	300.0196728382102 	1.057122395617422 	101348.2592828483
-1.157407407407407 	300.0173514897278 	1.050390142610569 	101345.5146066256
-1.154904904904904 	300.0153777346948 	1.044596346970666 	101343.1806358812
-1.152402402402403 	300.0135663655948 	1.03933853120134 	101341.0390694619
-1.1498998998999 	300.0118756676627 	1.03443793635866 	101339.040252625
-1.147397397397397 	300.010275712041 	1.029695886464616 	101337.1484066548
-1.144894894894895 	300.0084749946904 	1.024290972832784 	101335.0195260995
-1.142392392392392 	300.0059797749963 	1.016939347273694 	101332.0697853679
-1.13988988988989 	300.0024798224426 	1.00689228167881 	101327.931946217
-1.137387387387387 	299.9982408146319 	0.9949369148272318 	101322.9205359759
-1.134884884884885 	299.9941322657081 	0.9833971583271217 	101318.0637420078
-1.132382382382382 	299.9911059036998 	0.9747519533991003 	101314.4860754549
-1.12987987987988 	299.9894752797754 	0.969809001531869 	101312.5582957555
-1.127377377377377 	299.9886549947445 	0.9670308322179115 	101311.5887969639
-1.124874874874875 	299.9875747026464 	0.9635857876433682 	101310.3116925354
-1.122372372372372 	299.9854004952039 	0.9572741151512132 	101307.7417601468
-1.11986986986987 	299.982106356357 	0.9480450353032164 	101303.8483111177
-1.117367367367367 	299.9785274452887 	0.9381042137006099 	101299.617914989
-1.114864864864865 	299.9757965999327 	0.9304542272500139 	101296.3900566108
-1.112362362362362 	299.9746113587476 	0.9270102030477365 	101294.9893720733
-1.10985985985986 	299.9749495589222 	0.9278159042946748 	101295.3893759608
-1.107357357357357 	299.976344255193 	0.9316747598083461 	101297.0375206265
-1.104854854854855 	299.9782980229504 	0.9372135545517712 	101299.3463105325
-1.102352352352353 	299.98046815846 	0.943412976451026 	101301.9112017635
-1.09984984984985 	299.9826037833781 	0.9495088990200622 	101304.4357763588
-1.097347347347347 	299.9844561043929 	0.9548098088942847 	101306.6252379988
-1.094844844844845 	299.9858603990619 	0.9589240820649564 	101308.2850903534
-1.092342342342342 	299.9869516676528 	0.9622755655987789 	101309.5752470978
-1.08983983983984 	299.9882394429723 	0.9662466859088605 	101311.0971984446
-1.087337337337337 	299.9903607427754 	0.9725287413342734 	101313.6047002129
-1.084834834834835 	299.9936691836276 	0.9820358757345771 	101317.5156607685
-1.082332332332332 	299.9979437152576 	0.9941315063617464 	101322.5685852012
-1.07982982982983 	300.002407579711 	1.006705282858522 	101327.8459425206
-1.077327327327327 	300.0061071058217 	1.017211569688763 	101332.2197093311
-1.074824824824825 	300.0084892457592 	1.024198494794402 	101335.0361105758
-1.072322322322323 	300.0097886584435 	1.028287493168933 	101336.5724974567
-1.06981981981982 	300.0108678103446 	1.031743693286148 	101337.8482795596
-1.067317317317317 	300.0126028737123 	1.036884388008985 	101339.8996257867
-1.064814814814815 	300.0152992207865 	1.044542648046552 	101343.0875081262
-1.062312312312312 	300.0185541740835 	1.053686788863224 	101346.9360457997
-1.05980980980981 	300.0216085920096 	1.062304093345602 	101350.5476342196
-1.057307307307307 	300.0238366939557 	1.068663417998325 	101353.1821963515
-1.054804804804805 	300.0249693724531 	1.071940959538576 	101354.5216032339
-1.052302302302302 	300.0249913474998 	1.072029208909951 	101354.5469388526
-1.0497997997998 	300.0239836162348 	1.069176914414571 	101353.3554982588
-1.047297297297297 	300.0221445406914 	1.063997420864792 	101351.1816683791
-1.044794794794795 	300.0198811849748 	1.057647706868455 	101348.5055210132
-1.042292292292292 	300.0177502055379 	1.05164096961353 	101345.9858317637
-1.03978978978979 	300.0161903643017 	1.047124895048736 	101344.1415250632
-1.037287287287287 	300.01519863825 	1.044048768807407 	101342.968857146
-1.034784784784785 	300.0142287898216 	1.040939030176583 	101341.8222425109
-1.032282282282283 	300.0124862093257 	1.035702391592876 	101339.7620891795
-1.02977977977978 	300.0094815219748 	1.027080790968878 	101336.2096250284
-1.027277277277277 	300.0054467107832 	1.015720032733558 	101331.4394790225
-1.024774774774775 	300.0012572309089 	1.003943294649689 	101326.4865728131
-1.022272272272272 	299.9978677785867 	0.9942743253470528 	101322.479435689
-1.01976976976977 	299.9956753624813 	0.9877781923089757 	101319.8875980772
-1.017267267267267 	299.9942967593955 	0.9834753591234157 	101318.2578351077
-1.014764764764765 	299.9929118406653 	0.9792137105954473 	101316.6207060143
-1.012262262262262 	299.9908519591511 	0.9731911607094759 	101314.1857878899
-1.00975975975976 	299.987962602466 	0.9649418526651521 	101310.7703373446
-1.007257257257257 	299.9845645088367 	0.9552925657164395 	101306.7536264851
-1.004754754754755 	299.9811850660224 	0.9456811467448649 	101302.7590524992
-1.002252252252252 	299.9783149946238 	0.9374945886259974 	101299.3665098101
-0.9997497497497498 	299.9763087809995 	0.93176452215789 	101296.9951659497
-0.9972472472472473 	299.9753886605292 	0.9291359431862318 	101295.9077622645
-0.9947447447447449 	299.9756431413584 	0.9298385577338923 	101296.2090593514
-0.9922422422422421 	299.9769584152677 	0.9335047424101602 	101297.7632879326
-0.9897397397397399 	299.9789337313848 	0.938995284709593 	101300.0974994288
-0.9872372372372376 	299.9809440204338 	0.9446025322080721 	101302.4736657863
-0.9847347347347346 	299.9824132022092 	0.9487925200096663 	101304.2103267521
-0.9822322322322323 	299.9831722880027 	0.9511474327764758 	101305.1076276945
-0.9797297297297296 	299.9836421836782 	0.952813452528924 	101305.6631949525
-0.9772272272272275 	299.9846317627888 	0.9559406854027169 	101306.8331148973
-0.9747247247247248 	299.9868239040759 	0.9623237459026089 	101309.4240433788
-0.9722222222222224 	299.9902971532851 	0.9721637861372205 	101313.5293882516
-0.9697197197197196 	299.9944587736742 	0.9838944898712275 	101318.4488927682
-0.9672172172172175 	299.9984403221387 	0.9952014822885187 	101323.1557608694
-0.9647147147147147 	300.0016302114133 	1.004416937437692 	101326.9268900357
-0.9622122122122124 	300.0039529493992 	1.011281703622863 	101329.6729620551
-0.9597097097097099 	300.0057675954384 	1.016719319462009 	101331.8183522738
-0.9572072072072073 	300.007561116113 	1.022046779206845 	101333.9386961625
-0.9547047047047047 	300.0096951874547 	1.028281730995001 	101336.4617257372
-0.9522022022022023 	300.0123169652256 	1.035856467147356 	101339.5614336314
-0.9496996996996998 	300.0153697930475 	1.044612375915892 	101343.1708101177
-0.9471971971971973 	300.0186088860376 	1.053840929754274 	101347.0006444635
-0.9446946946946947 	300.0216074444462 	1.062324806398382 	101350.5462371557
-0.9421921921921923 	300.0238169269478 	1.068542112095741 	101353.158726541
-0.93968968968969 	300.0247548996436 	1.071202400251932 	101354.2675572077
-0.9371871871871872 	300.024288627574 	1.069994716523109 	101353.7158206318
-0.9346846846846848 	300.0228173579778 	1.066026582340604 	101351.9766821323
-0.9321821821821823 	300.0211261794293 	1.061389060705838 	101349.9774659474
-0.9296796796796799 	300.0199071751005 	1.057909875929052 	101348.5362058296
-0.9271771771771771 	300.0192976024796 	1.055955958120966 	101347.8153286005
-0.9246746746746748 	300.0188001749891 	1.054225143607752 	101347.2269918216
-0.9221721721721724 	300.0176494354832 	1.050703401398954 	101345.8664143738
-0.9196696696696698 	300.0153505313202 	1.044083285120451 	101343.1485394657
-0.9171671671671672 	300.0120127232344 	1.034649692045321 	101339.2023361206
-0.9146646646646649 	300.0082662735957 	1.02407368377491 	101334.7730263441
-0.9121621621621623 	300.0048530087087 	1.014341711625256 	101330.7375778056
-0.9096596596596597 	300.0021945515894 	1.006612190987684 	101327.5945758242
-0.9071571571571573 	300.0002219625628 	1.000744330391254 	101325.262600972
-0.9046546546546547 	299.9985281693582 	0.9956722878616922 	101323.2601937978
-0.9021521521521524 	299.9966679440623 	0.9901848926700367 	101321.0610992351
-0.8996496496496498 	299.9943697223875 	0.9835028545737317 	101318.3443622692
-0.8971471471471473 	299.9915623144656 	0.9753901891582646 	101315.0256867606
-0.894644644644645 	299.9883027492109 	0.9660017584056629 	101311.1725845255
-0.892142142142142 	299.9847497047247 	0.9558220531524917 	101306.9727129648
-0.8896396396396397 	299.9812236609148 	0.9457970462550126 	101302.8047870309
-0.8871371371371374 	299.9782437492652 	0.9373838386593226 	101299.2824730447
-0.8846346346346349 	299.9763942638964 	0.9321591546694854 	101297.0963622928
-0.8821321321321324 	299.9760160039025 	0.9310057523737578 	101296.6498260646
-0.8796296296296297 	299.9769357990879 	0.9334223231413 	101297.7369004127
-0.8771271271271271 	299.9784838570598 	0.9376083011221429 	101299.5660947344
-0.8746246246246248 	299.9798637438031 	0.9414352345165974 	101301.1969354569
-0.8721221221221224 	299.9806191654367 	0.9436670490004189 	101302.0899340901
-0.8696196196196196 	299.9808621858831 	0.9445761351105125 	101302.3772314202
-0.8671171171171175 	299.9811376947218 	0.9456065185655517 	101302.7032244076
-0.8646146146146148 	299.9820643873502 	0.9484239236810251 	101303.7985468021
-0.8621121121121121 	299.9839980031999 	0.9540096859941698 	101306.0837667517
-0.8596096096096097 	299.9868969811224 	0.9622748648120487 	101309.5102022088
-0.857107107107107 	299.9904018666497 	0.9722481657965953 	101313.6532220727
-0.8546046046046049 	299.9940220408793 	0.9825749678373504 	101317.9328038405
-0.8521021021021022 	299.9973185725651 	0.9920299330950173 	101321.8297955317
-0.8495995995995997 	300.0000341387942 	0.9998964632243901 	101325.0401041543
-0.8470970970970974 	300.0021712732918 	1.006188363660126 	101327.5667675829
-0.8445945945945946 	300.0040055919171 	1.011670871860318 	101329.735300126
-0.8420920920920922 	300.0059928351059 	1.017588466424905 	101332.0846354253
-0.8395895895895897 	300.0085618506874 	1.02508952903349 	101335.1218547167
-0.8370870870870872 	300.011862813531 	1.034548404499559 	101339.0245151188
-0.8345845845845846 	300.0156096741528 	1.045159051312898 	101343.4545103723
-0.8320820820820823 	300.0191456374199 	1.055129924309937 	101347.6353771582
-0.8295795795795798 	300.0217435976351 	1.062501432499464 	101350.7073033523
-0.8270770770770772 	300.0229983135273 	1.066193209007485 	101352.1909288156
-0.8245745745745746 	300.0230699878299 	1.066632065803589 	101352.2753399772
-0.8220720720720721 	300.0225798712425 	1.065462691916415 	101351.6960908334
-0.8195695695695699 	300.0221930387575 	1.06443705860875 	101351.2389144057
-0.817067067067067 	300.022161666847 	1.064228353727395 	101351.2018908816
-0.8145645645645651 	300.0221762079133 	1.064036822082864 	101351.2186040404
-0.8120620620620621 	300.0216238887546 	1.062262155282763 	101350.565032773
-0.8095595595595597 	300.0200480721739 	1.057703716098648 	101348.7024377242
-0.8070570570570572 	300.0174653419597 	1.050389786905759 	101345.6491118226
-0.8045545545545546 	300.0143219675382 	1.041495749480067 	101341.9326211321
-0.8020520520520523 	300.0111872646459 	1.032554675882319 	101338.2264278056
-0.7995495495495494 	300.0084431847836 	1.024632230720882 	101334.9820151443
-0.7970470470470474 	300.0061709990307 	1.017999756293643 	101332.2956843029
-0.7945445445445446 	300.0042403808278 	1.012334655169904 	101330.0132318265
-0.7920420420420423 	300.0024537312489 	1.007088499171487 	101327.9009460295
-0.7895395395395397 	300.0006134514043 	1.001681047918016 	101325.7254382577
-0.7870370370370371 	299.9985069331351 	0.9954929156548755 	101323.2351361077
-0.7845345345345348 	299.9959037874723 	0.98789011031732 	101320.1578388602
-0.7820320320320323 	299.9926461959365 	0.9784732165095895 	101316.3070134011
-0.7795295295295296 	299.9888000963751 	0.9674689580353473 	101311.7605456166
-0.7770270270270272 	299.9847461072754 	0.955953426180464 	101306.968464158
-0.7745245245245247 	299.9811047466604 	0.9456373368834181 	101302.6642156694
-0.7720220220220222 	299.978500855555 	0.938226452361545 	101299.5863413761
-0.7695195195195199 	299.9772834219821 	0.9346673707379559 	101298.147342457
-0.767017017017017 	299.9773560921462 	0.9346979754594227 	101298.2337239072
-0.7645145145145147 	299.9782253977621 	0.9369741516006841 	101299.2608062546
-0.7620120120120122 	299.9792385832109 	0.9397246369088312 	101300.4580723301
-0.7595095095095097 	299.9798983869496 	0.9415897708669269 	101301.2379898395
-0.7570070070070072 	299.9800788205528 	0.9422139094147268 	101301.4512366572
-0.7545045045045048 	299.9800522996208 	0.9423305663411801 	101301.4200568718
-0.7520020020020022 	299.9803373663182 	0.9433475568840322 	101301.7575069584
-0.7494994994994997 	299.9814416524889 	0.9466367062890352 	101303.062513663
-0.7469969969969972 	299.9836017107377 	0.9528321688748016 	101305.6152398842
-0.7444944944944945 	299.9866464243985 	0.9614623173228465 	101309.2140579071
-0.7419919919919924 	299.9900622076418 	0.971134474747164 	101313.251772329
-0.7394894894894897 	299.993249654058 	0.9802319027750186 	101317.0197279107
-0.7369869869869872 	299.9958434471328 	0.9877689520962966 	101320.0860195473
-0.7344844844844846 	299.9979044251197 	0.9938983571796508 	101322.5224390555
-0.7319819819819822 	299.9998556075806 	0.999739217290069 	101324.8290795883
-0.7294794794794797 	300.0021985167311 	1.006624690080483 	101327.59881245
-0.7269769769769773 	300.0051942895862 	1.01525358775574 	101331.1404275132
-0.7244744744744747 	300.0087098923043 	1.025275642094998 	101335.2967999464
-0.721971971971972 	300.0123106426243 	1.035527146228252 	101339.5539468251
-0.7194694694694695 	300.0155145625104 	1.044702871849406 	101343.3421095802
-0.7169669669669674 	300.018035884122 	1.052010085041262 	101346.3232893931
-0.7144644644644647 	300.019880333522 	1.057434532544299 	101348.5041468309
-0.711961961961962 	300.0212635462865 	1.061531248284374 	101350.1397282538
-0.7094594594594597 	300.0224242661858 	1.064925145737752 	101351.5121575834
-0.7069569569569573 	300.0234459757073 	1.067830624755001 	101352.7202777095
-0.7044544544544545 	300.0241830122986 	1.069848964727223 	101353.5918037584
-0.7019519519519523 	300.0243245234587 	1.070139706988078 	101353.7585448109
-0.6994494494494495 	300.0235599661034 	1.067878321476699 	101352.8543488228
-0.6969469469469471 	300.021774307824 	1.062776838331748 	101350.7437027511
-0.6944444444444446 	300.0191638378121 	1.05538601827089 	101347.6573942375
-0.6919419419419421 	300.0161937685241 	1.04698741015312 	101344.1457256577
-0.6894394394394396 	300.0134198710244 	1.039103909238839 	101340.8659550505
-0.6869369369369374 	300.0112527735713 	1.03285996106748 	101338.3037347208
-0.6844344344344344 	300.009782539858 	1.028504893735322 	101336.565437225
-0.6819319319319321 	300.0087491973825 	1.025333683958407 	101335.3436888776
-0.6794294294294296 	300.007672604985 	1.022036690513737 	101334.0709478875
-0.6769269269269272 	300.0060711768194 	1.017291493629278 	101332.1776699835
-0.6744244244244245 	300.0036593696782 	1.010305721388364 	101329.3264182118
-0.6719219219219222 	300.000441336597 	1.00107739392304 	101325.5220938875
-0.6694194194194195 	299.9966733452847 	0.9903003951515543 	101321.0676381287
-0.6669169169169172 	299.9927336964329 	0.9790169686636631 	101316.4104739675
-0.6644144144144146 	299.9889776412809 	0.9682222437958734 	101311.9703696822
-0.661911911911912 	299.9856452285682 	0.9586082639593184 	101308.0311842105
-0.6594094094094097 	299.9828500704444 	0.9505224201287619 	101304.7271806305
-0.656906906906907 	299.9806271673768 	0.9440887273041065 	101302.0995814546
-0.6544044044044046 	299.978993576842 	0.9393687152461019 	101300.1686770669
-0.6519019019019021 	299.9779804429711 	0.9364467933637128 	101298.971098067
-0.6493993993993996 	299.9776184405184 	0.9353962101341206 	101298.5433299002
-0.6468968968968971 	299.9778956705323 	0.9361682506700081 	101298.8713084469
-0.6443943943943946 	299.9787209463942 	0.9384950090920102 	101299.8463452444
-0.6418918918918921 	299.9799197155749 	0.9418914700497635 	101301.2631137362
-0.6393893893893897 	299.9812847187045 	0.9457840730637066 	101302.8765278269
-0.6368868868868871 	299.982648027527 	0.9497095349488828 	101304.4879640866
-0.6343843843843846 	299.9839440748225 	0.9534864923407791 	101306.0199689966
-0.6318818818818821 	299.9852325027234 	0.9572764342010655 	101307.5428949507
-0.6293793793793795 	299.9866680518397 	0.9615027328044345 	101309.2397812219
-0.6268768768768773 	299.9884325295304 	0.9666634474092619 	101311.3254778039
-0.6243743743743745 	299.9906573773048 	0.9731197097868995 	101313.9555067961
-0.6218718718718721 	299.9933701681832 	0.9809470207395959 	101317.1623497687
-0.6193693693693696 	299.9964836827843 	0.9899043753606859 	101320.8427828862
-0.6168668668668671 	299.9998283301411 	0.9995231093620587 	101324.7967018334
-0.6143643643643645 	300.0032118782164 	1.009267823815037 	101328.7967808347
-0.6118618618618621 	300.0064777336904 	1.018697708391753 	101332.6577911917
-0.6093593593593596 	300.0095403068461 	1.0275659356635 	101336.2786489909
-0.6068568568568571 	300.0123878200054 	1.035828122782217 	101339.6452564812
-0.6043543543543546 	300.0150550998015 	1.043569976136102 	101342.7988670194
-0.6018518518518521 	300.0175821266298 	1.050893011365923 	101345.7867461771
-0.5993493493493496 	300.019975124173 	1.057806970708997 	101348.6161548593
-0.5968468468468471 	300.0221842697043 	1.064168165810787 	101351.2283087278
-0.5943443443443446 	300.0241049872486 	1.069681142830256 	101353.4994275244
-0.591841841841842 	300.0255988575915 	1.073957119065053 	101355.2658741015
-0.5893393393393397 	300.0265267876832 	1.076605634620712 	101356.3631919522
-0.5868368368368371 	300.0267833449941 	1.077329071390383 	101356.6662257546
-0.5843343343343346 	300.0263201685231 	1.07599334595774 	101356.1182904802
-0.5818318318318321 	300.0251590792871 	1.072663539962381 	101354.7459436192
-0.5793293293293297 	300.0233923468465 	1.067596663528118 	101352.6571408597
-0.5768268268268271 	300.0211612669503 	1.061194138680891 	101350.019122645
-0.5743243243243245 	300.0186343504591 	1.053935985119381 	101347.0313427255
-0.5718218218218221 	300.0159837848564 	1.046313537324276 	101343.8974144295
-0.5693193193193196 	300.0133648242985 	1.03877153831794 	101340.8009103534
-0.5668168168168171 	300.0109019636254 	1.031668342613808 	101337.8890213839
-0.5643143143143147 	300.0086825037386 	1.02525684229442 	101335.2649533721
-0.5618118118118121 	300.0067564638933 	1.01968356422882 	101332.9878289491
-0.5593093093093094 	300.0051410768336 	1.015000996939012 	101331.0780074405
-0.5568068068068072 	300.0038279197605 	1.011187615812052 	101329.5255182828
-0.5543043043043046 	300.0027909118894 	1.008170571758843 	101328.2995177379
-0.551801801801802 	300.0019938391264 	1.005847193687299 	101327.357185303
-0.5492992992992995 	300.0013965812608 	1.00410290112023 	101326.6510849348
-0.5467967967967969 	300.000959690106 	1.002824471897698 	101326.1345772678
-0.5442942942942947 	300.0006473313086 	1.001908649083303 	101325.7652965151
-0.5417917917917919 	300.0004288258817 	1.001266729407855 	101325.5069724871
-0.5392892892892895 	300.0002791315541 	1.000826083245459 	101325.3299990693
-0.536786786786787 	300.0001786128263 	1.000529598727861 	101325.2111625289
-0.5342842842842846 	300.0001124042022 	1.000333920194999 	101325.1328884685
-0.531781781781782 	300.0000695982295 	1.00020715236128 	101325.0822817888
-0.5292792792792794 	300.000042415974 	1.000126490377984 	101325.0501459479
-0.526776776776777 	300.0000254528799 	1.000076051068212 	101325.0300915216
-0.5242742742742745 	300.0000150443236 	1.00004503858825 	101325.0177860957
-0.521771771771772 	300.0000087615693 	1.000026280865913 	101325.0103583221
-0.5192692692692695 	300.0000050291893 	1.000015114918896 	101325.0059457603
-0.516766766766767 	300.0000028461458 	1.000008570655862 	101325.0033648428
-0.5142642642642645 	300.0000015884195 	1.000004792777295 	101325.0018779564
-0.511761761761762 	300.0000008745071 	1.000002643901383 	101325.0010339223
-0.5092592592592596 	300.0000004750927 	1.000001439124115 	101325.0005616748
-0.506756756756757 	300.0000002547 	1.000000773139802 	101325.0003011505
-0.5042542542542544 	300.00000013483 	1.000000410042654 	101325.0001593992
-0.5017517517517521 	300.0000000704964 	1.000000214738726 	101325.0000833081
-0.4992492492492494 	300.0000000364057 	1.000000111070368 	101325.0000430005
-0.496746746746747 	300.0000000185618 	1.000000056754798 	101325.0000219241
-0.4942442442442445 	300.0000000092984 	1.000000028657185 	101325.0000110429
-0.4917417417417421 	300.0000000045949 	1.000000014302883 	101325.0000054947
-0.4892392392392395 	300.0000000022396 	1.000000007057256 	101325.0000027008
-0.486736736736737 	300.0000000010717 	1.000000003443719 	101325.0000013107
-0.4842342342342345 	300.0000000004798 	1.000000001662233 	101325.0000006272
-0.481731731731732 	300.0000000002674 	1.000000000795296 	101325.0000002951
-0.4792292292292296 	300.0000000001504 	1.000000000377524 	101325.0000001348
-0.4767267267267268 	300.0000000000244 	1.000000000190351 	101325.0000000584
-0.4742242242242246 	299.9999999999993 	1.000000000081819 	101325.0000000219
-0.471721721721722 	299.999999999953 	1.000000000038286 	101325.000000005
-0.4692192192192195 	299.9999999999496 	1.000000000022802 	101324.9999999971
-0.4667167167167169 	299.9999999999266 	1.000000000013171 	101324.9999999938
-0.4642142142142145 	299.9999999999915 	1.000000000006898 	101324.9999999922
-0.461711711711712 	300.0000000000102 	1.000000000004047 	101324.9999999917
-0.4592092092092094 	299.9999999999987 	1.0000000000039 	101324.999999991
-0.456706706706707 	300.00000000003 	1.000000000005089 	101324.9999999914
-0.4542042042042045 	299.9999999999732 	1.000000000005965 	101324.9999999917
-0.451701701701702 	299.9999999999647 	1.000000000006688 	101324.9999999917
-0.4491991991991995 	299.999999999946 	1.000000000006061 	101324.999999992
-0.4466966966966969 	299.999999999941 	1.00000000000478 	101324.9999999918
-0.4441941941941945 	299.9999999999625 	1.000000000003455 	101324.9999999916
-0.441691691691692 	299.9999999999413 	1.000000000002818 	101324.9999999915
-0.4391891891891895 	299.9999999999618 	1.000000000002285 	101324.999999992
-0.436686686686687 	299.999999999958 	1.000000000013854 	101324.9999999919
-0.4341841841841846 	299.9999999999702 	0.9999999999986598 	101324.9999999914
-0.431681681681682 	299.9999999999526 	0.9999999999983707 	101324.9999999912
-0.4291791791791794 	299.9999999999417 	1.000000000003097 	101324.9999999912
-0.426676676676677 	299.9999999999219 	1.000000000004022 	101324.9999999912
-0.4241741741741744 	299.9999999999444 	1.000000000003725 	101324.9999999915
-0.421671671671672 	299.9999999999973 	1.000000000003742 	101324.9999999919
-0.4191691691691694 	300.0000000000278 	1.000000000004423 	101324.9999999919
-0.4166666666666669 	300.0000000000392 	1.000000000005541 	101324.9999999919
-0.4141641641641645 	299.9999999999733 	1.000000000005347 	101324.9999999917
-0.411661661661662 	299.9999999999861 	1.000000000005605 	101324.9999999914
-0.4091591591591594 	299.9999999999886 	1.000000000005126 	101324.9999999909
-0.406656656656657 	299.9999999999444 	1.000000000004277 	101324.9999999906
-0.4041541541541545 	299.9999999999834 	1.000000000002924 	101324.9999999908
-0.401651651651652 	299.9999999999467 	1.000000000003064 	101324.999999991
-0.3991491491491494 	299.9999999999765 	1.000000000003058 	101324.9999999911
-0.396646646646647 	299.9999999999623 	1.000000000014303 	101324.9999999909
-0.3941441441441444 	299.9999999999946 	0.9999999999969797 	101324.9999999915
-0.3916416416416419 	299.9999999999647 	0.9999999999969111 	101324.9999999913
-0.3891391391391395 	299.9999999999687 	1.000000000001145 	101324.9999999911
-0.3866366366366368 	299.9999999999798 	1.000000000000801 	101324.9999999907
-0.3841341341341344 	299.9999999999982 	1.000000000000891 	101324.9999999908
-0.381631631631632 	299.9999999999516 	1.000000000001765 	101324.9999999908
-0.3791291291291294 	299.9999999999754 	1.000000000002141 	101324.999999991
-0.3766266266266269 	299.9999999999965 	1.000000000002138 	101324.9999999903
-0.3741241241241244 	300.0000000000172 	1.000000000002481 	101324.9999999899
-0.371621621621622 	300.0000000000045 	1.000000000001347 	101324.9999999901
-0.3691191191191194 	300.0000000000147 	1.000000000013644 	101324.9999999905
-0.366616616616617 	300.0000000000172 	0.9999999999979408 	101324.9999999908
-0.3641141141141143 	299.9999999999626 	0.9999999999995944 	101324.9999999913
-0.3616116116116119 	299.9999999999608 	1.000000000004622 	101324.9999999919
-0.3591091091091095 	299.9999999999897 	1.000000000004117 	101324.9999999916
-0.356606606606607 	299.9999999999773 	1.000000000002824 	101324.9999999915
-0.3541041041041044 	299.9999999999941 	1.000000000002703 	101324.999999991
-0.3516016016016019 	300.0000000000128 	1.000000000003578 	101324.9999999911
-0.3490990990990994 	300.0000000000078 	1.00000000000355 	101324.9999999914
-0.346596596596597 	300.0000000000359 	1.000000000008782 	101324.9999999917
-0.3440940940940944 	300.0000000000404 	1.000000000000348 	101324.9999999917
-0.3415915915915919 	300.0000000000281 	1.000000000001519 	101324.9999999912
-0.3390890890890895 	299.9999999999847 	1.000000000003914 	101324.9999999906
-0.3365865865865869 	300.0000000000016 	1.000000000002342 	101324.9999999903
-0.3340840840840844 	299.9999999999959 	1.000000000000406 	101324.9999999906
-0.3315815815815819 	300.0000000000163 	1.000000000000164 	101324.9999999903
-0.3290790790790794 	300.0000000000195 	0.9999999999999947 	101324.9999999906
-0.3265765765765769 	299.99999999995 	1.000000000000528 	101324.9999999906
-0.3240740740740744 	299.999999999987 	1.000000000002445 	101324.9999999909
-0.3215715715715718 	299.9999999999998 	1.000000000003211 	101324.9999999913
-0.3190690690690695 	299.999999999949 	1.000000000003339 	101324.9999999914
-0.3165665665665668 	299.9999999999881 	1.00000000000284 	101324.9999999915
-0.3140640640640644 	299.9999999999973 	1.000000000002526 	101324.999999991
-0.311561561561562 	299.9999999999526 	1.000000000003193 	101324.9999999912
-0.3090590590590593 	299.999999999992 	1.000000000002435 	101324.9999999911
-0.3065565565565568 	299.9999999999988 	1.000000000014521 	101324.9999999911
-0.3040540540540545 	299.9999999999938 	0.999999999996851 	101324.9999999912
-0.3015515515515518 	300.0000000000138 	0.9999999999996568 	101324.9999999912
-0.2990490490490494 	299.9999999999615 	1.000000000006035 	101324.9999999911
-0.2965465465465469 	299.9999999999812 	1.000000000005719 	101324.9999999911
-0.2940440440440444 	300.000000000009 	1.000000000004482 	101324.9999999908
-0.2915415415415418 	300.0000000000145 	1.000000000004948 	101324.9999999914
-0.2890390390390395 	300.0000000000152 	1.000000000005285 	101324.9999999917
-0.2865365365365368 	299.9999999999868 	1.000000000004462 	101324.9999999915
-0.2840340340340343 	299.9999999999903 	1.000000000010151 	101324.9999999909
-0.2815315315315318 	299.9999999999681 	1.000000000000839 	101324.9999999911
-0.2790290290290295 	299.9999999999499 	1.000000000001126 	101324.9999999917
-0.2765265265265269 	299.9999999999902 	1.000000000003649 	101324.9999999922
-0.2740240240240244 	300.000000000024 	1.000000000003469 	101324.9999999926
-0.2715215215215219 	300.0000000000277 	1.000000000003604 	101324.9999999931
-0.2690190190190194 	299.9999999999675 	1.000000000004639 	101324.9999999929
-0.2665165165165169 	299.9999999999802 	1.000000000004643 	101324.9999999929
-0.2640140140140144 	299.9999999999677 	1.000000000003172 	101324.9999999921
-0.2615115115115119 	299.9999999999894 	1.00000000000885 	101324.9999999919
-0.2590090090090094 	299.9999999999425 	0.9999999999994698 	101324.9999999922
-0.2565065065065068 	299.9999999999834 	0.9999999999999312 	101324.9999999914
-0.2540040040040044 	299.9999999999996 	1.000000000002297 	101324.9999999915
-0.2515015015015019 	300.0000000000331 	1.000000000002841 	101324.9999999916
-0.2489989989989994 	300.0000000000405 	1.000000000002801 	101324.9999999912
-0.2464964964964968 	300.0000000000041 	1.000000000002112 	101324.9999999908
-0.2439939939939944 	299.9999999999985 	1.0000000000079 	101324.999999991
-0.2414914914914919 	299.9999999999719 	0.9999999999986771 	101324.9999999913
-0.2389889889889893 	299.9999999999787 	1.000000000000062 	101324.9999999914
-0.2364864864864869 	300.0000000000125 	1.000000000002373 	101324.9999999916
-0.2339839839839843 	299.9999999999587 	1.000000000009065 	101324.9999999918
-0.2314814814814819 	299.9999999999709 	0.999999999999364 	101324.9999999923
-0.2289789789789792 	299.9999999999336 	1.000000000000776 	101324.9999999931
-0.2264764764764769 	299.9999999999367 	1.000000000003986 	101324.9999999922
-0.2239739739739743 	299.9999999999557 	1.000000000004159 	101324.9999999912
-0.2214714714714718 	299.9999999999351 	1.00000000000447 	101324.9999999907
-0.2189689689689693 	299.9999999999461 	1.000000000003575 	101324.9999999913
-0.2164664664664669 	299.9999999999759 	1.000000000009282 	101324.9999999918
-0.2139639639639643 	299.999999999941 	1.000000000000237 	101324.9999999921
-0.2114614614614618 	299.9999999999535 	1.000000000002868 	101324.9999999917
-0.2089589589589593 	299.9999999999949 	1.000000000004857 	101324.9999999923
-0.2064564564564568 	299.9999999999981 	1.000000000004323 	101324.9999999919
-0.2039539539539543 	299.9999999999238 	1.000000000003585 	101324.9999999911
-0.2014514514514518 	299.9999999999345 	1.000000000001611 	101324.9999999914
-0.1989489489489494 	299.9999999999656 	1.000000000007387 	101324.999999992
-0.1964464464464468 	299.9999999999959 	0.9999999999980842 	101324.9999999916
-0.1939439439439443 	299.9999999999972 	1.000000000000257 	101324.9999999913
-0.1914414414414418 	299.9999999999453 	1.000000000002212 	101324.9999999918
-0.1889389389389393 	299.9999999999787 	1.000000000001037 	101324.9999999917
-0.1864364364364368 	300.000000000028 	1.000000000001741 	101324.9999999917
-0.1839339339339343 	299.999999999989 	1.00000000000336 	101324.999999992
-0.1814314314314318 	299.9999999999883 	1.00000000000349 	101324.9999999922
-0.1789289289289293 	299.999999999926 	1.000000000002819 	101324.9999999923
-0.1764264264264268 	299.9999999999519 	1.000000000002591 	101324.9999999914
-0.1739239239239243 	299.9999999999155 	1.000000000002243 	101324.9999999904
-0.1714214214214218 	299.9999999999636 	1.000000000002746 	101324.9999999903
-0.1689189189189193 	299.9999999999483 	1.000000000003598 	101324.9999999914
-0.1664164164164168 	299.9999999999862 	1.000000000003182 	101324.999999992
-0.1639139139139143 	300.0000000000026 	1.000000000003026 	101324.9999999927
-0.1614114114114118 	300.0000000000196 	1.000000000000762 	101324.9999999924
-0.1589089089089093 	300.0000000000124 	1.000000000012987 	101324.9999999919
-0.1564064064064068 	299.9999999999832 	0.9999999999925839 	101324.9999999913
-0.1539039039039043 	299.9999999999911 	1.000000000002778 	101324.9999999912
-0.1514014014014018 	300.0000000000137 	0.9999999999998519 	101324.9999999915
-0.1488988988988993 	299.9999999999952 	1.000000000009015 	101324.9999999917
-0.1463963963963968 	299.9999999999939 	1.000000000001339 	101324.9999999922
-0.1438938938938943 	299.9999999999662 	1.000000000002314 	101324.9999999922
-0.1413913913913918 	299.9999999999351 	1.000000000003433 	101324.9999999921
-0.1388888888888893 	299.9999999999599 	1.000000000002302 	101324.9999999918
-0.1363863863863868 	299.999999999928 	1.000000000002661 	101324.9999999913
-0.1338838838838843 	299.9999999999038 	1.000000000002565 	101324.9999999911
-0.1313813813813818 	299.99999999997 	1.000000000002618 	101324.9999999909
-0.1288788788788793 	299.9999999999479 	1.000000000002368 	101324.9999999908
-0.1263763763763768 	299.9999999999718 	1.000000000003226 	101324.9999999915
-0.1238738738738743 	299.999999999946 	1.000000000003961 	101324.9999999917
-0.1213713713713717 	299.9999999999714 	1.000000000004765 	101324.9999999914
-0.1188688688688693 	300.0000000000111 	1.000000000003973 	101324.999999991
-0.1163663663663668 	299.9999999999267 	1.000000000003206 	101324.9999999914
-0.1138638638638643 	299.9999999999666 	1.000000000008432 	101324.9999999921
-0.1113613613613618 	299.9999999999841 	0.9999999999961613 	101324.9999999921
-0.1088588588588592 	299.9999999999837 	1.000000000004782 	101324.9999999921
-0.1063563563563568 	299.9999999999725 	0.9999999999976451 	101324.9999999914
-0.1038538538538543 	299.9999999999768 	0.9999999999998979 	101324.9999999907
-0.1013513513513517 	299.9999999999994 	1.000000000002898 	101324.9999999907
-0.09884884884884926 	299.9999999999742 	1.000000000003391 	101324.9999999906
-0.09634634634634676 	299.9999999999275 	1.000000000003301 	101324.9999999913
-0.09384384384384425 	299.9999999998972 	1.000000000003634 	101324.9999999916
-0.09134134134134177 	299.9999999999903 	1.000000000002841 	101324.999999992
-0.08883883883883925 	300.0000000000072 	1.000000000001761 	101324.999999992
-0.08633633633633674 	299.9999999999537 	1.000000000001231 	101324.9999999913
-0.08383383383383426 	299.9999999999903 	1.000000000001952 	101324.9999999911
-0.08133133133133173 	299.9999999999787 	1.000000000002473 	101324.9999999907
-0.07882882882882926 	299.9999999999195 	1.000000000002814 	101324.9999999912
-0.07632632632632676 	299.999999999949 	1.000000000001833 	101324.9999999915
-0.07382382382382424 	299.9999999999112 	1.000000000000746 	101324.9999999913
-0.07132132132132173 	299.9999999999677 	1.000000000000205 	101324.9999999914
-0.06881881881881925 	299.9999999999524 	1.00000000000066 	101324.9999999918
-0.06631631631631671 	299.9999999999019 	1.000000000001556 	101324.9999999924
-0.06381381381381425 	299.9999999999402 	1.000000000001478 	101324.9999999923
-0.06131131131131173 	299.9999999999538 	1.000000000001451 	101324.9999999916
-0.05880880880880923 	299.9999999999584 	1.000000000001697 	101324.9999999914
-0.05630630630630672 	299.9999999999546 	1.000000000002265 	101324.9999999915
-0.05380380380380424 	300.0000000000163 	1.000000000001944 	101324.9999999917
-0.05130130130130173 	300.0000000000098 	1.000000000001543 	101324.9999999911
-0.04879879879879922 	299.9999999999264 	1.000000000001798 	101324.999999991
-0.04629629629629672 	299.9999999999233 	1.000000000002642 	101324.9999999916
-0.04379379379379422 	299.9999999999336 	1.000000000002449 	101324.9999999914
-0.04129129129129173 	299.9999999999466 	1.000000000002246 	101324.9999999913
-0.03878878878878922 	299.9999999999953 	1.000000000002321 	101324.9999999911
-0.03628628628628671 	299.9999999999794 	1.000000000002282 	101324.9999999913
-0.03378378378378422 	299.9999999999228 	1.000000000001527 	101324.9999999915
-0.03128128128128172 	299.999999999939 	1.000000000000929 	101324.9999999913
-0.02877877877877922 	299.999999999993 	1.000000000001298 	101324.9999999912
-0.0262762762762767 	299.99999999992 	1.000000000001713 	101324.9999999909
-0.02377377377377422 	299.9999999999657 	1.000000000002694 	101324.9999999914
-0.0212712712712717 	299.999999999906 	1.000000000003235 	101324.9999999919
-0.01876876876876921 	299.9999999999586 	1.000000000002847 	101324.9999999923
-0.01626626626626671 	299.9999999999868 	1.000000000001926 	101324.999999992
-0.0137637637637642 	299.9999999999503 	1.000000000001208 	101324.9999999917
-0.0112612612612617 	299.9999999999754 	1.000000000001447 	101324.9999999916
-0.008758758758759198 	299.9999999999689 	1.000000000001876 	101324.9999999917
-0.006256256256256697 	299.9999999999293 	1.000000000001249 	101324.9999999913
-0.003753753753754195 	299.9999999999347 	1.000000000000912 	101324.999999991
-0.001251251251251693 	299.9999999999318 	1.000000000000141 	101324.9999999914
0.00125125125125081 	299.9999999999192 	0.9999999999997249 	101324.9999999919
0.003753753753753312 	299.9999999999258 	0.999999999999817 	101324.9999999922
0.006256256256255817 	299.9999999999206 	0.9999999999992029 	101324.9999999919
0.008758758758758317 	299.9999999999346 	0.9999999999986227 	101324.9999999918
0.01126126126126082 	299.999999999965 	0.9999999999988748 	101324.9999999917
0.01376376376376332 	299.9999999999455 	0.999999999999041 	101324.9999999917
0.01626626626626582 	299.9999999999778 	0.9999999999996566 	101324.9999999919
0.01876876876876833 	299.9999999999781 	1.000000000000556 	101324.9999999922
0.02127127127127083 	299.9999999999248 	1.000000000001036 	101324.9999999921
0.02377377377377332 	299.9999999999785 	1.00000000000092 	101324.9999999917
0.02627627627627583 	299.9999999999302 	1.000000000000684 	101324.9999999914
0.02877877877877833 	299.9999999999676 	1.000000000000289 	101324.9999999912
0.03128128128128083 	299.9999999999677 	0.9999999999998264 	101324.9999999917
0.03378378378378333 	299.9999999999278 	0.9999999999989648 	101324.9999999919
0.03628628628628584 	299.999999999947 	0.9999999999984653 	101324.9999999913
0.03878878878878834 	299.9999999999929 	0.9999999999978447 	101324.9999999916
0.04129129129129084 	299.9999999999516 	0.9999999999986864 	101324.9999999917
0.04379379379379333 	299.9999999999491 	0.999999999998443 	101324.9999999914
0.04629629629629585 	299.9999999999317 	0.999999999997687 	101324.9999999916
0.04879879879879834 	299.9999999999194 	0.9999999999966992 	101324.9999999918
0.05130130130130085 	299.9999999999928 	0.9999999999960117 	101324.9999999916
0.05380380380380335 	300.0000000000146 	0.9999999999960595 	101324.9999999916
0.05630630630630584 	299.999999999986 	0.9999999999966288 	101324.9999999926
0.05880880880880836 	299.9999999999465 	0.9999999999973375 	101324.9999999922
0.06131131131131085 	299.9999999999563 	0.9999999999981332 	101324.9999999917
0.06381381381381336 	299.9999999999653 	0.9999999999977263 	101324.9999999913
0.06631631631631586 	299.9999999999233 	0.9999999999968781 	101324.9999999914
0.06881881881881835 	299.9999999999457 	0.9999999999972307 	101324.9999999916
0.07132132132132088 	299.9999999999793 	0.9999999999981755 	101324.9999999917
0.07382382382382337 	299.9999999999251 	1.000000000000255 	101324.9999999918
0.07632632632632587 	299.9999999999525 	1.00000000000043 	101324.9999999909
0.07882882882882837 	299.9999999999474 	0.9999999999990248 	101324.9999999912
0.08133133133133086 	299.9999999999625 	0.999999999997488 	101324.9999999909
0.08383383383383337 	299.9999999999782 	0.9999999999975125 	101324.999999991
0.08633633633633589 	299.9999999999206 	0.9999999999969348 	101324.9999999913
0.08883883883883838 	299.9999999999845 	0.9999999999972516 	101324.9999999917
0.09134134134134086 	299.9999999999836 	0.9999999999970668 	101324.9999999922
0.09384384384384339 	299.9999999999201 	0.9999999999967846 	101324.9999999921
0.09634634634634588 	299.9999999999521 	0.9999999999964126 	101324.9999999916
0.09884884884884838 	299.9999999999696 	0.9999999999954238 	101324.9999999915
0.1013513513513509 	300.0000000000234 	0.9999999999959562 	101324.9999999904
0.1038538538538534 	299.999999999987 	0.999999999996839 	101324.9999999899
0.1063563563563559 	299.9999999999898 	0.9999999999980109 	101324.9999999898
0.1088588588588584 	300.0000000000164 	0.9999999999988154 	101324.9999999899
0.1113613613613609 	299.9999999999699 	0.9999999999993522 	101324.9999999903
0.1138638638638634 	299.999999999933 	0.99999999999841 	101324.999999991
0.1163663663663659 	299.9999999999386 	0.9999999999979357 	101324.9999999913
0.1188688688688684 	299.9999999999546 	0.9999999999983806 	101324.9999999913
0.1213713713713709 	299.9999999999923 	0.9999999999987341 	101324.9999999915
0.1238738738738734 	299.9999999999422 	0.9999999999990418 	101324.9999999909
0.1263763763763759 	299.9999999999781 	0.9999999999978049 	101324.9999999907
0.1288788788788784 	299.9999999999837 	0.9999999999958175 	101324.9999999907
0.1313813813813809 	299.9999999999735 	0.9999999999949634 	101324.9999999912
0.1338838838838834 	299.9999999999778 	0.9999999999942241 	101324.9999999908
0.1363863863863859 	300.0000000000048 	0.9999999999951316 	101324.9999999905
0.1388888888888884 	300.0000000000305 	0.9999999999959512 	101324.9999999904
0.1413913913913909 	300.0000000000072 	0.9999999999976398 	101324.9999999902
0.1438938938938934 	299.9999999999918 	0.9999999999988567 	101324.99999999
0.1463963963963959 	299.9999999999611 	0.9999999999992156 	101324.9999999905
0.1488988988988985 	299.9999999999238 	0.9999999999984968 	101324.9999999906
0.1514014014014009 	299.9999999999582 	0.9999999999979656 	101324.9999999909
0.1539039039039035 	299.9999999999579 	0.9999999999972196 	101324.9999999917
0.1564064064064059 	299.9999999999409 	1.000000000001867 	101324.9999999915
0.1589089089089084 	299.9999999999607 	0.9999999999904483 	101324.9999999911
0.1614114114114109 	299.9999999999585 	0.9999999999935166 	101324.9999999908
0.1639139139139134 	299.9999999999281 	0.9999999999959516 	101324.9999999904
0.166416416416416 	299.9999999999619 	0.9999999999956117 	101324.9999999911
0.1689189189189185 	300.0000000000251 	0.9999999999961378 	101324.9999999912
0.1714214214214209 	300.0000000000115 	0.9999999999968453 	101324.9999999909
0.1739239239239235 	299.9999999999875 	0.9999999999972533 	101324.9999999909
0.1764264264264259 	299.9999999999716 	0.99999999999638 	101324.9999999905
0.1789289289289284 	300.0000000000069 	1.000000000002344 	101324.9999999905
0.181431431431431 	299.9999999999876 	0.9999999999934608 	101324.9999999905
0.1839339339339334 	299.9999999999861 	0.9999999999974429 	101324.9999999911
0.186436436436436 	299.999999999952 	0.9999999999996519 	101324.9999999915
0.1889389389389385 	299.9999999999752 	0.9999999999982907 	101324.9999999915
0.191441441441441 	299.9999999999726 	0.9999999999972682 	101324.9999999908
0.1939439439439434 	299.9999999999445 	0.9999999999970526 	101324.9999999899
0.196446446446446 	299.999999999942 	1.000000000002396 	101324.9999999897
0.1989489489489485 	299.9999999999629 	0.9999999999921015 	101324.9999999896
0.2014514514514509 	299.9999999999836 	0.9999999999940362 	101324.9999999899
0.2039539539539535 	299.999999999985 	0.9999999999964166 	101324.9999999905
0.2064564564564559 	299.9999999999557 	0.9999999999964018 	101324.9999999909
0.2089589589589585 	299.999999999976 	0.9999999999956171 	101324.9999999903
0.211461461461461 	299.9999999999511 	0.9999999999948852 	101324.99999999
0.2139639639639635 	299.9999999999753 	0.9999999999946848 	101324.9999999904
0.2164664664664659 	300.0000000000113 	0.999999999994504 	101324.9999999907
0.2189689689689684 	300.0000000000116 	0.9999999999998707 	101324.999999991
0.221471471471471 	300.0000000000082 	0.9999999999914592 	101324.9999999916
0.2239739739739735 	299.9999999999684 	0.9999999999951776 	101324.9999999914
0.226476476476476 	299.9999999999812 	0.9999999999980191 	101324.9999999906
0.2289789789789785 	299.999999999997 	0.9999999999974194 	101324.9999999904
0.231481481481481 	299.9999999999849 	0.9999999999956832 	101324.9999999906
0.2339839839839835 	299.9999999999731 	0.9999999999953777 	101324.9999999907
0.236486486486486 	300.0000000000081 	0.9999999999963526 	101324.9999999904
0.2389889889889885 	299.9999999999993 	0.999999999997634 	101324.9999999905
0.241491491491491 	299.9999999999393 	1.000000000003727 	101324.9999999904
0.2439939939939935 	299.9999999999724 	0.999999999994359 	101324.9999999901
0.246496496496496 	299.9999999999909 	0.9999999999963153 	101324.9999999905
0.2489989989989985 	300.0000000000387 	0.9999999999982455 	101324.9999999908
0.251501501501501 	300.0000000000347 	0.9999999999977449 	101324.9999999903
0.2540040040040035 	300.0000000000041 	0.9999999999978202 	101324.99999999
0.256506506506506 	300.0000000000221 	0.9999999999989646 	101324.9999999901
0.2590090090090086 	299.9999999999425 	1.000000000004492 	101324.9999999899
0.261511511511511 	299.9999999999847 	0.9999999999947426 	101324.9999999904
0.2640140140140135 	299.9999999999824 	0.9999999999965888 	101324.9999999906
0.2665165165165161 	299.9999999999433 	0.999999999998331 	101324.9999999912
0.2690190190190185 	299.9999999999915 	0.9999999999985404 	101324.9999999918
0.271521521521521 	300.0000000000277 	0.9999999999990409 	101324.9999999917
0.2740240240240235 	300.0000000000288 	0.9999999999986472 	101324.9999999913
0.276526526526526 	300.0000000000206 	0.9999999999989078 	101324.9999999911
0.2790290290290286 	299.999999999962 	0.9999999999991535 	101324.9999999906
0.281531531531531 	299.9999999999399 	1.000000000003198 	101324.9999999907
0.2840340340340335 	299.9999999999673 	0.9999999999934432 	101324.9999999914
0.2865365365365361 	299.9999999999734 	0.9999999999960486 	101324.9999999917
0.2890390390390385 	300.000000000008 	0.9999999999983942 	101324.9999999913
0.291541541541541 	300.0000000000175 	0.999999999998488 	101324.9999999913
0.2940440440440436 	300.0000000000133 	0.9999999999984235 	101324.9999999919
0.296546546546546 	300.0000000000128 	0.9999999999981531 	101324.9999999921
0.2990490490490486 	299.9999999999689 	0.9999999999971412 	101324.9999999916
0.3015515515515511 	300.0000000000013 	0.9999999999969714 	101324.9999999912
0.3040540540540535 	299.9999999999998 	1.000000000007209 	101324.999999991
0.3065565565565562 	300.0000000000047 	0.9999999999894451 	101324.9999999909
0.3090590590590585 	300.0000000000001 	0.9999999999949127 	101324.9999999915
0.3115615615615611 	299.9999999999561 	1.000000000000131 	101324.9999999916
0.3140640640640635 	300.0000000000016 	1.000000000000224 	101324.9999999915
0.316566566566566 	299.9999999999948 	0.9999999999994138 	101324.9999999913
0.3190690690690687 	299.9999999999481 	0.9999999999985367 	101324.999999991
0.3215715715715711 	299.9999999999898 	0.9999999999981727 	101324.9999999908
0.3240740740740735 	299.9999999999911 	0.9999999999975562 	101324.9999999911
0.326576576576576 	299.9999999999419 	0.999999999997174 	101324.9999999913
0.3290790790790786 	300.0000000000046 	0.9999999999979534 	101324.9999999915
0.3315815815815811 	300.0000000000204 	0.9999999999994231 	101324.999999991
0.3340840840840836 	300.000000000008 	1.000000000000065 	101324.9999999908
0.3365865865865861 	300.0000000000317 	0.9999999999994721 	101324.999999991
0.3390890890890886 	300.000000000045 	0.9999999999986431 	101324.999999991
0.3415915915915911 	300.0000000000175 	0.9999999999980489 	101324.9999999906
0.3440940940940935 	299.9999999999477 	1.000000000002404 	101324.9999999906
0.3465965965965962 	299.9999999999982 	0.9999999999946702 	101324.9999999903
0.3490990990990985 	300.000000000011 	0.9999999999983304 	101324.9999999905
0.3516016016016011 	300.0000000000155 	1.000000000001254 	101324.9999999908
0.3541041041041035 	300.0000000000038 	1.000000000000828 	101324.9999999904
0.3566066066066061 	299.9999999999363 	1.000000000000308 	101324.99999999
0.3591091091091085 	299.9999999999469 	1.000000000000027 	101324.9999999901
0.3616116116116112 	299.9999999999669 	0.9999999999991698 	101324.9999999904
0.3641141141141137 	299.9999999999479 	0.9999999999997411 	101324.9999999905
0.3666166166166161 	299.9999999999136 	1.00000000000813 	101324.9999999905
0.3691191191191185 	299.9999999999895 	0.9999999999915964 	101324.9999999905
0.371621621621621 	300.0000000000005 	0.9999999999979869 	101324.9999999908
0.3741241241241237 	300.000000000021 	1.000000000002345 	101324.9999999907
0.3766266266266261 	300.000000000014 	1.000000000000951 	101324.9999999904
0.3791291291291286 	299.9999999999941 	1.000000000000374 	101324.9999999901
0.3816316316316311 	299.9999999999532 	1.000000000000346 	101324.9999999902
0.3841341341341336 	299.9999999999848 	1.000000000000429 	101324.9999999903
0.3866366366366362 	299.9999999999802 	1.000000000000275 	101324.9999999905
0.3891391391391387 	299.9999999999636 	1.0000000000001 	101324.9999999911
0.391641641641641 	299.9999999999947 	0.9999999999998264 	101324.9999999911
0.3941441441441436 	299.9999999999996 	0.9999999999995106 	101324.9999999914
0.3966466466466462 	299.9999999999973 	0.9999999999990167 	101324.999999991
0.3991491491491486 	299.9999999999768 	0.9999999999979389 	101324.9999999904
0.4016516516516512 	299.9999999999449 	0.9999999999979472 	101324.9999999903
0.4041541541541536 	299.9999999999653 	0.9999999999993315 	101324.9999999905
0.4066566566566561 	299.9999999999656 	1.000000000003764 	101324.9999999908
0.4091591591591587 	300.0000000000039 	0.9999999999945732 	101324.9999999911
0.4116616616616612 	300.0000000000201 	0.9999999999958478 	101324.999999991
0.4141641641641635 	300.0000000000336 	0.999999999997888 	101324.999999991
0.4166666666666662 	300.0000000000181 	0.9999999999986803 	101324.9999999904
0.4191691691691687 	299.9999999999505 	0.999999999999291 	101324.9999999904
0.421671671671671 	299.9999999999822 	1.000000000000029 	101324.9999999904
0.4241741741741737 	299.9999999999688 	1.000000000000803 	101324.9999999904
0.4266766766766761 	299.9999999999407 	1.000000000002836 	101324.9999999905
0.4291791791791785 	299.9999999999836 	1.000000000010633 	101324.9999999905
0.4316816816816812 	299.9999999999851 	0.9999999999932694 	101324.9999999906
0.4341841841841836 	299.9999999999987 	0.9999999999980461 	101324.9999999913
0.4366866866866862 	299.9999999999662 	1.00000000000179 	101324.9999999916
0.4391891891891885 	299.9999999999981 	1.000000000000448 	101324.9999999913
0.4416916916916913 	300.0000000000044 	0.9999999999986945 	101324.9999999908
0.4441941941941936 	299.9999999999906 	0.9999999999977128 	101324.9999999905
0.4466966966966961 	299.9999999999287 	0.9999999999965979 	101324.9999999905
0.4491991991991987 	299.9999999999707 	0.9999999999967755 	101324.9999999906
0.4517017017017012 	299.9999999999621 	0.9999999999973717 	101324.9999999907
0.4542042042042035 	299.9999999999896 	0.9999999999975706 	101324.9999999905
0.4567067067067062 	299.9999999999995 	0.9999999999974246 	101324.9999999903
0.4592092092092087 	299.9999999999329 	0.9999999999978733 	101324.9999999903
0.4617117117117112 	299.9999999999726 	0.9999999999979595 	101324.9999999902
0.4642142142142137 	299.9999999999502 	0.9999999999977702 	101324.9999999905
0.4667167167167162 	299.9999999999823 	0.9999999999984619 	101324.9999999908
0.4692192192192187 	299.9999999999529 	0.9999999999994835 	101324.999999991
0.4717217217217212 	299.9999999999957 	0.9999999999992455 	101324.9999999906
0.4742242242242236 	299.9999999999655 	0.9999999999988713 	101324.9999999901
0.4767267267267262 	299.9999999999543 	0.999999999998072 	101324.9999999896
0.4792292292292287 	299.9999999999979 	0.9999999999970067 	101324.9999999902
0.4817317317317312 	300.0000000000173 	0.9999999999974262 	101324.9999999904
0.4842342342342336 	300.0000000000098 	0.9999999999979043 	101324.9999999905
0.4867367367367362 	299.9999999999885 	0.9999999999979341 	101324.999999991
0.4892392392392387 	300.0000000000074 	0.9999999999987159 	101324.9999999912
0.4917417417417412 	300.0000000000337 	0.9999999999999309 	101324.9999999918
0.4942442442442437 	299.9999999999809 	1.000000000002002 	101324.9999999917
0.4967467467467462 	299.9999999999359 	1.00000000000537 	101324.9999999908
0.4992492492492487 	299.9999999999047 	0.9999999999971483 	101324.9999999904
0.5017517517517511 	299.9999999999281 	0.9999999999990021 	101324.9999999903
0.5042542542542537 	299.9999999999789 	1.000000000000989 	101324.9999999901
0.5067567567567562 	299.999999999974 	1.000000000000406 	101324.9999999902
0.5092592592592589 	299.9999999999577 	0.9999999999992971 	101324.9999999902
0.5117617617617611 	299.9999999999789 	0.9999999999991656 	101324.9999999899
0.5142642642642637 	300.0000000000078 	0.9999999999992768 	101324.9999999902
0.5167667667667663 	299.9999999999943 	1.000000000001591 	101324.99999999
0.5192692692692688 	299.9999999999339 	1.000000000007986 	101324.9999999905
0.5217717717717714 	299.999999999957 	0.9999999999915589 	101324.9999999912
0.5242742742742736 	299.9999999999573 	0.9999999999962289 	101324.9999999909
0.5267767767767763 	299.9999999999478 	0.9999999999999531 	101324.9999999908
0.5292792792792789 	299.9999999999469 	0.9999999999996565 	101324.9999999911
0.5317817817817813 	299.9999999999285 	0.9999999999985888 	101324.9999999912
0.5342842842842837 	299.9999999999759 	0.9999999999981206 	101324.999999991
0.5367867867867864 	299.9999999999789 	0.9999999999976054 	101324.9999999911
0.5392892892892888 	299.9999999999428 	0.9999999999978474 	101324.9999999909
0.5417917917917912 	299.9999999999584 	0.9999999999983001 	101324.9999999911
0.5442942942942938 	299.99999999995 	0.9999999999975017 	101324.9999999913
0.5467967967967964 	299.9999999999685 	0.9999999999980317 	101324.9999999917
0.5492992992992988 	299.9999999999641 	0.9999999999993286 	101324.9999999917
0.5518018018018012 	299.9999999999545 	0.9999999999997193 	101324.999999992
0.5543043043043039 	299.9999999999892 	0.9999999999991674 	101324.9999999916
0.5568068068068063 	299.9999999999831 	1.000000000000094 	101324.9999999912
0.5593093093093087 	299.9999999999457 	1.000000000003435 	101324.9999999911
0.5618118118118114 	299.9999999999385 	0.9999999999954834 	101324.9999999913
0.5643143143143137 	299.9999999999206 	0.9999999999978875 	101324.9999999911
0.5668168168168163 	299.9999999999561 	0.9999999999993576 	101324.9999999906
0.5693193193193188 	300.0000000000005 	0.9999999999984708 	101324.9999999904
0.5718218218218213 	300.0000000000261 	0.9999999999980558 	101324.9999999904
0.5743243243243239 	300.0000000000277 	0.9999999999986362 	101324.9999999905
0.5768268268268262 	300.0000000000126 	0.9999999999978144 	101324.9999999906
0.5793293293293288 	299.9999999999703 	1.000000000000099 	101324.9999999905
0.5818318318318314 	299.99999999995 	1.000000000005903 	101324.9999999903
0.5843343343343338 	299.999999999994 	0.9999999999903896 	101324.9999999901
0.5868368368368363 	299.9999999999852 	0.9999999999958561 	101324.9999999901
0.5893393393393387 	299.9999999999402 	0.9999999999997015 	101324.9999999903
0.5918418418418413 	299.9999999999571 	0.9999999999989693 	101324.9999999903
0.5943443443443439 	299.999999999997 	0.9999999999985282 	101324.9999999909
0.5968468468468463 	300.0000000000141 	0.9999999999994836 	101324.9999999908
0.5993493493493487 	300.0000000000385 	1.000000000000972 	101324.9999999905
0.6018518518518514 	300.0000000000215 	1.000000000000338 	101324.9999999904
0.6043543543543537 	300.0000000000159 	0.9999999999994357 	101324.9999999901
0.6068568568568564 	299.9999999999995 	0.9999999999990741 	101324.9999999904
0.6093593593593587 	299.9999999999403 	0.9999999999983453 	101324.9999999905
0.6118618618618614 	299.9999999999341 	0.9999999999979872 	101324.9999999909
0.6143643643643638 	299.9999999999981 	0.9999999999990713 	101324.9999999906
0.6168668668668662 	299.9999999999971 	1.000000000001215 	101324.9999999905
0.6193693693693688 	299.9999999999767 	1.000000000004674 	101324.9999999905
0.6218718718718714 	299.9999999999927 	1.000000000008492 	101324.9999999902
0.6243743743743737 	299.9999999999795 	1.000000000001232 	101324.9999999899
0.6268768768768762 	299.9999999999604 	1.000000000002066 	101324.9999999903
0.629379379379379 	299.9999999999754 	1.000000000001702 	101324.9999999903
0.6318818818818812 	299.9999999999902 	1.000000000000703 	101324.9999999906
0.6343843843843838 	300.000000000018 	1.000000000001354 	101324.9999999905
0.6368868868868864 	300.0000000000052 	1.000000000002127 	101324.9999999904
0.6393893893893888 	299.999999999953 	1.000000000002512 	101324.99999999
0.6418918918918912 	299.9999999999756 	1.000000000005426 	101324.9999999901
0.6443943943943939 	299.9999999999654 	1.000000000009976 	101324.9999999904
0.6468968968968963 	299.9999999999691 	0.9999999999948612 	101324.999999991
0.6493993993993988 	299.9999999999715 	0.9999999999997455 	101324.999999991
0.6519019019019012 	299.999999999987 	1.000000000002655 	101324.9999999907
0.6544044044044038 	299.9999999999449 	1.000000000000709 	101324.9999999901
0.6569069069069065 	299.9999999999373 	1.000000000000845 	101324.99999999
0.6594094094094087 	299.9999999999624 	1.000000000002311 	101324.9999999908
0.6619119119119113 	299.9999999999762 	1.000000000002939 	101324.9999999912
0.664414414414414 	299.9999999999918 	1.000000000003165 	101324.999999991
0.6669169169169162 	299.9999999999926 	1.000000000003261 	101324.999999991
0.6694194194194188 	299.9999999999813 	1.000000000002739 	101324.999999991
0.6719219219219214 	299.9999999999525 	1.000000000002026 	101324.9999999907
0.674424424424424 	299.999999999969 	1.000000000002675 	101324.9999999907
0.6769269269269262 	299.9999999999447 	1.000000000004231 	101324.9999999908
0.679429429429429 	300.0000000000013 	1.000000000005023 	101324.9999999907
0.6819319319319311 	300.0000000000168 	1.000000000005552 	101324.9999999907
0.6844344344344341 	300.0000000000276 	1.000000000006314 	101324.9999999905
0.686936936936936 	300.0000000000259 	0.9999999999983079 	101324.9999999907
0.6894394394394392 	300.0000000000213 	1.000000000000968 	101324.9999999905
0.6919419419419413 	300.000000000008 	1.000000000003458 	101324.99999999
0.694444444444444 	299.9999999999603 	1.000000000003227 	101324.9999999898
0.6969469469469463 	299.9999999999222 	1.00000000000341 	101324.9999999897
0.6994494494494489 	299.9999999999295 	1.000000000004032 	101324.99999999
0.7019519519519515 	299.9999999999606 	1.000000000004494 	101324.9999999904
0.7044544544544538 	299.9999999999478 	1.000000000007228 	101324.9999999905
0.7069569569569564 	299.9999999999901 	1.000000000010003 	101324.9999999905
0.7094594594594589 	299.9999999999764 	0.9999999999948146 	101324.9999999905
0.7119619619619615 	299.9999999999406 	0.9999999999994913 	101324.9999999905
0.7144644644644638 	299.9999999999587 	1.000000000003256 	101324.9999999907
0.7169669669669665 	299.9999999999482 	1.000000000003174 	101324.9999999911
0.7194694694694688 	300.000000000002 	1.000000000003436 	101324.9999999908
0.7219719719719715 	300.0000000000048 	1.000000000004105 	101324.9999999903
0.7244744744744737 	299.9999999999964 	1.000000000004282 	101324.9999999898
0.7269769769769764 	299.9999999999976 	1.000000000007479 	101324.9999999896
0.7294794794794791 	299.9999999999967 	1.000000000010605 	101324.9999999898
0.7319819819819813 	299.9999999999806 	0.9999999999967535 	101324.9999999899
0.7344844844844839 	299.9999999999267 	1.00000000000192 	101324.9999999901
0.7369869869869864 	299.9999999999366 	1.000000000005429 	101324.9999999902
0.739489489489489 	299.9999999999552 	1.000000000005161 	101324.9999999901
0.7419919919919914 	299.9999999999503 	1.000000000004206 	101324.99999999
0.7444944944944939 	299.999999999955 	1.000000000005039 	101324.9999999897
0.7469969969969963 	299.9999999999721 	1.000000000005912 	101324.9999999893
0.7494994994994989 	299.9999999999435 	1.000000000002009 	101324.9999999893
0.7520020020020015 	299.9999999999511 	1.000000000007621 	101324.9999999895
0.7545045045045039 	299.9999999999549 	0.9999999999964702 	101324.9999999897
0.7570070070070062 	299.9999999999477 	1.000000000001709 	101324.9999999896
0.7595095095095092 	299.9999999999525 	1.000000000004479 	101324.9999999899
0.7620120120120112 	299.9999999999864 	1.000000000003924 	101324.9999999897
0.7645145145145138 	299.9999999999872 	1.000000000004091 	101324.9999999896
0.7670170170170165 	299.9999999999525 	1.000000000008163 	101324.9999999898
0.7695195195195191 	299.9999999999254 	1.000000000011498 	101324.9999999897
0.7720220220220213 	299.9999999999419 	0.9999999999980109 	101324.9999999898
0.7745245245245239 	299.9999999999336 	1.000000000002282 	101324.99999999
0.7770270270270263 	299.999999999933 	1.000000000004877 	101324.9999999899
0.779529529529529 	299.9999999999567 	1.0000000000046 	101324.9999999898
0.7820320320320313 	299.99999999996 	1.000000000004962 	101324.99999999
0.784534534534534 	299.9999999999933 	1.000000000005232 	101324.9999999904
0.7870370370370364 	299.9999999999878 	1.000000000004355 	101324.9999999905
0.7895395395395389 	299.9999999999747 	1.000000000003135 	101324.9999999907
0.7920420420420413 	299.9999999999819 	1.000000000002248 	101324.9999999908
0.794544544544544 	299.9999999999814 	1.00000000000657 	101324.9999999903
0.7970470470470463 	300.0000000000073 	1.000000000010066 	101324.9999999903
0.799549549549549 	300.0000000000088 	0.9999999999975797 	101324.9999999899
0.8020520520520515 	299.9999999999867 	1.000000000002867 	101324.9999999896
0.8045545545545539 	299.9999999999444 	1.000000000005823 	101324.9999999892
0.8070570570570563 	299.9999999999536 	1.000000000004959 	101324.9999999891
0.8095595595595589 	299.9999999999503 	1.000000000004157 	101324.9999999893
0.8120620620620614 	299.9999999999603 	1.00000000000462 	101324.9999999898
0.8145645645645638 	300.0000000000059 	1.000000000005795 	101324.9999999899
0.8170670670670666 	300.0000000000286 	1.000000000009881 	101324.9999999901
0.8195695695695689 	300.0000000000062 	1.000000000011677 	101324.9999999901
0.8220720720720714 	299.9999999999528 	0.9999999999987754 	101324.9999999902
0.8245745745745739 	299.9999999999597 	1.000000000003681 	101324.9999999901
0.8270770770770765 	299.9999999999687 	1.000000000006775 	101324.99999999
0.8295795795795788 	299.9999999999692 	1.000000000006568 	101324.99999999
0.8320820820820815 	300.0000000000034 	1.000000000006237 	101324.9999999903
0.834584584584584 	300.0000000000031 	1.000000000007864 	101324.9999999903
0.8370870870870865 	299.9999999999687 	1.000000000007193 	101324.9999999903
0.8395895895895891 	299.9999999999353 	0.9999999999991995 	101324.9999999902
0.8420920920920915 	299.9999999999622 	1.000000000001889 	101324.9999999902
0.844594594594594 	299.9999999999577 	1.000000000005 	101324.9999999904
0.8470970970970964 	299.9999999999541 	1.000000000006438 	101324.9999999902
0.8495995995995991 	299.9999999999941 	1.000000000007088 	101324.9999999902
0.8521021021021015 	299.9999999999909 	1.000000000007081 	101324.9999999901
0.8546046046046039 	299.9999999999734 	1.00000000000623 	101324.9999999903
0.8571071071071066 	299.9999999999908 	1.000000000009113 	101324.9999999899
0.8596096096096089 	299.9999999999791 	1.000000000009807 	101324.9999999894
0.8621121121121116 	299.9999999999658 	0.9999999999973057 	101324.9999999893
0.8646146146146139 	300.0000000000022 	1.000000000002428 	101324.9999999892
0.8671171171171166 	299.9999999999797 	1.000000000005682 	101324.9999999889
0.8696196196196189 	299.999999999941 	1.000000000005506 	101324.9999999891
0.8721221221221216 	299.9999999999689 	1.000000000005614 	101324.9999999899
0.874624624624624 	299.9999999999971 	1.0000000000063 	101324.9999999901
0.8771271271271264 	299.9999999999961 	1.000000000006565 	101324.9999999899
0.879629629629629 	299.9999999999948 	1.000000000010553 	101324.9999999897
0.8821321321321317 	299.9999999999815 	1.000000000011668 	101324.9999999891
0.8846346346346339 	299.9999999999481 	0.9999999999994678 	101324.9999999887
0.8871371371371364 	299.9999999999518 	1.000000000004749 	101324.9999999889
0.8896396396396391 	299.9999999999545 	1.000000000008212 	101324.9999999894
0.8921421421421414 	299.9999999999583 	1.000000000007697 	101324.9999999897
0.8946446446446441 	299.9999999999748 	1.000000000006637 	101324.9999999899
0.8971471471471464 	299.9999999999919 	1.000000000008421 	101324.9999999899
0.8996496496496489 	299.9999999999889 	1.000000000008883 	101324.9999999897
0.9021521521521517 	299.9999999999832 	1.000000000002687 	101324.9999999902
0.9046546546546541 	299.9999999999931 	1.000000000006113 	101324.9999999904
0.9071571571571564 	299.9999999999686 	1.00000000000777 	101324.99999999
0.9096596596596589 	299.9999999999485 	1.000000000006108 	101324.9999999896
0.9121621621621616 	299.9999999999827 	1.000000000004996 	101324.9999999895
0.9146646646646639 	299.9999999999737 	1.000000000005713 	101324.9999999898
0.9171671671671666 	299.99999999995 	1.000000000006408 	101324.9999999898
0.9196696696696689 	299.9999999999771 	1.000000000011223 	101324.9999999896
0.9221721721721714 	299.9999999999797 	1.00000000001155 	101324.9999999895
0.9246746746746741 	299.9999999999412 	0.9999999999985342 	101324.9999999895
0.9271771771771765 	299.9999999999538 	1.000000000003537 	101324.9999999891
0.9296796796796791 	299.9999999999749 	1.000000000007084 	101324.9999999886
0.9321821821821816 	299.9999999999657 	1.00000000000619 	101324.9999999888
0.9346846846846838 	299.999999999955 	1.000000000004932 	101324.999999989
0.9371871871871866 	299.9999999999915 	1.000000000004829 	101324.999999989
0.9396896896896891 	299.9999999999981 	1.000000000005555 	101324.9999999894
0.9421921921921914 	299.9999999999924 	1.000000000010701 	101324.9999999895
0.9446946946946939 	299.9999999999832 	1.000000000010796 	101324.9999999894
0.9471971971971965 	299.9999999999588 	0.9999999999986657 	101324.9999999896
0.9496996996996991 	299.9999999999522 	1.000000000003314 	101324.9999999894
0.9522022022022016 	299.9999999999736 	1.000000000005315 	101324.9999999886
0.9547047047047038 	299.999999999991 	1.000000000004622 	101324.9999999886
0.9572072072072064 	299.9999999999857 	1.00000000000462 	101324.9999999891
0.9597097097097093 	299.9999999999737 	1.000000000007365 	101324.9999999894
0.9622122122122114 	299.9999999999635 	1.000000000008003 	101324.9999999897
0.964714714714714 	299.9999999999507 	1.000000000002906 	101324.9999999898
0.9672172172172167 	299.9999999999431 	1.000000000005627 	101324.9999999899
0.969719719719719 	299.9999999999681 	1.000000000007433 	101324.9999999899
0.9722222222222214 	299.9999999999767 	1.000000000006549 	101324.9999999898
0.9747247247247239 	299.9999999999753 	1.000000000005329 	101324.9999999895
0.9772272272272267 	299.9999999999968 	1.000000000005825 	101324.9999999894
0.9797297297297292 	299.9999999999889 	1.000000000005941 	101324.9999999894
0.9822322322322313 	299.999999999982 	1.000000000009821 	101324.9999999895
0.9847347347347344 	299.9999999999752 	1.000000000008224 	101324.9999999893
0.9872372372372363 	299.9999999999438 	0.9999999999963991 	101324.9999999888
0.9897397397397389 	299.9999999999398 	1.000000000001193 	101324.9999999885
0.9922422422422417 	299.9999999999379 	1.000000000003897 	101324.9999999887
0.9947447447447441 	299.9999999999627 	1.000000000004565 	101324.999999989
0.9972472472472468 	299.9999999999725 	1.000000000005598 	101324.9999999892
0.999749749749749 	299.9999999999665 	1.000000000006108 	101324.9999999894
1.002252252252252 	299.9999999999701 	1.000000000005592 	101324.9999999897
1.004754754754754 	299.9999999999877 	1.000000000009377 	101324.9999999897
1.007257257257256 	299.9999999999792 	1.000000000008082 	101324.9999999895
1.009759759759759 	299.9999999999679 	0.9999999999971346 	101324.9999999893
1.012262262262261 	299.9999999999699 	1.000000000002367 	101324.9999999889
1.014764764764764 	299.9999999999475 	1.000000000005518 	101324.9999999887
1.017267267267267 	299.9999999999297 	1.000000000005197 	101324.9999999889
1.019769769769769 	299.9999999999594 	1.000000000004352 	101324.9999999892
1.022272272272272 	299.9999999999818 	1.000000000006447 	101324.9999999891
1.024774774774774 	299.9999999999891 	1.000000000006211 	101324.9999999889
1.027277277277277 	299.9999999999866 	1.000000000001659 	101324.9999999886
1.029779779779779 	300.0000000000041 	1.000000000004843 	101324.9999999883
1.032282282282282 	300.0000000000081 	1.000000000006795 	101324.9999999883
1.034784784784784 	300.0000000000048 	1.000000000006436 	101324.9999999887
1.037287287287286 	299.9999999999866 	1.000000000005465 	101324.9999999892
1.039789789789789 	299.9999999999825 	1.00000000000506 	101324.999999989
1.042292292292291 	300.0000000000101 	1.000000000004388 	101324.999999989
1.044794794794794 	300.0000000000315 	1.000000000009643 	101324.9999999891
1.047297297297296 	300.000000000041 	1.000000000009013 	101324.999999989
1.049799799799799 	300.0000000000156 	0.9999999999985227 	101324.9999999887
1.052302302302302 	299.9999999999869 	1.000000000004031 	101324.9999999886
1.054804804804804 	299.9999999999548 	1.000000000007859 	101324.9999999887
1.057307307307306 	299.9999999999342 	1.000000000007933 	101324.9999999888
1.059809809809809 	299.9999999999559 	1.000000000007093 	101324.9999999889
1.062312312312312 	299.9999999999579 	1.000000000006322 	101324.9999999885
1.064814814814814 	299.9999999999576 	1.000000000006174 	101324.9999999881
1.067317317317317 	299.9999999999391 	1.00000000001184 	101324.9999999882
1.069819819819819 	299.9999999999281 	1.00000000001018 	101324.9999999885
1.072322322322321 	299.9999999999735 	0.9999999999996183 	101324.9999999883
1.074824824824824 	300.000000000013 	1.000000000004368 	101324.9999999879
1.077327327327327 	300.0000000000285 	1.000000000006686 	101324.9999999876
1.079829829829829 	300.0000000000369 	1.00000000000585 	101324.9999999875
1.082332332332332 	300.0000000000088 	1.000000000005175 	101324.9999999876
1.084834834834834 	299.999999999978 	1.000000000010538 	101324.999999988
1.087337337337337 	299.9999999999463 	1.000000000008829 	101324.9999999882
1.089839839839839 	299.9999999999256 	0.999999999999353 	101324.9999999883
1.092342342342342 	299.9999999999486 	1.000000000004494 	101324.9999999882
1.094844844844844 	299.9999999999541 	1.000000000012112 	101324.9999999883
1.097347347347347 	299.9999999999378 	1.000000000009209 	101324.9999999883
1.099849849849849 	299.9999999999294 	0.9999999999984974 	101324.999999988
1.102352352352352 	299.9999999999504 	1.000000000003196 	101324.9999999879
1.104854854854854 	299.9999999999716 	1.000000000005549 	101324.9999999881
1.107357357357357 	299.9999999999613 	1.000000000004713 	101324.9999999883
1.109859859859859 	299.9999999999512 	1.000000000004136 	101324.9999999882
1.112362362362362 	299.9999999999942 	1.000000000010119 	101324.9999999884
1.114864864864865 	300.0000000000046 	1.00000000000876 	101324.9999999885
1.117367367367367 	299.9999999999723 	0.9999999999993696 	101324.9999999884
1.119869869869869 	299.9999999999396 	1.000000000004148 	101324.9999999886
1.122372372372372 	299.9999999999534 	1.000000000006266 	101324.9999999886
1.124874874874874 	299.9999999999602 	1.000000000005418 	101324.9999999886
1.127377377377377 	299.9999999999549 	1.000000000005845 	101324.9999999884
1.129879879879879 	299.9999999999837 	1.000000000006608 	101324.9999999882
1.132382382382382 	300.000000000027 	1.000000000006331 	101324.9999999885
1.134884884884884 	300.0000000000203 	1.00000000001267 	101324.9999999888
1.137387387387387 	300.0000000000114 	1.000000000010916 	101324.9999999888
1.139889889889889 	299.9999999999721 	1.000000000001403 	101324.9999999886
1.142392392392392 	299.9999999999554 	1.000000000006616 	101324.9999999886
1.144894894894894 	299.9999999999927 	1.00000000000948 	101324.9999999886
1.147397397397397 	299.9999999999925 	1.000000000008524 	101324.9999999885
1.149899899899899 	299.9999999999601 	1.000000000007184 	101324.9999999883
1.152402402402402 	299.99999999994 	1.000000000006669 	101324.9999999882
1.154904904904904 	299.999999999955 	1.000000000006376 	101324.9999999881
1.157407407407407 	299.9999999999561 	1.000000000012494 	101324.999999988
1.159909909909909 	299.9999999999379 	1.000000000010049 	101324.9999999878
1.162412412412412 	299.9999999999349 	1.000000000000437 	101324.999999988
1.164914914914914 	299.999999999955 	1.000000000004857 	101324.9999999881
1.167417417417417 	299.9999999999532 	1.000000000007164 	101324.999999988
1.169919919919919 	299.9999999999832 	1.000000000007179 	101324.9999999878
1.172422422422422 	300.0000000000202 	1.000000000006491 	101324.9999999876
1.174924924924925 	300.0000000000078 	1.000000000011814 	101324.9999999877
1.177427427427427 	299.9999999999794 	1.000000000008687 	101324.9999999879
1.179929929929929 	299.9999999999957 	0.9999999999996716 	101324.9999999877
1.182432432432432 	300.0000000000312 	1.000000000004837 	101324.9999999877
1.184934934934934 	300.0000000000131 	1.000000000007178 	101324.9999999877
1.187437437437437 	299.9999999999797 	1.000000000007047 	101324.9999999878
1.189939939939939 	299.9999999999658 	1.00000000000728 	101324.9999999879
1.192442442442442 	299.9999999999457 	1.0000000000073 	101324.999999988
1.194944944944944 	299.999999999936 	1.00000000000699 	101324.9999999881
1.197447447447447 	299.9999999999797 	1.000000000013028 	101324.9999999884
1.199949949949949 	300.0000000000115 	1.000000000009331 	101324.9999999884
1.202452452452452 	299.9999999999743 	1.000000000000003 	101324.9999999884
1.204954954954955 	299.9999999999545 	1.000000000004979 	101324.999999988
1.207457457457457 	299.9999999999671 	1.000000000007518 	101324.999999988
1.20995995995996 	299.9999999999733 	1.000000000007216 	101324.999999988
1.212462462462462 	299.9999999999831 	1.000000000007281 	101324.9999999878
1.214964964964964 	299.9999999999868 	1.000000000007196 	101324.999999988
1.217467467467467 	299.9999999999916 	1.000000000006833 	101324.9999999882
1.219969969969969 	299.9999999999699 	1.000000000013423 	101324.9999999882
1.222472472472472 	299.9999999999889 	1.000000000009909 	101324.9999999882
1.224974974974975 	300.0000000000239 	1.000000000001795 	101324.9999999883
1.227477477477477 	299.9999999999978 	1.000000000007191 	101324.9999999886
1.229979979979979 	299.9999999999825 	1.000000000009085 	101324.9999999887
1.232482482482482 	299.99999999996 	1.000000000008531 	101324.9999999886
1.234984984984984 	299.9999999999542 	1.000000000008076 	101324.9999999886
1.237487487487487 	299.9999999999765 	1.000000000014242 	101324.9999999886
1.239989989989989 	299.999999999986 	1.00000000001035 	101324.9999999885
1.242492492492492 	300.000000000006 	1.000000000001988 	101324.9999999886
1.244994994994994 	299.9999999999845 	1.000000000007301 	101324.9999999886
1.247497497497497 	299.9999999999901 	1.000000000009571 	101324.9999999884
1.249999999999999 	299.9999999999335 	1.000000000008648 	101324.9999999882
