-1.25 	300 	0.1183454856665214 	101372.5528258148
-1.247497497497497 	300.0372056560652 	0.1111245440797337 	101370.470793854
-1.244994994994995 	300.0354719380069 	0.1017184288183805 	101366.9349583886
-1.242492492492492 	300.0319223947263 	0.09300557652691946 	101362.7395971897
-1.23998998998999 	300.027757935595 	0.08019273097476594 	101357.8192153889
-1.237487487487487 	300.0230997538247 	0.06683395536339486 	101352.3110608845
-1.234984984984985 	300.0181132166245 	0.05233009247726404 	101346.4150855757
-1.232482482482482 	300.0127709067534 	0.03688555682682526 	101340.0986544563
-1.22997997997998 	300.0071840478577 	0.02073313936978875 	101333.493342735
-1.227477477477477 	300.0014850484567 	0.00817345064355111 	101326.7557882626
-1.224974974974975 	299.9957741811978 	0.01223288412879499 	101320.0045095234
-1.222472472472472 	299.9901053007818 	0.02866255695437344 	101313.3032041185
-1.21996996996997 	299.9845704261525 	0.04466809261815542 	101306.7606223811
-1.217467467467467 	299.9793322404114 	0.05983376707767671 	101300.5689789687
-1.214964964964965 	299.9744648680823 	0.0738987814405215 	101294.8158833805
-1.212462462462462 	299.9700284899442 	0.08666908923866302 	101289.572386897
-1.20995995995996 	299.9661635037606 	0.09784040554754331 	101285.0043924693
-1.207457457457457 	299.9629743148417 	0.1070704292155452 	101281.2352266031
-1.204954954954955 	299.9604816487848 	0.1142671384792176 	101278.2892797828
-1.202452452452452 	299.9587000842456 	0.1193931523872127 	101276.1837093652
-1.19994994994995 	299.9576659284558 	0.1223663168174078 	101274.9614711163
-1.197447447447447 	299.9574056284852 	0.1231500062912874 	101274.6538190884
-1.194944944944945 	299.9579283831962 	0.1216489274451558 	101275.2715556049
-1.192442442442442 	299.959248717762 	0.1178078150145958 	101276.8318478629
-1.18993993993994 	299.961363694996 	0.111677022211749 	101279.33123338
-1.187437437437437 	299.964214867485 	0.1034433424835089 	101282.7007580146
-1.184934934934935 	299.9677111860624 	0.09334756913399783 	101286.8328396469
-1.182432432432432 	299.9717775748991 	0.0815734534307945 	101291.63882911
-1.17992992992993 	299.9763383941007 	0.06836859902227577 	101297.0294055878
-1.177427427427427 	299.9813117892087 	0.05396155685494049 	101302.9078210268
-1.174924924924925 	299.9866289414928 	0.03859489226281317 	101309.1928579924
-1.172422422422422 	299.9921923240656 	0.02258022931941059 	101315.7692380938
-1.16991991991992 	299.997857025858 	0.007813630311875834 	101322.4657316551
-1.167417417417417 	300.0035419494739 	0.01027127618856044 	101329.186471259
-1.164914914914915 	300.0091978075357 	0.02661177836815281 	101335.8731261637
-1.162412412412412 	300.0147230942922 	0.04259752518807934 	101342.4057628097
-1.15990990990991 	300.0200067419973 	0.05785100540982901 	101348.6529771729
-1.157407407407407 	300.0249307320703 	0.07207817565095187 	101354.4752265647
-1.154904904904904 	300.0293795764088 	0.08496031192617501 	101359.7358856826
-1.152402402402403 	300.0332699087821 	0.09620738877914348 	101364.3362482807
-1.1498998998999 	300.0365374340533 	0.1056564597792973 	101368.200293217
-1.147397397397397 	300.0391369037765 	0.1131662967614346 	101371.2743915205
-1.144894894894895 	300.0410450790177 	0.1186507593582976 	101373.5310583495
-1.142392392392392 	300.0422159896624 	0.1219961383785859 	101374.9158777531
-1.13988988988989 	300.042601186068 	0.1230992965179343 	101375.3714354043
-1.137387387387387 	300.0421758148569 	0.121865493019939 	101374.8684439698
-1.134884884884885 	300.0409288797779 	0.1182534570621009 	101373.3939185934
-1.132382382382382 	300.0388953233764 	0.112414468608614 	101370.9891790262
-1.12987987987988 	300.0361634257035 	0.1045131564864569 	101367.7586204602
-1.127377377377377 	300.0327857657109 	0.09474982894198036 	101363.764468793
-1.124874874874875 	300.0288084137036 	0.0832934232747912 	101359.0613241736
-1.122372372372372 	300.0243033208405 	0.07023492881808396 	101353.7342783426
-1.11986986986987 	300.0193450601628 	0.05585649726543064 	101347.8716420559
-1.117367367367367 	300.0140267172269 	0.04048290697386861 	101341.5835038104
-1.114864864864865 	300.0084844634328 	0.02444027150344264 	101335.030875753
-1.112362362362362 	300.0028091261411 	0.008077702991537112 	101328.3212344279
-1.10985985985986 	299.9970942503335 	0.009124447038483906 	101321.5651314701
-1.107357357357357 	299.9914035883203 	0.02493798225165354 	101314.8380073434
-1.104854854854855 	299.9858224715222 	0.0410555630577521 	101308.2406784705
-1.102352352352353 	299.980495745754 	0.05644317285235134 	101301.9443018923
-1.09984984984985 	299.9755461188054 	0.070738902320417 	101296.0939381218
-1.097347347347347 	299.9710663452341 	0.08368700475560832 	101290.7990929292
-1.094844844844845 	299.9671239653251 	0.09512317508593825 	101286.1396035003
-1.092342342342342 	299.9637670105092 	0.1048187731551133 	101282.1721380648
-1.08983983983984 	299.961057612226 	0.1126140998852092 	101278.9700296462
-1.087337337337337 	299.9590722152816 	0.1183243619151351 	101276.6235921203
-1.084834834834835 	299.9578667926348 	0.1217938642289546 	101275.1989087434
-1.082332332332332 	299.9574662637201 	0.1229733860895409 	101274.7255373211
-1.07982982982983 	299.957868509811 	0.1218082013142094 	101275.2008897079
-1.077327327327327 	299.9590474159742 	0.1183813883545557 	101276.5940117347
-1.074824824824825 	299.9609792040798 	0.1127881390890095 	101278.8769252346
-1.072322322322323 	299.9636312026329 	0.1051354433076203 	101282.0110435719
-1.06981981981982 	299.9669464726599 	0.09557319416816781 	101285.9291208304
-1.067317317317317 	299.9708661822129 	0.08421459393075444 	101290.5617359471
-1.064814814814815 	299.9753218748418 	0.07132724884145644 	101295.8279864046
-1.062312312312312 	299.9802188130949 	0.05716205196844851 	101301.61599117
-1.05980980980981 	299.9854619181704 	0.04201240781128516 	101307.8134445804
-1.057307307307307 	299.990943942494 	0.02620516497908457 	101314.2935806443
-1.054804804804805 	299.9965496084102 	0.009945623490170209 	101320.9202231078
-1.052302302302302 	300.0022183776001 	0.009012066684923051 	101327.6217672036
-1.0497997997998 	300.0078853695098 	0.02283190244710533 	101334.3215207943
-1.047297297297297 	300.013430485579 	0.03887758121128915 	101340.8775316415
-1.044794794794795 	300.0187350595824 	0.05417678970367624 	101347.1494159675
-1.042292292292292 	300.0236862096945 	0.06849446181652311 	101353.0037248179
-1.03978978978979 	300.0282047715116 	0.08156665574220445 	101358.3467427209
-1.037287287287287 	300.0322288772885 	0.09318382477842177 	101363.1052570371
-1.034784784784785 	300.0356802249996 	0.1031713579794021 	101367.1866414178
-1.032282282282283 	300.0384806790943 	0.1112639448427776 	101370.4983868967
-1.02977977977978 	300.0405829583655 	0.1173127755803588 	101372.9846029001
-1.027277277277277 	300.0419262503115 	0.1211753338343827 	101374.5732496227
-1.024774774774775 	300.0424794729168 	0.122774791433163 	101375.2275449971
-1.022272272272272 	300.0422341395984 	0.1220738917866999 	101374.9374428897
-1.01976976976977 	300.0411926798777 	0.1190457983049578 	101373.7058860644
-1.017267267267267 	300.0393774489989 	0.1138096067895578 	101371.5593470632
-1.014764764764765 	300.0368455999003 	0.1064588945263098 	101368.5653336925
-1.012262262262262 	300.033625849989 	0.09717046702465457 	101364.7579089695
-1.00975975975976 	300.0297873925465 	0.08611822713541757 	101360.2189749571
-1.007257257257257 	300.0254059401207 	0.07342095026504324 	101355.0380811482
-1.004754754754755 	300.0205578672711 	0.05937171534366022 	101349.3056826002
-1.002252252252252 	300.0153232032658 	0.04424353146051736 	101343.1164091139
-0.9997497497497498 	300.009818270527 	0.02831439351412752 	101336.607852096
-0.9972472472472473 	300.004125503979 	0.01192604067098493 	101329.8775340043
-0.9947447447447449 	299.9983844959543 	0.008946422803064522 	101323.0904712615
-0.9922422422422421 	299.9926763578729 	0.02125979118469468 	101316.342607884
-0.9897397397397399 	299.9870861649079 	0.03740659036094526 	101309.7344709772
-0.9872372372372376 	299.9817327908902 	0.05288473124960184 	101303.4065511862
-0.9847347347347346 	299.976711399582 	0.06737758305014535 	101297.4712968719
-0.9822322322322323 	299.9721113604252 	0.08065958221265529 	101292.0342772905
-0.9797297297297296 	299.9680135758553 	0.09252187167808637 	101287.1910678395
-0.9772272272272275 	299.9644964902996 	0.1026474052725386 	101283.0343100853
-0.9747247247247248 	299.9616468703607 	0.1108751051877201 	101279.6664912771
-0.9722222222222224 	299.9595307071224 	0.1169869659800154 	101277.1655022989
-0.9697197197197196 	299.9581819738912 	0.1208874323150513 	101275.571454861
-0.9672172172172175 	299.9576164059544 	0.1225594528382078 	101274.9030324928
-0.9647147147147147 	299.9578325777285 	0.1219207454329985 	101275.1584696147
-0.9622122122122124 	299.9588213676264 	0.1190469033280834 	101276.3269434393
-0.9597097097097099 	299.9605756814153 	0.1139566844612872 	101278.4001002309
-0.9572072072072073 	299.9630612444797 	0.1067667505418457 	101281.337514499
-0.9547047047047047 	299.9662227375624 	0.09763178917575729 	101285.0738384155
-0.9522022022022023 	299.9700029083642 	0.08667407097059926 	101289.5414747933
-0.9496996996996998 	299.9743303999037 	0.07417093248087822 	101294.6561816298
-0.9471971971971973 	299.9791199164645 	0.06030776417198421 	101300.3171659274
-0.9446946946946947 	299.9842860994523 	0.04539245083553059 	101306.4236265555
-0.9421921921921923 	299.9897157107645 	0.02973476229641209 	101312.8417562189
-0.93968968968969 	299.9952926230156 	0.0135756073439897 	101319.4343140048
-0.9371871871871872 	300.0009270857514 	0.008301783204268078 	101326.095242771
-0.9346846846846848 	300.0065466707037 	0.01897813269018236 	101332.738884887
-0.9321821821821823 	300.0120622542536 	0.03495306046129668 	101339.2598880538
-0.9296796796796799 	300.0173859138487 	0.05031036758032285 	101345.5542809964
-0.9271771771771771 	300.0224133716836 	0.0648469873119516 	101351.4987217997
-0.9246746746746748 	300.0270571799739 	0.07824043650268242 	101356.989784346
-0.9221721721721724 	300.0312214008711 	0.09027335314470684 	101361.9139526483
-0.9196696696696698 	300.0348156990066 	0.1006835209625245 	101366.1643291664
-0.9171671671671672 	300.0377687428226 	0.109209554372831 	101369.6565214614
-0.9146646646646649 	300.040036984462 	0.1157439208586513 	101372.3389539557
-0.9121621621621623 	300.0415623003909 	0.1201357899515519 	101374.142865218
-0.9096596596596597 	300.0423162471754 	0.1223231238196349 	101375.0345660198
-0.9071571571571573 	300.0422712993261 	0.1222080208956484 	101374.9814052824
-0.9046546546546547 	300.0414278048434 	0.1197519538225452 	101373.9839728389
-0.9021521521521524 	300.0398096244583 	0.1150598542462241 	101372.0704435875
-0.8996496496496498 	300.0374631914377 	0.108236115944263 	101369.2956976667
-0.8971471471471473 	300.0344187408317 	0.09945711478714796 	101365.6955606097
-0.894644644644645 	300.0307402858076 	0.08884377792404946 	101361.3457813456
-0.892142142142142 	300.0264817436454 	0.07651883585440998 	101356.3102073899
-0.8896396396396397 	300.0217172322252 	0.06272965462215667 	101350.6765504351
-0.8871371371371374 	300.0165382048205 	0.04776151353430609 	101344.5530013825
-0.8846346346346349 	300.0110662150771 	0.03195177141544037 	101338.0833387534
-0.8821321321321324 	300.0054098908525 	0.01565015806797989 	101331.3960139032
-0.8796296296296297 	299.9996995406169 	0.007834791785919124 	101324.6451391003
-0.8771271271271271 	299.9939982291942 	0.01743656561337174 	101317.9052719236
-0.8746246246246248 	299.9883837264296 	0.03366752466067252 	101311.2683269712
-0.8721221221221224 	299.9829633074951 	0.04932720251946764 	101304.8610992585
-0.8696196196196196 	299.9778477717393 	0.06407855896856073 	101298.8144909172
-0.8671171171171175 	299.973141380689 	0.07767542267379152 	101293.2517295635
-0.8646146146146148 	299.9689294964498 	0.08986202949370881 	101288.2736367343
-0.8621121121121121 	299.9652890920187 	0.1003519822920538 	101283.9711022415
-0.8596096096096097 	299.9623035478437 	0.1089781107600934 	101280.4426217486
-0.857107107107107 	299.9600343446496 	0.1155235791785345 	101277.7607561878
-0.8546046046046049 	299.9585233199127 	0.119906269382814 	101275.9749108269
-0.8521021021021022 	299.9577904801986 	0.1220579242920719 	101275.1088024126
-0.8495995995995997 	299.9578362913186 	0.1219149488083466 	101275.1629169118
-0.8470970970970974 	299.9586528966196 	0.1195376951981547 	101276.1279105916
-0.8445945945945946 	299.9602332806214 	0.1149463944974672 	101277.9954951855
-0.8420920920920922 	299.9625403387313 	0.1082712641379516 	101280.72195422
-0.8395895895895897 	299.9655315046006 	0.09961750903684571 	101284.256955107
-0.8370870870870872 	299.9691592620091 	0.08911012402817436 	101288.5444420694
-0.8345845845845846 	299.9733599125993 	0.07697489654419855 	101293.5091837821
-0.8320820820820823 	299.978048663635 	0.06341000189621643 	101299.0510010191
-0.8295795795795798 	299.9831313717971 	0.04875364563777689 	101305.0587532745
-0.8270770770770772 	299.988482114192 	0.03331151545599621 	101311.3835818916
-0.8245745745745746 	299.9939940889639 	0.0173511301402691 	101317.8993175221
-0.8220720720720721 	299.9995778135153 	0.006723084761559769 	101324.5001867463
-0.8195695695695699 	300.0051693281349 	0.01500259978582172 	101331.1105474845
-0.817067067067067 	300.0106961658674 	0.03101127536128871 	101337.6447957664
-0.8145645645645651 	300.0160652741229 	0.04649193735142542 	101343.9928396855
-0.8120620620620621 	300.0211577029868 	0.06122854065888955 	101350.0140450837
-0.8095595595595597 	300.0258931591117 	0.07488894007972588 	101355.6134190774
-0.8070570570570572 	300.0301718574444 	0.08724057897049609 	101360.6728861669
-0.8045545545545546 	300.033903265685 	0.09804369288643905 	101365.0853826286
-0.8020520520520523 	300.0370148919475 	0.1070105681087175 	101368.7650636466
-0.7995495495495494 	300.039454731796 	0.1140369794620266 	101371.65042355
-0.7970470470470474 	300.0411540476724 	0.1189652892176463 	101373.6600934502
-0.7945445445445446 	300.0420979322874 	0.1217053430025563 	101374.7764004853
-0.7920420420420423 	300.0422534638289 	0.1221774632378389 	101374.9603599087
-0.7895395395395397 	300.041621066621 	0.1203232205411581 	101374.212533013
-0.7870370370370371 	300.040216792027 	0.1162424525791739 	101372.551972083
-0.7845345345345348 	300.0380727981674 	0.1099937037195722 	101370.0166218997
-0.7820320320320323 	300.0351970354902 	0.1017137968011352 	101366.6159442538
-0.7795295295295296 	300.0316612401366 	0.09149419658821183 	101362.4348531716
-0.7770270270270272 	300.0275120908145 	0.07946974698682467 	101357.5285730232
-0.7745245245245247 	300.0228371506608 	0.06596198513310739 	101352.0007921838
-0.7720220220220222 	300.0177347856963 	0.05123239264736359 	101345.9678295148
-0.7695195195195199 	300.0123249337737 	0.03561260654012359 	101339.5715584002
-0.767017017017017 	300.0067060291983 	0.01943142378160913 	101332.9284285708
-0.7645145145145147 	300.001021398642 	0.005900767697406903 	101326.2078623914
-0.7620120120120122 	299.9953196461855 	0.01361710101952916 	101319.4674173303
-0.7595095095095097 	299.9896761198506 	0.02992081084908615 	101312.7960928219
-0.7570070070070072 	299.984204958243 	0.04574827737711136 	101306.3288022879
-0.7545045045045048 	299.9790167241333 	0.06073813586331898 	101300.1962363952
-0.7520020020020022 	299.9742089096822 	0.07461366740224797 	101294.5135178662
-0.7494994994994997 	299.9698709374272 	0.0871247855020634 	101289.3863668145
-0.7469969969969972 	299.9660962646538 	0.09797709778210821 	101284.9251219673
-0.7444944944944945 	299.9629767187304 	0.1070127012200721 	101281.2382347932
-0.7419919919919924 	299.9605674101775 	0.113994127146851 	101278.3908206478
-0.7394894894894897 	299.9589022434438 	0.1188125242659034 	101276.4227779021
-0.7369869869869872 	299.957999916646 	0.1214458137710813 	101275.3563511932
-0.7344844844844846 	299.95786789441 	0.1218144954521574 	101275.200326567
-0.7319819819819822 	299.9585072194091 	0.1199862408020836 	101275.9557953739
-0.7294794794794797 	299.9599098981454 	0.1159263000858942 	101277.6134065402
-0.7269769769769773 	299.9620425303353 	0.1097030964843407 	101280.1336757684
-0.7244744744744747 	299.9648773685366 	0.1014756816989631 	101283.4839155065
-0.721971971971972 	299.9683728522794 	0.09134762095508932 	101287.6150619732
-0.7194694694694695 	299.9724582506417 	0.07958165353316397 	101292.443526128
-0.7169669669669674 	299.9770390308341 	0.06634315224674973 	101297.8577124001
-0.7144644644644647 	299.9820189539574 	0.05194566985866866 	101303.7438885647
-0.711961961961962 	299.9872851587021 	0.03674374621277959 	101309.9687410223
-0.7094594594594597 	299.9927451067266 	0.02096465835036479 	101316.4229192206
-0.7069569569569573 	299.9982936356446 	0.004967345707291215 	101322.9820846139
-0.7044544544544545 	300.0038480302072 	0.01140099934214788 	101329.5485149441
-0.7019519519519523 	300.0093578514972 	0.0271676008984658 	101336.0625463585
-0.6994494494494495 	300.0147421120083 	0.04270865997764452 	101342.4284451674
-0.6969469469469471 	300.0198917708146 	0.05760476100508994 	101348.5172570008
-0.6944444444444446 	300.0247192205897 	0.07148627044592609 	101354.2253245517
-0.6919419419419421 	300.0291029730411 	0.08416237268121697 	101359.4089866253
-0.6894394394394396 	300.0329590027667 	0.09536463181682568 	101363.9687852063
-0.6869369369369374 	300.0362219992917 	0.1047256472778117 	101367.8274601098
-0.6844344344344344 	300.0388270552445 	0.1122114090251483 	101370.9081775158
-0.6819319319319321 	300.0407055866924 	0.1176286109825589 	101373.1297626323
-0.6794294294294296 	300.0418399689973 	0.1209290813125412 	101374.4713681361
-0.6769269269269272 	300.0421921157709 	0.1220349224641654 	101374.8878407066
-0.6744244244244245 	300.0417672566674 	0.1207737893775821 	101374.3854336074
-0.6719219219219222 	300.0405683098564 	0.1172663641438657 	101372.9676925411
-0.6694194194194195 	300.0386021775305 	0.1115357473224892 	101370.6426667242
-0.6669169169169172 	300.0358898584717 	0.1037548565875336 	101367.4352746887
-0.6644144144144146 	300.0325171638117 	0.0940253823386915 	101363.4469977414
-0.661911911911912 	300.028522499133 	0.08240437377947524 	101358.7233961118
-0.6594094094094097 	300.0239884062362 	0.0692669109737387 	101353.3620945316
-0.656906906906907 	300.0189956347939 	0.05480874461593817 	101347.4586458509
-0.6544044044044046 	300.0136430875593 	0.0394064249894077 	101341.1300903558
-0.6519019019019021 	300.0080474967031 	0.02336088829940421 	101334.5144099894
-0.6493993993993996 	300.0023709967474 	0.00683922351303887 	101327.8034285803
-0.6468968968968971 	299.9966624480047 	0.01101576586181076 	101321.0548511335
-0.6443943943943946 	299.9909855245347 	0.02610985197573417 	101314.343967196
-0.6418918918918921 	299.9854533826468 	0.04210604983192463 	101307.8045620937
-0.6393893893893897 	299.9801849705218 	0.05729108296088186 	101301.5771170795
-0.6368868868868871 	299.9752926869972 	0.07146370220916053 	101295.7945502065
-0.6343843843843846 	299.9708613774665 	0.08427629599900527 	101290.5570238981
-0.6318818818818821 	299.9669760423823 	0.0954733841515215 	101285.9649375751
-0.6293793793793795 	299.9637192873751 	0.1049010821531705 	101282.1159046478
-0.6268768768768773 	299.9611478947296 	0.1123044776104379 	101279.0768723103
-0.6243743743743745 	299.9593012582881 	0.117644365375851 	101276.8943681484
-0.6218718718718721 	299.9582177022709 	0.1207864216260807 	101275.6136541448
-0.6193693693693696 	299.9579109160192 	0.1216550955238136 	101275.2511680706
-0.6168668668668671 	299.9583880276467 	0.1202851089766458 	101275.8150099169
-0.6143643643643645 	299.9596376259682 	0.1166567661134789 	101277.2916755219
-0.6118618618618621 	299.9616200478287 	0.110938803951743 	101279.6344507767
-0.6093593593593596 	299.9642910800718 	0.1031978658173909 	101282.7910831374
-0.6068568568568571 	299.9676226867506 	0.09355941927188355 	101286.7285056146
-0.6043543543543546 	299.9715538015178 	0.08221464574396019 	101291.3746131079
-0.6018518518518521 	299.9760070947628 	0.06930755310569831 	101296.6380489378
-0.5993493493493496 	299.980885749416 	0.05522093966972356 	101302.4044898737
-0.5968468468468471 	299.9860758134815 	0.04022780049373741 	101308.5392795246
-0.5943443443443446 	299.9914668731795 	0.02462374730900421 	101314.9119324508
-0.591841841841842 	299.9969731371919 	0.008739947523065058 	101321.4210813328
-0.5893393393393397 	300.0024989357609 	0.009631707659518313 	101327.9536179016
-0.5868368368368371 	300.0080084201114 	0.02322923673019701 	101334.4671838236
-0.5843343343343346 	300.0134174936949 	0.03885202910713809 	101340.8623410052
-0.5818318318318321 	300.0186207063534 	0.05389896796405125 	101347.0143886594
-0.5793293293293297 	300.0235182658938 	0.0680333245886222 	101352.8053041052
-0.5768268268268271 	300.0280022432009 	0.08099115597589775 	101358.1074171697
-0.5743243243243245 	300.0319774050176 	0.09248070931630217 	101362.8080575672
-0.5718218218218221 	300.0353676560842 	0.1022664405265025 	101366.8171740113
-0.5693193193193196 	300.0381162529559 	0.110211807250537 	101370.0676096243
-0.5668168168168171 	300.0401824183095 	0.1161761385072627 	101372.5110818239
-0.5643143143143147 	300.041532650908 	0.1200683244879174 	101374.1079346312
-0.5618118118118121 	300.0421232529457 	0.1217690650947101 	101374.8064442225
-0.5593093093093094 	300.0419198459154 	0.1211663734174683 	101374.5658873916
-0.5568068068068072 	300.0409067414182 	0.1182280450109246 	101373.3679188514
-0.5543043043043046 	300.0390965446101 	0.1129894605627248 	101371.2273143964
-0.551801801801802 	300.036534425541 	0.1055897931955275 	101368.1975161695
-0.5492992992992995 	300.0332843478525 	0.09619188770557105 	101364.3542383947
-0.5467967967967969 	300.0294115149151 	0.08499136211532662 	101359.7746573653
-0.5442942942942947 	300.0249937859162 	0.07221775716300752 	101354.5509181601
-0.5417917917917919 	300.0201122142683 	0.05809369630939276 	101348.7789091104
-0.5392892892892895 	300.0148525760285 	0.04289864797854992 	101342.5601250612
-0.536786786786787 	300.0093202217531 	0.02691909252371049 	101336.0191814061
-0.5342842842842846 	300.0036333963745 	0.01047109040449239 	101329.2959014571
-0.531781781781782 	299.9979003280731 	0.009061185145645244 	101322.5182748219
-0.5292792792792794 	299.9922195299887 	0.02253057990948197 	101315.8027449197
-0.526776776776777 	299.9866900434075 	0.03851884149678988 	101309.266381059
-0.5242742742742745 	299.9813976163404 	0.05382293082869151 	101303.0105318451
-0.521771771771772 	299.9764212119186 	0.06820661102991431 	101297.1284612067
-0.5192692692692695 	299.971850001636 	0.08140877862222856 	101291.7255394486
-0.516766766766767 	299.9677907835163 	0.09312373961763154 	101286.9279207131
-0.5142642642642645 	299.964356863976 	0.1030323696933628 	101282.8694470036
-0.511761761761762 	299.9616435061744 	0.110867689025657 	101279.6626681332
-0.5092592592592596 	299.9597053155761 	0.1164747508000292 	101277.3719965549
-0.506756756756757 	299.9585487510789 	0.1198307960031418 	101276.0050512102
-0.5042542542542544 	299.9581444130702 	0.1210113865614705 	101275.5272044388
-0.5017517517517521 	299.9584524858473 	0.1201232012896412 	101275.8912340232
-0.4992492492492494 	299.9594465235314 	0.1172378889874211 	101277.0659178989
-0.496746746746747 	299.9611258873774 	0.1123586536005 	101279.0505165876
-0.4942442442442445 	299.9635100581989 	0.1054367796680831 	101281.8681056731
-0.4917417417417421 	299.9666164697568 	0.09643386983669294 	101285.5393459993
-0.4892392392392395 	299.9704298071296 	0.08540407296157307 	101290.0461863785
-0.486736736736737 	299.9748769763549 	0.0725633536189127 	101295.3023454249
-0.4842342342342345 	299.9798195643399 	0.05830704753556366 	101301.1442920502
-0.481731731731732 	299.9850728949524 	0.0431533928763497 	101307.3538075521
-0.4792292292292296 	299.9904479788163 	0.0276334964061369 	101313.7075488291
-0.4767267267267268 	299.9958025036153 	0.01215361213033637 	101320.0372653145
-0.4742242242242246 	300.0010584149835 	0.006568514564156412 	101326.2506946523
-0.471721721721722 	300.0062147635306 	0.01802748379124364 	101332.3466863577
-0.4692192192192195 	300.0113084018055 	0.03279571834213946 	101338.3687852958
-0.4667167167167169 	300.0163707805086 	0.04745624899898024 	101344.3541936
-0.4642142142142145 	300.0213875681421 	0.06195861158438174 	101350.2859409333
-0.461711711711712 	300.0262747688205 	0.07605937305112401 	101356.0647246671
-0.4592092092092094 	300.0308785635855 	0.08931892788977108 	101361.5086449791
-0.456706706706707 	300.0349937342807 	0.1011528573472546 	101366.3749656272
-0.4542042042042045 	300.0383943324447 	0.110919139881302 	101370.3964509721
-0.451701701701702 	300.0408701598844 	0.1180214527239743 	101373.3244257573
-0.4491991991991995 	300.0422616572973 	0.122008297514098 	101374.9701192549
-0.4466966966966969 	300.0424871797193 	0.1226498849709818 	101375.2368552299
-0.4441941941941945 	300.0415574788859 	0.1199799338433272 	101374.1374609462
-0.441691691691692 	300.0395766523074 	0.1142969677121167 	101371.795130657
-0.4391891891891895 	300.0367286680454 	0.1061249213135816 	101368.427280304
-0.436686686686687 	300.033251079366 	0.09614046977161636 	101364.3149450818
-0.4341841841841846 	300.0294032790404 	0.08508231320600454 	101359.7649376552
-0.431681681681682 	300.0254338309057 	0.07365929581560433 	101355.0712151446
-0.4291791791791794 	300.021553303731 	0.0624748568579684 	101350.4827729694
-0.426676676676677 	300.0179187451129 	0.05198371160136507 	101346.1852934661
-0.4241741741741744 	300.0146324203105 	0.0424850246388535 	101342.2996661114
-0.421671671671672 	300.0117487172055 	0.03413992902292726 	101338.8901639481
-0.4191691691691694 	300.0092837387645 	0.02699856006543657 	101335.9757937217
-0.4166666666666669 	300.0072253393411 	0.0210288291840606 	101333.5421676866
-0.4141641641641645 	300.0055424471268 	0.01614327679280388 	101331.5525281204
-0.411661661661662 	300.004192999679 	0.0122220148436931 	101329.9571289751
-0.4091591591591594 	300.0031301992979 	0.009130883358979176 	101328.7006323517
-0.406656656656657 	300.0023070827876 	0.006734760589091355 	101327.7275085426
-0.4041541541541545 	300.0016795703484 	0.004906490736293662 	101326.9856396215
-0.401651651651652 	300.001208256538 	0.003532171170651772 	101326.4284367033
-0.3991491491491494 	300.0008592373805 	0.002513631862102326 	101326.015815322
-0.396646646646647 	300.0006042460546 	0.00176890592004043 	101325.7143571437
-0.3941441441441444 	300.0004203425753 	0.001231383251080678 	101325.4969411756
-0.3916416416416419 	300.0002893433781 	0.000848201936672842 	101325.3420703174
-0.3891391391391395 	300.000197136652 	0.0005782900925305524 	101325.2330608954
-0.3866366366366368 	300.0001329778956 	0.0003903440835595546 	101325.1572105778
-0.3841341341341344 	300.0000888295648 	0.0002609230342716859 	101325.1050170795
-0.381631631631632 	300.0000587762319 	0.0001727592512499544 	101325.0694872139
-0.3791291291291294 	300.0000385308783 	0.0001133259752240842 	101325.0455524495
-0.3766266266266269 	300.0000250303875 	7.366593704686555e-05 	101325.0295917178
-0.3741241241241244 	300.0000161161999 	4.746112553249802e-05 	101325.0190530753
-0.371621621621622 	300.000010286658 	3.031264765804682e-05 	101325.0121612113
-0.3691191191191194 	300.0000065099802 	1.919555669318926e-05 	101325.0076962952
-0.366616616616617 	300.0000040855527 	1.205427255487101e-05 	101325.0048300571
-0.3641141141141143 	300.000002542992 	7.507826701183948e-06 	101325.0030064739
-0.3616116116116119 	300.0000015701546 	4.638588793206487e-06 	101325.0018563636
-0.3591091091091095 	300.0000009618859 	2.843280577044645e-06 	101325.0011371867
-0.356606606606607 	300.0000005846475 	1.729319448484339e-06 	101325.0006912314
-0.3541041041041044 	300.0000003526855 	1.043784463128617e-06 	101325.0004169607
-0.3516016016016019 	300.0000002111721 	6.252909872145928e-07 	101325.0002496325
-0.3490990990990994 	300.000000125488 	3.718274836058434e-07 	101325.0001483517
-0.346596596596597 	300.0000000740977 	2.195062564349183e-07 	101325.000087522
-0.3440940940940944 	300.0000000434372 	1.28657178643673e-07 	101325.0000512648
-0.3415915915915919 	300.0000000252479 	7.48830181946565e-08 	101325.0000298151
-0.3390890890890895 	300.0000000145455 	4.328078919844918e-08 	101325.0000172185
-0.3365865865865869 	300.0000000083874 	2.484887986195503e-08 	101325.0000098743
-0.3340840840840844 	300.0000000047693 	1.416937361076634e-08 	101325.0000056228
-0.3315815815815819 	300.0000000027239 	8.029047549944504e-09 	101325.0000031786
-0.3290790790790794 	300.0000000015433 	4.518824213475148e-09 	101325.0000017832
-0.3265765765765769 	300.000000000753 	2.529922124592021e-09 	101325.0000009918
-0.3240740740740744 	300.0000000004615 	1.405187867613718e-09 	101325.000000546
-0.3215715715715718 	300.0000000002674 	7.792472753909571e-10 	101325.0000002965
-0.3190690690690695 	300.0000000000553 	4.268931780576267e-10 	101325.0000001578
-0.3165665665665668 	300.0000000000672 	2.361512123018452e-10 	101325.0000000814
-0.3140640640640644 	300.0000000000472 	1.26859031998852e-10 	101325.0000000395
-0.311561561561562 	299.9999999999279 	7.348767531054766e-11 	101325.0000000166
-0.3090590590590593 	300.0000000000023 	3.680543160517049e-11 	101325.000000004
-0.3065565565565568 	300.000000000009 	2.6425150365412e-11 	101324.9999999973
-0.3040540540540545 	300.0000000000147 	1.115165770839125e-11 	101324.9999999935
-0.3015515515515518 	300.0000000000504 	1.247908011805419e-11 	101324.9999999918
-0.2990490490490494 	299.9999999999358 	6.045967053040336e-12 	101324.9999999906
-0.2965465465465469 	299.9999999999818 	7.675145474098439e-12 	101324.9999999897
-0.2940440440440444 	299.9999999999995 	5.351466245436148e-12 	101324.9999999893
-0.2915415415415418 	300.0000000000046 	6.575147698261176e-12 	101324.999999989
-0.2890390390390395 	300.0000000000056 	5.991951092081422e-12 	101324.9999999891
-0.2865365365365368 	299.9999999999757 	4.717212660873537e-12 	101324.9999999889
-0.2840340340340343 	300.0000000000025 	5.723310408489941e-12 	101324.9999999889
-0.2815315315315318 	299.9999999999065 	3.019508711777747e-12 	101324.999999989
-0.2790290290290295 	299.9999999999493 	4.936814016233331e-12 	101324.9999999886
-0.2765265265265269 	300.0000000000077 	3.647092732863601e-12 	101324.9999999887
-0.2740240240240244 	300.0000000000327 	5.380130911157022e-12 	101324.9999999888
-0.2715215215215219 	300.0000000000149 	5.05551242925088e-12 	101324.999999989
-0.2690190190190194 	299.9999999999312 	4.524680495579215e-12 	101324.9999999887
-0.2665165165165169 	299.9999999999997 	4.871330646398892e-12 	101324.999999989
-0.2640140140140144 	299.9999999999548 	3.842238051840689e-12 	101324.9999999889
-0.2615115115115119 	300.0000000000034 	5.688193010083921e-12 	101324.9999999887
-0.2590090090090094 	299.9999999999164 	4.191408095169394e-12 	101324.9999999885
-0.2565065065065068 	299.9999999999921 	5.295450582185663e-12 	101324.9999999887
-0.2540040040040044 	299.9999999999981 	5.844823944711979e-12 	101324.9999999891
-0.2515015015015019 	300.0000000000514 	4.858158613181826e-12 	101324.9999999893
-0.2489989989989994 	300.0000000000572 	7.456808229327527e-12 	101324.9999999895
-0.2464964964964968 	299.9999999999885 	4.250160422599937e-12 	101324.9999999894
-0.2439939939939944 	299.999999999993 	8.065018334419057e-12 	101324.9999999895
-0.2414914914914919 	299.9999999999584 	2.690289114323493e-12 	101324.9999999895
-0.2389889889889893 	300.0000000000074 	7.627116006820076e-12 	101324.9999999894
-0.2364864864864869 	300.0000000000292 	2.862276897823419e-12 	101324.9999999894
-0.2339839839839843 	299.9999999999044 	7.3280757526574e-12 	101324.9999999896
-0.2314814814814819 	299.9999999999785 	2.01066022247964e-12 	101324.9999999894
-0.2289789789789792 	299.9999999998986 	5.638094978386614e-12 	101324.9999999893
-0.2264764764764769 	299.9999999999338 	2.53668092195227e-12 	101324.9999999893
-0.2239739739739743 	299.9999999999457 	5.054196249418048e-12 	101324.9999999889
-0.2214714714714718 	299.9999999999234 	4.059679876714011e-12 	101324.9999999891
-0.2189689689689693 	299.9999999999624 	4.091945130308244e-12 	101324.9999999892
-0.2164664664664669 	299.9999999999806 	5.139819195482667e-12 	101324.9999999892
-0.2139639639639643 	299.9999999999139 	3.504263744892938e-12 	101324.9999999891
-0.2114614614614618 	299.9999999999606 	4.100778716622667e-12 	101324.9999999889
-0.2089589589589593 	299.9999999999859 	4.147989471085957e-12 	101324.9999999889
-0.2064564564564568 	299.999999999986 	3.414398460245515e-12 	101324.9999999889
-0.2039539539539543 	299.999999999887 	4.288048268936386e-12 	101324.9999999889
-0.2014514514514518 	299.9999999999388 	9.987572267542666e-13 	101324.9999999892
-0.1989489489489494 	299.9999999999591 	4.040801858559635e-12 	101324.9999999893
-0.1964464464464468 	299.9999999999911 	7.024136400558395e-13 	101324.9999999894
-0.1939439439439443 	299.9999999999882 	4.042996083595967e-12 	101324.9999999894
-0.1914414414414418 	299.9999999998911 	6.199102795166699e-13 	101324.9999999896
-0.1889389389389393 	300.0000000000078 	2.723332922602492e-12 	101324.9999999896
-0.1864364364364368 	300.0000000000513 	1.05027461711721e-12 	101324.9999999894
-0.1839339339339343 	299.9999999999626 	2.848869628355161e-12 	101324.9999999893
-0.1814314314314318 	299.9999999999944 	1.208184504547081e-12 	101324.9999999894
-0.1789289289289293 	299.9999999998702 	2.915682122358486e-12 	101324.9999999893
-0.1764264264264268 	299.999999999972 	1.040565564477656e-12 	101324.9999999893
-0.1739239239239243 	299.9999999998751 	3.505823051143489e-12 	101324.9999999893
-0.1714214214214218 	299.9999999999848 	2.381741442256387e-12 	101324.9999999892
-0.1689189189189193 	299.999999999942 	4.893090014800684e-12 	101324.9999999894
-0.1664164164164168 	300.0000000000051 	3.501742718253613e-12 	101324.9999999894
-0.1639139139139143 	299.9999999999789 	6.20588554784488e-12 	101324.9999999895
-0.1614114114114118 	300.000000000034 	4.576694585768875e-12 	101324.9999999893
-0.1589089089089093 	299.9999999999953 	8.196449177136373e-12 	101324.9999999893
-0.1564064064064068 	299.9999999999808 	6.157875627573948e-12 	101324.9999999892
-0.1539039039039043 	299.9999999999879 	8.498775815597903e-12 	101324.9999999891
-0.1514014014014018 	300.0000000000315 	4.947195008704872e-12 	101324.9999999892
-0.1488988988988993 	299.9999999999778 	8.514211084197342e-12 	101324.999999989
-0.1463963963963968 	299.9999999999986 	3.018173557066929e-12 	101324.9999999889
-0.1438938938938943 	299.9999999999397 	7.940885805304497e-12 	101324.9999999885
-0.1413913913913918 	299.9999999999067 	1.43386775059724e-12 	101324.9999999887
-0.1388888888888893 	299.9999999999753 	6.124655618054499e-12 	101324.9999999888
-0.1363863863863868 	299.9999999998563 	4.530818634827812e-13 	101324.9999999888
-0.1338838838838843 	299.999999999891 	4.317291635365478e-12 	101324.9999999886
-0.1313813813813818 	299.9999999999957 	2.45644111252351e-13 	101324.9999999886
-0.1288788788788793 	299.999999999947 	3.793834494789772e-12 	101324.9999999886
-0.1263763763763768 	299.9999999999645 	4.349848906125035e-13 	101324.9999999885
-0.1238738738738743 	299.9999999999105 	3.794199797061556e-12 	101324.9999999886
-0.1213713713713717 	299.999999999974 	1.011139379963771e-12 	101324.9999999885
-0.1188688688688693 	300.0000000000028 	4.934000587184336e-12 	101324.9999999884
-0.1163663663663668 	299.9999999998819 	1.075894318099123e-12 	101324.9999999885
-0.1138638638638643 	299.9999999999878 	6.100042091602595e-12 	101324.9999999886
-0.1113613613613618 	299.9999999999804 	9.426198119354522e-13 	101324.9999999888
-0.1088588588588592 	299.99999999997 	6.760414229662102e-12 	101324.9999999889
-0.1063563563563568 	299.9999999999416 	8.075080339754819e-13 	101324.9999999889
-0.1038538538538543 	299.9999999999654 	6.246330433502833e-12 	101324.999999989
-0.1013513513513517 	300.0000000000208 	1.621613329645567e-12 	101324.9999999894
-0.09884884884884926 	299.9999999999253 	5.973160617311345e-12 	101324.9999999892
-0.09634634634634676 	299.9999999998597 	1.798218313547044e-12 	101324.9999999891
-0.09384384384384425 	299.9999999999136 	4.177855983350072e-12 	101324.9999999889
-0.09134134134134177 	300.0000000000288 	1.751541644161893e-12 	101324.9999999889
-0.08883883883883925 	300.0000000000121 	3.910771542227572e-12 	101324.9999999889
-0.08633633633633674 	299.999999999938 	3.019745965171693e-12 	101324.9999999888
-0.08383383383383426 	300.0000000000136 	4.487765119484224e-12 	101324.9999999886
-0.08133133133133173 	299.999999999959 	5.897990376230586e-12 	101324.9999999888
-0.07882882882882926 	299.9999999998517 	6.013847047331635e-12 	101324.9999999887
-0.07632632632632676 	299.9999999999501 	6.403021290738667e-12 	101324.9999999888
-0.07382382382382424 	299.999999999871 	6.227361653178871e-12 	101324.9999999888
-0.07132132132132173 	300.000000000011 	5.619944792027773e-12 	101324.9999999888
-0.06881881881881925 	299.9999999999451 	5.663882454258814e-12 	101324.9999999888
-0.06631631631631671 	299.9999999998676 	5.029954673842332e-12 	101324.9999999887
-0.06381381381381425 	299.9999999999411 	4.732228821140176e-12 	101324.9999999885
-0.06131131131131173 	299.9999999999428 	4.458648437421872e-12 	101324.9999999884
-0.05880880880880923 	299.9999999999018 	4.546186608625231e-12 	101324.9999999885
-0.05630630630630672 	299.9999999999613 	3.919203748860308e-12 	101324.9999999885
-0.05380380380380424 	300.0000000000227 	4.233643400677943e-12 	101324.9999999886
-0.05130130130130173 	300.0000000000132 	4.053703483370147e-12 	101324.9999999886
-0.04879879879879922 	299.9999999999289 	3.212524034719439e-12 	101324.9999999887
-0.04629629629629672 	299.9999999999138 	2.269416992190412e-12 	101324.9999999888
-0.04379379379379422 	299.9999999998976 	2.257767840870441e-12 	101324.9999999887
-0.04129129129129173 	299.9999999999667 	2.252228945225617e-12 	101324.9999999886
-0.03878878878878922 	299.9999999999731 	2.506500701573838e-12 	101324.9999999887
-0.03628628628628671 	299.9999999999727 	1.950448677609235e-12 	101324.9999999888
-0.03378378378378422 	299.9999999999035 	2.092689680994714e-12 	101324.9999999888
-0.03128128128128172 	299.9999999999595 	1.057656934637081e-12 	101324.9999999886
-0.02877877877877922 	299.9999999999632 	1.36823639237529e-12 	101324.9999999883
-0.0262762762762767 	299.999999999872 	7.69680561583507e-13 	101324.9999999885
-0.02377377377377422 	300.000000000022 	6.10543563949342e-13 	101324.9999999887
-0.0212712712712717 	299.9999999998763 	4.537909990519477e-13 	101324.9999999888
-0.01876876876876921 	299.9999999999696 	5.789555240624939e-13 	101324.9999999888
-0.01626626626626671 	300.0000000000141 	1.412470096292411e-13 	101324.9999999891
-0.0137637637637642 	299.999999999952 	5.679610551017332e-13 	101324.999999989
-0.0112612612612617 	300.000000000016 	3.26003032681775e-14 	101324.9999999891
-0.008758758758759198 	299.9999999999936 	1.349073682224537e-13 	101324.9999999891
-0.006256256256256697 	299.9999999998589 	4.177862276992321e-13 	101324.9999999891
-0.003753753753754195 	299.9999999999432 	4.55989497072828e-13 	101324.999999989
-0.001251251251251693 	299.9999999999069 	6.904540961553937e-14 	101324.999999989
0.00125125125125081 	299.9999999999362 	9.547642613022434e-13 	101324.9999999888
0.003753753753753312 	299.9999999999557 	2.632284676077418e-13 	101324.9999999887
0.006256256256255817 	299.9999999998593 	1.604578474584466e-12 	101324.9999999883
0.008758758758758317 	299.9999999999861 	1.289867438181107e-12 	101324.9999999881
0.01126126126126082 	300.0000000000132 	1.124407817399568e-12 	101324.9999999882
0.01376376376376332 	299.9999999999593 	1.590250508406904e-13 	101324.9999999881
0.01626626626626582 	300.0000000000121 	4.1871131291078e-13 	101324.9999999884
0.01876876876876833 	299.9999999999449 	1.703871568670717e-12 	101324.9999999885
0.02127127127127083 	299.9999999999615 	1.367529492592995e-12 	101324.9999999886
0.02377377377377332 	299.9999999999947 	1.686114684159857e-12 	101324.9999999886
0.02627627627627583 	299.9999999998808 	1.778379230586191e-12 	101324.9999999888
0.02877877877877833 	300.0000000000097 	1.815768415745503e-12 	101324.9999999888
0.03128128128128083 	299.9999999999329 	2.641076600278028e-12 	101324.9999999888
0.03378378378378333 	299.9999999998787 	2.809126198301032e-12 	101324.999999989
0.03628628628628584 	299.9999999999603 	2.556571682501125e-12 	101324.9999999888
0.03878878878878834 	299.9999999999713 	1.888355341174358e-12 	101324.9999999891
0.04129129129129084 	299.9999999999692 	1.75167216017455e-12 	101324.9999999891
0.04379379379379333 	299.9999999999263 	1.209715040460792e-12 	101324.999999989
0.04629629629629585 	299.9999999998608 	8.073634536653182e-13 	101324.9999999891
0.04879879879879834 	299.9999999999383 	3.215185573909915e-13 	101324.999999989
0.05130130130130085 	300.0000000000127 	2.613803037469185e-13 	101324.9999999889
0.05380380380380335 	300.0000000000246 	7.21634222481707e-13 	101324.9999999887
0.05630630630630584 	299.9999999999869 	9.686804159501618e-13 	101324.9999999888
0.05880880880880836 	299.999999999895 	8.857158784838394e-13 	101324.9999999889
0.06131131131131085 	299.9999999999658 	4.997523406698586e-13 	101324.9999999886
0.06381381381381336 	299.9999999999497 	2.251462927226919e-13 	101324.9999999886
0.06631631631631586 	299.9999999998616 	2.571429109675474e-13 	101324.9999999885
0.06881881881881835 	299.9999999999356 	5.43031923279613e-13 	101324.9999999886
0.07132132132132088 	299.9999999999899 	9.36054563368017e-13 	101324.9999999884
0.07382382382382337 	299.9999999998759 	1.424105639443313e-12 	101324.9999999884
0.07632632632632587 	299.999999999965 	1.947938281453143e-12 	101324.9999999887
0.07882882882882837 	299.9999999999161 	1.635587710376475e-12 	101324.999999989
0.08133133133133086 	299.999999999984 	1.81246458479755e-12 	101324.999999989
0.08383383383383337 	299.9999999999828 	3.201357047271381e-13 	101324.999999989
0.08633633633633589 	299.9999999998838 	1.462569607646829e-13 	101324.9999999888
0.08883883883883838 	300.0000000000126 	5.238769843982642e-13 	101324.9999999888
0.09134134134134086 	299.9999999999865 	8.772361567293611e-13 	101324.999999989
0.09384384384384339 	299.9999999998696 	2.040358334717104e-12 	101324.9999999889
0.09634634634634588 	299.9999999999509 	2.411794936144968e-12 	101324.9999999888
0.09884884884884838 	299.999999999957 	1.902614466676848e-12 	101324.9999999885
0.1013513513513509 	300.0000000000286 	1.980734635680296e-12 	101324.9999999882
0.1038538538538534 	299.9999999999358 	1.856226570638338e-12 	101324.9999999879
0.1063563563563559 	300.0000000000211 	2.554600860731112e-12 	101324.9999999881
0.1088588588588584 	300.0000000000281 	1.983139418949402e-12 	101324.9999999882
0.1113613613613609 	299.9999999999031 	2.158412638833143e-12 	101324.9999999883
0.1138638638638634 	299.9999999999329 	1.980715332351853e-12 	101324.9999999884
0.1163663663663659 	299.9999999999252 	1.859836474187096e-12 	101324.9999999886
0.1188688688688684 	299.9999999999609 	1.359178797182884e-12 	101324.9999999886
0.1213713713713709 	299.999999999987 	6.181365018990875e-13 	101324.9999999886
0.1238738738738734 	299.9999999999037 	3.077191326490714e-13 	101324.9999999886
0.1263763763763759 	299.9999999999878 	3.126703722690084e-13 	101324.9999999886
0.1288788788788784 	299.9999999999886 	2.119889616594377e-13 	101324.9999999887
0.1313813813813809 	299.9999999999873 	2.409736381042266e-13 	101324.9999999887
0.1338838838838834 	299.9999999999637 	5.192792340673513e-13 	101324.9999999886
0.1363863863863859 	300.0000000000319 	4.757612996412579e-13 	101324.9999999888
0.1388888888888884 	300.0000000000626 	9.477715565995282e-13 	101324.9999999886
0.1413913913913909 	300.0000000000034 	3.606298868014834e-13 	101324.9999999887
0.1438938938938934 	299.9999999999862 	1.214153134139386e-12 	101324.9999999889
0.1463963963963959 	299.999999999949 	4.051565230121368e-13 	101324.9999999889
0.1488988988988985 	299.9999999998867 	2.261470151288374e-12 	101324.999999989
0.1514014014014009 	299.9999999999627 	5.932165589886994e-13 	101324.9999999889
0.1539039039039035 	299.9999999999528 	3.003305792552082e-12 	101324.9999999887
0.1564064064064059 	299.9999999999176 	2.513036477737875e-13 	101324.9999999888
0.1589089089089084 	299.9999999999708 	3.37073276104904e-12 	101324.9999999886
0.1614114114114109 	299.9999999999652 	4.325452193483288e-13 	101324.9999999884
0.1639139139139134 	299.9999999998935 	1.776633401636975e-12 	101324.9999999886
0.166416416416416 	300.0000000000045 	1.531907303413896e-13 	101324.9999999885
0.1689189189189185 	300.0000000000422 	3.493941983318367e-14 	101324.9999999886
0.1714214214214209 	299.9999999999955 	4.477475704241218e-13 	101324.9999999883
0.1739239239239235 	299.9999999999876 	5.055791536940568e-13 	101324.9999999886
0.1764264264264259 	299.9999999999555 	2.429043659729964e-12 	101324.9999999886
0.1789289289289284 	300.0000000000093 	9.778054774039028e-13 	101324.9999999887
0.181431431431431 	299.9999999999554 	3.979514087012471e-12 	101324.9999999886
0.1839339339339334 	299.9999999999617 	2.365862968457416e-12 	101324.9999999888
0.186436436436436 	299.9999999999068 	3.507624751256286e-12 	101324.9999999887
0.1889389389389385 	299.9999999999879 	2.835523058399277e-12 	101324.9999999886
0.191441441441441 	299.9999999999766 	2.428581733978944e-12 	101324.9999999887
0.1939439439439434 	299.9999999998965 	3.193906489270571e-12 	101324.9999999886
0.196446446446446 	299.9999999999271 	1.060805763794967e-12 	101324.9999999884
0.1989489489489485 	299.9999999999696 	3.051198572333107e-12 	101324.9999999883
0.2014514514514509 	299.9999999999783 	9.394235934208555e-13 	101324.9999999884
0.2039539539539535 	299.9999999999884 	2.380064299055915e-12 	101324.9999999881
0.2064564564564559 	299.9999999999467 	1.651888138884372e-12 	101324.9999999877
0.2089589589589585 	299.9999999999724 	2.752114802796885e-12 	101324.9999999875
0.211461461461461 	299.9999999999219 	3.037014821955734e-12 	101324.9999999874
0.2139639639639635 	299.9999999999826 	2.304689200053182e-12 	101324.9999999874
0.2164664664664659 	299.9999999999936 	3.530444851583336e-12 	101324.9999999876
0.2189689689689684 	299.9999999999949 	1.293291317731276e-12 	101324.9999999878
0.221471471471471 	299.9999999999952 	3.556606872022457e-12 	101324.999999988
0.2239739739739735 	299.9999999999409 	9.700324824657365e-13 	101324.9999999882
0.226476476476476 	299.9999999999785 	2.196198441498206e-12 	101324.9999999885
0.2289789789789785 	299.9999999999969 	7.768536970049814e-13 	101324.9999999886
0.231481481481481 	299.999999999979 	1.064550847623322e-12 	101324.9999999887
0.2339839839839835 	299.999999999977 	1.208126914545439e-12 	101324.9999999888
0.236486486486486 	300.0000000000248 	1.190211797317827e-13 	101324.9999999888
0.2389889889889885 	299.9999999999978 	1.014395298593203e-12 	101324.9999999889
0.241491491491491 	299.9999999998974 	6.614772960383565e-13 	101324.9999999887
0.2439939939939935 	299.9999999999762 	2.874520010820007e-12 	101324.9999999886
0.246496496496496 	299.9999999999779 	1.067192500872571e-12 	101324.9999999884
0.2489989989989985 	300.0000000000412 	2.21916402615792e-12 	101324.9999999884
0.251501501501501 	300.000000000033 	1.397390022187696e-12 	101324.9999999881
0.2540040040040035 	299.9999999999803 	1.337671905930747e-12 	101324.9999999881
0.256506506506506 	300.0000000000291 	1.473875227055693e-12 	101324.9999999879
0.2590090090090086 	299.9999999998781 	7.093975993026936e-13 	101324.9999999878
0.261511511511511 	300.0000000000035 	1.862422373368086e-12 	101324.9999999878
0.2640140140140135 	299.9999999999884 	1.345501830917039e-12 	101324.9999999878
0.2665165165165161 	299.9999999999075 	8.55302604551367e-13 	101324.999999988
0.2690190190190185 	300.0000000000041 	1.556934074323102e-13 	101324.9999999882
0.271521521521521 	300.0000000000033 	8.895179217459949e-13 	101324.9999999881
0.2740240240240235 	300.0000000000184 	9.913149145655406e-13 	101324.9999999882
0.276526526526526 	300.000000000007 	4.157732904726901e-13 	101324.9999999886
0.2790290290290286 	299.9999999999199 	9.671909576627748e-13 	101324.9999999887
0.281531531531531 	299.9999999999075 	6.043561068144882e-13 	101324.9999999886
0.2840340340340335 	299.999999999975 	9.930139878621243e-13 	101324.9999999882
0.2865365365365361 	299.9999999999445 	2.411471809706088e-13 	101324.9999999879
0.2890390390390385 	299.9999999999919 	1.423288144726967e-13 	101324.9999999878
0.291541541541541 	299.9999999999918 	5.77178315586408e-13 	101324.9999999877
0.2940440440440436 	299.9999999999844 	1.031714206403491e-12 	101324.9999999878
0.296546546546546 	299.9999999999846 	1.750339839312483e-12 	101324.9999999878
0.2990490490490486 	299.9999999999142 	2.079753133510156e-12 	101324.9999999879
0.3015515515515511 	300.0000000000441 	2.973434605715796e-12 	101324.9999999877
0.3040540540540535 	299.9999999999874 	3.789136185892817e-12 	101324.9999999878
0.3065565565565562 	299.9999999999902 	3.54430352589093e-12 	101324.9999999878
0.3090590590590585 	299.9999999999796 	3.227882987450333e-12 	101324.9999999878
0.3115615615615611 	299.9999999999174 	3.58052112299594e-12 	101324.9999999879
0.3140640640640635 	300.0000000000027 	1.523312871156683e-12 	101324.9999999881
0.316566566566566 	299.9999999999848 	3.155087693382679e-12 	101324.9999999881
0.3190690690690687 	299.9999999999355 	1.39953882207014e-12 	101324.9999999882
0.3215715715715711 	300.000000000016 	2.274162120245571e-12 	101324.9999999883
0.3240740740740735 	299.9999999999954 	1.788633130359396e-12 	101324.9999999883
0.326576576576576 	299.9999999998789 	1.105534360553603e-12 	101324.9999999882
0.3290790790790786 	300.0000000000095 	1.392980358263786e-12 	101324.9999999881
0.3315815815815811 	300.000000000044 	6.151379857241176e-13 	101324.9999999881
0.3340840840840836 	299.9999999999824 	1.119244421863824e-12 	101324.999999988
0.3365865865865861 	300.0000000000713 	9.260076116066266e-13 	101324.9999999878
0.3390890890890886 	300.0000000000582 	9.518450854653282e-13 	101324.9999999877
0.3415915915915911 	299.999999999998 	1.037797695541733e-12 	101324.9999999877
0.3440940940940935 	299.9999999999406 	9.779949077361612e-13 	101324.9999999878
0.3465965965965962 	300.0000000000388 	1.197626327536765e-12 	101324.9999999878
0.3490990990990985 	300.0000000000288 	3.289196432904404e-13 	101324.9999999878
0.3516016016016011 	299.9999999999834 	2.228584384928987e-13 	101324.999999988
0.3541041041041035 	300.0000000000106 	3.828106745947518e-13 	101324.9999999882
0.3566066066066061 	299.9999999999434 	1.139614204419786e-12 	101324.9999999884
0.3591091091091085 	299.9999999999043 	1.372044860969195e-12 	101324.9999999883
0.3616116116116112 	299.9999999999231 	1.69130858835039e-12 	101324.9999999884
0.3641141141141137 	299.9999999999137 	2.102572850686271e-12 	101324.9999999883
0.3666166166166161 	299.9999999999033 	2.395272601400438e-12 	101324.9999999885
0.3691191191191185 	300.0000000000468 	3.521367250545542e-12 	101324.9999999885
0.371621621621621 	300.0000000000189 	1.547239892166715e-12 	101324.9999999889
0.3741241241241237 	300.0000000000622 	3.4304981977191e-12 	101324.9999999892
0.3766266266266261 	300.0000000000309 	8.717702937479615e-13 	101324.9999999891
0.3791291291291286 	299.999999999974 	2.687930868056718e-12 	101324.9999999892
0.3816316316316311 	299.9999999999019 	1.161162818318691e-12 	101324.9999999891
0.3841341341341336 	300.000000000016 	2.138524141542275e-12 	101324.9999999889
0.3866366366366362 	299.9999999999977 	1.072678595811117e-12 	101324.9999999887
0.3891391391391387 	299.9999999999436 	1.219420280769274e-12 	101324.9999999886
0.391641641641641 	299.9999999999947 	1.174194478813075e-12 	101324.9999999889
0.3941441441441436 	300.0000000000093 	4.21702875753276e-13 	101324.9999999889
0.3966466466466462 	299.9999999999997 	1.726978762837798e-12 	101324.9999999889
0.3991491491491486 	299.9999999999368 	4.397619451365202e-13 	101324.999999989
0.4016516516516512 	299.9999999998954 	1.444668203155186e-12 	101324.9999999888
0.4041541541541536 	299.9999999999356 	8.092600456384414e-13 	101324.9999999888
0.4066566566566561 	299.9999999999367 	1.30732424817133e-12 	101324.9999999891
0.4091591591591587 	299.9999999999928 	1.167155430833312e-12 	101324.999999989
0.4116616616616612 	300.0000000000108 	6.464320996327512e-13 	101324.9999999888
0.4141641641641635 	300.0000000000546 	6.464546026021331e-13 	101324.9999999887
0.4166666666666662 	299.999999999991 	8.444640275971287e-13 	101324.9999999886
0.4191691691691687 	299.9999999999297 	1.612003000864826e-12 	101324.9999999887
0.421671671671671 	300.0000000000132 	1.562400757603665e-12 	101324.9999999889
0.4241741741741737 	299.9999999999691 	3.445429646841531e-12 	101324.9999999888
0.4266766766766761 	299.9999999999422 	2.492022784963533e-12 	101324.9999999887
0.4291791791791785 	300.0000000000247 	3.415979895120585e-12 	101324.9999999887
0.4316816816816812 	300.0000000000166 	2.769165864771852e-12 	101324.9999999883
0.4341841841841836 	299.9999999999774 	4.093875890900375e-12 	101324.9999999883
0.4366866866866862 	299.9999999998995 	1.538035413370386e-12 	101324.9999999884
0.4391891891891885 	299.9999999999868 	2.775072890598979e-12 	101324.9999999886
0.4416916916916913 	299.9999999999746 	1.348837873679366e-12 	101324.9999999886
0.4441941941941936 	299.9999999999799 	1.624984799229226e-12 	101324.9999999886
0.4466966966966961 	299.9999999998972 	1.337269608259813e-12 	101324.9999999888
0.4491991991991987 	299.9999999999771 	4.450443682677163e-13 	101324.999999989
0.4517017017017012 	299.9999999999727 	1.29649169978442e-12 	101324.9999999891
0.4542042042042035 	299.999999999976 	1.36307791097922e-12 	101324.9999999894
0.4567067067067062 	299.9999999999921 	1.546455255045315e-12 	101324.9999999892
0.4592092092092087 	299.9999999999101 	1.314526887598158e-12 	101324.9999999892
0.4617117117117112 	300.0000000000214 	1.237501244389511e-12 	101324.9999999893
0.4642142142142137 	299.9999999999578 	1.19447900542539e-12 	101324.9999999894
0.4667167167167162 	299.9999999999877 	1.194279755088191e-12 	101324.9999999896
0.4692192192192187 	299.9999999999488 	7.063428110847429e-13 	101324.9999999896
0.4717217217217212 	300.0000000000214 	5.286256892152167e-13 	101324.9999999896
0.4742242242242236 	299.9999999999425 	3.700659568059122e-13 	101324.9999999895
0.4767267267267262 	299.9999999999731 	3.783781399897057e-13 	101324.9999999894
0.4792292292292287 	300.0000000000141 	1.822082247390625e-13 	101324.9999999895
0.4817317317317312 	300.0000000000314 	4.220619361766947e-13 	101324.9999999895
0.4842342342342336 	299.9999999999797 	1.413704757648871e-12 	101324.9999999896
0.4867367367367362 	299.9999999999434 	1.365313894593027e-12 	101324.9999999896
0.4892392392392387 	300.0000000000332 	2.525934258492787e-12 	101324.9999999894
0.4917417417417412 	300.000000000007 	1.279233013935211e-12 	101324.9999999893
0.4942442442442437 	299.9999999998864 	2.80930035291067e-12 	101324.9999999895
0.4967467467467462 	299.9999999999071 	2.420720079093015e-12 	101324.9999999896
0.4992492492492487 	299.9999999998988 	4.442816269852353e-12 	101324.9999999896
0.5017517517517511 	299.9999999999422 	3.592648624292907e-12 	101324.9999999895
0.5042542542542537 	299.999999999957 	4.114757933579683e-12 	101324.9999999896
0.5067567567567562 	299.9999999999391 	3.80646451702735e-12 	101324.9999999898
0.5092592592592589 	299.9999999999654 	3.491387777062835e-12 	101324.99999999
0.5117617617617611 	299.9999999999487 	4.760448679267564e-12 	101324.9999999901
0.5142642642642637 	299.9999999999802 	2.794442283692046e-12 	101324.9999999904
0.5167667667667663 	299.9999999999664 	4.613007935369024e-12 	101324.9999999904
0.5192692692692688 	299.999999999912 	1.76314630297332e-12 	101324.9999999904
0.5217717717717714 	299.9999999999277 	5.787030483654861e-12 	101324.9999999902
0.5242742742742736 	299.9999999999328 	1.761554094802328e-12 	101324.9999999903
0.5267767767767763 	299.9999999999503 	4.474058464001578e-12 	101324.9999999903
0.5292792792792789 	299.999999999929 	1.274282937460041e-12 	101324.9999999904
0.5317817817817813 	299.9999999998909 	4.610731044047621e-12 	101324.9999999902
0.5342842842842837 	300.0000000000209 	2.805668486874532e-12 	101324.9999999901
0.5367867867867864 	300.0000000000059 	5.355964536976663e-12 	101324.9999999903
0.5392892892892888 	299.9999999999483 	4.458695987754759e-12 	101324.9999999904
0.5417917917917912 	300.0000000000009 	6.337625550198853e-12 	101324.9999999903
0.5442942942942938 	299.9999999999728 	5.052645449665194e-12 	101324.9999999902
0.5467967967967964 	299.9999999999415 	6.82422455652818e-12 	101324.9999999902
0.5492992992992988 	299.9999999999347 	5.7952554981605e-12 	101324.9999999903
0.5518018018018012 	299.9999999999267 	6.91609744889491e-12 	101324.9999999901
0.5543043043043039 	300.0000000000224 	5.261266041846986e-12 	101324.9999999903
0.5568068068068063 	299.9999999999885 	6.054293799478476e-12 	101324.99999999
0.5593093093093087 	299.9999999998911 	4.662869342975026e-12 	101324.9999999901
0.5618118118118114 	299.9999999999553 	6.267822099445149e-12 	101324.9999999903
0.5643143143143137 	299.9999999999328 	4.755451381828118e-12 	101324.9999999902
0.5668168168168163 	299.999999999986 	5.711687067080325e-12 	101324.9999999901
0.5693193193193188 	300.0000000000354 	5.464496618149305e-12 	101324.9999999903
0.5718218218218213 	300.0000000000306 	4.862530073074862e-12 	101324.9999999904
0.5743243243243239 	300.0000000000126 	5.883319970569048e-12 	101324.9999999904
0.5768268268268262 	300.0000000000059 	4.163072730337033e-12 	101324.9999999904
0.5793293293293288 	299.999999999939 	6.446425074961415e-12 	101324.9999999904
0.5818318318318314 	299.9999999999037 	2.96673861068681e-12 	101324.9999999904
0.5843343343343338 	299.9999999999777 	7.345357042704097e-12 	101324.9999999904
0.5868368368368363 	299.9999999999689 	3.615843370581879e-12 	101324.9999999904
0.5893393393393387 	299.9999999999295 	7.620631875649339e-12 	101324.9999999903
0.5918418418418413 	299.9999999999313 	5.188310585961744e-12 	101324.9999999901
0.5943443443443439 	300.0000000000158 	8.110367639866731e-12 	101324.9999999903
0.5968468468468463 	300.0000000000195 	6.644795005658844e-12 	101324.9999999903
0.5993493493493487 	300.0000000000452 	8.067022054132495e-12 	101324.9999999902
0.6018518518518514 	299.999999999979 	6.147296008524221e-12 	101324.9999999901
0.6043543543543537 	299.999999999993 	7.810712121323675e-12 	101324.9999999901
0.6068568568568564 	299.9999999999794 	6.165391373905253e-12 	101324.9999999902
0.6093593593593587 	299.9999999999227 	7.10358359823993e-12 	101324.9999999904
0.6118618618618614 	299.9999999999166 	6.001545705173566e-12 	101324.9999999903
0.6143643643643638 	300.0000000000187 	7.286172476170707e-12 	101324.9999999904
0.6168668668668662 	299.9999999999874 	5.633229392980505e-12 	101324.9999999906
0.6193693693693688 	299.9999999999573 	7.084613981900106e-12 	101324.9999999907
0.6218718718718714 	299.9999999999648 	4.953808800943923e-12 	101324.9999999907
0.6243743743743737 	299.9999999999222 	6.732923533732488e-12 	101324.9999999906
0.6268768768768762 	299.9999999999143 	5.281734565598311e-12 	101324.9999999905
0.629379379379379 	299.9999999999482 	6.662025818596133e-12 	101324.9999999907
0.6318818818818812 	299.9999999999783 	6.520569725713185e-12 	101324.9999999907
0.6343843843843838 	300.0000000000254 	5.947454562408109e-12 	101324.9999999908
0.6368868868868864 	299.9999999999875 	6.609599145418775e-12 	101324.9999999908
0.6393893893893888 	299.9999999999088 	5.190097865991331e-12 	101324.9999999909
0.6418918918918912 	300.0000000000051 	8.055339762126003e-12 	101324.9999999911
0.6443943943943939 	299.9999999999795 	4.574074841710366e-12 	101324.9999999913
0.6468968968968963 	299.9999999999807 	9.151548754642869e-12 	101324.9999999913
0.6493993993993988 	299.9999999999694 	4.365462344588928e-12 	101324.9999999914
0.6519019019019012 	299.9999999999768 	8.389190310310778e-12 	101324.9999999915
0.6544044044044038 	299.9999999998911 	5.484002183757538e-12 	101324.9999999916
0.6569069069069065 	299.9999999999414 	9.113144130699271e-12 	101324.9999999916
0.6594094094094087 	299.9999999999506 	6.129718237390654e-12 	101324.9999999916
0.6619119119119113 	299.9999999999489 	8.292998859421114e-12 	101324.9999999914
0.664414414414414 	300.0000000000094 	6.428482416094987e-12 	101324.9999999915
0.6669169169169162 	300.0000000000191 	8.536062319736386e-12 	101324.9999999917
0.6694194194194188 	299.9999999999825 	7.264503314283843e-12 	101324.9999999916
0.6719219219219214 	299.999999999916 	9.170945377715453e-12 	101324.9999999914
0.674424424424424 	299.9999999999716 	8.223646306264308e-12 	101324.9999999914
0.6769269269269262 	299.9999999999091 	9.165822311024377e-12 	101324.9999999914
0.679429429429429 	300.0000000000032 	8.645690536920193e-12 	101324.9999999914
0.6819319319319311 	299.9999999999784 	8.787137642701705e-12 	101324.9999999914
0.6844344344344341 	299.9999999999974 	7.4696085318755e-12 	101324.9999999913
0.686936936936936 	299.999999999992 	8.682769123551036e-12 	101324.9999999913
0.6894394394394392 	299.9999999999878 	7.856972224595433e-12 	101324.999999991
0.6919419419419413 	299.9999999999872 	8.413476784076882e-12 	101324.9999999911
0.694444444444444 	299.9999999999152 	9.039024770026659e-12 	101324.9999999913
0.6969469469469463 	299.9999999999106 	9.304290348583748e-12 	101324.9999999917
0.6994494494494489 	299.9999999999114 	1.054963947739594e-11 	101324.9999999918
0.7019519519519515 	299.9999999999781 	9.889221220440546e-12 	101324.9999999919
0.7044544544544538 	299.9999999999412 	1.197468329497521e-11 	101324.9999999921
0.7069569569569564 	299.9999999999937 	1.000528266964028e-11 	101324.9999999921
0.7094594594594589 	299.9999999999563 	1.353803451836088e-11 	101324.9999999921
0.7119619619619615 	299.9999999998942 	1.133311097440361e-11 	101324.999999992
0.7144644644644638 	299.9999999999438 	1.355753338393167e-11 	101324.9999999919
0.7169669669669665 	299.9999999999097 	1.193098299602466e-11 	101324.9999999917
0.7194694694694688 	299.9999999999948 	1.256302585850054e-11 	101324.9999999916
0.7219719719719715 	299.9999999999854 	1.127631618735517e-11 	101324.9999999916
0.7244744744744737 	300.0000000000058 	1.112538921788879e-11 	101324.9999999917
0.7269769769769764 	299.999999999998 	1.150899330591474e-11 	101324.9999999918
0.7294794794794791 	299.999999999989 	9.74403946949445e-12 	101324.9999999918
0.7319819819819813 	299.9999999999774 	1.213884996771533e-11 	101324.999999992
0.7344844844844839 	299.9999999999046 	9.84140971828957e-12 	101324.9999999923
0.7369869869869864 	299.9999999999396 	1.128970059985261e-11 	101324.9999999924
0.739489489489489 	299.999999999931 	1.059867022736776e-11 	101324.9999999924
0.7419919919919914 	299.9999999999157 	1.103723759775166e-11 	101324.9999999925
0.7444944944944939 	299.9999999999791 	1.241286663668538e-11 	101324.9999999924
0.7469969969969963 	299.9999999999692 	1.147538086955071e-11 	101324.9999999926
0.7494994994994989 	299.9999999999299 	1.423902437992988e-11 	101324.9999999927
0.7520020020020015 	299.9999999999628 	1.071138181644821e-11 	101324.9999999929
0.7545045045045039 	299.9999999999595 	1.37970792003745e-11 	101324.9999999929
0.7570070070070062 	299.999999999937 	1.050318633350719e-11 	101324.9999999929
0.7595095095095092 	299.9999999999288 	1.326924496460059e-11 	101324.9999999929
0.7620120120120112 	300.0000000000115 	1.247994208173551e-11 	101324.9999999928
0.7645145145145138 	299.9999999999867 	1.329643104176914e-11 	101324.9999999929
0.7670170170170165 	299.9999999999204 	1.360962891335167e-11 	101324.999999993
0.7695195195195191 	299.9999999999133 	1.19604171489095e-11 	101324.999999993
0.7720220220220213 	299.999999999931 	1.464797872158589e-11 	101324.999999993
0.7745245245245239 	299.9999999999148 	1.231330720771294e-11 	101324.9999999932
0.7770270270270263 	299.9999999999594 	1.418154366283369e-11 	101324.9999999931
0.779529529529529 	299.9999999999724 	1.294088294511106e-11 	101324.999999993
0.7820320320320313 	299.9999999999632 	1.36956096779709e-11 	101324.9999999931
0.784534534534534 	300.0000000000074 	1.336583872822025e-11 	101324.999999993
0.7870370370370364 	299.9999999999924 	1.270003629707674e-11 	101324.999999993
0.7895395395395389 	299.9999999999707 	1.3843140475988e-11 	101324.9999999928
0.7920420420420413 	299.999999999971 	1.266732247915512e-11 	101324.999999993
0.794544544544544 	299.9999999999678 	1.473132319156602e-11 	101324.999999993
0.7970470470470463 	300.0000000000057 	1.248943197247769e-11 	101324.9999999931
0.799549549549549 	299.9999999999907 	1.667859369102314e-11 	101324.999999993
0.8020520520520515 	299.9999999999837 	1.356129845016979e-11 	101324.9999999932
0.8045545545545539 	299.9999999999352 	1.587524404562712e-11 	101324.9999999933
0.8070570570570563 	299.9999999999797 	1.450102974277473e-11 	101324.9999999931
0.8095595595595589 	299.9999999999513 	1.544716418513338e-11 	101324.999999993
0.8120620620620614 	299.9999999999292 	1.560273053167258e-11 	101324.9999999931
0.8145645645645638 	299.999999999997 	1.520673578275398e-11 	101324.9999999933
0.8170670670670666 	299.9999999999968 	1.564942999275192e-11 	101324.9999999936
0.8195695695695689 	299.9999999999758 	1.314731033728704e-11 	101324.9999999937
0.8220720720720714 	299.999999999928 	1.555418291523865e-11 	101324.9999999935
0.8245745745745739 	299.9999999999895 	1.220290828019427e-11 	101324.9999999934
0.8270770770770765 	299.9999999999717 	1.435051677228167e-11 	101324.9999999937
0.8295795795795788 	299.9999999999508 	1.329726189110126e-11 	101324.999999994
0.8320820820820815 	300.0000000000169 	1.42515421220045e-11 	101324.9999999941
0.834584584584584 	300.0000000000069 	1.310003037241963e-11 	101324.9999999939
0.8370870870870865 	299.9999999999609 	1.272636721860723e-11 	101324.9999999939
0.8395895895895891 	299.9999999999225 	1.423015770411622e-11 	101324.9999999941
0.8420920920920915 	299.9999999999474 	1.374987315136375e-11 	101324.999999994
0.844594594594594 	299.9999999999374 	1.485616314998548e-11 	101324.9999999939
0.8470970970970964 	299.9999999999426 	1.514322800605214e-11 	101324.999999994
0.8495995995995991 	299.9999999999949 	1.541059646485919e-11 	101324.9999999943
0.8521021021021015 	299.9999999999802 	1.610529498157544e-11 	101324.9999999943
0.8546046046046039 	299.9999999999678 	1.575623677980022e-11 	101324.9999999944
0.8571071071071066 	300.0000000000028 	1.74062268479657e-11 	101324.9999999944
0.8596096096096089 	299.9999999999657 	1.554062950856378e-11 	101324.9999999944
0.8621121121121116 	299.9999999999346 	1.908680393226578e-11 	101324.9999999945
0.8646146146146139 	300.0000000000088 	1.618149967626114e-11 	101324.9999999947
0.8671171171171166 	299.9999999999809 	1.815860257184745e-11 	101324.9999999948
0.8696196196196189 	299.9999999999371 	1.751404016666846e-11 	101324.9999999948
0.8721221221221216 	299.9999999999681 	1.78852417814322e-11 	101324.9999999948
0.874624624624624 	300.000000000006 	1.721375644965991e-11 	101324.999999995
0.8771271271271264 	300.0000000000006 	1.630649509488374e-11 	101324.9999999951
0.879629629629629 	300.000000000002 	1.678233916129648e-11 	101324.999999995
0.8821321321321317 	299.9999999999799 	1.47047396809519e-11 	101324.9999999948
0.8846346346346339 	299.9999999999169 	1.750337833093001e-11 	101324.9999999946
0.8871371371371364 	299.9999999999494 	1.43872883497369e-11 	101324.9999999946
0.8896396396396391 	299.9999999999459 	1.614737510917155e-11 	101324.9999999946
0.8921421421421414 	299.9999999999506 	1.447289152179247e-11 	101324.9999999946
0.8946446446446441 	299.9999999999838 	1.585398607894867e-11 	101324.9999999948
0.8971471471471464 	300.0000000000029 	1.572727698600666e-11 	101324.9999999949
0.8996496496496489 	299.9999999999775 	1.578706849950622e-11 	101324.9999999951
0.9021521521521517 	299.9999999999582 	1.732875849001633e-11 	101324.9999999951
0.9046546546546541 	299.9999999999869 	1.61088894930209e-11 	101324.9999999952
0.9071571571571564 	299.9999999999393 	1.69269148387709e-11 	101324.9999999954
0.9096596596596589 	299.9999999999384 	1.673860385281851e-11 	101324.9999999956
0.9121621621621616 	300.000000000011 	1.73977023417369e-11 	101324.999999996
0.9146646646646639 	299.9999999999749 	1.752772036948729e-11 	101324.9999999962
0.9171671671671666 	299.9999999999371 	1.756581368677858e-11 	101324.9999999962
0.9196696696696689 	300.0000000000022 	1.821886199877149e-11 	101324.9999999962
0.9221721721721714 	300.0000000000009 	1.559704417402803e-11 	101324.9999999964
0.9246746746746741 	299.999999999935 	1.826353530889233e-11 	101324.9999999964
0.9271771771771765 	299.9999999999417 	1.579156526349951e-11 	101324.9999999962
0.9296796796796791 	299.9999999999866 	1.837600708016568e-11 	101324.9999999961
0.9321821821821816 	299.9999999999653 	1.718628590017057e-11 	101324.999999996
0.9346846846846838 	299.9999999999472 	1.86499428852525e-11 	101324.9999999961
0.9371871871871866 	300.0000000000153 	1.834771605518095e-11 	101324.9999999962
0.9396896896896891 	300.0000000000168 	1.855256158500507e-11 	101324.9999999961
0.9421921921921914 	300.0000000000142 	1.919321445212331e-11 	101324.9999999962
0.9446946946946939 	299.9999999999676 	1.843973413951106e-11 	101324.9999999965
0.9471971971971965 	299.9999999999185 	2.101055215026561e-11 	101324.9999999965
0.9496996996996991 	299.9999999999591 	1.811805543932642e-11 	101324.9999999963
0.9522022022022016 	299.9999999999735 	1.978549176163097e-11 	101324.9999999962
0.9547047047047038 	299.9999999999724 	1.877826095532022e-11 	101324.9999999963
0.9572072072072064 	299.9999999999536 	2.006988165557741e-11 	101324.9999999964
0.9597097097097093 	299.9999999999506 	1.967968757969981e-11 	101324.9999999962
0.9622122122122114 	299.9999999999474 	1.911926913813498e-11 	101324.9999999964
0.964714714714714 	299.9999999999429 	2.013856909996358e-11 	101324.9999999964
0.9672172172172167 	299.9999999999521 	1.889304096985893e-11 	101324.9999999963
0.969719719719719 	299.9999999999852 	1.999918285445901e-11 	101324.9999999962
0.9722222222222214 	299.9999999999704 	1.93119469766545e-11 	101324.9999999962
0.9747247247247239 	299.9999999999671 	1.974859842460818e-11 	101324.9999999962
0.9772272272272267 	300.0000000000073 	1.972169428137298e-11 	101324.9999999964
0.9797297297297292 	299.9999999999886 	1.93467477572629e-11 	101324.9999999966
0.9822322322322313 	299.9999999999886 	2.043930891961685e-11 	101324.9999999966
0.9847347347347344 	299.9999999999876 	1.917711209922237e-11 	101324.9999999965
0.9872372372372363 	299.9999999999397 	2.201335327924099e-11 	101324.9999999966
0.9897397397397389 	299.9999999999578 	1.919198820655977e-11 	101324.9999999967
0.9922422422422417 	299.9999999999405 	2.21054726997478e-11 	101324.9999999968
0.9947447447447441 	299.9999999999601 	2.091621453135739e-11 	101324.9999999968
0.9972472472472468 	299.9999999999727 	2.18771167977905e-11 	101324.9999999968
0.999749749749749 	299.9999999999636 	2.059400349306931e-11 	101324.9999999967
1.002252252252252 	299.999999999972 	2.064337833224395e-11 	101324.9999999965
1.004754754754754 	299.9999999999952 	2.050389669957852e-11 	101324.9999999964
1.007257257257256 	299.9999999999758 	1.954696542707714e-11 	101324.9999999966
1.009759759759759 	299.9999999999611 	2.225187192453736e-11 	101324.9999999969
1.012262262262261 	299.9999999999485 	2.043201255542115e-11 	101324.9999999972
1.014764764764764 	299.9999999999231 	2.2609098644308e-11 	101324.9999999976
1.017267267267267 	299.9999999999175 	2.102857952692189e-11 	101324.9999999977
1.019769769769769 	299.9999999999663 	2.181089593746718e-11 	101324.9999999976
1.022272272272272 	299.9999999999825 	2.128514841942476e-11 	101324.9999999976
1.024774774774774 	299.9999999999847 	2.139276768957376e-11 	101324.9999999976
1.027277277277277 	299.9999999999773 	2.24397959948947e-11 	101324.9999999977
1.029779779779779 	300.0000000000113 	2.089735192363417e-11 	101324.9999999978
1.032282282282282 	300.0000000000127 	2.19012328897058e-11 	101324.9999999977
1.034784784784784 	300.000000000003 	2.147313649051196e-11 	101324.9999999976
1.037287287287286 	299.9999999999661 	2.240111934695952e-11 	101324.9999999978
1.039789789789789 	299.9999999999748 	2.22961197776488e-11 	101324.9999999978
1.042292292292291 	300.0000000000175 	2.220847589081257e-11 	101324.999999998
1.044794794794794 	300.0000000000325 	2.211168833734202e-11 	101324.9999999982
1.047297297297296 	300.0000000000475 	2.031867890661008e-11 	101324.9999999982
1.049799799799799 	299.9999999999982 	2.228597458989464e-11 	101324.9999999981
1.052302302302302 	299.9999999999538 	2.000786467942262e-11 	101324.9999999981
1.054804804804804 	299.9999999999281 	2.27382077260011e-11 	101324.9999999981
1.057307307307306 	299.999999999919 	2.198765219223136e-11 	101324.9999999982
1.059809809809809 	299.9999999999552 	2.339215392148932e-11 	101324.9999999983
1.062312312312312 	299.999999999949 	2.279586992737185e-11 	101324.9999999983
1.064814814814814 	299.9999999999449 	2.34280468472281e-11 	101324.9999999982
1.067317317317317 	299.9999999999185 	2.288994784803737e-11 	101324.9999999982
1.069819819819819 	299.9999999999163 	2.196608907249576e-11 	101324.9999999983
1.072322322322321 	299.9999999999926 	2.382339858591854e-11 	101324.9999999983
1.074824824824824 	300.0000000000225 	2.166525885733229e-11 	101324.9999999981
1.077327327327327 	300.000000000041 	2.385485766894432e-11 	101324.9999999981
1.079829829829829 	300.0000000000514 	2.259302307474347e-11 	101324.9999999981
1.082332332332332 	300.0000000000048 	2.391344532896407e-11 	101324.9999999982
1.084834834834834 	299.9999999999696 	2.371407799356604e-11 	101324.9999999984
1.087337337337337 	299.9999999999357 	2.378974355038629e-11 	101324.9999999983
1.089839839839839 	299.9999999999217 	2.530029161324268e-11 	101324.9999999979
1.092342342342342 	299.9999999999574 	2.337204853141808e-11 	101324.9999999978
1.094844844844844 	299.9999999999537 	2.475021117216884e-11 	101324.9999999978
1.097347347347347 	299.999999999926 	2.309067354178147e-11 	101324.9999999979
1.099849849849849 	299.9999999999192 	2.638686397487596e-11 	101324.999999998
1.102352352352352 	299.999999999958 	2.379925798845116e-11 	101324.9999999979
1.104854854854854 	299.9999999999833 	2.605646802538536e-11 	101324.9999999981
1.107357357357357 	299.9999999999592 	2.387264477561371e-11 	101324.9999999984
1.109859859859859 	299.9999999999475 	2.546923389642034e-11 	101324.9999999985
1.112362362362362 	300.0000000000175 	2.408037861111819e-11 	101324.9999999984
1.114864864864865 	300.0000000000178 	2.432731030732525e-11 	101324.9999999984
1.117367367367367 	299.9999999999607 	2.557381293926193e-11 	101324.9999999981
1.119869869869869 	299.9999999999193 	2.372510727123808e-11 	101324.9999999981
1.122372372372372 	299.9999999999546 	2.55519585036124e-11 	101324.9999999982
1.124874874874874 	299.9999999999646 	2.424762965236473e-11 	101324.9999999982
1.127377377377377 	299.9999999999828 	2.546391345087751e-11 	101324.9999999983
1.129879879879879 	300.0000000000246 	2.485302738596023e-11 	101324.9999999986
1.132382382382382 	300.0000000000392 	2.54294142391536e-11 	101324.9999999988
1.134884884884884 	300.0000000000139 	2.469201792532581e-11 	101324.999999999
1.137387387387387 	300.0000000000238 	2.456544831566323e-11 	101324.9999999992
1.139889889889889 	299.9999999999607 	2.582659189368277e-11 	101324.9999999994
1.142392392392392 	299.9999999999499 	2.378874042205415e-11 	101324.9999999993
1.144894894894894 	300.0000000000222 	2.519735734970164e-11 	101324.9999999992
1.147397397397397 	299.9999999999998 	2.396167128855171e-11 	101324.9999999991
1.149899899899899 	299.9999999999325 	2.578406727978951e-11 	101324.9999999992
1.152402402402402 	299.9999999999159 	2.518932673818483e-11 	101324.9999999994
1.154904904904904 	299.9999999999534 	2.582719036409521e-11 	101324.9999999994
1.157407407407407 	299.9999999999561 	2.487589702601483e-11 	101324.9999999993
1.159909909909909 	299.9999999999279 	2.531007843999878e-11 	101324.9999999994
1.162412412412412 	299.9999999999258 	2.72606827921358e-11 	101324.9999999996
1.164914914914914 	299.9999999999661 	2.54540446101419e-11 	101324.9999999998
1.167417417417417 	299.9999999999575 	2.740949965335572e-11 	101324.9999999999
1.169919919919919 	300.0000000000026 	2.64013934386617e-11 	101324.9999999998
1.172422422422422 	300.000000000049 	2.809501292461164e-11 	101324.9999999997
1.174924924924925 	299.9999999999897 	2.690219745378662e-11 	101324.9999999996
1.177427427427427 	299.9999999999562 	2.784772008031104e-11 	101324.9999999994
1.179929929929929 	300.0000000000163 	2.936987994884723e-11 	101324.9999999992
1.182432432432432 	300.0000000000542 	2.774397670847707e-11 	101324.9999999992
1.184934934934934 	300.0000000000117 	2.902327175408858e-11 	101324.9999999991
1.187437437437437 	299.9999999999728 	2.728405056771994e-11 	101324.9999999991
1.189939939939939 	299.9999999999677 	2.811436845668016e-11 	101324.9999999992
1.192442442442442 	299.9999999999291 	2.670303731726219e-11 	101324.9999999995
1.194944944944944 	299.9999999999329 	2.808798463731125e-11 	101324.9999999999
1.197447447447447 	300.0000000000013 	2.726460612760441e-11 	101325.0000000002
1.199949949949949 	300.0000000000193 	2.743379987834226e-11 	101325.0000000001
1.202452452452452 	299.9999999999596 	2.878091605239053e-11 	101324.9999999999
1.204954954954955 	299.999999999948 	2.722677902145073e-11 	101324.9999999998
1.207457457457457 	299.9999999999795 	2.875488626841008e-11 	101324.9999999997
1.20995995995996 	299.9999999999811 	2.720190830145448e-11 	101324.9999999997
1.212462462462462 	299.9999999999925 	2.820480899662421e-11 	101324.9999999996
1.214964964964964 	299.9999999999858 	2.711426303850045e-11 	101324.9999999997
1.217467467467467 	299.9999999999734 	2.868388053410696e-11 	101324.9999999999
1.219969969969969 	299.9999999999611 	2.751383241958099e-11 	101325
1.222472472472472 	300.0000000000232 	2.765432771274822e-11 	101324.9999999999
1.224974974974975 	300.0000000000542 	2.85072041745534e-11 	101324.9999999997
1.227477477477477 	299.9999999999927 	2.68716047177985e-11 	101324.9999999995
1.229979979979979 	299.9999999999793 	2.898055411289801e-11 	101324.9999999994
1.232482482482482 	299.9999999999505 	2.783007740867298e-11 	101324.9999999994
1.234984984984984 	299.999999999952 	2.993733076566478e-11 	101324.9999999995
1.237487487487487 	299.9999999999878 	2.847728855230885e-11 	101324.9999999995
1.239989989989989 	299.999999999991 	2.939935026500779e-11 	101324.9999999995
1.242492492492492 	300.0000000000259 	3.012099136421785e-11 	101324.9999999997
1.244994994994994 	299.9999999999934 	2.8409567033899e-11 	101324.9999999998
1.247497497497497 	299.9999999999796 	2.98081090411838e-11 	101324.9999999999
1.249999999999999 	300 	2.8910460980554e-11 	101325
