-1.25 	299.9879148077523 	1 	101295.6107373854
-1.247497497497497 	299.993215232989 	1.054408291275823 	101320.1208044431
-1.244994994994995 	299.9930698269827 	0.8992800428739974 	101318.7211754905
-1.242492492492492 	299.9956860734511 	1.086595688175249 	101319.7416775616
-1.23998998998999 	300.0047338809023 	0.968514138524628 	101330.757298627
-1.237487487487487 	300.0074228573405 	1.027300371314363 	101333.6555864746
-1.234984984984985 	300.0108659550955 	1.019909424030012 	101337.9765649669
-1.232482482482482 	300.0140865671918 	1.052532151731766 	101341.6229189335
-1.22997997997998 	300.0159896038559 	1.037296858335768 	101343.9276386499
-1.227477477477477 	300.0166732588511 	1.052397132700982 	101344.7032047452
-1.224974974974975 	300.0170235589292 	1.050191185930238 	101345.1288033221
-1.222472472472472 	300.0181482064469 	1.0526687912053 	101346.4575068993
-1.21996996996997 	300.0204383143952 	1.059385306066132 	101349.1640888568
-1.217467467467467 	300.0232338522823 	1.067135346408272 	101352.4694336442
-1.214964964964965 	300.0254645100852 	1.073216752404253 	101355.1071313904
-1.212462462462462 	300.0261695377475 	1.075074611826736 	101355.9398473126
-1.20995995995996 	300.0248954629673 	1.071549069544149 	101354.4329938363
-1.207457457457457 	300.0220951880113 	1.063841288797399 	101351.1230071476
-1.204954954954955 	300.0188354596887 	1.054727033210185 	101347.2693086757
-1.202452452452452 	300.0160028309517 	1.04662395414762 	101343.9200931931
-1.19994994994995 	300.0138898533364 	1.040414194100555 	101341.421682316
-1.197447447447447 	300.0122657111058 	1.035526206811783 	101339.5013489097
-1.194944944944945 	300.0106517640796 	1.03073221838163 	101337.5932446067
-1.192442442442442 	300.0087305958537 	1.025168811203059 	101335.3218969052
-1.18993993993994 	300.0064801432128 	1.01863165616821 	101332.6612124941
-1.187437437437437 	300.003842152748 	1.01090086734268 	101329.5425435806
-1.184934934934935 	300.0006043448303 	1.001525411141991 	101325.7148685978
-1.182432432432432 	299.9968032799444 	0.9907292610445908 	101321.2212699146
-1.17992992992993 	299.9930153253364 	0.980062346664482 	101316.7433225402
-1.177427427427427 	299.9900447222753 	0.9716146849952639 	101313.2317390661
-1.174924924924925 	299.9882994115064 	0.9664326722935594 	101311.1685245567
-1.172422422422422 	299.9874327047485 	0.9635673909236098 	101310.1438934176
-1.16991991991992 	299.9864970221502 	0.9604981315820069 	101309.0378104175
-1.167417417417417 	299.9845513089498 	0.9547823436751139 	101306.7380214391
-1.164914914914915 	299.9813993009648 	0.9459457511838507 	101303.0124187114
-1.162412412412412 	299.9778252273658 	0.9360561602409083 	101298.7878491356
-1.15990990990991 	299.9750650333898 	0.9284054876250447 	101295.5253623842
-1.157407407407407 	299.9740396931294 	0.9255011962165142 	101294.3139836191
-1.154904904904904 	299.9749125014414 	0.9278098778687046 	101295.345799307
-1.152402402402403 	299.9770864101367 	0.9337573968859814 	101297.9145844042
-1.1498998998999 	299.9796314154247 	0.9408922092691163 	101300.9223029555
-1.147397397397397 	299.9819078123166 	0.9474624435050987 	101303.61287295
-1.144894894894895 	299.9838277207429 	0.9530975305303651 	101305.8823092222
-1.142392392392392 	299.9855686142481 	0.9581654264238446 	101307.9402643438
-1.13988988988989 	299.9872015651717 	0.9628745719592404 	101309.870398435
-1.137387387387387 	299.9886911897194 	0.9672361502702966 	101311.6312529403
-1.134884884884885 	299.9901775707668 	0.9717092808070109 	101313.3883562888
-1.132382382382382 	299.9921066266158 	0.9774882468811548 	101315.6685493507
-1.12987987987988 	299.99497421888 	0.9858417583903587 	101319.0583086494
-1.127377377377377 	299.9988896083346 	0.9970052126998199 	101323.686941258
-1.124874874874875 	300.0033659844241 	1.009646653144966 	101328.9788726219
-1.122372372372372 	300.007528780106 	1.021409506233206 	101333.9004631235
-1.11986986986987 	300.0105892495582 	1.030181486712497 	101337.5189383884
-1.117367367367367 	300.0123079839525 	1.035347824145627 	101339.5510562016
-1.114864864864865 	300.0131942073073 	1.038284749090638 	101340.5989657276
-1.112362362362362 	300.0142294317661 	1.041577117950216 	101341.8228432343
-1.10985985985986 	300.0161854546935 	1.047237865266602 	101344.1353904297
-1.107357357357357 	300.0190471745811 	1.055245028591613 	101347.5190272595
-1.104854854854855 	300.0220686880117 	1.063665726817821 	101351.0915862133
-1.102352352352353 	300.0243625340238 	1.070120479413913 	101353.8039845054
-1.09984984984985 	300.0254083123032 	1.073127161849016 	101355.0404910035
-1.097347347347347 	300.0251402001122 	1.072434337724947 	101354.7227901124
-1.094844844844845 	300.0237921974511 	1.068665946692087 	101353.129346652
-1.092342342342342 	300.021738528613 	1.062861643833838 	101350.7017854764
-1.08983983983984 	300.019377724691 	1.056160137901904 	101347.9102870259
-1.087337337337337 	300.0170903822122 	1.04965157859324 	101345.2058023109
-1.084834834834835 	300.0151887261274 	1.044166519345715 	101342.9574064779
-1.082332332332332 	300.0137227185866 	1.039777886574381 	101341.2239804928
-1.07982982982983 	300.0123088338351 	1.035439542955761 	101339.5524016877
-1.077327327327327 	300.0103086605671 	1.029489588447124 	101337.1876784313
-1.074824824824825 	300.007318901961 	1.020901198758826 	101333.6529579159
-1.072322322322323 	300.0035399145327 	1.010224956010557 	101329.1853594242
-1.06981981981982 	299.9996967009652 	0.9993934115055549 	101324.6418091222
-1.067317317317317 	299.9965939866227 	0.9905531742399876 	101320.9737384415
-1.064814814814815 	299.9946207760004 	0.9847312599887388 	101318.6410555413
-1.062312312312312 	299.9934866604694 	0.9811345896168993 	101317.3003483295
-1.05980980980981 	299.9923585935014 	0.9775390257567038 	101315.966880362
-1.057307307307307 	299.9903682072733 	0.9716480361438619 	101313.6140947804
-1.054804804804805 	299.9871905736051 	0.9626115540561339 	101309.8579996372
-1.052302302302302 	299.9832795661193 	0.9516319799746245 	101305.2349956797
-1.0497997997998 	299.9795712066463 	0.9412033167740779 	101300.8515631599
-1.047297297297297 	299.9769086063984 	0.9336149339610875 	101297.7043848345
-1.044794794794795 	299.9756318593876 	0.9298497088501956 	101296.1952289371
-1.042292292292292 	299.9755686545417 	0.9295256407323145 	101296.1208693198
-1.03978978978979 	299.9763404814319 	0.9316644150939037 	101297.0329924556
-1.037287287287287 	299.9776776796114 	0.9355073988707039 	101298.6130013853
-1.034784784784785 	299.9794787882992 	0.9406798516703954 	101300.741822033
-1.032282282282283 	299.9816022162624 	0.9466965045593024 	101303.251774811
-1.02977977977978 	299.9836817872862 	0.9525484795315275 	101305.7097986705
-1.027277277277277 	299.9852678106149 	0.9570868147892276 	101307.584653159
-1.024774774774775 	299.9862232201409 	0.9600109215522565 	101308.7140638159
-1.022272272272272 	299.9869690306938 	0.9624641754926129 	101309.5955700155
-1.01976976976977 	299.9882807050606 	0.9664968499361697 	101311.1461076353
-1.017267267267267 	299.9907702376319 	0.9737221138603925 	101314.0888007374
-1.014764764764765 	299.9944666090899 	0.984216944557943 	101318.4581568688
-1.012262262262262 	299.9987963887684 	0.9964504606707998 	101323.5767218087
-1.00975975975976 	300.0029274909463 	1.008177165687544 	101328.4605401851
-1.007257257257257 	300.0062126687739 	1.017633061878708 	101332.3444560466
-1.004754754754755 	300.0084885706165 	1.024356090658561 	101335.0353213765
-1.002252252252252 	300.0101037616755 	1.029266788559501 	101336.9449246756
-0.9997497497497498 	300.0116795802065 	1.034030036656044 	101338.8079688103
-0.9972472472472473 	300.0137482416833 	1.040083086761225 	101341.2537519744
-0.9947447447447449 	300.0164712969837 	1.047867183895385 	101344.4732827712
-0.9922422422422421 	300.0195665060602 	1.056614602579323 	101348.1329538126
-0.9897397397397399 	300.0224422292693 	1.064706811622482 	101351.5332781355
-0.9872372372372376 	300.024457298522 	1.070390467083138 	101353.9160626569
-0.9847347347347346 	300.0252038126189 	1.072553388852322 	101354.7984029682
-0.9822322322322323 	300.0246930126315 	1.071225846603783 	101354.1940997696
-0.9797297297297296 	300.0233403907778 	1.067525692469634 	101352.5953060138
-0.9772272272272275 	300.021729480459 	1.063013295764104 	101350.6909243152
-0.9747247247247248 	300.0202718047617 	1.058795152946535 	101348.9673377001
-0.9722222222222224 	300.0189819746795 	1.054926231074466 	101347.442271225
-0.9697197197197196 	300.01751101828 	1.050500008403347 	101345.7031157495
-0.9672172172172175 	300.015426176655 	1.044397728193581 	101343.2381369826
-0.9647147147147147 	300.0125691461216 	1.036232764572384 	101339.8602409809
-0.9622122122122124 	300.0092429774745 	1.026829958442113 	101335.9277203669
-0.9597097097097099 	300.0060691417136 	1.017844086021488 	101332.1753401203
-0.9572072072072073 	300.0036017511527 	1.010748143310598 	101329.2582447049
-0.9547047047047047 	300.0019771816822 	1.005909122584779 	101327.3375679961
-0.9522022022022023 	300.0008393504207 	1.002379186958667 	101325.9924123731
-0.9496996996996998 	299.9995600977307 	0.9984617362573365 	101324.4801578819
-0.9471971971971973 	299.997568720901 	0.9925919974287338 	101322.1260529559
-0.9446946946946947 	299.9945944006658 	0.9840162110835938 	101318.6100491362
-0.9421921921921923 	299.9907520942822 	0.9730500103418593 	101314.0680204546
-0.93968968968969 	299.9864945166599 	0.9609520151509638 	101309.0352148673
-0.9371871871871872 	299.9824656567645 	0.9495103240607659 	101304.2729085404
-0.9346846846846848 	299.9792878093197 	0.9404468037906307 	101300.5165554835
-0.9321821821821823 	299.9773431216352 	0.934820929046713 	101298.2178768839
-0.9296796796796799 	299.9766485644698 	0.9326987629849528 	101297.3970482443
-0.9271771771771771 	299.9769037184781 	0.9332830985596261 	101297.6987934257
-0.9246746746746748 	299.9776878256068 	0.935436559088292 	101298.6252913531
-0.9221721721721724 	299.9786797366415 	0.9382726059445404 	101299.7974824766
-0.9196696696696698 	299.9797724418294 	0.9414649032136346 	101301.0890301816
-0.9171671671671672 	299.9810303242572 	0.9451483005579281 	101302.5758286606
-0.9146646646646649 	299.9825539260994 	0.9495697990219087 	101304.3767084299
-0.9121621621621623 	299.9843619081225 	0.9547729552880687 	101306.5137869074
-0.9096596596596597 	299.9863618552645 	0.9605133561715977 	101308.8778043541
-0.9071571571571573 	299.9884116477375 	0.9664164695676926 	101311.3007967645
-0.9046546546546547 	299.9904181787417 	0.9722384525580645 	101313.6726994683
-0.9021521521521524 	299.9924065431987 	0.9780516068774301 	101316.0231431165
-0.8996496496496498 	299.9945190029522 	0.9842422950281288 	101318.5203270567
-0.8971471471471473 	299.9969453744486 	0.9913224497656932 	101321.3886136775
-0.894644644644645 	299.9998210470119 	0.9996535346351005 	101324.7881174494
-0.892142142142142 	300.0031445440296 	1.009223011707724 	101328.7171510467
-0.8896396396396397 	300.0067558079627 	1.019585673746006 	101332.9865190467
-0.8871371371371374 	300.0103862656025 	1.02999944924965 	101337.2787530001
-0.8846346346346349 	300.0137555621108 	1.039687569262279 	101341.262342602
-0.8821321321321324 	300.0166671739551 	1.048099800114237 	101344.7049101554
-0.8796296296296297 	300.0190598906665 	1.05505440930298 	101347.5340436718
-0.8771271271271271 	300.0209957614655 	1.060707355706447 	101349.8230230844
-0.8746246246246248 	300.0225960221241 	1.065379837948398 	101351.7152168669
-0.8721221221221224 	300.0239600507197 	1.069337556762653 	101353.3280930054
-0.8696196196196196 	300.0251054380503 	1.072626067350215 	101354.6824602226
-0.8671171171171175 	300.0259531611883 	1.075027839550464 	101355.6849033558
-0.8646146146146148 	300.0263585165848 	1.076144399189484 	101356.1640885081
-0.8621121121121121 	300.0261685745493 	1.075554058788817 	101355.9390405152
-0.8596096096096097 	300.0252805183292 	1.07297794666195 	101354.8892983792
-0.857107107107107 	300.0236865395951 	1.068394225831897 	101353.0049451652
-0.8546046046046049 	300.0214796769436 	1.062063492162318 	101350.395619209
-0.8521021021021022 	300.0188322857376 	1.054472019932081 	101347.2653955863
-0.8495995995995997 	300.0159592338791 	1.04622707420386 	101343.8684110894
-0.8470970970970974 	300.0130760223471 	1.037940542665384 	101340.459478119
-0.8445945945945946 	300.0103647706094 	1.030132919429365 	101337.2539203333
-0.8420920920920922 	300.007954522202 	1.02317623591138 	101334.4042932718
-0.8395895895895897 	300.005916098753 	1.017277891037594 	101331.9943094194
-0.8370870870870872 	300.0042681804825 	1.012496576880648 	101330.0460348749
-0.8345845845845846 	300.0029899367689 	1.008777251170379 	101328.5348270045
-0.8320820820820823 	300.0020357054348 	1.005992461581629 	101327.4066910563
-0.8295795795795798 	300.0013483798493 	1.003980464117784 	101326.5941066376
-0.8270770770770772 	300.000869658684 	1.002574731230068 	101326.0281441558
-0.8245745745745746 	300.0005466394568 	1.001623194191581 	101325.6462587944
-0.8220720720720721 	300.0003351390847 	1.00099816251234 	101325.3962151205
-0.8195695695695699 	300.0002005660259 	1.000599179198898 	101325.2371176683
-0.817067067067067 	300.0001172503984 	1.000351358448301 	101325.1386186227
-0.8145645645645651 	300.0000670028984 	1.000201408369765 	101325.0792139744
-0.8120620620620621 	300.000037452074 	1.000112931784458 	101325.0442776741
-0.8095595595595597 	300.0000204892092 	1.000061976717153 	101325.0242233652
-0.8070570570570572 	300.0000109771487 	1.000033309026354 	101325.0129777591
-0.8045545545545546 	300.0000057623756 	1.000017540823434 	101325.006812641
-0.8020520520520523 	300.0000029654494 	1.000009055528196 	101325.003505937
-0.7995495495495494 	300.0000014968117 	1.000004585254381 	101325.0017696033
-0.7970470470470474 	300.000000741333 	1.000002278220793 	101325.0008764563
-0.7945445445445446 	300.0000003604432 	1.000001111226946 	101325.0004261439
-0.7920420420420423 	300.0000001721237 	1.000000532307144 	101325.0002034852
-0.7895395395395397 	300.0000000807641 	1.000000250525323 	101325.0000954613
-0.7870370370370371 	300.0000000372329 	1.000000115883257 	101325.0000440147
-0.7845345345345348 	300.0000000168772 	1.000000052703351 	101325.0000199525
-0.7820320320320323 	300.0000000075286 	1.000000023576143 	101325.0000088954
-0.7795295295295296 	300.000000003278 	1.000000010383271 	101325.000003901
-0.7770270270270272 	300.0000000013871 	1.000000004493693 	101325.0000016826
-0.7745245245245247 	300.0000000005616 	1.000000001914939 	101325.0000007136
-0.7720220220220222 	300.0000000002205 	1.000000000806728 	101325.0000002972
-0.7695195195195199 	300.0000000000608 	1.000000000335423 	101325.0000001205
-0.767017017017017 	300.0000000000074 	1.000000000137868 	101325.0000000463
-0.7645145145145147 	300.0000000000068 	1.000000000055807 	101325.000000016
-0.7620120120120122 	300.0000000000033 	1.000000000020332 	101325.000000004
-0.7595095095095097 	299.999999999981 	1.000000000015709 	101324.9999999991
-0.7570070070070072 	299.9999999999533 	0.9999999999979881 	101324.9999999973
-0.7545045045045048 	299.9999999999661 	1.000000000001613 	101324.9999999963
-0.7520020020020022 	299.9999999999578 	0.9999999999975451 	101324.9999999962
-0.7494994994994997 	299.9999999999712 	0.9999999999995883 	101324.9999999959
-0.7469969969969972 	299.9999999999872 	0.9999999999979297 	101324.9999999957
-0.7444944944944945 	299.999999999972 	0.9999999999971325 	101324.9999999957
-0.7419919919919924 	299.9999999999828 	0.9999999999991318 	101324.9999999953
-0.7394894894894897 	299.9999999999602 	1.000000000000226 	101324.9999999953
-0.7369869869869872 	299.9999999999712 	1.000000000000856 	101324.9999999954
-0.7344844844844846 	299.9999999999765 	1.000000000000053 	101324.9999999953
-0.7319819819819822 	299.999999999997 	1.000000000005327 	101324.9999999952
-0.7294794794794797 	300.0000000000086 	0.9999999999963373 	101324.9999999956
-0.7269769769769773 	300.0000000000094 	0.9999999999957435 	101324.999999996
-0.7244744744744747 	300.0000000000026 	0.9999999999996362 	101324.9999999964
-0.721971971971972 	299.9999999999817 	1.000000000000559 	101324.9999999961
-0.7194694694694695 	299.9999999999786 	0.9999999999998617 	101324.9999999958
-0.7169669669669674 	299.9999999999625 	0.9999999999991176 	101324.9999999961
-0.7144644644644647 	299.9999999999888 	0.9999999999989833 	101324.9999999961
-0.711961961961962 	300.0000000000088 	0.9999999999985818 	101324.9999999956
-0.7094594594594597 	300.0000000000083 	1.00000000000155 	101324.9999999956
-0.7069569569569573 	299.9999999999953 	0.9999999999966616 	101324.9999999959
-0.7044544544544545 	300.0000000000008 	0.9999999999964603 	101324.9999999961
-0.7019519519519523 	300.0000000000051 	0.9999999999983724 	101324.9999999966
-0.6994494494494495 	299.9999999999762 	0.9999999999990091 	101324.9999999961
-0.6969469469469471 	299.9999999999826 	0.9999999999998026 	101324.9999999958
-0.6944444444444446 	299.9999999999941 	0.9999999999999455 	101324.9999999959
-0.6919419419419421 	300.0000000000136 	0.9999999999997277 	101324.9999999957
-0.6894394394394396 	299.999999999986 	1.000000000000107 	101324.9999999952
-0.6869369369369374 	299.9999999999911 	1.000000000000541 	101324.999999995
-0.6844344344344344 	299.9999999999972 	1.000000000001068 	101324.9999999953
-0.6819319319319321 	299.9999999999704 	1.000000000000544 	101324.9999999959
-0.6794294294294296 	299.9999999999732 	0.9999999999988813 	101324.999999996
-0.6769269269269272 	299.9999999999607 	0.9999999999970564 	101324.9999999957
-0.6744244244244245 	299.9999999999831 	0.9999999999967881 	101324.9999999958
-0.6719219219219222 	299.9999999999587 	0.9999999999969378 	101324.9999999959
-0.6694194194194195 	299.9999999999866 	0.9999999999976921 	101324.999999996
-0.6669169169169172 	300.0000000000018 	0.9999999999986393 	101324.9999999955
-0.6644144144144146 	299.9999999999979 	0.9999999999987936 	101324.9999999954
-0.661911911911912 	299.9999999999956 	0.9999999999980788 	101324.9999999953
-0.6594094094094097 	299.9999999999814 	0.9999999999972751 	101324.9999999952
-0.656906906906907 	299.9999999999724 	0.9999999999971343 	101324.9999999954
-0.6544044044044046 	299.9999999999483 	0.9999999999973193 	101324.9999999955
-0.6519019019019021 	299.9999999999579 	0.9999999999973395 	101324.999999996
-0.6493993993993996 	299.9999999999965 	0.999999999996009 	101324.9999999958
-0.6468968968968971 	300.0000000000049 	1.000000000002935 	101324.9999999956
-0.6443943943943946 	300.0000000000119 	0.999999999994213 	101324.9999999961
-0.6418918918918921 	300.0000000000188 	0.9999999999947892 	101324.9999999964
-0.6393893893893897 	300.0000000000201 	0.9999999999981395 	101324.9999999963
-0.6368868868868871 	300.0000000000197 	0.9999999999987541 	101324.9999999955
-0.6343843843843846 	300.0000000000174 	0.9999999999987186 	101324.9999999951
-0.6318818818818821 	299.999999999986 	0.9999999999988888 	101324.9999999957
-0.6293793793793795 	299.9999999999923 	0.999999999999527 	101324.9999999959
-0.6268768768768773 	299.9999999999967 	0.9999999999999244 	101324.9999999956
-0.6243743743743745 	299.9999999999702 	1.000000000003975 	101324.9999999954
-0.6218718718718721 	299.9999999999801 	0.9999999999996796 	101324.9999999953
-0.6193693693693696 	299.9999999999667 	0.9999999999987695 	101324.9999999948
-0.6168668668668671 	299.9999999999894 	0.999999999998653 	101324.9999999945
-0.6143643643643645 	300.0000000000009 	0.9999999999978619 	101324.9999999946
-0.6118618618618621 	300.0000000000128 	0.9999999999979787 	101324.9999999948
-0.6093593593593596 	300.0000000000223 	0.9999999999983288 	101324.9999999951
-0.6068568568568571 	299.9999999999868 	0.9999999999982701 	101324.999999995
-0.6043543543543546 	299.9999999999781 	0.9999999999987325 	101324.9999999948
-0.6018518518518521 	299.9999999999677 	0.9999999999981309 	101324.9999999949
-0.5993493493493496 	299.9999999999811 	0.9999999999977034 	101324.9999999949
-0.5968468468468471 	299.9999999999885 	0.9999999999980109 	101324.9999999953
-0.5943443443443446 	299.999999999989 	0.9999999999990076 	101324.9999999957
-0.591841841841842 	299.9999999999591 	0.9999999999994598 	101324.9999999956
-0.5893393393393397 	299.9999999999637 	0.9999999999995834 	101324.9999999951
-0.5868368368368371 	299.9999999999869 	0.9999999999995831 	101324.9999999954
-0.5843343343343346 	300.0000000000147 	1.000000000006619 	101324.9999999954
-0.5818318318318321 	300.0000000000211 	0.9999999999962805 	101324.9999999951
-0.5793293293293297 	299.9999999999829 	0.9999999999967918 	101324.9999999954
-0.5768268268268271 	299.9999999999868 	0.999999999999915 	101324.9999999956
-0.5743243243243245 	299.9999999999985 	1.00000000000029 	101324.9999999954
-0.5718218218218221 	299.9999999999961 	1.000000000000328 	101324.9999999955
-0.5693193193193196 	300.0000000000115 	1.000000000000123 	101324.9999999958
-0.5668168168168171 	300.0000000000069 	0.9999999999994394 	101324.9999999955
-0.5643143143143147 	299.9999999999642 	0.9999999999988232 	101324.9999999957
-0.5618118118118121 	299.9999999999922 	1.000000000001901 	101324.999999996
-0.5593093093093094 	300.0000000000074 	0.999999999996207 	101324.999999996
-0.5568068068068072 	300.000000000003 	0.9999999999973961 	101324.9999999961
-0.5543043043043046 	300.0000000000025 	1.000000000000943 	101324.9999999961
-0.551801801801802 	299.9999999999641 	1.000000000001538 	101324.9999999961
-0.5492992992992995 	299.9999999999841 	1.000000000001412 	101324.9999999959
-0.5467967967967969 	300.0000000000035 	1.000000000000962 	101324.9999999956
-0.5442942942942947 	300.0000000000095 	1.00000000000079 	101324.9999999957
-0.5417917917917919 	299.9999999999688 	1.000000000001296 	101324.999999996
-0.5392892892892895 	299.9999999999621 	1.000000000001666 	101324.999999996
-0.536786786786787 	299.9999999999657 	1.000000000001391 	101324.9999999958
-0.5342842842842846 	299.999999999962 	1.000000000000591 	101324.9999999953
-0.531781781781782 	299.9999999999389 	0.999999999999865 	101324.9999999947
-0.5292792792792794 	299.9999999999459 	0.9999999999995429 	101324.9999999944
-0.526776776776777 	299.9999999999584 	0.9999999999992961 	101324.9999999942
-0.5242742742742745 	299.9999999999656 	0.9999999999987707 	101324.9999999941
-0.521771771771772 	299.9999999999859 	1.000000000005965 	101324.9999999945
-0.5192692692692695 	299.9999999999864 	0.9999999999953624 	101324.9999999949
-0.516766766766767 	299.9999999999955 	1.000000000000055 	101324.9999999946
-0.5142642642642645 	299.9999999999635 	0.9999999999973038 	101324.9999999946
-0.511761761761762 	299.9999999999828 	1.000000000002304 	101324.9999999947
-0.5092592592592596 	300.0000000000022 	0.9999999999982361 	101324.9999999947
-0.506756756756757 	299.9999999999791 	0.9999999999987981 	101324.9999999948
-0.5042542542542544 	300.0000000000064 	1.000000000000218 	101324.9999999956
-0.5017517517517521 	300.0000000000168 	1.000000000000641 	101324.9999999959
-0.4992492492492494 	300.0000000000136 	1.000000000000459 	101324.9999999955
-0.496746746746747 	300.0000000000043 	1.000000000000261 	101324.9999999948
-0.4942442442442445 	299.9999999999613 	1.00000000000069 	101324.9999999947
-0.4917417417417421 	299.9999999999599 	1.000000000001356 	101324.999999995
-0.4892392392392395 	299.9999999999633 	1.000000000001081 	101324.9999999953
-0.486736736736737 	299.999999999979 	1.000000000000452 	101324.9999999954
-0.4842342342342345 	299.9999999999736 	0.9999999999995244 	101324.9999999954
-0.481731731731732 	300.0000000000114 	0.9999999999995681 	101324.9999999953
-0.4792292292292296 	300.000000000021 	1.000000000000042 	101324.9999999955
-0.4767267267267268 	299.9999999999742 	1.000000000007856 	101324.9999999955
-0.4742242242242246 	299.999999999981 	0.9999999999972384 	101324.9999999953
-0.471721721721722 	299.9999999999596 	0.9999999999981338 	101324.9999999949
-0.4692192192192195 	299.9999999999633 	0.9999999999995742 	101324.9999999945
-0.4667167167167169 	299.9999999999566 	0.9999999999993306 	101324.999999994
-0.4642142142142145 	299.9999999999989 	0.9999999999997943 	101324.9999999941
-0.461711711711712 	300.0000000000067 	1.000000000000172 	101324.9999999943
-0.4592092092092094 	299.9999999999955 	1.000000000000546 	101324.9999999946
-0.456706706706707 	300.0000000000182 	1.000000000001255 	101324.9999999948
-0.4542042042042045 	299.9999999999834 	1.000000000001801 	101324.9999999944
-0.451701701701702 	299.9999999999826 	1.00000000000135 	101324.9999999939
-0.4491991991991995 	299.9999999999623 	1.000000000000678 	101324.9999999941
-0.4466966966966969 	299.9999999999595 	1.000000000000713 	101324.9999999944
-0.4441941941941945 	299.9999999999737 	1.00000000000161 	101324.9999999945
-0.441691691691692 	299.9999999999559 	1.000000000001604 	101324.999999994
-0.4391891891891895 	299.9999999999794 	1.00000000000027 	101324.9999999945
-0.436686686686687 	299.9999999999746 	1.000000000007849 	101324.9999999948
-0.4341841841841846 	299.9999999999789 	0.9999999999966549 	101324.9999999948
-0.431681681681682 	299.9999999999674 	0.9999999999986549 	101324.9999999951
-0.4291791791791794 	299.9999999999651 	1.000000000001737 	101324.9999999947
-0.426676676676677 	299.9999999999508 	1.000000000001889 	101324.9999999945
-0.4241741741741744 	299.9999999999745 	1.000000000000561 	101324.9999999948
-0.421671671671672 	300.0000000000043 	0.9999999999997525 	101324.999999995
-0.4191691691691694 	300.0000000000076 	0.9999999999997655 	101324.999999995
-0.4166666666666669 	300.0000000000184 	0.9999999999999577 	101324.9999999947
-0.4141641641641645 	299.9999999999769 	1.000000000000086 	101324.9999999947
-0.411661661661662 	299.9999999999881 	1.000000000001157 	101324.9999999946
-0.4091591591591594 	299.999999999988 	1.000000000001827 	101324.9999999952
-0.406656656656657 	299.9999999999581 	1.000000000001198 	101324.9999999953
-0.4041541541541545 	299.9999999999953 	0.99999999999963 	101324.9999999947
-0.401651651651652 	299.9999999999666 	0.9999999999991128 	101324.9999999943
-0.3991491491491494 	299.9999999999847 	1.000000000000217 	101324.9999999944
-0.396646646646647 	299.9999999999835 	1.000000000008891 	101324.9999999947
-0.3941441441441444 	300.0000000000027 	0.9999999999959481 	101324.9999999955
-0.3916416416416419 	299.999999999983 	0.9999999999976132 	101324.999999995
-0.3891391391391395 	299.9999999999845 	1.000000000001558 	101324.9999999947
-0.3866366366366368 	299.9999999999933 	1.000000000002324 	101324.9999999941
-0.3841341341341344 	299.9999999999967 	1.000000000001886 	101324.9999999939
-0.381631631631632 	299.9999999999597 	1.000000000001005 	101324.9999999941
-0.3791291291291294 	299.9999999999874 	1.000000000000631 	101324.9999999945
-0.3766266266266269 	299.9999999999921 	1.000000000000482 	101324.9999999944
-0.3741241241241244 	300.0000000000145 	1.000000000000962 	101324.9999999943
-0.371621621621622 	300.0000000000008 	1.000000000000608 	101324.9999999939
-0.3691191191191194 	300.0000000000111 	1.00000000000914 	101324.9999999938
-0.366616616616617 	300.0000000000095 	0.9999999999971797 	101324.9999999942
-0.3641141141141143 	299.9999999999669 	0.9999999999999419 	101324.9999999944
-0.3616116116116119 	299.9999999999783 	1.000000000002973 	101324.9999999947
-0.3591091091091095 	300.0000000000026 	1.000000000002433 	101324.9999999948
-0.356606606606607 	299.9999999999839 	1.000000000002096 	101324.9999999944
-0.3541041041041044 	299.9999999999983 	1.000000000001412 	101324.9999999939
-0.3516016016016019 	300.0000000000071 	1.000000000000373 	101324.9999999941
-0.3490990990990994 	300.0000000000089 	1.000000000000381 	101324.9999999943
-0.346596596596597 	300.0000000000181 	1.00000000000453 	101324.9999999939
-0.3440940940940944 	300.0000000000198 	0.9999999999989949 	101324.9999999945
-0.3415915915915919 	300.000000000015 	1.000000000001761 	101324.999999995
-0.3390890890890895 	299.9999999999837 	1.000000000004893 	101324.9999999948
-0.3365865865865869 	299.9999999999985 	1.000000000005599 	101324.9999999943
-0.3340840840840844 	299.999999999992 	1.000000000004885 	101324.9999999943
-0.3315815815815819 	300.0000000000128 	1.000000000004037 	101324.9999999944
-0.3290790790790794 	300.0000000000167 	1.000000000003568 	101324.9999999947
-0.3265765765765769 	299.9999999999691 	1.000000000003817 	101324.9999999944
-0.3240740740740744 	299.9999999999912 	1.000000000004498 	101324.9999999941
-0.3215715715715718 	300.0000000000002 	1.000000000004785 	101324.9999999938
-0.3190690690690695 	299.9999999999691 	1.000000000005359 	101324.9999999941
-0.3165665665665668 	299.9999999999923 	1.000000000005116 	101324.9999999945
-0.3140640640640644 	300.0000000000008 	1.000000000004349 	101324.9999999944
-0.311561561561562 	299.9999999999736 	1.000000000003988 	101324.9999999946
-0.3090590590590593 	299.9999999999976 	1.000000000003934 	101324.9999999954
-0.3065565565565568 	300.0000000000036 	1.000000000012907 	101324.9999999953
-0.3040540540540545 	299.9999999999924 	0.9999999999990721 	101324.9999999949
-0.3015515515515518 	300.0000000000013 	1.000000000001691 	101324.9999999947
-0.2990490490490494 	299.9999999999724 	1.000000000004747 	101324.9999999943
-0.2965465465465469 	299.9999999999946 	1.000000000004883 	101324.9999999948
-0.2940440440440444 	300.000000000011 	1.000000000006134 	101324.9999999953
-0.2915415415415418 	300.0000000000129 	1.000000000006684 	101324.9999999952
-0.2890390390390395 	300.0000000000057 	1.000000000005822 	101324.9999999953
-0.2865365365365368 	299.9999999999882 	1.000000000005341 	101324.999999995
-0.2840340340340343 	299.9999999999916 	1.000000000009655 	101324.9999999945
-0.2815315315315318 	299.9999999999798 	1.000000000002736 	101324.9999999942
-0.2790290290290295 	299.9999999999668 	1.000000000003057 	101324.9999999942
-0.2765265265265269 	299.9999999999949 	1.000000000003864 	101324.9999999945
-0.2740240240240244 	300.0000000000199 	1.00000000000384 	101324.9999999947
-0.2715215215215219 	300.0000000000214 	1.000000000003875 	101324.9999999946
-0.2690190190190194 	299.9999999999702 	1.000000000004541 	101324.9999999948
-0.2665165165165169 	299.9999999999874 	1.000000000005131 	101324.9999999945
-0.2640140140140144 	299.9999999999804 	1.000000000005489 	101324.9999999941
-0.2615115115115119 	299.9999999999955 	1.000000000009685 	101324.9999999941
-0.2590090090090094 	299.9999999999588 	1.000000000002434 	101324.999999994
-0.2565065065065068 	299.9999999999884 	1.00000000000397 	101324.9999999941
-0.2540040040040044 	299.9999999999985 	1.000000000005704 	101324.9999999944
-0.2515015015015019 	300.0000000000206 	1.000000000007031 	101324.9999999949
-0.2489989989989994 	300.0000000000236 	1.000000000007252 	101324.9999999948
-0.2464964964964968 	299.9999999999955 	1.000000000007174 	101324.9999999944
-0.2439939939939944 	299.9999999999969 	1.000000000010747 	101324.999999994
-0.2414914914914919 	299.9999999999773 	1.000000000002907 	101324.999999994
-0.2389889889889893 	299.9999999999865 	1.000000000003774 	101324.999999994
-0.2364864864864869 	300.0000000000123 	1.000000000004421 	101324.9999999944
-0.2339839839839843 	299.9999999999744 	1.000000000009217 	101324.9999999942
-0.2314814814814819 	299.9999999999827 	1.000000000003059 	101324.9999999939
-0.2289789789789792 	299.9999999999531 	1.000000000005489 	101324.9999999936
-0.2264764764764769 	299.9999999999594 	1.000000000006979 	101324.9999999933
-0.2239739739739743 	299.999999999975 	1.000000000006508 	101324.9999999936
-0.2214714714714718 	299.9999999999568 	1.000000000005641 	101324.9999999937
-0.2189689689689693 	299.9999999999689 	1.000000000004705 	101324.9999999941
-0.2164664664664669 	299.9999999999888 	1.000000000008693 	101324.9999999939
-0.2139639639639643 	299.999999999962 	1.00000000000145 	101324.9999999944
-0.2114614614614618 	299.9999999999758 	1.000000000004033 	101324.9999999944
-0.2089589589589593 	299.9999999999976 	1.000000000005629 	101324.9999999941
-0.2064564564564568 	299.9999999999989 	1.000000000005369 	101324.9999999936
-0.2039539539539543 	299.999999999947 	1.000000000005253 	101324.9999999935
-0.2014514514514518 	299.9999999999603 	1.000000000004627 	101324.9999999937
-0.1989489489489494 	299.9999999999771 	1.000000000008924 	101324.9999999938
-0.1964464464464468 	299.9999999999974 	1.000000000002176 	101324.9999999939
-0.1939439439439443 	299.9999999999955 	1.000000000004184 	101324.9999999933
-0.1914414414414418 	299.9999999999611 	1.000000000005435 	101324.9999999937
-0.1889389389389393 	299.9999999999906 	1.000000000005101 	101324.9999999937
-0.1864364364364368 	300.0000000000177 	1.000000000005604 	101324.9999999936
-0.1839339339339343 	299.9999999999905 	1.000000000005214 	101324.9999999934
-0.1814314314314318 	299.9999999999925 	1.000000000003647 	101324.9999999938
-0.1789289289289293 	299.9999999999487 	1.000000000003369 	101324.9999999941
-0.1764264264264268 	299.9999999999718 	1.000000000003088 	101324.9999999942
-0.1739239239239243 	299.9999999999473 	1.000000000003503 	101324.999999994
-0.1714214214214218 	299.9999999999827 	1.000000000003387 	101324.9999999938
-0.1689189189189193 	299.999999999967 	1.000000000002764 	101324.9999999935
-0.1664164164164168 	299.999999999994 	1.000000000002482 	101324.9999999938
-0.1639139139139143 	299.9999999999995 	1.000000000003199 	101324.9999999937
-0.1614114114114118 	300.0000000000114 	1.000000000003515 	101324.9999999942
-0.1589089089089093 	300.0000000000016 	1.000000000013218 	101324.9999999941
-0.1564064064064068 	299.9999999999901 	0.9999999999989185 	101324.999999994
-0.1539039039039043 	299.9999999999926 	1.000000000007458 	101324.9999999941
-0.1514014014014018 	300.0000000000076 	1.000000000001438 	101324.9999999943
-0.1488988988988993 	299.9999999999936 	1.000000000006294 	101324.9999999944
-0.1463963963963968 	299.999999999999 	1.000000000000876 	101324.9999999943
-0.1438938938938943 	299.9999999999704 	1.000000000003134 	101324.9999999943
-0.1413913913913918 	299.9999999999645 	1.000000000004623 	101324.999999994
-0.1388888888888893 	299.9999999999802 	1.000000000003922 	101324.9999999933
-0.1363863863863868 	299.9999999999534 	1.000000000003521 	101324.9999999929
-0.1338838838838843 	299.9999999999389 	1.000000000003402 	101324.9999999932
-0.1313813813813818 	299.9999999999871 	1.000000000003445 	101324.9999999934
-0.1288788788788793 	299.9999999999667 	1.000000000002744 	101324.9999999937
-0.1263763763763768 	299.9999999999819 	1.000000000002933 	101324.999999994
-0.1238738738738743 	299.9999999999615 	1.000000000003409 	101324.9999999941
-0.1213713713713717 	299.9999999999812 	1.000000000004414 	101324.9999999942
-0.1188688688688693 	300.0000000000054 	1.00000000000391 	101324.9999999939
-0.1163663663663668 	299.9999999999504 	1.000000000002847 	101324.999999994
-0.1138638638638643 	299.9999999999838 	1.000000000007185 	101324.9999999938
-0.1113613613613618 	299.9999999999868 	0.999999999999394 	101324.9999999941
-0.1088588588588592 	299.9999999999855 	1.000000000005498 	101324.9999999938
-0.1063563563563568 	299.9999999999785 	0.999999999998867 	101324.9999999938
-0.1038538538538543 	299.9999999999845 	1.000000000001307 	101324.9999999936
-0.1013513513513517 	300.0000000000061 	1.000000000003743 	101324.9999999937
-0.09884884884884926 	299.9999999999794 	1.000000000004115 	101324.9999999933
-0.09634634634634676 	299.9999999999511 	1.000000000003174 	101324.9999999932
-0.09384384384384425 	299.9999999999396 	1.000000000003261 	101324.9999999937
-0.09134134134134177 	300.0000000000008 	1.000000000003602 	101324.9999999937
-0.08883883883883925 	300.0000000000032 	1.000000000003574 	101324.9999999941
-0.08633633633633674 	299.9999999999679 	1.000000000002724 	101324.9999999946
-0.08383383383383426 	299.999999999997 	1.000000000002636 	101324.9999999945
-0.08133133133133173 	299.9999999999857 	1.000000000003133 	101324.9999999946
-0.07882882882882926 	299.9999999999471 	1.000000000002392 	101324.9999999943
-0.07632632632632676 	299.9999999999729 	1.000000000001749 	101324.9999999944
-0.07382382382382424 	299.9999999999446 	1.000000000001799 	101324.9999999938
-0.07132132132132173 	299.9999999999862 	1.000000000001539 	101324.999999993
-0.06881881881881925 	299.9999999999671 	1.000000000001118 	101324.9999999932
-0.06631631631631671 	299.9999999999361 	1.00000000000088 	101324.9999999933
-0.06381381381381425 	299.9999999999641 	1.000000000000541 	101324.9999999941
-0.06131131131131173 	299.9999999999703 	1.00000000000044 	101324.9999999945
-0.05880880880880923 	299.9999999999717 	1.000000000001261 	101324.9999999949
-0.05630630630630672 	299.99999999997 	1.000000000001777 	101324.9999999941
-0.05380380380380424 	300.0000000000139 	1.000000000001369 	101324.9999999939
-0.05130130130130173 	300.0000000000019 	1.000000000000539 	101324.999999994
-0.04879879879879922 	299.9999999999471 	1.000000000000327 	101324.9999999942
-0.04629629629629672 	299.9999999999548 	1.000000000001313 	101324.9999999945
-0.04379379379379422 	299.9999999999585 	1.000000000001414 	101324.9999999945
-0.04129129129129173 	299.999999999967 	1.000000000000984 	101324.999999995
-0.03878878878878922 	299.9999999999997 	1.00000000000152 	101324.9999999945
-0.03628628628628671 	299.9999999999833 	1.000000000001114 	101324.9999999941
-0.03378378378378422 	299.9999999999533 	1.000000000000842 	101324.999999994
-0.03128128128128172 	299.9999999999715 	1.000000000000248 	101324.9999999939
-0.02877877877877922 	299.9999999999983 	1.00000000000003 	101324.9999999941
-0.0262762762762767 	299.9999999999399 	0.999999999999814 	101324.9999999948
-0.02377377377377422 	299.9999999999835 	1.000000000001023 	101324.9999999945
-0.0212712712712717 	299.9999999999367 	1.000000000001965 	101324.9999999945
-0.01876876876876921 	299.9999999999828 	1.000000000002046 	101324.999999994
-0.01626626626626671 	299.9999999999926 	1.000000000000913 	101324.9999999943
-0.0137637637637642 	299.9999999999671 	1.000000000000021 	101324.9999999936
-0.0112612612612617 	299.9999999999889 	1.000000000000211 	101324.9999999939
-0.008758758758759198 	299.9999999999816 	1.000000000001021 	101324.999999994
-0.006256256256256697 	299.9999999999571 	1.000000000001004 	101324.9999999946
-0.003753753753754195 	299.9999999999603 	0.9999999999999474 	101324.9999999945
-0.001251251251251693 	299.9999999999573 	0.9999999999994404 	101324.9999999951
0.00125125125125081 	299.9999999999447 	0.9999999999989895 	101324.999999995
0.003753753753753312 	299.9999999999553 	0.9999999999997334 	101324.9999999946
0.006256256256255817 	299.9999999999504 	1.000000000000528 	101324.9999999942
0.008758758758758317 	299.9999999999609 	0.9999999999995932 	101324.9999999946
0.01126126126126082 	299.9999999999789 	0.9999999999986694 	101324.9999999952
0.01376376376376332 	299.999999999967 	0.9999999999982843 	101324.9999999952
0.01626626626626582 	299.9999999999866 	0.9999999999986925 	101324.9999999945
0.01876876876876833 	299.9999999999869 	0.9999999999992103 	101324.9999999947
0.02127127127127083 	299.9999999999513 	0.9999999999994427 	101324.9999999947
0.02377377377377332 	299.9999999999882 	0.9999999999999184 	101324.999999995
0.02627627627627583 	299.99999999995 	0.9999999999993584 	101324.9999999952
0.02877877877877833 	299.9999999999796 	0.9999999999993683 	101324.9999999952
0.03128128128128083 	299.9999999999797 	0.9999999999989382 	101324.9999999954
0.03378378378378333 	299.9999999999511 	0.9999999999979445 	101324.9999999954
0.03628628628628584 	299.9999999999723 	0.9999999999976245 	101324.9999999945
0.03878878878878834 	299.9999999999995 	0.9999999999975058 	101324.9999999943
0.04129129129129084 	299.9999999999642 	0.9999999999978619 	101324.9999999947
0.04379379379379333 	299.9999999999687 	0.9999999999978244 	101324.9999999951
0.04629629629629585 	299.9999999999588 	0.9999999999974662 	101324.999999995
0.04879879879879834 	299.9999999999487 	0.9999999999979142 	101324.9999999946
0.05130130130130085 	300.0000000000044 	0.9999999999977773 	101324.9999999947
0.05380380380380335 	300.0000000000134 	0.9999999999978971 	101324.9999999945
0.05630630630630584 	299.9999999999807 	0.999999999998566 	101324.9999999944
0.05880880880880836 	299.9999999999692 	0.9999999999986395 	101324.9999999945
0.06131131131131085 	299.9999999999764 	0.9999999999981751 	101324.9999999948
0.06381381381381336 	299.9999999999819 	0.9999999999983215 	101324.9999999949
0.06631631631631586 	299.9999999999508 	0.9999999999986278 	101324.9999999948
0.06881881881881835 	299.9999999999702 	0.9999999999986029 	101324.9999999943
0.07132132132132088 	299.9999999999902 	0.9999999999972634 	101324.9999999936
0.07382382382382337 	299.9999999999497 	0.9999999999969907 	101324.9999999938
0.07632632632632587 	299.9999999999744 	0.9999999999961844 	101324.9999999942
0.07882882882882837 	299.9999999999716 	0.9999999999955285 	101324.9999999943
0.08133133133133086 	299.9999999999786 	0.9999999999954243 	101324.9999999948
0.08383383383383337 	299.9999999999899 	0.9999999999953899 	101324.9999999953
0.08633633633633589 	299.9999999999481 	0.9999999999955148 	101324.999999995
0.08883883883883838 	299.99999999999 	0.9999999999957819 	101324.9999999942
0.09134134134134086 	299.9999999999874 	0.9999999999964866 	101324.9999999937
0.09384384384384339 	299.9999999999462 	0.9999999999966623 	101324.9999999943
0.09634634634634588 	299.999999999975 	0.9999999999964226 	101324.9999999948
0.09884884884884838 	299.9999999999841 	0.9999999999959425 	101324.999999994
0.1013513513513509 	300.000000000013 	0.9999999999965047 	101324.9999999945
0.1038538538538534 	299.9999999999927 	0.9999999999964939 	101324.999999995
0.1063563563563559 	299.9999999999907 	0.9999999999965057 	101324.9999999949
0.1088588588588584 	300.0000000000168 	0.9999999999970069 	101324.9999999951
0.1113613613613609 	299.9999999999781 	0.9999999999965855 	101324.9999999945
0.1138638638638634 	299.9999999999552 	0.9999999999945461 	101324.9999999938
0.1163663663663659 	299.9999999999603 	0.9999999999940797 	101324.9999999939
0.1188688688688684 	299.9999999999781 	0.9999999999949521 	101324.9999999942
0.1213713713713709 	300.000000000001 	0.9999999999948129 	101324.9999999944
0.1238738738738734 	299.9999999999603 	0.9999999999940794 	101324.999999994
0.1263763763763759 	299.9999999999883 	0.9999999999946985 	101324.999999994
0.1288788788788784 	299.9999999999874 	0.9999999999948668 	101324.9999999935
0.1313813813813809 	299.9999999999822 	0.9999999999941789 	101324.9999999942
0.1338838838838834 	299.999999999986 	0.9999999999929113 	101324.9999999941
0.1363863863863859 	300.0000000000005 	0.9999999999936831 	101324.9999999945
0.1388888888888884 	300.0000000000164 	0.9999999999952045 	101324.999999994
0.1413913913913909 	299.999999999999 	0.9999999999966639 	101324.9999999941
0.1438938938938934 	299.9999999999926 	0.9999999999966693 	101324.9999999937
0.1463963963963959 	299.9999999999696 	0.9999999999971561 	101324.9999999936
0.1488988988988985 	299.9999999999551 	0.9999999999973199 	101324.999999994
0.1514014014014009 	299.9999999999749 	0.9999999999959848 	101324.9999999947
0.1539039039039035 	299.9999999999744 	0.9999999999952143 	101324.9999999944
0.1564064064064059 	299.9999999999622 	0.9999999999990397 	101324.9999999939
0.1589089089089084 	299.9999999999781 	0.9999999999918214 	101324.999999994
0.1614114114114109 	299.9999999999769 	0.99999999999526 	101324.9999999945
0.1639139139139134 	299.9999999999527 	0.9999999999952996 	101324.9999999945
0.166416416416416 	299.9999999999828 	0.9999999999942843 	101324.9999999941
0.1689189189189185 	300.0000000000159 	0.9999999999939722 	101324.9999999938
0.1714214214214209 	300.0000000000055 	0.9999999999939468 	101324.9999999934
0.1739239239239235 	299.9999999999824 	0.9999999999946078 	101324.9999999932
0.1764264264264259 	299.9999999999873 	0.9999999999941739 	101324.9999999931
0.1789289289289284 	300.0000000000056 	0.9999999999967798 	101324.9999999934
0.181431431431431 	299.9999999999861 	0.9999999999891146 	101324.9999999933
0.1839339339339334 	299.9999999999849 	0.9999999999928572 	101324.9999999938
0.186436436436436 	299.9999999999671 	0.999999999995149 	101324.9999999941
0.1889389389389385 	299.9999999999841 	0.9999999999959102 	101324.9999999937
0.191441441441441 	299.9999999999824 	0.9999999999952651 	101324.9999999941
0.1939439439439434 	299.9999999999645 	0.9999999999949165 	101324.9999999946
0.196446446446446 	299.999999999962 	0.9999999999982887 	101324.9999999945
0.1989489489489485 	299.9999999999775 	0.9999999999895799 	101324.9999999938
0.2014514514514509 	299.9999999999931 	0.999999999991681 	101324.9999999937
0.2039539539539535 	299.9999999999907 	0.9999999999936452 	101324.9999999939
0.2064564564564559 	299.9999999999698 	0.9999999999943865 	101324.9999999943
0.2089589589589585 	299.9999999999883 	0.9999999999942425 	101324.9999999945
0.211461461461461 	299.9999999999663 	0.9999999999937446 	101324.9999999942
0.2139639639639635 	299.9999999999871 	0.9999999999941016 	101324.9999999941
0.2164664664664659 	300.0000000000061 	0.9999999999955788 	101324.999999994
0.2189689689689684 	300.0000000000065 	0.9999999999997649 	101324.9999999945
0.221471471471471 	300.0000000000014 	0.9999999999931087 	101324.9999999944
0.2239739739739735 	299.9999999999764 	0.9999999999960568 	101324.9999999941
0.226476476476476 	299.9999999999889 	0.9999999999972425 	101324.9999999942
0.2289789789789785 	299.9999999999986 	0.9999999999960152 	101324.9999999942
0.231481481481481 	299.9999999999886 	0.9999999999944873 	101324.999999994
0.2339839839839835 	299.9999999999821 	0.9999999999932753 	101324.9999999937
0.236486486486486 	300.000000000007 	0.9999999999934952 	101324.9999999936
0.2389889889889885 	299.9999999999976 	0.9999999999951348 	101324.9999999941
0.241491491491491 	299.9999999999583 	0.9999999999995212 	101324.9999999941
0.2439939939939935 	299.9999999999858 	0.9999999999927734 	101324.9999999938
0.246496496496496 	299.9999999999941 	0.999999999995193 	101324.9999999939
0.2489989989989985 	300.0000000000264 	0.9999999999967926 	101324.9999999942
0.251501501501501 	300.0000000000251 	0.9999999999976377 	101324.9999999947
0.2540040040040035 	300.0000000000015 	0.99999999999766 	101324.9999999946
0.256506506506506 	300.000000000016 	0.9999999999978825 	101324.9999999946
0.2590090090090086 	299.9999999999579 	1.000000000001282 	101324.9999999942
0.261511511511511 	299.9999999999928 	0.9999999999944781 	101324.999999994
0.2640140140140135 	299.9999999999891 	0.9999999999967071 	101324.9999999942
0.2665165165165161 	299.9999999999627 	0.9999999999966579 	101324.9999999946
0.2690190190190185 	299.9999999999993 	0.9999999999959841 	101324.9999999951
0.271521521521521 	300.0000000000193 	0.9999999999956564 	101324.9999999944
0.2740240240240235 	300.000000000021 	0.9999999999958139 	101324.999999994
0.276526526526526 	300.0000000000134 	0.9999999999966858 	101324.9999999941
0.2790290290290286 	299.9999999999695 	0.9999999999973492 	101324.9999999947
0.281531531531531 	299.9999999999663 	1.000000000000562 	101324.999999995
0.2840340340340335 	299.9999999999778 	0.9999999999934228 	101324.9999999944
0.2865365365365361 	299.9999999999839 	0.999999999995821 	101324.9999999941
0.2890390390390385 	300.0000000000107 	0.9999999999966254 	101324.9999999938
0.291541541541541 	300.0000000000144 	0.9999999999956195 	101324.9999999939
0.2940440440440436 	300.000000000014 	0.9999999999952074 	101324.9999999943
0.296546546546546 	300.0000000000102 	0.9999999999952469 	101324.9999999938
0.2990490490490486 	299.9999999999789 	0.9999999999956785 	101324.999999994
0.3015515515515511 	299.9999999999997 	0.999999999997462 	101324.9999999936
0.3040540540540535 	299.9999999999961 	1.000000000004231 	101324.9999999932
0.3065565565565562 	300.0000000000018 	0.999999999990269 	101324.9999999935
0.3090590590590585 	299.9999999999976 	0.9999999999955057 	101324.9999999938
0.3115615615615611 	299.9999999999629 	0.9999999999980589 	101324.999999994
0.3140640640640635 	300.0000000000016 	0.9999999999974747 	101324.9999999942
0.316566566566566 	299.999999999999 	0.9999999999975651 	101324.9999999943
0.3190690690690687 	299.99999999996 	0.9999999999977331 	101324.9999999941
0.3215715715715711 	299.9999999999933 	0.999999999997242 	101324.999999994
0.3240740740740735 	299.9999999999919 	0.9999999999968344 	101324.9999999944
0.326576576576576 	299.9999999999652 	0.9999999999962886 	101324.9999999953
0.3290790790790786 	300.0000000000142 	0.9999999999962426 	101324.9999999949
0.3315815815815811 	300.0000000000168 	0.9999999999963761 	101324.9999999946
0.3340840840840836 	300.000000000008 	0.9999999999967459 	101324.9999999947
0.3365865865865861 	300.000000000021 	0.9999999999975997 	101324.9999999945
0.3390890890890886 	300.0000000000242 	0.9999999999978679 	101324.9999999945
0.3415915915915911 	300.0000000000013 	0.9999999999980745 	101324.9999999948
0.3440940940940935 	299.9999999999604 	1.000000000000777 	101324.9999999947
0.3465965965965962 	300.0000000000048 	0.9999999999957172 	101324.9999999943
0.3490990990990985 	300.0000000000077 	1.000000000000484 	101324.999999994
0.3516016016016011 	300.0000000000132 	1.000000000003453 	101324.9999999938
0.3541041041041035 	300.0000000000056 	1.000000000002237 	101324.9999999938
0.3566066066066061 	299.99999999996 	0.9999999999995921 	101324.9999999943
0.3591091091091085 	299.9999999999741 	0.9999999999978121 	101324.9999999948
0.3616116116116112 	299.9999999999808 	0.9999999999974842 	101324.9999999947
0.3641141141141137 	299.9999999999579 	0.9999999999984537 	101324.9999999947
0.3666166166166161 	299.9999999999378 	1.000000000004361 	101324.9999999944
0.3691191191191185 	299.9999999999966 	0.999999999991966 	101324.9999999942
0.371621621621621 	300.0000000000027 	0.9999999999977962 	101324.9999999944
0.3741241241241237 	300.0000000000169 	1.000000000000876 	101324.9999999945
0.3766266266266261 	300.0000000000055 	1.00000000000081 	101324.9999999948
0.3791291291291286 	299.9999999999901 	0.9999999999999637 	101324.999999995
0.3816316316316311 	299.9999999999749 	0.9999999999998087 	101324.9999999948
0.3841341341341336 	299.9999999999955 	1.000000000000885 	101324.9999999943
0.3866366366366362 	299.9999999999899 	1.000000000001408 	101324.9999999942
0.3891391391391387 	299.9999999999702 	1.000000000001301 	101324.9999999944
0.391641641641641 	299.9999999999972 	1.000000000001329 	101324.9999999944
0.3941441441441436 	299.9999999999957 	1.000000000001662 	101324.9999999945
0.3966466466466462 	299.9999999999927 	1.000000000001656 	101324.9999999945
0.3991491491491486 	299.99999999998 	1.000000000000996 	101324.9999999954
0.4016516516516512 	299.9999999999651 	1.000000000000218 	101324.9999999958
0.4041541541541536 	299.9999999999783 	0.9999999999999216 	101324.9999999955
0.4066566566566561 	299.9999999999794 	1.000000000002516 	101324.9999999947
0.4091591591591587 	300.0000000000072 	0.9999999999966915 	101324.9999999947
0.4116616616616612 	300.0000000000124 	1.000000000000325 	101324.9999999946
0.4141641641641635 	300.0000000000238 	1.000000000002812 	101324.9999999944
0.4166666666666662 	300.0000000000065 	1.000000000002847 	101324.9999999942
0.4191691691691687 	299.9999999999626 	1.000000000002224 	101324.9999999944
0.421671671671671 	299.9999999999943 	1.000000000002187 	101324.999999994
0.4241741741741737 	299.9999999999789 	1.000000000001138 	101324.9999999943
0.4266766766766761 	299.9999999999653 	1.000000000001123 	101324.9999999946
0.4291791791791785 	299.9999999999928 	1.000000000006731 	101324.9999999947
0.4316816816816812 	299.9999999999919 	0.999999999995283 	101324.9999999955
0.4341841841841836 	300.000000000002 	1.000000000000819 	101324.9999999956
0.4366866866866862 	299.9999999999797 	1.000000000002211 	101324.9999999953
0.4391891891891885 	300.000000000001 	1.000000000001366 	101324.9999999948
0.4416916916916913 	300.0000000000038 	1.000000000001392 	101324.9999999945
0.4441941941941936 	299.9999999999921 	1.000000000000722 	101324.9999999943
0.4466966966966961 	299.9999999999498 	1.00000000000017 	101324.999999995
0.4491991991991987 	299.9999999999894 	1.000000000000347 	101324.9999999951
0.4517017017017012 	299.9999999999757 	1.000000000001544 	101324.9999999949
0.4542042042042035 	299.9999999999948 	1.000000000002804 	101324.9999999948
0.4567067067067062 	299.9999999999952 	1.000000000002672 	101324.9999999946
0.4592092092092087 	299.9999999999487 	1.000000000002281 	101324.9999999949
0.4617117117117112 	299.9999999999843 	1.000000000001852 	101324.9999999951
0.4642142142142137 	299.999999999971 	1.000000000001364 	101324.9999999945
0.4667167167167162 	299.9999999999891 	1.000000000001575 	101324.9999999939
0.4692192192192187 	299.99999999997 	1.00000000000221 	101324.9999999936
0.4717217217217212 	300.0000000000027 	1.000000000002728 	101324.999999994
0.4742242242242236 	299.9999999999793 	1.000000000003126 	101324.9999999942
0.4767267267267262 	299.9999999999727 	1.000000000002426 	101324.9999999944
0.4792292292292287 	299.9999999999969 	1.000000000001048 	101324.9999999942
0.4817317317317312 	300.0000000000086 	1.000000000001204 	101324.9999999942
0.4842342342342336 	300.0000000000037 	1.000000000001568 	101324.9999999943
0.4867367367367362 	299.9999999999946 	1.000000000001582 	101324.9999999947
0.4892392392392387 	300.0000000000018 	1.000000000002135 	101324.999999995
0.4917417417417412 	300.0000000000185 	1.000000000003006 	101324.9999999956
0.4942442442442437 	299.9999999999811 	1.000000000003171 	101324.9999999959
0.4967467467467462 	299.9999999999583 	1.000000000004517 	101324.9999999955
0.4992492492492487 	299.9999999999426 	0.99999999999909 	101324.9999999952
0.5017517517517511 	299.9999999999579 	1.000000000002 	101324.9999999946
0.5042542542542537 	299.9999999999924 	1.00000000000346 	101324.9999999948
0.5067567567567562 	299.9999999999844 	1.000000000003368 	101324.999999995
0.5092592592592589 	299.9999999999754 	1.000000000002597 	101324.9999999954
0.5117617617617611 	299.9999999999889 	1.00000000000166 	101324.9999999956
0.5142642642642637 	300.0000000000084 	1.000000000001355 	101324.9999999954
0.5167667667667663 	300.0000000000005 	1.000000000003177 	101324.9999999952
0.5192692692692688 	299.9999999999574 	1.000000000008198 	101324.999999995
0.5217717717717714 	299.9999999999735 	0.9999999999975101 	101324.999999995
0.5242742742742736 	299.999999999973 	1.000000000002924 	101324.9999999944
0.5267767767767763 	299.9999999999661 	1.000000000004374 	101324.999999994
0.5292792792792789 	299.9999999999702 	1.000000000003745 	101324.9999999943
0.5317817817817813 	299.9999999999539 	1.000000000003741 	101324.9999999942
0.5342842842842837 	299.9999999999902 	1.00000000000281 	101324.9999999941
0.5367867867867864 	299.9999999999879 	1.000000000002022 	101324.9999999947
0.5392892892892888 	299.9999999999614 	1.000000000002144 	101324.999999995
0.5417917917917912 	299.9999999999767 	1.000000000003012 	101324.999999995
0.5442942942942938 	299.9999999999702 	1.00000000000302 	101324.9999999946
0.5467967967967964 	299.9999999999823 	1.000000000001877 	101324.9999999946
0.5492992992992988 	299.9999999999793 	1.000000000001246 	101324.9999999949
0.5518018018018012 	299.9999999999729 	1.000000000001634 	101324.9999999954
0.5543043043043039 	299.9999999999959 	1.00000000000138 	101324.9999999953
0.5568068068068063 	299.9999999999883 	1.000000000002121 	101324.999999995
0.5593093093093087 	299.9999999999591 	1.000000000003856 	101324.9999999945
0.5618118118118114 	299.9999999999578 	0.9999999999973559 	101324.9999999945
0.5643143143143137 	299.9999999999507 	0.9999999999986543 	101324.9999999948
0.5668168168168163 	299.9999999999793 	0.9999999999997413 	101324.9999999947
0.5693193193193188 	300.0000000000023 	1.00000000000059 	101324.999999995
0.5718218218218213 	300.0000000000165 	1.000000000001654 	101324.9999999956
0.5743243243243239 	300.0000000000159 	1.000000000001802 	101324.9999999955
0.5768268268268262 	300.0000000000064 	1.000000000000844 	101324.9999999955
0.5793293293293288 	299.9999999999777 	1.000000000002656 	101324.9999999951
0.5818318318318314 	299.9999999999698 	1.000000000006478 	101324.9999999948
0.5843343343343338 	300.0000000000037 	0.9999999999957248 	101324.9999999949
0.5868368368368363 	299.9999999999931 	1.000000000000882 	101324.9999999952
0.5893393393393387 	299.9999999999594 	1.000000000002164 	101324.999999995
0.5918418418418413 	299.999999999976 	1.000000000000181 	101324.999999995
0.5943443443443439 	300.0000000000001 	0.9999999999993302 	101324.9999999947
0.5968468468468463 	300.0000000000079 	1.000000000000338 	101324.9999999947
0.5993493493493487 	300.0000000000256 	1.000000000001572 	101324.9999999949
0.6018518518518514 	300.0000000000111 	1.000000000002563 	101324.9999999952
0.6043543543543537 	300.0000000000085 	1.000000000003241 	101324.9999999955
0.6068568568568564 	299.999999999997 	1.00000000000357 	101324.9999999956
0.6093593593593587 	299.9999999999533 	1.000000000003461 	101324.9999999957
0.6118618618618614 	299.999999999965 	1.000000000002718 	101324.9999999954
0.6143643643643638 	300.0000000000054 	1.000000000001778 	101324.999999995
0.6168668668668662 	299.9999999999998 	1.000000000002708 	101324.9999999949
0.6193693693693688 	299.999999999988 	1.000000000004709 	101324.9999999948
0.6218718718718714 	299.9999999999995 	1.000000000006186 	101324.9999999951
0.6243743743743737 	299.9999999999895 	1.000000000000512 	101324.9999999954
0.6268768768768762 	299.9999999999785 	1.000000000002321 	101324.9999999958
0.629379379379379 	299.9999999999899 	1.00000000000297 	101324.9999999955
0.6318818818818812 	299.9999999999995 	1.000000000002537 	101324.9999999952
0.6343843843843838 	300.0000000000147 	1.000000000002607 	101324.9999999952
0.6368868868868864 	300.0000000000032 	1.000000000002271 	101324.9999999948
0.6393893893893888 	299.999999999969 	1.000000000002304 	101324.9999999944
0.6418918918918912 	299.9999999999859 	1.00000000000528 	101324.9999999945
0.6443943943943939 	299.9999999999786 	1.00000000000857 	101324.9999999951
0.6468968968968963 	299.9999999999833 	0.9999999999978472 	101324.999999995
0.6493993993993988 	299.9999999999826 	1.000000000002278 	101324.9999999947
0.6519019019019012 	299.9999999999978 	1.000000000003772 	101324.9999999942
0.6544044044044038 	299.9999999999681 	1.000000000002859 	101324.9999999944
0.6569069069069065 	299.9999999999624 	1.000000000002814 	101324.9999999947
0.6594094094094087 	299.9999999999806 	1.000000000002659 	101324.999999995
0.6619119119119113 	299.9999999999922 	1.000000000002848 	101324.9999999952
0.664414414414414 	299.999999999997 	1.000000000002504 	101324.9999999947
0.6669169169169162 	299.9999999999946 	1.000000000002074 	101324.9999999946
0.6694194194194188 	299.9999999999858 	1.000000000001761 	101324.9999999948
0.6719219219219214 	299.9999999999692 	1.0000000000018 	101324.9999999948
0.674424424424424 	299.9999999999845 	1.000000000002222 	101324.999999995
0.6769269269269262 	299.9999999999706 	1.000000000002853 	101324.9999999956
0.679429429429429 	300.0000000000081 	1.000000000002315 	101324.9999999954
0.6819319319319311 	300.0000000000189 	1.000000000002198 	101324.9999999948
0.6844344344344341 	300.0000000000215 	1.000000000003508 	101324.9999999953
0.686936936936936 	300.0000000000206 	0.9999999999992107 	101324.9999999953
0.6894394394394392 	300.0000000000167 	1.00000000000217 	101324.999999995
0.6919419419419413 	300.0000000000046 	1.00000000000351 	101324.9999999947
0.694444444444444 	299.999999999969 	1.000000000003528 	101324.999999995
0.6969469469469463 	299.9999999999503 	1.0000000000039 	101324.9999999952
0.6994494494494489 	299.9999999999641 	1.000000000004039 	101324.999999995
0.7019519519519515 	299.999999999976 	1.000000000003583 	101324.9999999948
0.7044544544544538 	299.9999999999657 	1.000000000004144 	101324.9999999945
0.7069569569569564 	300.0000000000014 	1.000000000004305 	101324.9999999944
0.7094594594594589 	299.999999999986 	0.9999999999934116 	101324.9999999945
0.7119619619619615 	299.9999999999664 	0.9999999999984098 	101324.9999999947
0.7144644644644638 	299.9999999999862 	1.000000000000703 	101324.9999999948
0.7169669669669665 	299.9999999999775 	1.000000000000417 	101324.9999999949
0.7194694694694688 	300.0000000000143 	1.000000000000766 	101324.9999999949
0.7219719719719715 	300.0000000000098 	1.000000000001305 	101324.9999999951
0.7244744744744737 	299.9999999999977 	1.000000000001179 	101324.9999999953
0.7269769769769764 	300.0000000000064 	1.0000000000028 	101324.999999995
0.7294794794794791 	300.000000000003 	1.000000000003997 	101324.9999999954
0.7319819819819813 	299.9999999999853 	0.9999999999943929 	101324.9999999955
0.7344844844844839 	299.9999999999474 	0.9999999999991386 	101324.9999999956
0.7369869869869864 	299.9999999999617 	1.000000000000194 	101324.9999999953
0.739489489489489 	299.99999999998 	0.9999999999999477 	101324.9999999947
0.7419919919919914 	299.9999999999739 	1.000000000000638 	101324.9999999946
0.7444944944944939 	299.9999999999712 	1.000000000002005 	101324.9999999947
0.7469969969969963 	299.9999999999882 	1.000000000002322 	101324.9999999946
0.7494994994994989 	299.9999999999599 	0.9999999999992828 	101324.9999999947
0.7520020020020015 	299.9999999999679 	1.000000000002727 	101324.999999995
0.7545045045045039 	299.9999999999729 	0.9999999999941421 	101324.9999999954
0.7570070070070062 	299.9999999999737 	0.999999999999447 	101324.9999999955
0.7595095095095092 	299.9999999999773 	1.000000000001044 	101324.9999999954
0.7620120120120112 	299.9999999999905 	1.000000000000006 	101324.9999999949
0.7645145145145138 	299.9999999999895 	0.999999999999952 	101324.9999999946
0.7670170170170165 	299.9999999999691 	1.000000000002945 	101324.999999995
0.7695195195195191 	299.9999999999523 	1.000000000004851 	101324.9999999953
0.7720220220220213 	299.9999999999703 	0.999999999995222 	101324.9999999951
0.7745245245245239 	299.9999999999582 	0.9999999999990861 	101324.9999999946
0.7770270270270263 	299.9999999999576 	1.000000000000401 	101324.9999999943
0.779529529529529 	299.9999999999765 	1.000000000000181 	101324.9999999944
0.7820320320320313 	299.9999999999727 	0.9999999999998156 	101324.9999999945
0.784534534534534 	299.9999999999969 	0.9999999999999701 	101324.9999999946
0.7870370370370364 	299.9999999999899 	1.000000000000443 	101324.9999999948
0.7895395395395389 	299.9999999999827 	1.000000000000971 	101324.999999995
0.7920420420420413 	299.9999999999964 	1.00000000000091 	101324.9999999947
0.794544544544544 	299.9999999999914 	1.000000000002747 	101324.9999999943
0.7970470470470463 	300.0000000000042 	1.000000000002444 	101324.999999994
0.799549549549549 	300.0000000000041 	0.9999999999922751 	101324.9999999937
0.8020520520520515 	299.9999999999864 	0.9999999999973433 	101324.9999999938
0.8045545545545539 	299.9999999999586 	0.9999999999994905 	101324.9999999944
0.8070570570570563 	299.9999999999743 	0.9999999999989425 	101324.9999999949
0.8095595595595589 	299.9999999999705 	0.9999999999984402 	101324.9999999947
0.8120620620620614 	299.9999999999833 	0.9999999999984225 	101324.9999999948
0.8145645645645638 	300.0000000000085 	0.9999999999983735 	101324.9999999947
0.8170670670670666 	300.0000000000226 	1.000000000000495 	101324.999999995
0.8195695695695689 	300.0000000000027 	1.00000000000129 	101324.9999999952
0.8220720720720714 	299.9999999999628 	0.9999999999929954 	101324.9999999953
0.8245745745745739 	299.9999999999756 	0.9999999999981315 	101324.9999999948
0.8270770770770765 	299.9999999999821 	1.000000000000052 	101324.9999999946
0.8295795795795788 	299.999999999985 	0.9999999999993539 	101324.9999999944
0.8320820820820815 	300.0000000000068 	0.9999999999992142 	101324.9999999941
0.834584584584584 	300.0000000000034 	1.00000000000055 	101324.9999999943
0.8370870870870865 	299.9999999999724 	1.000000000000639 	101324.9999999943
0.8395895895895891 	299.999999999955 	0.9999999999967357 	101324.9999999942
0.8420920920920915 	299.9999999999875 	0.9999999999999305 	101324.9999999944
0.844594594594594 	299.9999999999798 	1.000000000000941 	101324.9999999944
0.8470970970970964 	299.9999999999735 	1.00000000000014 	101324.9999999942
0.8495995995995991 	300.0000000000059 	0.9999999999997984 	101324.9999999941
0.8521021021021015 	299.9999999999954 	0.999999999999394 	101324.9999999944
0.8546046046046039 	299.9999999999772 	0.9999999999990494 	101324.9999999949
0.8571071071071066 	299.9999999999947 	1.000000000002775 	101324.9999999952
0.8596096096096089 	299.9999999999921 	1.000000000003459 	101324.9999999951
0.8621121121121116 	299.9999999999826 	0.9999999999943556 	101324.9999999949
0.8646146146146139 	300.0000000000085 	0.9999999999991579 	101324.9999999948
0.8671171171171166 	299.9999999999902 	1.000000000001356 	101324.9999999947
0.8696196196196189 	299.9999999999631 	1.000000000001274 	101324.9999999948
0.8721221221221216 	299.9999999999872 	1.000000000000331 	101324.9999999951
0.874624624624624 	300.0000000000033 	0.9999999999991211 	101324.9999999948
0.8771271271271264 	299.9999999999984 	0.9999999999982704 	101324.9999999945
0.879629629629629 	299.9999999999944 	1.00000000000079 	101324.9999999946
0.8821321321321317 	299.9999999999863 	1.000000000001017 	101324.9999999941
0.8846346346346339 	299.9999999999676 	0.9999999999928539 	101324.9999999937
0.8871371371371364 	299.9999999999728 	0.9999999999976779 	101324.9999999938
0.8896396396396391 	299.999999999976 	0.9999999999999412 	101324.9999999939
0.8921421421421414 	299.9999999999773 	0.9999999999999208 	101324.999999994
0.8946446446446441 	299.999999999985 	1.000000000000254 	101324.9999999942
0.8971471471471464 	299.9999999999927 	1.000000000002074 	101324.9999999942
0.8996496496496489 	299.999999999998 	1.000000000001881 	101324.9999999943
0.9021521521521517 	299.9999999999951 	0.999999999997353 	101324.999999994
0.9046546546546541 	299.9999999999977 	1.000000000000365 	101324.9999999937
0.9071571571571564 	299.9999999999808 	1.000000000001858 	101324.9999999936
0.9096596596596589 	299.9999999999678 	1.000000000001415 	101324.9999999936
0.9121621621621616 	299.9999999999895 	1.000000000001071 	101324.9999999936
0.9146646646646639 	299.9999999999786 	1.000000000000868 	101324.9999999935
0.9171671671671666 	299.9999999999673 	1.000000000000098 	101324.9999999938
0.9196696696696689 	299.9999999999867 	1.000000000002804 	101324.9999999939
0.9221721721721714 	299.9999999999822 	1.000000000002564 	101324.9999999939
0.9246746746746741 	299.9999999999601 	0.9999999999946348 	101324.9999999939
0.9271771771771765 	299.9999999999771 	0.9999999999995317 	101324.999999994
0.9296796796796791 	299.9999999999858 	1.000000000000823 	101324.9999999942
0.9321821821821816 	299.9999999999762 	1.000000000000272 	101324.9999999942
0.9346846846846838 	299.9999999999735 	0.9999999999997842 	101324.9999999942
0.9371871871871866 	300.0000000000018 	0.999999999999626 	101324.9999999939
0.9396896896896891 	299.9999999999994 	1.000000000000147 	101324.9999999938
0.9421921921921914 	299.9999999999956 	1.000000000004218 	101324.999999994
0.9446946946946939 	299.9999999999936 	1.000000000004747 	101324.9999999942
0.9471971971971965 	299.9999999999769 	0.9999999999966362 	101324.9999999942
0.9496996996996991 	299.9999999999764 	1.000000000000086 	101324.9999999944
0.9522022022022016 	299.9999999999914 	1.00000000000059 	101324.9999999941
0.9547047047047038 	300.0000000000017 	1.000000000000662 	101324.999999994
0.9572072072072064 	299.9999999999897 	1.000000000001188 	101324.9999999939
0.9597097097097093 	299.999999999975 	1.000000000002949 	101324.9999999941
0.9622122122122114 	299.9999999999729 	1.000000000002673 	101324.9999999944
0.964714714714714 	299.9999999999634 	0.9999999999988305 	101324.9999999939
0.9672172172172167 	299.9999999999619 	1.000000000000848 	101324.9999999935
0.969719719719719 	299.999999999982 	1.00000000000162 	101324.9999999936
0.9722222222222214 	299.9999999999861 	1.000000000001489 	101324.9999999939
0.9747247247247239 	299.999999999986 	1.000000000001114 	101324.9999999938
0.9772272272272267 	299.9999999999994 	1.000000000000929 	101324.9999999934
0.9797297297297292 	299.9999999999878 	1.000000000000749 	101324.9999999934
0.9822322322322313 	299.9999999999817 	1.000000000004249 	101324.9999999936
0.9847347347347344 	299.9999999999789 	1.000000000003147 	101324.9999999937
0.9872372372372363 	299.9999999999552 	0.9999999999942211 	101324.9999999938
0.9897397397397389 	299.9999999999591 	0.9999999999983527 	101324.9999999936
0.9922422422422417 	299.9999999999649 	1.000000000000762 	101324.9999999936
0.9947447447447441 	299.9999999999854 	1.000000000001175 	101324.9999999937
0.9972472472472468 	299.9999999999864 	1.000000000001236 	101324.9999999934
0.999749749749749 	299.9999999999819 	1.000000000001415 	101324.999999993
1.002252252252252 	299.9999999999853 	1.000000000001245 	101324.9999999933
1.004754754754754 	300.0000000000018 	1.000000000004585 	101324.9999999937
1.007257257257256 	299.9999999999948 	1.000000000003605 	101324.9999999933
1.009759759759759 	299.9999999999861 	0.9999999999962578 	101324.9999999929
1.012262262262261 	299.9999999999878 	1.000000000000542 	101324.999999993
1.014764764764764 	299.9999999999728 	1.000000000001719 	101324.9999999931
1.017267267267267 	299.9999999999629 	1.000000000000955 	101324.9999999932
1.019769769769769 	299.9999999999881 	1.000000000000084 	101324.9999999931
1.022272272272272 	299.9999999999997 	1.000000000001404 	101324.9999999932
1.024774774774774 	299.9999999999996 	1.00000000000119 	101324.999999993
1.027277277277277 	299.9999999999965 	0.9999999999984073 	101324.9999999928
1.029779779779779 	300.0000000000081 	1.000000000001265 	101324.9999999928
1.032282282282282 	300.0000000000093 	1.000000000002226 	101324.9999999926
1.034784784784784 	300.0000000000069 	1.000000000001933 	101324.9999999929
1.037287287287286 	299.9999999999949 	1.000000000002055 	101324.9999999931
1.039789789789789 	299.9999999999908 	1.000000000001851 	101324.9999999929
1.042292292292291 	300.0000000000093 	1.000000000001215 	101324.9999999929
1.044794794794794 	300.0000000000235 	1.000000000005623 	101324.999999993
1.047297297297296 	300.0000000000207 	1.000000000005262 	101324.9999999931
1.049799799799799 	300.0000000000078 	0.9999999999983047 	101324.9999999929
1.052302302302302 	299.9999999999952 	1.000000000002283 	101324.9999999927
1.054804804804804 	299.999999999975 	1.000000000002993 	101324.9999999924
1.057307307307306 	299.9999999999586 	1.000000000002493 	101324.9999999924
1.059809809809809 	299.9999999999733 	1.000000000002443 	101324.9999999927
1.062312312312312 	299.9999999999795 	1.000000000001825 	101324.9999999928
1.064814814814814 	299.9999999999815 	1.00000000000166 	101324.9999999932
1.067317317317317 	299.9999999999714 	1.000000000006104 	101324.9999999934
1.069819819819819 	299.9999999999634 	1.000000000004676 	101324.999999993
1.072322322322321 	299.9999999999934 	0.9999999999972822 	101324.9999999928
1.074824824824824 	300.0000000000147 	1.00000000000169 	101324.9999999927
1.077327327327327 	300.0000000000182 	1.000000000003799 	101324.9999999925
1.079829829829829 	300.0000000000188 	1.000000000003915 	101324.9999999925
1.082332332332332 	300.0000000000015 	1.000000000003649 	101324.9999999926
1.084834834834834 	299.9999999999797 	1.000000000007385 	101324.9999999925
1.087337337337337 	299.9999999999595 	1.000000000005825 	101324.9999999926
1.089839839839839 	299.9999999999534 	0.9999999999991294 	101324.9999999925
1.092342342342342 	299.9999999999708 	1.000000000002855 	101324.9999999924
1.094844844844844 	299.9999999999735 	1.000000000007784 	101324.9999999923
1.097347347347347 	299.9999999999602 	1.000000000005971 	101324.9999999923
1.099849849849849 	299.999999999952 	0.9999999999992304 	101324.999999993
1.102352352352352 	299.9999999999724 	1.000000000002685 	101324.9999999933
1.104854854854854 	299.999999999992 	1.000000000003495 	101324.9999999931
1.107357357357357 	299.999999999982 	1.000000000003482 	101324.9999999927
1.109859859859859 	299.9999999999723 	1.000000000003604 	101324.9999999926
1.112362362362362 	299.9999999999999 	1.000000000007602 	101324.9999999926
1.114864864864865 	300.0000000000046 	1.000000000005479 	101324.9999999925
1.117367367367367 	299.9999999999782 	0.9999999999992023 	101324.9999999925
1.119869869869869 	299.9999999999578 	1.000000000003493 	101324.9999999925
1.122372372372372 	299.9999999999758 	1.000000000004612 	101324.9999999929
1.124874874874874 	299.9999999999806 	1.000000000004315 	101324.9999999932
1.127377377377377 	299.9999999999774 	1.000000000004345 	101324.999999993
1.129879879879879 	299.9999999999947 	1.000000000004094 	101324.9999999927
1.132382382382382 	300.0000000000177 	1.000000000003996 	101324.9999999924
1.134884884884884 	300.0000000000094 	1.000000000008472 	101324.9999999922
1.137387387387387 	300.0000000000015 	1.000000000006585 	101324.9999999922
1.139889889889889 	299.999999999974 	1.000000000000361 	101324.9999999925
1.142392392392392 	299.9999999999661 	1.000000000004163 	101324.9999999928
1.144894894894894 	299.9999999999964 	1.000000000005482 	101324.9999999929
1.147397397397397 	299.9999999999973 	1.000000000005277 	101324.9999999928
1.149899899899899 	299.9999999999744 	1.000000000005015 	101324.9999999923
1.152402402402402 	299.999999999962 	1.000000000004999 	101324.9999999922
1.154904904904904 	299.9999999999758 	1.000000000005009 	101324.9999999922
1.157407407407407 	299.9999999999766 	1.000000000009368 	101324.999999992
1.159909909909909 	299.9999999999616 	1.000000000006499 	101324.9999999924
1.162412412412412 	299.9999999999568 	0.9999999999995371 	101324.9999999927
1.164914914914914 	299.9999999999729 	1.000000000003287 	101324.9999999925
1.167417417417417 	299.9999999999732 	1.000000000004635 	101324.9999999921
1.169919919919919 	299.9999999999919 	1.000000000004345 	101324.9999999921
1.172422422422422 	300.0000000000135 	1.000000000003869 	101324.9999999923
1.174924924924925 	300.0000000000024 	1.000000000008115 	101324.9999999926
1.177427427427427 	299.999999999984 	1.000000000006129 	101324.9999999928
1.179929929929929 	299.9999999999966 	1.000000000001109 	101324.9999999926
1.182432432432432 	300.0000000000183 	1.000000000005818 	101324.9999999926
1.184934934934934 	300.0000000000051 	1.000000000006747 	101324.9999999928
1.187437437437437 	299.999999999987 	1.00000000000588 	101324.999999993
1.189939939939939 	299.9999999999819 	1.000000000006048 	101324.9999999928
1.192442442442442 	299.9999999999652 	1.000000000006691 	101324.9999999926
1.194944944944944 	299.9999999999601 	1.000000000006547 	101324.9999999925
1.197447447447447 	299.999999999989 	1.000000000010195 	101324.9999999926
1.199949949949949 	300.0000000000048 	1.000000000007062 	101324.9999999923
1.202452452452452 	299.9999999999784 	1.000000000001416 	101324.9999999921
1.204954954954955 	299.9999999999665 	1.000000000004619 	101324.9999999924
1.207457457457457 	299.9999999999789 	1.000000000004724 	101324.9999999928
1.20995995995996 	299.9999999999825 	1.00000000000467 	101324.9999999927
1.212462462462462 	299.9999999999877 	1.000000000005103 	101324.9999999923
1.214964964964964 	299.9999999999891 	1.00000000000511 	101324.9999999921
1.217467467467467 	299.999999999994 	1.000000000004988 	101324.9999999921
1.219969969969969 	299.9999999999794 	1.000000000009269 	101324.9999999922
1.222472472472472 	299.999999999993 	1.000000000006825 	101324.9999999924
1.224974974974975 	300.0000000000178 	1.000000000002762 	101324.9999999926
1.227477477477477 	299.9999999999959 	1.000000000007821 	101324.9999999928
1.229979979979979 	299.9999999999836 	1.00000000000905 	101324.999999993
1.232482482482482 	299.9999999999721 	1.000000000008519 	101324.9999999929
1.234984984984984 	299.9999999999707 	1.000000000007752 	101324.9999999928
1.237487487487487 	299.999999999982 	1.000000000011545 	101324.9999999925
1.239989989989989 	299.9999999999867 	1.000000000007497 	101324.9999999923
1.242492492492492 	300.0000000000012 	1.000000000001444 	101324.9999999922
1.244994994994994 	299.9999999999875 	1.000000000005264 	101324.9999999919
1.247497497497497 	299.9999999999912 	1.000000000006371 	101324.9999999921
1.249999999999999 	299.9999999999415 	1.000000000006778 	101324.9999999923
