-1.25 	299.9585998836612 	0.8816184872201578 	101277.4471741852
-1.247497497497497 	299.9580009305874 	0.8793788848873523 	101275.3291395387
-1.244994994994995 	299.9573144423633 	0.8767954800846337 	101274.5830073241
-1.242492492492492 	299.9574958559092 	0.8771826195611628 	101274.7606949819
-1.23998998998999 	299.9584248861999 	0.8798294757865588 	101275.8587857551
-1.237487487487487 	299.9601168411202 	0.8847271047210661 	101277.8579078397
-1.234984984984985 	299.9625390536937 	0.8917315025774857 	101280.7204550628
-1.232482482482482 	299.9656472256399 	0.9007186478223186 	101284.3939170127
-1.22997997997998 	299.9693841708478 	0.9115227679869906 	101288.8106106064
-1.227477477477477 	299.9736813554736 	0.9239455954125074 	101293.8895022186
-1.224974974974975 	299.9784600347138 	0.93775917165608 	101299.5376147194
-1.222472472472472 	299.9836320485151 	0.9527097812550858 	101305.6508987951
-1.21996996996997 	299.9891031909171 	0.9685240466892899 	101312.1179990174
-1.217467467467467 	299.9947729816414 	0.984912371212331 	101318.8202685183
-1.214964964964965 	300.0005376321668 	1.001574409229172 	101325.6350145286
-1.212462462462462 	300.0062914767609 	1.018205397665601 	101332.4373285238
-1.20995995995996 	300.0119298975216 	1.034502171933432 	101339.1035341226
-1.207457457457457 	300.0173495689073 	1.050166080027572 	101345.5113802218
-1.204954954954955 	300.0224506446418 	1.064910102692407 	101351.5429003737
-1.202452452452452 	300.0271411501093 	1.078466166229282 	101357.0891844468
-1.19994994994995 	300.0313348005013 	1.090586793453696 	101362.0481484971
-1.197447447447447 	300.0349556818214 	1.101050865626412 	101366.3299869434
-1.194944944944945 	300.0379365088539 	1.109665079483168 	101369.8549855867
-1.192442442442442 	300.0402224274056 	1.116271973069401 	101372.5583584446
-1.18993993993994 	300.0417733620808 	1.120752594707203 	101374.3925864199
-1.187437437437437 	300.0425592212871 	1.123023732990984 	101375.3219266623
-1.184934934934935 	300.0425680194769 	1.12304570348566 	101375.3318675846
-1.182432432432432 	300.0417965962691 	1.12081368254715 	101374.4196195608
-1.17992992992993 	300.0402562684787 	1.116364578094931 	101372.5986072087
-1.177427427427427 	300.0379804632032 	1.109784620571036 	101369.907500286
-1.174924924924925 	300.0350069210673 	1.101189259487581 	101366.3911758451
-1.172422422422422 	300.0313895316551 	1.090735362987793 	101362.1135995412
-1.16991991991992 	300.027198294344 	1.078617478315539 	101357.1576206614
-1.167417417417417 	300.0225028868474 	1.065047497447831 	101351.6057053531
-1.164914914914915 	300.0173928145157 	1.050279644960368 	101345.5636179203
-1.162412412412412 	300.0119662762355 	1.034589549667744 	101339.1476179405
-1.15990990990991 	300.0063120545124 	1.0182497297413 	101332.4628283187
-1.157407407407407 	300.0005406946329 	1.001572147330642 	101325.6397987737
-1.154904904904904 	299.994766258981 	0.9848743505253246 	101318.8134056613
-1.152402402402403 	299.9890795325923 	0.9684401412513025 	101312.0910394537
-1.1498998998999 	299.9835916640402 	0.9525855479128735 	101305.6040881275
-1.147397397397397 	299.9784193746634 	0.9376258949164104 	101299.4903805261
-1.144894894894895 	299.9736363551558 	0.9237994649736014 	101293.8369759815
-1.142392392392392 	299.9693277784405 	0.9113608664725539 	101288.7446182157
-1.13988988988989 	299.9656048205882 	0.9005935293683878 	101284.3444947091
-1.137387387387387 	299.9625191322291 	0.8916604476498156 	101280.6976178113
-1.134884884884885 	299.9600945860375 	0.8846700571288544 	101277.832216408
-1.132382382382382 	299.9584137978347 	0.8798244348398435 	101275.8457791414
-1.12987987987988 	299.9575316522923 	0.877249384608224 	101274.8032506615
-1.127377377377377 	299.9574015761614 	0.8768687525064192 	101274.6498352078
-1.124874874874875 	299.9580116045505 	0.8786705615252675 	101275.3708190898
-1.122372372372372 	299.9594360825246 	0.8827917802857066 	101277.0538261044
-1.11986986986987 	299.9616527028783 	0.8891501253081588 	101279.6731544501
-1.117367367367367 	299.9645030027197 	0.8973841217761118 	101283.0415589765
-1.114864864864865 	299.9679248787458 	0.9073407710336233 	101287.0856041106
-1.112362362362362 	299.9720123779464 	0.9191765653261486 	101291.9166220236
-1.10985985985986 	299.9767346294455 	0.9327474183333346 	101297.4981116084
-1.107357357357357 	299.9818092007837 	0.9473605029693102 	101303.4961738278
-1.104854854854855 	299.9870121367255 	0.9624756854866579 	101309.6462060177
-1.102352352352353 	299.9924414719348 	0.9782780074630022 	101316.0641161436
-1.09984984984985 	299.9982685173821 	0.9950926627174947 	101322.9524561518
-1.097347347347347 	300.0043131436349 	1.012413645565389 	101330.0984756142
-1.094844844844845 	300.0100865365943 	1.029022112289954 	101336.9241886293
-1.092342342342342 	300.015289456383 	1.044170675374088 	101343.0757215619
-1.08983983983984 	300.020113480348 	1.058296915475108 	101348.7795085135
-1.087337337337337 	300.0249412047121 	1.072294436687064 	101354.4878756771
-1.084834834834835 	300.0297967145724 	1.086169447570294 	101360.2293743114
-1.082332332332332 	300.0341815037092 	1.098630816905008 	101365.4144984308
-1.07982982982983 	300.0374704719054 	1.108075859821985 	101369.3039866595
-1.077327327327327 	300.0394527368369 	1.113957050261974 	101371.6482568009
-1.074824824824825 	300.0404967890022 	1.117213368674634 	101372.8829717983
-1.072322322322323 	300.0412152535146 	1.119424874546089 	101373.7326762305
-1.06981981981982 	300.0419536045726 	1.121491104480509 	101374.6058352019
-1.067317317317317 	300.0425209592919 	1.122908978536317 	101375.2766262621
-1.064814814814815 	300.0423211203702 	1.122090932780242 	101375.0393217461
-1.062312312312312 	300.0407275108872 	1.117362385687362 	101373.1548746606
-1.05980980980981 	300.0374488619067 	1.107933250339167 	101369.2787359262
-1.057307307307307 	300.0326741562217 	1.09430945026719 	101363.632894958
-1.054804804804805 	300.0269711831951 	1.078050237126796 	101356.8892494166
-1.052302302302302 	300.0210561700119 	1.061146332262213 	101349.8951489491
-1.0497997997998 	300.015564388999 	1.04538850593807 	101343.4017549654
-1.047297297297297 	300.0109131570298 	1.031976262605856 	101337.9024116996
-1.044794794794795 	300.0072738225964 	1.021423528620727 	101333.5996014686
-1.042292292292292 	300.0046190009865 	1.013679464350796 	101330.4608537664
-1.03978978978979 	300.0028008266227 	1.008342630215377 	101328.3112887462
-1.037287287287287 	300.001625271099 	1.004869787593982 	101326.9214809517
-1.034784784784785 	300.000904407554 	1.002726237244471 	101326.0692386784
-1.032282282282283 	300.000483544803 	1.001466499413003 	101325.571673278
-1.02977977977978 	300.0002488361303 	1.000759315893254 	101325.2941884343
-1.027277277277277 	300.0001234527206 	1.000379038316843 	101325.1459533308
-1.024774774774775 	300.0000591351625 	1.00018268581105 	101325.0699134026
-1.022272272272272 	300.0000273869151 	1.000085128898198 	101325.0323786747
-1.01976976976977 	300.0000122783363 	1.000038401030482 	101325.0145163319
-1.017267267267267 	300.0000053350623 	1.000016788214758 	101325.0063075264
-1.014764764764765 	300.0000022491159 	1.000007120779532 	101325.0026590945
-1.012262262262262 	300.0000009208509 	1.000002933222744 	101325.0010887199
-1.00975975975976 	300.0000003665012 	1.000001174525109 	101325.000433323
-1.007257257257257 	300.0000001419298 	1.000000457566399 	101325.0001678031
-1.004754754754755 	300.0000000535259 	1.00000017357124 	101325.0000632755
-1.002252252252252 	300.0000000196619 	1.000000064162623 	101325.0000232512
-0.9997497497497498 	300.0000000070435 	1.000000023129802 	101325.0000083315
-0.9972472472472473 	300.000000002459 	1.000000008137016 	101325.0000029124
-0.9947447447447449 	300.000000000831 	1.000000002795079 	101325.0000009934
-0.9922422422422421 	300.000000000273 	1.000000000937796 	101325.0000003307
-0.9897397397397399 	300.0000000000836 	1.000000000307857 	101325.0000001071
-0.9872372372372376 	300.0000000000195 	1.000000000101877 	101325.0000000333
-0.9847347347347346 	299.9999999999951 	1.000000000030122 	101325.0000000092
-0.9822322322322323 	299.9999999999944 	1.00000000000722 	101325.0000000016
-0.9797297297297296 	299.9999999999967 	1.000000000002953 	101324.9999999994
-0.9772272272272275 	300.0000000000007 	1.000000000001519 	101324.9999999986
-0.9747247247247248 	300.0000000000022 	1.000000000000848 	101324.9999999982
-0.9722222222222224 	299.9999999999886 	1.000000000001067 	101324.9999999981
-0.9697197197197196 	299.9999999999876 	1.000000000001514 	101324.9999999978
-0.9672172172172175 	299.9999999999795 	1.000000000001553 	101324.9999999977
-0.9647147147147147 	299.9999999999799 	1.000000000003223 	101324.9999999977
-0.9622122122122124 	299.9999999999915 	1.000000000001397 	101324.999999998
-0.9597097097097099 	299.9999999999956 	1.000000000000793 	101324.9999999983
-0.9572072072072073 	299.9999999999931 	1.000000000001757 	101324.9999999982
-0.9547047047047047 	300.0000000000068 	1.000000000001909 	101324.9999999979
-0.9522022022022023 	299.999999999993 	1.00000000000197 	101324.9999999977
-0.9496996996996998 	299.9999999999862 	1.000000000001564 	101324.9999999977
-0.9471971971971973 	300.0000000000014 	1.000000000004348 	101324.9999999979
-0.9446946946946947 	299.999999999992 	1.000000000000005 	101324.9999999981
-0.9421921921921923 	299.9999999999931 	0.9999999999980711 	101324.9999999982
-0.93968968968969 	300.0000000000057 	0.9999999999996936 	101324.9999999977
-0.9371871871871872 	300.0000000000093 	1.000000000000166 	101324.9999999977
-0.9346846846846848 	299.9999999999994 	1.000000000000899 	101324.999999998
-0.9321821821821823 	299.9999999999861 	1.000000000001307 	101324.9999999982
-0.9296796796796799 	299.9999999999882 	1.00000000000119 	101324.9999999976
-0.9271771771771771 	299.9999999999843 	1.000000000000637 	101324.9999999974
-0.9246746746746748 	299.9999999999944 	1.000000000003473 	101324.9999999974
-0.9221721721721724 	300.0000000000026 	0.9999999999998025 	101324.9999999973
-0.9196696696696698 	300.0000000000008 	0.9999999999994663 	101324.9999999975
-0.9171671671671672 	299.9999999999844 	1.000000000000939 	101324.9999999976
-0.9146646646646649 	299.9999999999899 	1.000000000000082 	101324.9999999974
-0.9121621621621623 	299.9999999999988 	1.000000000000166 	101324.9999999971
-0.9096596596596597 	299.9999999999861 	1.000000000000516 	101324.9999999972
-0.9071571571571573 	299.9999999999915 	1.000000000000756 	101324.9999999975
-0.9046546546546547 	299.9999999999999 	1.000000000001122 	101324.9999999974
-0.9021521521521524 	299.9999999999988 	1.000000000003333 	101324.9999999977
-0.8996496496496498 	299.9999999999943 	1.000000000001833 	101324.9999999981
-0.8971471471471473 	300.0000000000017 	1.00000000000155 	101324.9999999981
-0.894644644644645 	299.9999999999995 	1.000000000002067 	101324.9999999977
-0.892142142142142 	300.0000000000064 	1.000000000001183 	101324.9999999975
-0.8896396396396397 	300.000000000014 	1.000000000000909 	101324.9999999976
-0.8871371371371374 	299.9999999999945 	1.000000000001413 	101324.9999999976
-0.8846346346346349 	299.9999999999869 	1.000000000004957 	101324.9999999977
-0.8821321321321324 	299.9999999999892 	1.000000000000937 	101324.9999999977
-0.8796296296296297 	299.9999999999873 	1.000000000002053 	101324.9999999978
-0.8771271271271271 	299.9999999999791 	1.000000000001554 	101324.9999999976
-0.8746246246246248 	299.9999999999842 	1.000000000002313 	101324.9999999976
-0.8721221221221224 	299.9999999999864 	0.9999999999998832 	101324.9999999974
-0.8696196196196196 	299.9999999999874 	0.9999999999989728 	101324.999999997
-0.8671171171171175 	299.9999999999902 	0.9999999999998331 	101324.9999999969
-0.8646146146146148 	299.9999999999843 	1.000000000003387 	101324.9999999971
-0.8621121121121121 	299.9999999999899 	1.000000000002736 	101324.9999999975
-0.8596096096096097 	299.9999999999984 	0.999999999998455 	101324.9999999974
-0.857107107107107 	299.9999999999956 	0.9999999999994765 	101324.9999999974
-0.8546046046046049 	300.0000000000002 	1.000000000000417 	101324.9999999975
-0.8521021021021022 	300.0000000000067 	1.000000000000018 	101324.9999999973
-0.8495995995995997 	300.0000000000075 	1.000000000000385 	101324.9999999973
-0.8470970970970974 	299.9999999999932 	1.000000000000793 	101324.9999999973
-0.8445945945945946 	299.9999999999837 	1.000000000000614 	101324.9999999976
-0.8420920920920922 	300.0000000000032 	1.000000000000445 	101324.9999999973
-0.8395895895895897 	300.0000000000134 	1.000000000003893 	101324.9999999969
-0.8370870870870872 	300.0000000000003 	0.9999999999990786 	101324.9999999974
-0.8345845845845846 	299.9999999999945 	0.9999999999987728 	101324.9999999978
-0.8320820820820823 	299.9999999999903 	1.000000000000886 	101324.9999999979
-0.8295795795795798 	299.9999999999797 	1.000000000000332 	101324.9999999976
-0.8270770770770772 	299.9999999999794 	0.9999999999996809 	101324.9999999974
-0.8245745745745746 	299.9999999999812 	0.9999999999992961 	101324.9999999972
-0.8220720720720721 	299.9999999999914 	0.9999999999992248 	101324.9999999972
-0.8195695695695699 	299.9999999999965 	0.9999999999991733 	101324.9999999973
-0.817067067067067 	299.9999999999922 	1.000000000002276 	101324.9999999974
-0.8145645645645651 	299.9999999999727 	0.9999999999968493 	101324.9999999977
-0.8120620620620621 	299.9999999999869 	0.9999999999960696 	101324.9999999975
-0.8095595595595597 	300.0000000000003 	0.9999999999979812 	101324.9999999972
-0.8070570570570572 	299.9999999999962 	0.9999999999984461 	101324.9999999974
-0.8045545545545546 	299.9999999999741 	0.9999999999990494 	101324.9999999973
-0.8020520520520523 	299.999999999991 	0.9999999999992883 	101324.9999999973
-0.7995495495495494 	300.0000000000039 	1.00000000000253 	101324.9999999971
-0.7970470470470474 	299.9999999999936 	0.9999999999978991 	101324.9999999973
-0.7945445445445446 	299.9999999999962 	0.9999999999994641 	101324.9999999976
-0.7920420420420423 	300.0000000000009 	0.9999999999989388 	101324.9999999975
-0.7895395395395397 	300.0000000000072 	1.000000000001069 	101324.9999999974
-0.7870370370370371 	299.9999999999972 	0.9999999999995237 	101324.9999999977
-0.7845345345345348 	299.9999999999958 	0.9999999999991656 	101324.9999999977
-0.7820320320320323 	300.0000000000001 	0.999999999999823 	101324.9999999976
-0.7795295295295296 	299.9999999999858 	1.000000000002841 	101324.9999999978
-0.7770270270270272 	299.9999999999818 	0.9999999999977744 	101324.9999999977
-0.7745245245245247 	299.9999999999798 	0.9999999999980217 	101324.9999999973
-0.7720220220220222 	299.9999999999858 	1.000000000000749 	101324.9999999972
-0.7695195195195199 	299.9999999999765 	1.000000000001312 	101324.9999999971
-0.767017017017017 	299.9999999999816 	1.000000000000933 	101324.9999999977
-0.7645145145145147 	299.9999999999943 	1.000000000000064 	101324.9999999977
-0.7620120120120122 	299.9999999999963 	0.9999999999985292 	101324.999999998
-0.7595095095095097 	299.9999999999879 	1.00000000000335 	101324.9999999982
-0.7570070070070072 	299.9999999999746 	0.9999999999956173 	101324.9999999985
-0.7545045045045048 	299.9999999999825 	0.9999999999991293 	101324.9999999985
-0.7520020020020022 	299.9999999999764 	0.9999999999967186 	101324.9999999982
-0.7494994994994997 	299.9999999999844 	0.9999999999989373 	101324.9999999978
-0.7469969969969972 	299.9999999999925 	0.9999999999983077 	101324.9999999976
-0.7444944944944945 	299.9999999999839 	0.9999999999980604 	101324.9999999979
-0.7419919919919924 	299.9999999999921 	0.9999999999981767 	101324.9999999981
-0.7394894894894897 	299.9999999999788 	0.9999999999972264 	101324.9999999978
-0.7369869869869872 	299.9999999999858 	0.9999999999976728 	101324.9999999974
-0.7344844844844846 	299.99999999999 	0.999999999998411 	101324.9999999975
-0.7319819819819822 	299.999999999999 	1.000000000002011 	101324.9999999971
-0.7294794794794797 	300.000000000004 	0.9999999999972969 	101324.9999999971
-0.7269769769769773 	300.0000000000038 	0.9999999999980295 	101324.9999999971
-0.7244744744744747 	299.9999999999994 	0.999999999999832 	101324.9999999975
-0.721971971971972 	299.9999999999896 	0.9999999999993403 	101324.9999999974
-0.7194694694694695 	299.9999999999897 	0.9999999999985645 	101324.9999999973
-0.7169669669669674 	299.9999999999806 	0.9999999999982415 	101324.9999999976
-0.7144644644644647 	299.999999999996 	0.999999999997883 	101324.9999999976
-0.711961961961962 	300.0000000000052 	0.9999999999972409 	101324.9999999976
-0.7094594594594597 	300.000000000003 	0.9999999999994218 	101324.9999999978
-0.7069569569569573 	299.9999999999961 	0.9999999999977027 	101324.9999999977
-0.7044544544544545 	299.9999999999993 	0.9999999999980567 	101324.9999999976
-0.7019519519519523 	300.0000000000024 	0.9999999999984697 	101324.9999999973
-0.6994494494494495 	299.9999999999872 	0.99999999999808 	101324.9999999975
-0.6969469469469471 	299.9999999999923 	0.9999999999979724 	101324.9999999974
-0.6944444444444446 	299.9999999999995 	0.9999999999984335 	101324.9999999976
-0.6919419419419421 	300.0000000000057 	0.9999999999991153 	101324.9999999979
-0.6894394394394396 	299.9999999999905 	0.9999999999993232 	101324.9999999979
-0.6869369369369374 	299.9999999999949 	0.9999999999986287 	101324.9999999982
-0.6844344344344344 	299.9999999999986 	0.999999999998139 	101324.9999999983
-0.6819319319319321 	299.9999999999819 	0.9999999999985877 	101324.9999999979
-0.6794294294294296 	299.9999999999855 	0.9999999999999146 	101324.9999999977
-0.6769269269269272 	299.9999999999791 	0.999999999999676 	101324.9999999972
-0.6744244244244245 	299.9999999999943 	0.9999999999987701 	101324.9999999973
-0.6719219219219222 	299.9999999999794 	0.9999999999984028 	101324.9999999975
-0.6694194194194195 	299.9999999999937 	0.9999999999987823 	101324.9999999974
-0.6669169169169172 	300.0000000000016 	0.9999999999991713 	101324.9999999975
-0.6644144144144146 	299.9999999999984 	0.9999999999989713 	101324.9999999973
-0.661911911911912 	299.9999999999982 	0.9999999999983462 	101324.9999999975
-0.6594094094094097 	299.9999999999878 	0.9999999999977669 	101324.9999999975
-0.656906906906907 	299.9999999999854 	0.9999999999980684 	101324.9999999973
-0.6544044044044046 	299.9999999999729 	0.9999999999984397 	101324.9999999978
-0.6519019019019021 	299.9999999999791 	0.9999999999978467 	101324.9999999977
-0.6493993993993996 	299.9999999999991 	0.999999999996815 	101324.999999998
-0.6468968968968971 	300.0000000000044 	1.000000000001046 	101324.9999999977
-0.6443943943943946 	300.000000000007 	0.9999999999962671 	101324.9999999974
-0.6418918918918921 	300.0000000000096 	0.9999999999975568 	101324.9999999971
-0.6393893893893897 	300.0000000000102 	0.9999999999997593 	101324.9999999971
-0.6368868868868871 	300.0000000000096 	0.9999999999999414 	101324.9999999975
-0.6343843843843846 	300.0000000000094 	0.9999999999996565 	101324.9999999983
-0.6318818818818821 	299.999999999993 	0.9999999999998037 	101324.9999999979
-0.6293793793793795 	299.9999999999969 	1.000000000000068 	101324.9999999969
-0.6268768768768773 	299.9999999999989 	1.000000000000238 	101324.9999999969
-0.6243743743743745 	299.9999999999854 	1.000000000001454 	101324.9999999969
-0.6218718718718721 	299.999999999992 	0.999999999998672 	101324.9999999974
-0.6193693693693696 	299.9999999999838 	0.9999999999999214 	101324.9999999975
-0.6168668668668671 	299.999999999996 	1.000000000000556 	101324.9999999974
-0.6143643643643645 	300 	1.000000000000539 	101324.9999999975
-0.6118618618618621 	300.0000000000069 	1.000000000001453 	101324.9999999975
-0.6093593593593596 	300.0000000000122 	1.000000000002128 	101324.9999999975
-0.6068568568568571 	299.9999999999923 	1.000000000001241 	101324.9999999975
-0.6043543543543546 	299.9999999999903 	0.9999999999998747 	101324.9999999975
-0.6018518518518521 	299.9999999999835 	0.9999999999998285 	101324.9999999977
-0.5993493493493496 	299.999999999993 	1.00000000000071 	101324.9999999979
-0.5968468468468471 	299.9999999999969 	1.000000000001165 	101324.9999999979
-0.5943443443443446 	299.9999999999962 	1.000000000001583 	101324.9999999973
-0.591841841841842 	299.9999999999793 	1.000000000002023 	101324.9999999971
-0.5893393393393397 	299.9999999999851 	1.000000000002188 	101324.999999997
-0.5868368368368371 	299.9999999999972 	1.000000000001611 	101324.9999999973
-0.5843343343343346 	300.0000000000085 	1.000000000004578 	101324.9999999974
-0.5818318318318321 	300.0000000000113 	0.9999999999976699 	101324.9999999972
-0.5793293293293297 	299.9999999999891 	0.9999999999971044 	101324.9999999974
-0.5768268268268271 	299.9999999999908 	0.9999999999981695 	101324.9999999975
-0.5743243243243245 	299.9999999999996 	0.9999999999990923 	101324.9999999977
-0.5718218218218221 	299.9999999999994 	0.9999999999997102 	101324.9999999976
-0.5693193193193196 	300.0000000000091 	1.000000000000144 	101324.9999999977
-0.5668168168168171 	300.0000000000048 	1.000000000000464 	101324.9999999976
-0.5643143143143147 	299.9999999999801 	1.000000000000567 	101324.9999999978
-0.5618118118118121 	299.9999999999985 	1.000000000002778 	101324.9999999981
-0.5593093093093094 	300.0000000000059 	0.9999999999998058 	101324.9999999979
-0.5568068068068072 	300.0000000000047 	1.000000000000547 	101324.9999999978
-0.5543043043043046 	300.0000000000047 	1.000000000001938 	101324.9999999979
-0.551801801801802 	299.9999999999827 	1.000000000001509 	101324.999999998
-0.5492992992992995 	299.9999999999957 	1.000000000000928 	101324.9999999985
-0.5467967967967969 	300.0000000000041 	1.000000000000974 	101324.9999999981
-0.5442942942942947 	300.0000000000073 	1.000000000001745 	101324.9999999978
-0.5417917917917919 	299.9999999999832 	1.000000000002553 	101324.9999999981
-0.5392892892892895 	299.9999999999814 	1.000000000002602 	101324.9999999982
-0.536786786786787 	299.9999999999827 	1.000000000002587 	101324.9999999982
-0.5342842842842846 	299.9999999999817 	1.000000000001684 	101324.9999999978
-0.531781781781782 	299.99999999997 	1.000000000000577 	101324.9999999978
-0.5292792792792794 	299.9999999999719 	1.000000000000554 	101324.9999999977
-0.526776776776777 	299.999999999979 	1.000000000000542 	101324.9999999978
-0.5242742742742745 	299.9999999999836 	1.000000000000158 	101324.9999999976
-0.521771771771772 	299.9999999999959 	1.000000000003782 	101324.9999999981
-0.5192692692692695 	299.9999999999932 	0.9999999999975288 	101324.9999999984
-0.516766766766767 	299.9999999999984 	1.000000000001098 	101324.9999999984
-0.5142642642642645 	299.9999999999814 	0.9999999999989678 	101324.9999999979
-0.511761761761762 	299.9999999999928 	1.000000000001679 	101324.9999999979
-0.5092592592592596 	300.0000000000049 	0.9999999999993827 	101324.999999998
-0.506756756756757 	299.9999999999916 	0.9999999999999243 	101324.9999999983
-0.5042542542542544 	300.0000000000055 	1.000000000000063 	101324.9999999986
-0.5017517517517521 	300.0000000000118 	1.000000000000354 	101324.9999999984
-0.4992492492492494 	300.0000000000064 	1.000000000000111 	101324.9999999984
-0.496746746746747 	300.0000000000019 	0.9999999999998657 	101324.9999999984
-0.4942442442442445 	299.9999999999803 	1.000000000000426 	101324.9999999985
-0.4917417417417421 	299.999999999981 	1.000000000001544 	101324.9999999984
-0.4892392392392395 	299.9999999999787 	1.000000000001653 	101324.999999998
-0.486736736736737 	299.9999999999887 	1.000000000000972 	101324.9999999975
-0.4842342342342345 	299.9999999999864 	1.000000000000267 	101324.9999999976
-0.481731731731732 	300.000000000007 	1.000000000000104 	101324.9999999976
-0.4792292292292296 	300.0000000000117 	0.9999999999993854 	101324.9999999976
-0.4767267267267268 	299.9999999999852 	1.000000000003247 	101324.9999999977
-0.4742242242242246 	299.9999999999919 	0.9999999999968905 	101324.9999999977
-0.471721721721722 	299.9999999999791 	0.9999999999984358 	101324.9999999983
-0.4692192192192195 	299.9999999999827 	1.000000000000171 	101324.9999999987
-0.4667167167167169 	299.9999999999794 	0.9999999999995948 	101324.9999999987
-0.4642142142142145 	300.0000000000022 	0.999999999999255 	101324.9999999981
-0.461711711711712 	300.0000000000048 	0.9999999999992932 	101324.9999999977
-0.4592092092092094 	299.9999999999969 	0.9999999999998831 	101324.9999999979
-0.456706706706707 	300.0000000000108 	1.000000000000792 	101324.9999999983
-0.4542042042042045 	299.9999999999918 	1.000000000000522 	101324.9999999985
-0.451701701701702 	299.9999999999935 	0.9999999999998099 	101324.9999999986
-0.4491991991991995 	299.9999999999827 	0.9999999999990868 	101324.9999999987
-0.4466966966966969 	299.9999999999818 	0.9999999999993427 	101324.999999999
-0.4441941941941945 	299.9999999999894 	0.9999999999993917 	101324.9999999987
-0.441691691691692 	299.9999999999777 	0.9999999999983465 	101324.9999999983
-0.4391891891891895 	299.9999999999927 	0.9999999999975749 	101324.9999999979
-0.436686686686687 	299.9999999999886 	1.000000000002042 	101324.9999999979
-0.4341841841841846 	299.9999999999894 	0.9999999999956501 	101324.9999999982
-0.431681681681682 	299.9999999999847 	0.9999999999972319 	101324.9999999985
-0.4291791791791794 	299.9999999999837 	0.999999999999107 	101324.9999999983
-0.426676676676677 	299.9999999999733 	0.9999999999997872 	101324.9999999981
-0.4241741741741744 	299.9999999999929 	0.9999999999991458 	101324.999999998
-0.421671671671672 	300.0000000000042 	0.9999999999977764 	101324.9999999982
-0.4191691691691694 	300.0000000000049 	0.999999999997411 	101324.9999999982
-0.4166666666666669 	300.0000000000097 	0.9999999999979572 	101324.9999999981
-0.4141641641641645 	299.9999999999856 	0.9999999999988052 	101324.999999998
-0.411661661661662 	299.9999999999946 	0.9999999999995595 	101324.9999999977
-0.4091591591591594 	299.999999999991 	0.9999999999998188 	101324.9999999974
-0.406656656656657 	299.999999999976 	0.9999999999990701 	101324.9999999976
-0.4041541541541545 	300.0000000000036 	0.999999999999222 	101324.9999999981
-0.401651651651652 	299.9999999999819 	0.9999999999994075 	101324.9999999981
-0.3991491491491494 	299.9999999999926 	0.9999999999989247 	101324.999999998
-0.396646646646647 	299.9999999999926 	1.000000000002424 	101324.9999999981
-0.3941441441441444 	300.0000000000021 	0.9999999999949858 	101324.9999999978
-0.3916416416416419 	299.9999999999911 	0.9999999999976683 	101324.9999999978
-0.3891391391391395 	299.9999999999974 	0.9999999999998861 	101324.9999999978
-0.3866366366366368 	299.9999999999988 	0.9999999999994197 	101324.9999999975
-0.3841341341341344 	299.9999999999992 	0.9999999999984511 	101324.9999999977
-0.381631631631632 	299.9999999999782 	0.9999999999982698 	101324.9999999977
-0.3791291291291294 	299.9999999999977 	0.9999999999984834 	101324.9999999976
-0.3766266266266269 	299.9999999999961 	0.9999999999984751 	101324.9999999979
-0.3741241241241244 	300.0000000000121 	0.9999999999992017 	101324.9999999976
-0.371621621621622 	299.9999999999989 	0.9999999999993846 	101324.9999999975
-0.3691191191191194 	300.0000000000064 	1.000000000003808 	101324.9999999978
-0.366616616616617 	300.000000000007 	0.9999999999958897 	101324.9999999979
-0.3641141141141143 	299.9999999999787 	0.9999999999972139 	101324.9999999982
-0.3616116116116119 	299.9999999999945 	0.9999999999983077 	101324.9999999983
-0.3591091091091095 	300.0000000000069 	0.9999999999993678 	101324.9999999984
-0.356606606606607 	299.9999999999888 	0.9999999999999181 	101324.9999999987
-0.3541041041041044 	300.0000000000002 	0.9999999999990706 	101324.9999999986
-0.3516016016016019 	300.000000000002 	0.9999999999982372 	101324.9999999984
-0.3490990990990994 	300.0000000000036 	0.9999999999979998 	101324.9999999976
-0.346596596596597 	300.0000000000082 	1.000000000000461 	101324.9999999974
-0.3440940940940944 	300.0000000000086 	0.9999999999967824 	101324.9999999975
-0.3415915915915919 	300.0000000000039 	0.9999999999978799 	101324.9999999977
-0.3390890890890895 	299.9999999999877 	0.9999999999993477 	101324.9999999978
-0.3365865865865869 	299.9999999999968 	1.000000000000013 	101324.9999999975
-0.3340840840840844 	299.999999999994 	1.000000000000365 	101324.9999999975
-0.3315815815815819 	300.0000000000091 	1.000000000000355 	101324.9999999972
-0.3290790790790794 	300.0000000000081 	1.000000000000619 	101324.9999999975
-0.3265765765765769 	299.9999999999833 	1.000000000000447 	101324.9999999977
-0.3240740740740744 	299.999999999994 	1.000000000000717 	101324.9999999979
-0.3215715715715718 	300.0000000000001 	1.000000000001017 	101324.9999999978
-0.3190690690690695 	299.999999999985 	1.000000000001657 	101324.9999999975
-0.3165665665665668 	299.9999999999948 	1.000000000001838 	101324.9999999976
-0.3140640640640644 	300.0000000000038 	1.000000000001378 	101324.9999999977
-0.311561561561562 	299.999999999986 	1.000000000001046 	101324.9999999975
-0.3090590590590593 	299.9999999999957 	1.000000000001177 	101324.9999999976
-0.3065565565565568 	300.0000000000048 	1.000000000005477 	101324.999999998
-0.3040540540540545 	299.9999999999933 	0.9999999999971495 	101324.9999999979
-0.3015515515515518 	300.0000000000006 	0.9999999999998043 	101324.9999999979
-0.2990490490490494 	299.9999999999892 	1.000000000001351 	101324.9999999976
-0.2965465465465469 	299.9999999999971 	1.000000000001444 	101324.9999999975
-0.2940440440440444 	300.0000000000067 	1.000000000001887 	101324.9999999972
-0.2915415415415418 	300.0000000000071 	1.000000000002008 	101324.9999999968
-0.2890390390390395 	299.9999999999966 	1.000000000001794 	101324.9999999975
-0.2865365365365368 	299.9999999999965 	1.000000000000866 	101324.9999999977
-0.2840340340340343 	299.9999999999968 	1.000000000003062 	101324.9999999978
-0.2815315315315318 	299.999999999994 	0.9999999999996119 	101324.9999999972
-0.2790290290290295 	299.9999999999803 	1.000000000000337 	101324.9999999975
-0.2765265265265269 	299.9999999999959 	1.000000000000235 	101324.9999999973
-0.2740240240240244 	300.0000000000148 	1.000000000000118 	101324.9999999972
-0.2715215215215219 	300.0000000000139 	1.000000000000877 	101324.9999999972
-0.2690190190190194 	299.999999999979 	1.000000000001821 	101324.9999999968
-0.2665165165165169 	299.9999999999948 	1.000000000002466 	101324.9999999973
-0.2640140140140144 	299.9999999999935 	1.000000000002234 	101324.9999999978
-0.2615115115115119 	300.0000000000059 	1.000000000004718 	101324.9999999979
-0.2590090090090094 	299.9999999999794 	1.000000000000403 	101324.9999999976
-0.2565065065065068 	299.9999999999926 	1.000000000000635 	101324.9999999977
-0.2540040040040044 	300.0000000000003 	1.000000000002045 	101324.9999999976
-0.2515015015015019 	300.000000000013 	1.00000000000344 	101324.9999999973
-0.2489989989989994 	300.0000000000094 	1.000000000003014 	101324.9999999968
-0.2464964964964968 	299.9999999999952 	1.000000000003134 	101324.9999999968
-0.2439939939939944 	300.0000000000016 	1.000000000005689 	101324.9999999974
-0.2414914914914919 	299.9999999999883 	1.000000000001077 	101324.9999999979
-0.2389889889889893 	299.9999999999932 	1.0000000000024 	101324.9999999973
-0.2364864864864869 	300.0000000000113 	1.000000000003175 	101324.999999997
-0.2339839839839843 	299.9999999999847 	1.000000000005964 	101324.9999999969
-0.2314814814814819 	299.9999999999959 	1.000000000002108 	101324.9999999969
-0.2289789789789792 	299.9999999999721 	1.000000000003859 	101324.9999999972
-0.2264764764764769 	299.9999999999853 	1.000000000004364 	101324.9999999976
-0.2239739739739743 	299.9999999999918 	1.000000000004022 	101324.9999999976
-0.2214714714714718 	299.999999999974 	1.000000000004041 	101324.9999999973
-0.2189689689689693 	299.9999999999894 	1.000000000003637 	101324.9999999975
-0.2164664664664669 	299.999999999999 	1.000000000005534 	101324.9999999969
-0.2139639639639643 	299.9999999999831 	1.000000000000908 	101324.9999999969
-0.2114614614614618 	299.9999999999928 	1.000000000001576 	101324.9999999971
-0.2089589589589593 	299.9999999999981 	1.000000000001797 	101324.9999999972
-0.2064564564564568 	299.9999999999964 	1.000000000002512 	101324.9999999973
-0.2039539539539543 	299.9999999999769 	1.000000000002987 	101324.9999999974
-0.2014514514514518 	299.9999999999812 	1.00000000000306 	101324.9999999975
-0.1989489489489494 	299.9999999999829 	1.000000000005361 	101324.9999999972
-0.1964464464464468 	299.9999999999945 	1.000000000000679 	101324.999999997
-0.1939439439439443 	299.9999999999961 	1.000000000002549 	101324.9999999974
-0.1914414414414418 	299.999999999978 	1.000000000003317 	101324.9999999979
-0.1889389389389393 	299.9999999999991 	1.000000000003189 	101324.9999999974
-0.1864364364364368 	300.0000000000067 	1.000000000002915 	101324.999999997
-0.1839339339339343 	299.9999999999996 	1.000000000002845 	101324.9999999971
-0.1814314314314318 	300.0000000000001 	1.000000000002374 	101324.9999999969
-0.1789289289289293 	299.9999999999783 	1.000000000002601 	101324.999999997
-0.1764264264264268 	299.9999999999843 	1.000000000002204 	101324.9999999969
-0.1739239239239243 	299.9999999999773 	1.000000000002624 	101324.999999997
-0.1714214214214218 	299.9999999999894 	1.000000000002901 	101324.9999999973
-0.1689189189189193 	299.9999999999784 	1.0000000000025 	101324.9999999971
-0.1664164164164168 	299.999999999997 	1.000000000002617 	101324.9999999971
-0.1639139139139143 	300.0000000000028 	1.000000000003405 	101324.9999999964
-0.1614114114114118 	300.000000000004 	1.000000000002787 	101324.9999999963
-0.1589089089089093 	299.999999999993 	1.000000000007684 	101324.9999999964
-0.1564064064064068 	299.9999999999937 	0.9999999999992143 	101324.9999999964
-0.1539039039039043 	299.9999999999957 	1.00000000000476 	101324.9999999964
-0.1514014014014018 	300.0000000000011 	1.000000000001527 	101324.9999999966
-0.1488988988988993 	300.0000000000002 	1.000000000005939 	101324.9999999972
-0.1463963963963968 	300.0000000000027 	1.000000000002498 	101324.9999999967
-0.1438938938938943 	299.9999999999852 	1.000000000003576 	101324.9999999962
-0.1413913913913918 	299.9999999999863 	1.000000000003769 	101324.9999999965
-0.1388888888888893 	299.9999999999886 	1.000000000003604 	101324.9999999965
-0.1363863863863868 	299.9999999999799 	1.000000000002859 	101324.9999999963
-0.1338838838838843 	299.9999999999716 	1.000000000003232 	101324.9999999969
-0.1313813813813818 	299.9999999999911 	1.000000000003125 	101324.9999999962
-0.1288788788788793 	299.9999999999763 	1.000000000002715 	101324.999999996
-0.1263763763763768 	299.9999999999885 	1.000000000002255 	101324.9999999961
-0.1238738738738743 	299.9999999999791 	1.000000000002266 	101324.9999999963
-0.1213713713713717 	299.9999999999905 	1.000000000003539 	101324.9999999963
-0.1188688688688693 	300.0000000000061 	1.000000000003969 	101324.9999999969
-0.1163663663663668 	299.9999999999717 	1.000000000003574 	101324.999999997
-0.1138638638638643 	299.9999999999908 	1.000000000005255 	101324.9999999966
-0.1113613613613618 	299.9999999999962 	1.000000000000808 	101324.9999999961
-0.1088588588588592 	299.9999999999948 	1.000000000005215 	101324.9999999959
-0.1063563563563568 	299.9999999999835 	1.00000000000122 	101324.999999996
-0.1038538538538543 	299.9999999999951 	1.000000000002561 	101324.9999999964
-0.1013513513513517 	300.0000000000069 	1.000000000003473 	101324.999999996
-0.09884884884884926 	299.9999999999861 	1.000000000003563 	101324.9999999967
-0.09634634634634676 	299.9999999999782 	1.000000000002825 	101324.9999999968
-0.09384384384384425 	299.9999999999653 	1.000000000002134 	101324.9999999967
-0.09134134134134177 	300.0000000000005 	1.000000000001822 	101324.999999996
-0.08883883883883925 	300.0000000000055 	1.00000000000242 	101324.9999999959
-0.08633633633633674 	299.9999999999776 	1.000000000002806 	101324.999999996
-0.08383383383383426 	299.9999999999958 	1.000000000003034 	101324.9999999955
-0.08133133133133173 	299.9999999999923 	1.000000000003322 	101324.9999999956
-0.07882882882882926 	299.9999999999756 	1.000000000001969 	101324.9999999962
-0.07632632632632676 	299.9999999999847 	1.000000000000944 	101324.999999996
-0.07382382382382424 	299.9999999999731 	1.000000000000999 	101324.9999999957
-0.07132132132132173 	299.999999999994 	1.000000000000926 	101324.9999999963
-0.06881881881881925 	299.9999999999811 	1.000000000001247 	101324.9999999962
-0.06631631631631671 	299.9999999999714 	1.000000000001388 	101324.9999999958
-0.06381381381381425 	299.9999999999853 	1.000000000001477 	101324.9999999964
-0.06131131131131173 	299.9999999999857 	1.000000000001415 	101324.9999999965
-0.05880880880880923 	299.9999999999865 	1.000000000000948 	101324.9999999964
-0.05630630630630672 	299.9999999999889 	1.000000000001155 	101324.9999999965
-0.05380380380380424 	300.0000000000085 	1.000000000002055 	101324.9999999968
-0.05130130130130173 	299.9999999999964 	1.000000000001395 	101324.9999999961
-0.04879879879879922 	299.9999999999685 	1.000000000000763 	101324.999999996
-0.04629629629629672 	299.9999999999737 	1.000000000000959 	101324.9999999954
-0.04379379379379422 	299.9999999999791 	1.000000000001574 	101324.9999999955
-0.04129129129129173 	299.9999999999776 	1.000000000001544 	101324.9999999961
-0.03878878878878922 	300.0000000000009 	1.00000000000035 	101324.9999999958
-0.03628628628628671 	299.9999999999848 	0.9999999999995932 	101324.9999999956
-0.03378378378378422 	299.9999999999762 	1.000000000000408 	101324.999999996
-0.03128128128128172 	299.9999999999858 	1.000000000000787 	101324.9999999958
-0.02877877877877922 	300.0000000000005 	1.000000000000531 	101324.9999999955
-0.0262762762762767 	299.9999999999659 	0.9999999999994315 	101324.9999999952
-0.02377377377377422 	299.9999999999935 	0.9999999999988513 	101324.9999999954
-0.0212712712712717 	299.9999999999618 	0.9999999999990284 	101324.9999999952
-0.01876876876876921 	299.9999999999921 	1.000000000000359 	101324.9999999961
-0.01626626626626671 	299.9999999999957 	1.000000000000901 	101324.9999999966
-0.0137637637637642 	299.9999999999807 	0.9999999999996528 	101324.9999999965
-0.0112612612612617 	299.9999999999948 	1.000000000000253 	101324.9999999959
-0.008758758758759198 	299.9999999999899 	1.000000000000642 	101324.9999999961
-0.006256256256256697 	299.9999999999818 	1.000000000000918 	101324.9999999958
-0.003753753753754195 	299.9999999999816 	1.00000000000024 	101324.9999999956
-0.001251251251251693 	299.9999999999735 	0.9999999999997147 	101324.9999999958
0.00125125125125081 	299.9999999999682 	1.000000000000259 	101324.9999999958
0.003753753753753312 	299.999999999977 	1.000000000000589 	101324.9999999957
0.006256256256255817 	299.9999999999752 	1.000000000000376 	101324.9999999958
0.008758758758758317 	299.9999999999814 	1.000000000000837 	101324.9999999957
0.01126126126126082 	299.9999999999889 	1.000000000001405 	101324.9999999959
0.01376376376376332 	299.9999999999824 	1.000000000000997 	101324.999999996
0.01626626626626582 	299.9999999999927 	0.9999999999995731 	101324.9999999963
0.01876876876876833 	299.9999999999878 	0.9999999999988264 	101324.9999999961
0.02127127127127083 	299.9999999999741 	0.999999999999836 	101324.999999996
0.02377377377377332 	299.9999999999876 	1.000000000000518 	101324.9999999959
0.02627627627627583 	299.9999999999684 	1.000000000000236 	101324.9999999958
0.02877877877877833 	299.9999999999895 	0.9999999999996617 	101324.9999999957
0.03128128128128083 	299.9999999999891 	0.9999999999989503 	101324.9999999957
0.03378378378378333 	299.9999999999707 	0.9999999999983753 	101324.9999999962
0.03628628628628584 	299.9999999999877 	0.9999999999991741 	101324.9999999961
0.03878878878878834 	300.0000000000036 	1.00000000000026 	101324.9999999957
0.04129129129129084 	299.9999999999763 	1.00000000000053 	101324.9999999962
0.04379379379379333 	299.9999999999876 	1.000000000000445 	101324.9999999966
0.04629629629629585 	299.9999999999804 	1.000000000000093 	101324.9999999966
0.04879879879879834 	299.9999999999701 	0.9999999999998034 	101324.9999999963
0.05130130130130085 	300.0000000000097 	0.99999999999911 	101324.9999999962
0.05380380380380335 	300.0000000000099 	0.9999999999982564 	101324.9999999958
0.05630630630630584 	299.9999999999813 	0.9999999999978868 	101324.9999999959
0.05880880880880836 	299.9999999999874 	0.999999999997358 	101324.9999999967
0.06131131131131085 	299.9999999999879 	0.9999999999980324 	101324.9999999965
0.06381381381381336 	299.9999999999943 	0.9999999999995708 	101324.9999999959
0.06631631631631586 	299.9999999999766 	0.999999999999431 	101324.9999999956
0.06881881881881835 	299.9999999999901 	0.9999999999983534 	101324.999999996
0.07132132132132088 	299.9999999999974 	0.9999999999974629 	101324.9999999961
0.07382382382382337 	299.9999999999756 	0.9999999999981548 	101324.9999999963
0.07632632632632587 	299.9999999999837 	0.9999999999984042 	101324.9999999966
0.07882882882882837 	299.9999999999877 	0.9999999999989374 	101324.9999999962
0.08133133133133086 	299.999999999986 	0.999999999998418 	101324.9999999959
0.08383383383383337 	299.9999999999948 	0.9999999999978632 	101324.9999999963
0.08633633633633589 	299.9999999999746 	0.9999999999973873 	101324.9999999962
0.08883883883883838 	299.9999999999925 	0.9999999999969639 	101324.9999999968
0.09134134134134086 	299.9999999999865 	0.9999999999969674 	101324.9999999965
0.09384384384384339 	299.9999999999646 	0.9999999999954355 	101324.9999999961
0.09634634634634588 	299.9999999999866 	0.999999999995102 	101324.9999999965
0.09884884884884838 	299.9999999999899 	0.9999999999963551 	101324.9999999967
0.1013513513513509 	300.0000000000016 	0.9999999999978673 	101324.9999999963
0.1038538538538534 	299.9999999999957 	0.999999999996958 	101324.9999999958
0.1063563563563559 	299.9999999999886 	0.9999999999969692 	101324.9999999958
0.1088588588588584 	300.0000000000117 	0.9999999999974917 	101324.9999999959
0.1113613613613609 	299.9999999999828 	0.9999999999970013 	101324.9999999967
0.1138638638638634 	299.9999999999747 	0.9999999999966728 	101324.9999999965
0.1163663663663659 	299.9999999999806 	0.9999999999970355 	101324.9999999964
0.1188688688688684 	299.9999999999915 	0.9999999999974136 	101324.9999999964
0.1213713713713709 	300.0000000000029 	0.9999999999968423 	101324.9999999964
0.1238738738738734 	299.9999999999826 	0.9999999999965778 	101324.9999999963
0.1263763763763759 	299.9999999999865 	0.9999999999966687 	101324.9999999958
0.1288788788788784 	299.9999999999899 	0.9999999999967548 	101324.9999999966
0.1313813813813809 	299.9999999999905 	0.9999999999965383 	101324.9999999972
0.1338838838838834 	299.9999999999958 	0.9999999999958408 	101324.9999999973
0.1363863863863859 	299.9999999999944 	0.9999999999958578 	101324.9999999972
0.1388888888888884 	300.0000000000097 	0.9999999999966486 	101324.9999999972
0.1413913913913909 	300.0000000000034 	0.9999999999978787 	101324.9999999973
0.1438938938938934 	300.0000000000015 	0.9999999999974198 	101324.9999999968
0.1463963963963959 	299.9999999999761 	0.9999999999957445 	101324.9999999967
0.1488988988988985 	299.9999999999823 	0.9999999999961914 	101324.9999999975
0.1514014014014009 	299.9999999999885 	0.9999999999964856 	101324.9999999971
0.1539039039039035 	299.999999999987 	0.9999999999967039 	101324.9999999967
0.1564064064064059 	299.9999999999783 	0.9999999999986308 	101324.9999999969
0.1589089089089084 	299.9999999999928 	0.9999999999937562 	101324.9999999974
0.1614114114114109 	299.9999999999927 	0.999999999996293 	101324.999999997
0.1639139139139134 	299.9999999999732 	0.9999999999962564 	101324.9999999964
0.166416416416416 	299.9999999999959 	0.9999999999965844 	101324.9999999965
0.1689189189189185 	300.0000000000069 	0.9999999999973835 	101324.9999999965
0.1714214214214209 	300.0000000000008 	0.9999999999972264 	101324.9999999969
0.1739239239239235 	299.9999999999872 	0.9999999999979896 	101324.9999999975
0.1764264264264259 	299.9999999999978 	0.9999999999978337 	101324.9999999977
0.1789289289289284 	300.0000000000005 	0.9999999999997 	101324.9999999973
0.181431431431431 	299.9999999999892 	0.9999999999954517 	101324.9999999972
0.1839339339339334 	299.99999999999 	0.9999999999968591 	101324.9999999975
0.186436436436436 	299.9999999999765 	0.999999999996794 	101324.9999999969
0.1889389389389385 	299.9999999999919 	0.9999999999965976 	101324.9999999975
0.191441441441441 	299.9999999999907 	0.9999999999963918 	101324.9999999973
0.1939439439439434 	299.9999999999823 	0.9999999999963269 	101324.9999999973
0.196446446446446 	299.9999999999777 	0.9999999999982853 	101324.9999999972
0.1989489489489485 	299.9999999999867 	0.9999999999941084 	101324.9999999972
0.2014514514514509 	299.9999999999929 	0.9999999999961204 	101324.9999999968
0.2039539539539535 	299.9999999999992 	0.999999999996448 	101324.9999999973
0.2064564564564559 	299.9999999999853 	0.9999999999958586 	101324.9999999976
0.2089589589589585 	299.9999999999938 	0.9999999999952892 	101324.9999999975
0.211461461461461 	299.9999999999803 	0.9999999999951955 	101324.999999997
0.2139639639639635 	299.9999999999933 	0.9999999999957432 	101324.999999997
0.2164664664664659 	299.9999999999987 	0.9999999999961116 	101324.9999999972
0.2189689689689684 	299.9999999999998 	0.9999999999981023 	101324.9999999972
0.221471471471471 	299.9999999999994 	0.9999999999941069 	101324.9999999975
0.2239739739739735 	299.9999999999873 	0.9999999999958766 	101324.9999999979
0.226476476476476 	299.9999999999915 	0.9999999999963034 	101324.9999999979
0.2289789789789785 	299.9999999999998 	0.9999999999966889 	101324.9999999978
0.231481481481481 	299.9999999999955 	0.9999999999980943 	101324.9999999977
0.2339839839839835 	299.9999999999926 	0.9999999999990353 	101324.9999999973
0.236486486486486 	300.0000000000068 	0.9999999999987221 	101324.9999999975
0.2389889889889885 	300.000000000002 	0.9999999999981464 	101324.9999999976
0.241491491491491 	299.9999999999785 	0.9999999999985043 	101324.9999999975
0.2439939939939935 	299.9999999999897 	0.999999999993041 	101324.9999999971
0.246496496496496 	300.0000000000017 	0.9999999999957062 	101324.9999999975
0.2489989989989985 	300.0000000000197 	0.999999999997798 	101324.9999999975
0.251501501501501 	300.0000000000173 	0.999999999997895 	101324.9999999977
0.2540040040040035 	300.0000000000034 	0.9999999999977595 	101324.9999999979
0.256506506506506 	300.0000000000094 	0.9999999999985157 	101324.9999999974
0.2590090090090086 	299.9999999999786 	0.9999999999995055 	101324.9999999978
0.261511511511511 	299.9999999999984 	0.999999999994737 	101324.9999999978
0.2640140140140135 	299.9999999999966 	0.9999999999970915 	101324.9999999978
0.2665165165165161 	299.9999999999825 	0.9999999999980367 	101324.9999999974
0.2690190190190185 	300.0000000000038 	0.9999999999983513 	101324.9999999972
0.271521521521521 	300.000000000014 	0.9999999999983971 	101324.9999999974
0.2740240240240235 	300.0000000000138 	0.9999999999988345 	101324.9999999974
0.276526526526526 	300.0000000000047 	0.9999999999993239 	101324.9999999977
0.2790290290290286 	299.9999999999843 	0.999999999998948 	101324.9999999983
0.281531531531531 	299.9999999999838 	0.9999999999999831 	101324.9999999982
0.2840340340340335 	299.9999999999845 	0.9999999999958757 	101324.9999999978
0.2865365365365361 	299.9999999999961 	0.9999999999980866 	101324.9999999975
0.2890390390390385 	300.00000000001 	0.9999999999983584 	101324.9999999977
0.291541541541541 	300.0000000000118 	0.9999999999986661 	101324.9999999983
0.2940440440440436 	300.0000000000105 	0.9999999999990075 	101324.9999999984
0.296546546546546 	300.0000000000043 	0.9999999999991008 	101324.999999998
0.2990490490490486 	299.9999999999902 	0.9999999999996425 	101324.9999999977
0.3015515515515511 	299.9999999999984 	1.000000000000107 	101324.9999999978
0.3040540540540535 	299.9999999999936 	1.000000000002848 	101324.999999998
0.3065565565565562 	299.9999999999999 	0.9999999999952681 	101324.9999999976
0.3090590590590585 	299.9999999999957 	0.999999999998568 	101324.9999999976
0.3115615615615611 	299.9999999999741 	0.9999999999992353 	101324.999999998
0.3140640640640635 	299.9999999999994 	0.9999999999995404 	101324.9999999984
0.316566566566566 	300.0000000000014 	0.9999999999999977 	101324.9999999983
0.3190690690690687 	299.9999999999753 	0.9999999999992446 	101324.9999999979
0.3215715715715711 	299.9999999999954 	0.9999999999993217 	101324.9999999978
0.3240740740740735 	299.9999999999938 	0.9999999999997866 	101324.9999999979
0.326576576576576 	299.999999999983 	0.9999999999999163 	101324.9999999975
0.3290790790790786 	300.0000000000109 	0.9999999999997446 	101324.9999999979
0.3315815815815811 	300.0000000000118 	0.9999999999996516 	101324.999999998
0.3340840840840836 	300.0000000000045 	0.999999999999981 	101324.9999999978
0.3365865865865861 	300.0000000000123 	1.000000000000187 	101324.9999999977
0.3390890890890886 	300.0000000000077 	1.000000000000443 	101324.9999999977
0.3415915915915911 	299.999999999995 	1.000000000001481 	101324.9999999981
0.3440940940940935 	299.9999999999797 	1.000000000002858 	101324.9999999981
0.3465965965965962 	300.000000000004 	0.9999999999992458 	101324.9999999978
0.3490990990990985 	300.000000000004 	1.000000000001154 	101324.9999999974
0.3516016016016011 	300.0000000000099 	1.000000000001728 	101324.9999999975
0.3541041041041035 	300.0000000000047 	1.000000000001776 	101324.9999999976
0.3566066066066061 	299.9999999999777 	1.000000000000834 	101324.9999999978
0.3591091091091085 	299.9999999999885 	1.000000000000076 	101324.9999999977
0.3616116116116112 	299.9999999999897 	1.000000000000915 	101324.9999999977
0.3641141141141137 	299.9999999999748 	1.00000000000224 	101324.9999999976
0.3666166166166161 	299.9999999999679 	1.000000000005307 	101324.9999999974
0.3691191191191185 	300.0000000000019 	0.9999999999972817 	101324.9999999977
0.371621621621621 	300.0000000000015 	1.000000000000347 	101324.9999999979
0.3741241241241237 	300.0000000000089 	1.000000000001468 	101324.9999999978
0.3766266266266261 	299.9999999999993 	1.000000000001821 	101324.9999999976
0.3791291291291286 	299.9999999999939 	1.000000000002404 	101324.9999999975
0.3816316316316311 	299.999999999989 	1.000000000002157 	101324.9999999974
0.3841341341341336 	300 	1.000000000001095 	101324.9999999975
0.3866366366366362 	299.9999999999939 	1.000000000001068 	101324.9999999977
0.3891391391391387 	299.9999999999838 	1.000000000001404 	101324.9999999975
0.391641641641641 	300.0000000000009 	1.000000000001189 	101324.9999999974
0.3941441441441436 	299.9999999999956 	1.000000000001153 	101324.9999999982
0.3966466466466462 	299.9999999999948 	1.000000000001171 	101324.9999999982
0.3991491491491486 	299.9999999999891 	1.00000000000085 	101324.9999999978
0.4016516516516512 	299.9999999999837 	1.000000000000953 	101324.9999999978
0.4041541541541536 	299.9999999999922 	1.000000000001148 	101324.9999999982
0.4066566566566561 	299.9999999999927 	1.000000000002597 	101324.9999999987
0.4091591591591587 	300.0000000000051 	0.9999999999993061 	101324.9999999987
0.4116616616616612 	300.0000000000059 	1.000000000001052 	101324.9999999983
0.4141641641641635 	300.0000000000135 	1.00000000000166 	101324.9999999982
0.4166666666666662 	300.0000000000051 	1.000000000001565 	101324.9999999979
0.4191691691691687 	299.9999999999795 	1.000000000001904 	101324.9999999977
0.421671671671671 	299.9999999999974 	1.000000000002227 	101324.9999999977
0.4241741741741737 	299.9999999999873 	1.000000000002652 	101324.9999999979
0.4266766766766761 	299.9999999999823 	1.00000000000363 	101324.9999999979
0.4291791791791785 	299.9999999999982 	1.000000000005254 	101324.9999999978
0.4316816816816812 	299.999999999996 	0.9999999999966618 	101324.9999999979
0.4341841841841836 	300.0000000000024 	1.000000000000085 	101324.9999999978
0.4366866866866862 	299.9999999999898 	1.000000000001589 	101324.9999999979
0.4391891891891885 	300.0000000000032 	1.000000000001773 	101324.9999999979
0.4416916916916913 	300.0000000000052 	1.000000000001777 	101324.9999999981
0.4441941941941936 	299.9999999999967 	1.000000000002197 	101324.9999999982
0.4466966966966961 	299.9999999999715 	1.000000000002164 	101324.9999999984
0.4491991991991987 	299.9999999999977 	1.000000000001816 	101324.9999999979
0.4517017017017012 	299.9999999999873 	1.000000000002079 	101324.9999999976
0.4542042042042035 	300.000000000002 	1.000000000001892 	101324.9999999974
0.4567067067067062 	300.000000000001 	1.000000000001191 	101324.9999999974
0.4592092092092087 	299.9999999999718 	1.000000000001077 	101324.9999999977
0.4617117117117112 	299.9999999999936 	1.00000000000173 	101324.9999999979
0.4642142142142137 	299.9999999999849 	1.000000000002131 	101324.9999999977
0.4667167167167162 	299.9999999999985 	1.000000000001893 	101324.9999999976
0.4692192192192187 	299.9999999999827 	1.000000000001323 	101324.9999999976
0.4717217217217212 	300.0000000000001 	1.000000000001865 	101324.9999999977
0.4742242242242236 	299.9999999999861 	1.00000000000236 	101324.9999999977
0.4767267267267262 	299.9999999999858 	1.000000000001865 	101324.9999999976
0.4792292292292287 	300.0000000000023 	1.000000000001345 	101324.9999999979
0.4817317317317312 	300.0000000000041 	1.000000000001527 	101324.9999999976
0.4842342342342336 	300.0000000000038 	1.000000000001348 	101324.9999999979
0.4867367367367362 	300.0000000000005 	1.000000000000897 	101324.9999999981
0.4892392392392387 	300.0000000000011 	1.000000000000516 	101324.9999999981
0.4917417417417412 	300.0000000000129 	1.00000000000163 	101324.9999999984
0.4942442442442437 	299.9999999999912 	1.000000000002945 	101324.9999999985
0.4967467467467462 	299.9999999999747 	1.000000000003514 	101324.9999999978
0.4992492492492487 	299.9999999999686 	0.9999999999990244 	101324.9999999975
0.5017517517517511 	299.9999999999786 	1.000000000000489 	101324.9999999972
0.5042542542542537 	300.000000000001 	1.000000000001272 	101324.9999999972
0.5067567567567562 	299.9999999999947 	1.000000000000896 	101324.9999999972
0.5092592592592589 	299.9999999999857 	1.00000000000094 	101324.9999999974
0.5117617617617611 	299.9999999999986 	1.00000000000173 	101324.9999999972
0.5142642642642637 	300.0000000000053 	1.000000000002712 	101324.9999999974
0.5167667667667663 	299.9999999999994 	1.000000000004274 	101324.9999999976
0.5192692692692688 	299.9999999999746 	1.000000000005869 	101324.9999999978
0.5217717717717714 	299.9999999999941 	0.9999999999982305 	101324.9999999981
0.5242742742742736 	299.9999999999917 	1.000000000001372 	101324.9999999979
0.5267767767767763 	299.9999999999824 	1.000000000001785 	101324.9999999973
0.5292792792792789 	299.9999999999855 	1.00000000000129 	101324.9999999971
0.5317817817817813 	299.999999999978 	1.000000000000565 	101324.9999999972
0.5342842842842837 	299.9999999999934 	0.9999999999994529 	101324.9999999977
0.5367867867867864 	299.9999999999915 	0.999999999999478 	101324.999999998
0.5392892892892888 	299.9999999999771 	0.9999999999997434 	101324.9999999981
0.5417917917917912 	299.9999999999869 	0.9999999999995789 	101324.9999999976
0.5442942942942938 	299.9999999999832 	0.99999999999967 	101324.9999999975
0.5467967967967964 	299.999999999991 	0.9999999999999871 	101324.9999999973
0.5492992992992988 	299.9999999999902 	1.000000000000514 	101324.999999997
0.5518018018018012 	299.9999999999867 	1.000000000001035 	101324.9999999972
0.5543043043043039 	299.9999999999961 	1.000000000001016 	101324.9999999973
0.5568068068068063 	299.9999999999911 	1.000000000001356 	101324.9999999973
0.5593093093093087 	299.9999999999761 	1.000000000002045 	101324.999999997
0.5618118118118114 	299.9999999999769 	0.9999999999983755 	101324.9999999969
0.5643143143143137 	299.9999999999751 	0.9999999999997492 	101324.9999999974
0.5668168168168163 	299.9999999999951 	1.000000000000235 	101324.9999999973
0.5693193193193188 	299.9999999999998 	0.9999999999997806 	101324.9999999973
0.5718218218218213 	300.0000000000051 	0.9999999999996826 	101324.9999999971
0.5743243243243239 	300.0000000000063 	1.000000000000134 	101324.9999999976
0.5768268268268262 	299.999999999999 	0.9999999999999831 	101324.9999999975
0.5793293293293288 	299.999999999985 	1.000000000001305 	101324.9999999974
0.5818318318318314 	299.9999999999849 	1.000000000003715 	101324.9999999974
0.5843343343343338 	300.0000000000051 	0.9999999999973783 	101324.9999999972
0.5868368368368363 	299.999999999998 	0.9999999999995877 	101324.9999999971
0.5893393393393387 	299.9999999999754 	0.9999999999994794 	101324.999999997
0.5918418418418413 	299.9999999999907 	0.9999999999996357 	101324.9999999969
0.5943443443443439 	299.9999999999966 	0.999999999999893 	101324.9999999968
0.5968468468468463 	300.0000000000012 	0.9999999999998059 	101324.9999999965
0.5993493493493487 	300.0000000000122 	0.9999999999998498 	101324.9999999963
0.6018518518518514 	300.0000000000088 	1.000000000000292 	101324.9999999966
0.6043543543543537 	300.0000000000067 	1.000000000000873 	101324.9999999972
0.6068568568568564 	300.0000000000005 	1.000000000001208 	101324.9999999978
0.6093593593593587 	299.9999999999737 	1.000000000000896 	101324.9999999976
0.6118618618618614 	299.9999999999858 	1.000000000000988 	101324.9999999974
0.6143643643643638 	300.000000000002 	1.000000000001495 	101324.9999999968
0.6168668668668662 	300.0000000000009 	1.000000000001889 	101324.9999999963
0.6193693693693688 	299.9999999999961 	1.000000000002018 	101324.9999999962
0.6218718718718714 	300.0000000000012 	1.000000000002521 	101324.9999999966
0.6243743743743737 	299.9999999999959 	0.9999999999997031 	101324.9999999969
0.6268768768768762 	299.9999999999907 	1.000000000001035 	101324.9999999971
0.629379379379379 	299.9999999999973 	1.000000000001004 	101324.9999999972
0.6318818818818812 	300.0000000000019 	1.00000000000025 	101324.999999997
0.6343843843843838 	300.0000000000056 	0.9999999999997491 	101324.9999999967
0.6368868868868864 	300.0000000000015 	0.9999999999998634 	101324.999999997
0.6393893893893888 	299.9999999999817 	1.000000000000194 	101324.9999999972
0.6418918918918912 	299.9999999999915 	1.000000000002323 	101324.999999997
0.6443943943943939 	299.9999999999878 	1.000000000004193 	101324.9999999971
0.6468968968968963 	299.9999999999941 	0.9999999999979344 	101324.9999999971
0.6493993993993988 	299.9999999999915 	1.000000000000769 	101324.9999999971
0.6519019019019012 	300.000000000003 	1.000000000001041 	101324.999999997
0.6544044044044038 	299.9999999999848 	1.00000000000067 	101324.9999999974
0.6569069069069065 	299.99999999998 	1.000000000000627 	101324.9999999975
0.6594094094094087 	299.9999999999926 	1.00000000000051 	101324.9999999976
0.6619119119119113 	300.0000000000035 	1.000000000001108 	101324.9999999977
0.664414414414414 	300.0000000000028 	1.000000000001088 	101324.9999999971
0.6669169169169162 	299.9999999999948 	1.000000000000787 	101324.9999999969
0.6694194194194188 	299.9999999999898 	1.000000000000105 	101324.9999999967
0.6719219219219214 	299.9999999999823 	0.99999999999922 	101324.9999999968
0.674424424424424 	299.9999999999928 	0.9999999999992478 	101324.9999999966
0.6769269269269262 	299.999999999985 	1.000000000000195 	101324.9999999966
0.679429429429429 	300.000000000004 	1.000000000000783 	101324.9999999968
0.6819319319319311 	300.0000000000099 	1.000000000001626 	101324.9999999967
0.6844344344344341 	300.0000000000104 	1.000000000002182 	101324.999999997
0.686936936936936 	300.0000000000101 	0.9999999999991743 	101324.9999999971
0.6894394394394392 	300.0000000000098 	1.00000000000072 	101324.9999999972
0.6919419419419413 	300.0000000000034 	1.000000000001178 	101324.9999999971
0.694444444444444 	299.999999999982 	1.000000000000693 	101324.999999997
0.6969469469469463 	299.9999999999744 	0.9999999999999124 	101324.999999997
0.6994494494494489 	299.999999999984 	0.9999999999993272 	101324.9999999971
0.7019519519519515 	299.9999999999879 	0.9999999999994803 	101324.999999997
0.7044544544544538 	299.9999999999823 	1.000000000001431 	101324.999999997
0.7069569569569564 	300.0000000000027 	1.000000000002736 	101324.9999999971
0.7094594594594589 	299.9999999999926 	0.9999999999968799 	101324.999999997
0.7119619619619615 	299.9999999999857 	0.9999999999999281 	101324.9999999969
0.7144644644644638 	299.9999999999964 	1.000000000000181 	101324.9999999969
0.7169669669669665 	299.9999999999889 	0.9999999999998986 	101324.9999999973
0.7194694694694688 	300.0000000000077 	1.000000000000435 	101324.999999997
0.7219719719719715 	300.0000000000034 	1.000000000000814 	101324.9999999969
0.7244744744744737 	299.9999999999974 	1.000000000000801 	101324.999999997
0.7269769769769764 	300.0000000000039 	1.000000000002394 	101324.9999999969
0.7294794794794791 	300.0000000000025 	1.000000000004205 	101324.9999999969
0.7319819819819813 	299.9999999999903 	0.9999999999992657 	101324.9999999971
0.7344844844844839 	299.9999999999694 	1.000000000002458 	101324.999999997
0.7369869869869864 	299.9999999999805 	1.000000000002627 	101324.9999999966
0.739489489489489 	299.9999999999916 	1.000000000001672 	101324.9999999967
0.7419919919919914 	299.9999999999849 	1.000000000001449 	101324.9999999969
0.7444944944944939 	299.9999999999845 	1.0000000000019 	101324.9999999971
0.7469969969969963 	299.9999999999941 	1.000000000002561 	101324.9999999969
0.7494994994994989 	299.9999999999766 	1.000000000001432 	101324.9999999966
0.7520020020020015 	299.9999999999837 	1.000000000003244 	101324.9999999968
0.7545045045045039 	299.9999999999847 	0.9999999999976553 	101324.999999997
0.7570070070070062 	299.9999999999852 	1.000000000000908 	101324.9999999968
0.7595095095095092 	299.9999999999876 	1.000000000001647 	101324.9999999967
0.7620120120120112 	299.9999999999945 	1.00000000000124 	101324.9999999967
0.7645145145145138 	299.9999999999924 	1.00000000000099 	101324.9999999965
0.7670170170170165 	299.9999999999811 	1.000000000002133 	101324.9999999967
0.7695195195195191 	299.9999999999753 	1.000000000002358 	101324.999999997
0.7720220220220213 	299.9999999999835 	0.9999999999960618 	101324.999999997
0.7745245245245239 	299.9999999999762 	0.9999999999983085 	101324.999999997
0.7770270270270263 	299.9999999999808 	0.9999999999993304 	101324.9999999972
0.779529529529529 	299.999999999989 	0.9999999999994474 	101324.9999999973
0.7820320320320313 	299.9999999999843 	0.9999999999997217 	101324.9999999973
0.784534534534534 	299.9999999999999 	1.000000000000182 	101324.9999999971
0.7870370370370364 	299.9999999999933 	0.9999999999999699 	101324.9999999969
0.7895395395395389 	299.9999999999883 	0.9999999999996654 	101324.9999999969
0.7920420420420413 	299.9999999999982 	0.9999999999992588 	101324.999999997
0.794544544544544 	299.9999999999948 	1.000000000000857 	101324.9999999972
0.7970470470470463 	300.0000000000034 	1.000000000001612 	101324.9999999973
0.799549549549549 	300.0000000000032 	0.999999999996902 	101324.9999999968
0.8020520520520515 	299.9999999999926 	0.9999999999993165 	101324.9999999969
0.8045545545545539 	299.999999999977 	0.9999999999988907 	101324.999999997
0.8070570570570563 	299.9999999999874 	0.9999999999987268 	101324.999999997
0.8095595595595589 	299.9999999999845 	0.9999999999988201 	101324.999999997
0.8120620620620614 	299.9999999999923 	0.9999999999991049 	101324.9999999967
0.8145645645645638 	300.0000000000048 	0.9999999999998587 	101324.9999999963
0.8170670670670666 	300.0000000000123 	1.000000000001812 	101324.9999999959
0.8195695695695689 	299.9999999999998 	1.000000000001749 	101324.9999999963
0.8220720720720714 	299.9999999999765 	0.9999999999960816 	101324.9999999966
0.8245745745745739 	299.9999999999902 	0.99999999999945 	101324.9999999968
0.8270770770770765 	299.9999999999919 	1.000000000001157 	101324.9999999967
0.8295795795795788 	299.9999999999937 	1.000000000000906 	101324.9999999964
0.8320820820820815 	300.0000000000057 	1.000000000000498 	101324.9999999967
0.834584584584584 	300.0000000000009 	1.000000000001231 	101324.9999999967
0.8370870870870865 	299.9999999999823 	1.000000000001323 	101324.9999999969
0.8395895895895891 	299.9999999999764 	0.9999999999986872 	101324.999999997
0.8420920920920915 	299.9999999999953 	0.9999999999999674 	101324.9999999971
0.844594594594594 	299.999999999989 	1.000000000000135 	101324.9999999969
0.8470970970970964 	299.9999999999836 	0.9999999999995124 	101324.9999999966
0.8495995995995991 	300.0000000000048 	0.9999999999996304 	101324.9999999965
0.8521021021021015 	299.9999999999975 	1.000000000000271 	101324.9999999964
0.8546046046046039 	299.9999999999878 	1.000000000000009 	101324.9999999963
0.8571071071071066 	299.9999999999985 	1.000000000001074 	101324.9999999965
0.8596096096096089 	299.9999999999959 	1.000000000000694 	101324.9999999965
0.8621121121121116 	299.9999999999905 	0.9999999999957996 	101324.9999999965
0.8646146146146139 	300.0000000000061 	0.999999999999336 	101324.9999999967
0.8671171171171166 	299.9999999999958 	1.000000000000196 	101324.9999999967
0.8696196196196189 	299.9999999999792 	0.9999999999997728 	101324.9999999966
0.8721221221221216 	299.9999999999935 	0.9999999999995568 	101324.9999999965
0.874624624624624 	300.0000000000043 	0.9999999999992093 	101324.9999999968
0.8771271271271264 	299.999999999998 	0.9999999999990612 	101324.9999999972
0.879629629629629 	299.9999999999936 	1.000000000001219 	101324.999999997
0.8821321321321317 	299.9999999999942 	1.000000000001221 	101324.9999999968
0.8846346346346339 	299.9999999999852 	0.9999999999957586 	101324.9999999972
0.8871371371371364 	299.9999999999869 	0.9999999999981579 	101324.9999999976
0.8896396396396391 	299.9999999999852 	0.9999999999983624 	101324.9999999976
0.8921421421421414 	299.999999999986 	0.9999999999987348 	101324.9999999972
0.8946446446446441 	299.9999999999935 	0.9999999999995649 	101324.9999999968
0.8971471471471464 	299.9999999999972 	1.00000000000073 	101324.9999999967
0.8996496496496489 	300.0000000000012 	1.000000000000398 	101324.9999999968
0.9021521521521517 	299.9999999999977 	0.9999999999978817 	101324.9999999967
0.9046546546546541 	299.9999999999942 	0.9999999999993798 	101324.9999999967
0.9071571571571564 	299.999999999986 	0.9999999999997364 	101324.9999999969
0.9096596596596589 	299.9999999999811 	0.9999999999994316 	101324.9999999973
0.9121621621621616 	299.9999999999952 	0.9999999999988345 	101324.9999999973
0.9146646646646639 	299.9999999999876 	0.9999999999983716 	101324.9999999972
0.9171671671671666 	299.9999999999787 	0.9999999999982537 	101324.9999999973
0.9196696696696689 	299.9999999999918 	1.00000000000032 	101324.9999999971
0.9221721721721714 	299.9999999999901 	1.000000000000143 	101324.999999997
0.9246746746746741 	299.9999999999791 	0.9999999999960522 	101324.9999999973
0.9271771771771765 	299.9999999999883 	0.9999999999995103 	101324.9999999973
0.9296796796796791 	299.9999999999906 	0.9999999999993164 	101324.9999999969
0.9321821821821816 	299.9999999999877 	0.9999999999981796 	101324.999999997
0.9346846846846838 	299.9999999999885 	0.9999999999976249 	101324.9999999972
0.9371871871871866 	300.0000000000042 	0.9999999999979406 	101324.9999999973
0.9396896896896891 	300.0000000000014 	0.999999999998771 	101324.9999999973
0.9421921921921914 	299.9999999999987 	1.000000000000711 	101324.9999999972
0.9446946946946939 	299.9999999999991 	0.9999999999999261 	101324.9999999974
0.9471971971971965 	299.9999999999889 	0.9999999999954942 	101324.9999999974
0.9496996996996991 	299.9999999999886 	0.9999999999980504 	101324.9999999973
0.9522022022022016 	299.9999999999982 	0.9999999999981506 	101324.999999997
0.9547047047047038 	300.0000000000027 	0.9999999999982541 	101324.9999999968
0.9572072072072064 	299.9999999999952 	0.999999999998588 	101324.9999999972
0.9597097097097093 	299.9999999999872 	0.9999999999999633 	101324.9999999975
0.9622122122122114 	299.9999999999851 	0.999999999999848 	101324.9999999974
0.964714714714714 	299.9999999999792 	0.999999999997331 	101324.9999999973
0.9672172172172167 	299.99999999998 	0.9999999999983504 	101324.9999999973
0.969719719719719 	299.9999999999915 	0.9999999999980923 	101324.9999999971
0.9722222222222214 	299.999999999991 	0.999999999998191 	101324.9999999973
0.9747247247247239 	299.9999999999906 	0.9999999999989995 	101324.9999999978
0.9772272272272267 	299.9999999999994 	0.9999999999999373 	101324.9999999978
0.9797297297297292 	299.999999999993 	1.000000000000184 	101324.9999999977
0.9822322322322313 	299.9999999999922 	1.000000000001587 	101324.9999999977
0.9847347347347344 	299.9999999999897 	1.000000000000302 	101324.9999999975
0.9872372372372363 	299.9999999999758 	0.9999999999961214 	101324.9999999969
0.9897397397397389 	299.9999999999803 	0.9999999999989038 	101324.9999999971
0.9922422422422417 	299.9999999999823 	0.9999999999993261 	101324.9999999975
0.9947447447447441 	299.9999999999943 	0.9999999999993735 	101324.9999999975
0.9972472472472468 	299.9999999999949 	0.9999999999995498 	101324.9999999971
0.999749749749749 	299.9999999999917 	0.9999999999990896 	101324.9999999972
1.002252252252252 	299.9999999999933 	0.9999999999988106 	101324.9999999971
1.004754754754754 	300.0000000000024 	1.000000000000699 	101324.9999999971
1.007257257257256 	299.9999999999992 	0.9999999999999121 	101324.9999999973
1.009759759759759 	299.9999999999948 	0.9999999999959925 	101324.9999999974
1.012262262262261 	299.9999999999952 	0.9999999999987799 	101324.9999999975
1.014764764764764 	299.9999999999867 	0.9999999999989426 	101324.9999999975
1.017267267267267 	299.9999999999812 	0.9999999999982907 	101324.9999999975
1.019769769769769 	299.9999999999943 	0.9999999999981004 	101324.9999999977
1.022272272272272 	300.0000000000006 	0.9999999999997577 	101324.9999999977
1.024774774774774 	300.0000000000002 	1.000000000000404 	101324.9999999977
1.027277277277277 	299.9999999999982 	0.9999999999985136 	101324.9999999979
1.029779779779779 	300.000000000004 	0.9999999999993336 	101324.9999999976
1.032282282282282 	300.0000000000037 	0.9999999999993314 	101324.9999999974
1.034784784784784 	300.0000000000038 	0.9999999999990898 	101324.9999999974
1.037287287287286 	299.9999999999998 	0.9999999999985527 	101324.9999999976
1.039789789789789 	299.9999999999975 	0.9999999999983412 	101324.9999999974
1.042292292292291 	300.0000000000061 	0.99999999999849 	101324.9999999975
1.044794794794794 	300.0000000000138 	1.00000000000125 	101324.9999999976
1.047297297297296 	300.0000000000128 	1.000000000001116 	101324.9999999973
1.049799799799799 	300.0000000000039 	0.9999999999977254 	101324.9999999973
1.052302302302302 	299.999999999994 	1.000000000000301 	101324.9999999975
1.054804804804804 	299.9999999999864 	1.000000000000388 	101324.9999999976
1.057307307307306 	299.9999999999813 	0.9999999999996193 	101324.9999999975
1.059809809809809 	299.9999999999911 	0.999999999999305 	101324.9999999974
1.062312312312312 	299.9999999999956 	0.9999999999995101 	101324.9999999974
1.064814814814814 	299.9999999999942 	0.9999999999993391 	101324.9999999974
1.067317317317317 	299.9999999999856 	1.000000000001384 	101324.9999999973
1.069819819819819 	299.9999999999855 	1.00000000000034 	101324.9999999972
1.072322322322321 	300.0000000000021 	0.9999999999966241 	101324.9999999973
1.074824824824824 	300.0000000000088 	0.9999999999993353 	101324.9999999972
1.077327327327327 	300.0000000000107 	0.9999999999998462 	101324.9999999972
1.079829829829829 	300.0000000000114 	0.9999999999996201 	101324.9999999972
1.082332332332332 	300.0000000000005 	0.999999999999319 	101324.9999999974
1.084834834834834 	299.9999999999891 	1.000000000002085 	101324.9999999974
1.087337337337337 	299.9999999999808 	1.000000000001886 	101324.9999999974
1.089839839839839 	299.9999999999761 	0.9999999999986378 	101324.9999999972
1.092342342342342 	299.9999999999851 	1.000000000001164 	101324.9999999973
1.094844844844844 	299.9999999999835 	1.000000000002781 	101324.9999999973
1.097347347347347 	299.9999999999773 	1.000000000000488 	101324.9999999972
1.099849849849849 	299.9999999999714 	0.9999999999970626 	101324.9999999972
1.102352352352352 	299.9999999999864 	0.9999999999997395 	101324.9999999969
1.104854854854854 	299.9999999999987 	1.000000000000294 	101324.9999999965
1.107357357357357 	299.9999999999896 	1.000000000000596 	101324.9999999964
1.109859859859859 	299.9999999999876 	1.000000000000495 	101324.9999999965
1.112362362362362 	300.0000000000023 	1.000000000002367 	101324.9999999968
1.114864864864865 	300.000000000003 	1.000000000001288 	101324.999999997
1.117367367367367 	299.9999999999879 	0.9999999999985854 	101324.9999999971
1.119869869869869 	299.9999999999776 	1.000000000001428 	101324.9999999973
1.122372372372372 	299.9999999999912 	1.000000000001116 	101324.9999999973
1.124874874874874 	299.9999999999918 	0.9999999999999605 	101324.9999999969
1.127377377377377 	299.9999999999884 	0.9999999999999716 	101324.9999999964
1.129879879879879 	299.9999999999964 	1.000000000000443 	101324.9999999964
1.132382382382382 	300.0000000000105 	1.000000000000754 	101324.9999999965
1.134884884884884 	300.0000000000047 	1.000000000003275 	101324.9999999966
1.137387387387387 	300.0000000000009 	1.000000000001792 	101324.9999999969
1.139889889889889 	299.9999999999873 	0.9999999999987157 	101324.999999997
1.142392392392392 	299.9999999999815 	1.000000000001292 	101324.999999997
1.144894894894894 	300.0000000000015 	1.000000000001687 	101324.9999999971
1.147397397397397 	300.0000000000038 	1.000000000001991 	101324.9999999971
1.149899899899899 	299.9999999999902 	1.000000000002196 	101324.9999999967
1.152402402402402 	299.9999999999841 	1.000000000001639 	101324.9999999965
1.154904904904904 	299.9999999999936 	1.00000000000052 	101324.9999999967
1.157407407407407 	299.9999999999939 	1.000000000002582 	101324.9999999967
1.159909909909909 	299.9999999999806 	1.000000000001578 	101324.9999999965
1.162412412412412 	299.9999999999747 	0.9999999999984166 	101324.9999999964
1.164914914914914 	299.999999999989 	1.000000000000358 	101324.9999999964
1.167417417417417 	299.9999999999919 	1.000000000000882 	101324.9999999964
1.169919919919919 	300.0000000000008 	1.000000000001861 	101324.9999999965
1.172422422422422 	300.0000000000111 	1.00000000000277 	101324.9999999967
1.174924924924925 	300.0000000000032 	1.000000000004984 	101324.9999999967
1.177427427427427 	299.999999999994 	1.000000000002598 	101324.9999999965
1.179929929929929 	300.0000000000022 	0.9999999999991824 	101324.9999999964
1.182432432432432 	300.0000000000121 	1.000000000001951 	101324.9999999965
1.184934934934934 	300.0000000000058 	1.000000000002773 	101324.9999999965
1.187437437437437 	299.9999999999972 	1.00000000000273 	101324.9999999965
1.189939939939939 	299.9999999999911 	1.000000000002521 	101324.9999999963
1.192442442442442 	299.9999999999807 	1.000000000002383 	101324.9999999964
1.194944944944944 	299.9999999999825 	1.000000000002422 	101324.9999999963
1.197447447447447 	299.9999999999993 	1.000000000005314 	101324.9999999962
1.199949949949949 	300.0000000000055 	1.000000000003949 	101324.9999999965
1.202452452452452 	299.9999999999894 	1.000000000000917 	101324.9999999968
1.204954954954955 	299.9999999999843 	1.000000000003276 	101324.9999999965
1.207457457457457 	299.9999999999931 	1.000000000003741 	101324.9999999962
1.20995995995996 	299.9999999999935 	1.000000000003755 	101324.9999999963
1.212462462462462 	299.9999999999932 	1.000000000003842 	101324.9999999962
1.214964964964964 	299.9999999999915 	1.000000000004134 	101324.9999999965
1.217467467467467 	299.999999999997 	1.000000000004469 	101324.9999999965
1.219969969969969 	299.999999999991 	1.000000000007044 	101324.9999999965
1.222472472472472 	299.9999999999961 	1.000000000005327 	101324.9999999964
1.224974974974975 	300.0000000000058 	1.000000000002909 	101324.9999999964
1.227477477477477 	299.9999999999962 	1.000000000005182 	101324.9999999964
1.229979979979979 	299.9999999999932 	1.000000000004949 	101324.9999999963
1.232482482482482 	299.999999999984 	1.000000000004559 	101324.9999999962
1.234984984984984 	299.9999999999806 	1.000000000004751 	101324.999999996
1.237487487487487 	299.999999999989 	1.000000000007799 	101324.9999999961
1.239989989989989 	299.9999999999933 	1.0000000000061 	101324.9999999964
1.242492492492492 	300.0000000000011 	1.000000000003274 	101324.9999999962
1.244994994994994 	299.9999999999961 	1.000000000005269 	101324.9999999958
1.247497497497497 	299.9999999999977 	1.000000000005254 	101324.9999999957
1.249999999999999 	299.9999999999441 	1.000000000005193 	101324.9999999957
