-1.25 	300 	0 	101282.7836037249
-1.247497497497497 	299.9723207337059 	0.5129826256129429 	101295.3738876918
-1.244994994994995 	299.9646239531098 	0.670187598822609 	101283.7273412471
-1.242492492492492 	299.9746977062911 	0.8127532020784582 	101295.3677073175
-1.23998998998999 	299.965838418448 	0.941786756327428 	101285.292645381
-1.237487487487487 	299.9746892220622 	1.056041802439097 	101295.6188585183
-1.234984984984985 	299.9677916159124 	1.154426591091178 	101287.8403378365
-1.232482482482482 	299.975210896901 	1.240010087783471 	101296.4854715229
-1.22997997997998 	299.9697241343939 	1.307536577481887 	101290.3314031225
-1.227477477477477 	299.975240761895 	1.359998340370948 	101296.7096468423
-1.224974974974975 	299.9710359338998 	1.378372146604536 	101291.9817397879
-1.222472472472472 	299.9738824905101 	1.368294305940022 	101295.1300394165
-1.21996996996997 	299.9725840800934 	1.337742764104575 	101293.7311925912
-1.217467467467467 	299.9749090075563 	1.303943914410501 	101296.2596080643
-1.214964964964965 	299.9739487801693 	1.261435507265717 	101295.2124980486
-1.212462462462462 	299.9756667728846 	1.221130300049317 	101297.0472017169
-1.20995995995996 	299.9747601234916 	1.171546158735669 	101296.0302413622
-1.207457457457457 	299.9759924422037 	1.128344310595346 	101297.3161292644
-1.204954954954955 	299.9751360539655 	1.075405963143133 	101296.3369483961
-1.202452452452452 	299.9764066382031 	1.030481980763367 	101297.6919850885
-1.19994994994995 	299.9758915687767 	0.9767921371713143 	101297.1020098778
-1.197447447447447 	299.9774016597366 	0.9313684852646109 	101298.7625726991
-1.194944944944945 	299.9770555665411 	0.878816061579446 	101298.3633810459
-1.192442442442442 	299.9790129407904 	0.8337659738645873 	101300.5731035402
-1.18993993993994 	299.9787187580413 	0.7825284302569394 	101300.2289856294
-1.187437437437437 	299.9803635097447 	0.7387953350420848 	101302.0879847687
-1.184934934934935 	299.9800469215954 	0.6872027285963929 	101301.7111587774
-1.182432432432432 	299.9809906232596 	0.646337725812548 	101302.7590418794
-1.17992992992993 	299.9805900681982 	0.5955348630112118 	101302.2796235441
-1.177427427427427 	299.9812383169402 	0.557142119791461 	101302.9927236094
-1.174924924924925 	299.9809947899892 	0.5086727063944825 	101302.6981202438
-1.172422422422422 	299.9817673367301 	0.4736560551594483 	101303.5706550013
-1.16991991991992 	299.9817149304581 	0.4295549720301537 	101303.5028334538
-1.167417417417417 	299.9830251020408 	0.3972651026824533 	101305.0205174521
-1.164914914914915 	299.9832128351476 	0.3578135713822597 	101305.2380921312
-1.162412412412412 	299.9845838860504 	0.3281610910208276 	101306.8352447473
-1.15990990990991 	299.9847827882529 	0.2915330806927059 	101307.0667453405
-1.157407407407407 	299.9856833138754 	0.2655295179651566 	101308.1140384391
-1.154904904904904 	299.9859003172524 	0.2319134730075227 	101308.3681258781
-1.152402402402403 	299.9865739587246 	0.2097967851716093 	101309.1520408072
-1.1498998998999 	299.9868713038093 	0.1795683250043334 	101309.5021809691
-1.147397397397397 	299.9872430831864 	0.1612625569685919 	101309.9330150944
-1.144894894894895 	299.9874768882125 	0.1347006234799811 	101310.2089972806
-1.142392392392392 	299.9877655847962 	0.1203907963334006 	101310.5443200688
-1.13988988988989 	299.9881489606142 	0.09760838492882187 	101310.997691016
-1.137387387387387 	299.9885098097946 	0.08702296485710037 	101311.4203238043
-1.134884884884885 	299.988946060178 	0.06838901912877096 	101311.9366378743
-1.132382382382382 	299.9893821973399 	0.06035052119743528 	101312.4495733986
-1.12987987987988 	299.9899146343324 	0.04528221528884233 	101313.0796399833
-1.127377377377377 	299.9904100202688 	0.04012213678493465 	101313.6635826278
-1.124874874874875 	299.9910034257209 	0.02829664354016829 	101314.3656903506
-1.122372372372372 	299.9915484502024 	0.02492356552498997 	101315.0089416048
-1.11986986986987 	299.9921548915294 	0.02348317298676561 	101315.726375924
-1.117367367367367 	299.9926777346467 	0.02044884303905709 	101316.3438247011
-1.114864864864865 	299.9932723758563 	0.0201236561622542 	101317.0470940944
-1.112362362362362 	299.9938236945469 	0.01736127349961531 	101317.6984999369
-1.10985985985986 	299.9943865794745 	0.01670272899336569 	101318.3640566315
-1.107357357357357 	299.994882060954 	0.01450452126268907 	101318.9496548981
-1.104854854854855 	299.9953794665785 	0.01365600388385503 	101319.5377394057
-1.102352352352353 	299.9958630226321 	0.01178968922140879 	101320.1093172963
-1.09984984984985 	299.9963546354084 	0.01072827518684011 	101320.6905117033
-1.097347347347347 	299.9968171406526 	0.009142198588024337 	101321.2372551555
-1.094844844844845 	299.9972795048358 	0.007883162827613525 	101321.7838469711
-1.092342342342342 	299.9978024463074 	0.006343490022974045 	101322.4020439004
-1.08983983983984 	299.9983873530774 	0.004673692066649613 	101323.0935015741
-1.087337337337337 	299.998974904533 	0.002968412791075663 	101323.7880931984
-1.084834834834835 	299.9995326402433 	0.001361204547939522 	101324.4474426724
-1.082332332332332 	300.0000608499015 	0.0007589142171223831 	101325.0718893448
-1.07982982982983 	300.0005726984396 	0.001654060300409798 	101325.6769949878
-1.077327327327327 	300.0010886423319 	0.003149339466177384 	101326.2869439369
-1.074824824824825 	300.0016112013569 	0.004657670303908285 	101326.9047163713
-1.072322322322323 	300.002127897876 	0.006155551966417943 	101327.5155610835
-1.06981981981982 	300.0026414778155 	0.007649514341416065 	101328.1227231887
-1.067317317317317 	300.0031667003098 	0.009170687806672176 	101328.7436516271
-1.064814814814815 	300.0037024790933 	0.01071551474859794 	101329.3770636452
-1.062312312312312 	300.0042308829604 	0.0122431532668395 	101330.0017598895
-1.05980980980981 	300.0047443257338 	0.01373619931480672 	101330.6087700852
-1.057307307307307 	300.0052568920718 	0.01522717267676277 	101331.2147452025
-1.054804804804805 	300.0057838650663 	0.01675196296886548 	101331.8377549972
-1.052302302302302 	300.0063206767134 	0.01829982538352435 	101332.4724012754
-1.0497997997998 	300.0068489799127 	0.01982649484346546 	101333.0969934452
-1.047297297297297 	300.0073591402989 	0.02130820820995588 	101333.7001394568
-1.044794794794795 	300.0078609064919 	0.02276865441670738 	101334.2933632907
-1.042292292292292 	300.0083719217484 	0.02425173720856862 	101334.8975233005
-1.03978978978979 	300.008899231746 	0.02577560018768021 	101335.5209502172
-1.037287287287287 	300.009433252682 	0.02731634705880905 	101336.1523141039
-1.034784784784785 	300.0099576538985 	0.02883212552708656 	101336.7723071663
-1.032282282282283 	300.0104635810742 	0.03029953833338143 	101337.3704605863
-1.02977977977978 	300.0109556368637 	0.0317298211668937 	101337.9522156743
-1.027277277277277 	300.0114464894411 	0.03315568740022174 	101338.5325503493
-1.024774774774775 	300.0119464456902 	0.03460438447842456 	101339.1236515414
-1.022272272272272 	300.0124565086958 	0.03607903648392667 	101339.7267056263
-1.01976976976977 	300.0129688620916 	0.03755929566128333 	101340.3324712317
-1.017267267267267 	300.0134729236398 	0.03901710813762912 	101340.9284362293
-1.014764764764765 	300.0139622788662 	0.04043527356927853 	101341.5070154835
-1.012262262262262 	300.0144383781883 	0.0418175466050105 	101342.069923474
-1.00975975975976 	300.0149093518675 	0.04318563178230659 	101342.6267729009
-1.007257257257257 	300.0153850941844 	0.04456608630924594 	101343.1892624442
-1.004754754754755 	300.0158716589899 	0.04597527581396522 	101343.7645506796
-1.002252252252252 	300.0163681255531 	0.04741085089552009 	101344.3515491569
-0.9997497497497498 	300.0168674258145 	0.04885380379976586 	101344.9419008564
-0.9972472472472473 	300.0173602473325 	0.05027883602954644 	101345.5245949241
-0.9947447447447449 	300.0178395213046 	0.05166645730083947 	101346.09127273
-0.9922422422422421 	300.018303086749 	0.05301036757349302 	101346.6393787927
-0.9897397397397399 	300.0187536188013 	0.05431755178253227 	101347.172075957
-0.9872372372372376 	300.0191966068415 	0.05560300494205064 	101347.6958549019
-0.9847347347347346 	300.0196379158377 	0.05688307889247142 	101348.2176507582
-0.9822322322322323 	300.0200820350261 	0.05817047532936202 	101348.7427716023
-0.9797297297297296 	300.0205312239038 	0.05947164738111334 	101349.2738893051
-0.9772272272272275 	300.0209852453284 	0.06078593158710584 	101349.8107235379
-0.9747247247247248 	300.0214414383911 	0.06210578064934139 	101350.3501277244
-0.9722222222222224 	300.0218951789892 	0.06341816124380377 	101350.8866344469
-0.9697197197197196 	300.0223408794134 	0.06470743337118384 	101351.4136364722
-0.9672172172172175 	300.0227734780038 	0.06595953721551159 	101351.9251485837
-0.9647147147147147 	300.0231900703428 	0.06716651846832006 	101352.4177365218
-0.9622122122122124 	300.0235911399671 	0.06832989474478064 	101352.8919714123
-0.9597097097097099 	300.0239808575882 	0.06946140931530603 	101353.3527845564
-0.9572072072072073 	300.0243661483594 	0.07058036225147257 	101353.8083643708
-0.9547047047047047 	300.0247546235696 	0.07170782547653545 	101354.2677103746
-0.9522022022022023 	300.0251519386426 	0.07285932685660693 	101354.7375103551
-0.9496996996996998 	300.0255594853768 	0.07403850566046906 	101355.2194100297
-0.9471971971971973 	300.0259733430887 	0.0752342884556494 	101355.7087738315
-0.9446946946946947 	300.0263850653116 	0.07642314743141679 	101356.1956148739
-0.9421921921921923 	300.0267842436409 	0.07757625039738457 	101356.6676253846
-0.93968968968969 	300.0271620866919 	0.07866936246774595 	101357.1144100521
-0.9371871871871872 	300.0275147356133 	0.07969193930580523 	101357.5314056835
-0.9346846846846848 	300.0278449455768 	0.08065167740325974 	101357.9218694578
-0.9321821821821823 	300.028161293299 	0.08157228798830245 	101358.2959425375
-0.9296796796796799 	300.0284751184237 	0.08248511819763063 	101358.6670330014
-0.9271771771771771 	300.0287964944231 	0.08341815230534061 	101359.047052412
-0.9246746746746748 	300.0291310124254 	0.08438718371464746 	101359.442612372
-0.9221721721721724 	300.0294786789462 	0.08539266664299658 	101359.8537205978
-0.9196696696696698 	300.029835058229 	0.0864226511035989 	101360.2751326427
-0.9171671671671672 	300.0301936686374 	0.0874591950772582 	101360.6991843903
-0.9146646646646649 	300.0305482293944 	0.08848452373933292 	101361.1184489483
-0.9121621621621623 	300.0308938186606 	0.08948437416993896 	101361.5271067354
-0.9096596596596597 	300.0312268969938 	0.09044830098205284 	101361.9209720615
-0.9071571571571573 	300.0315448217337 	0.09136854228770161 	101362.2969197569
-0.9046546546546547 	300.0318455741817 	0.09223934912492381 	101362.6525625445
-0.9021521521521524 	300.0321280232548 	0.09305768389248575 	101362.9865624824
-0.8996496496496498 	300.0323925600321 	0.09382489995886971 	101363.2993816443
-0.8971471471471473 	300.0326416798184 	0.09454827605591633 	101363.5939702342
-0.894644644644645 	300.0328800999873 	0.09524126712153912 	101363.8759064492
-0.892142142142142 	300.0331141689421 	0.09592178429021295 	101364.1526973346
-0.8896396396396397 	300.0333505548649 	0.096608495978246 	101364.4322279441
-0.8871371371371374 	300.0335944920463 	0.09731595737579375 	101364.7206884732
-0.8846346346346349 	300.0338481496584 	0.09805013703214971 	101365.0206442804
-0.8821321321321324 	300.034109798811 	0.09880617955882245 	101365.330051208
-0.8796296296296297 	300.0343742372036 	0.09956961084248458 	101365.6427578574
-0.8771271271271271 	300.0346343987269 	0.1003207661033701 	101365.9504080539
-0.8746246246246248 	300.034883523661 	0.1010407619765057 	101366.2450080233
-0.8721221221221224 	300.0351170428696 	0.1017167137836713 	101366.5211544065
-0.8696196196196196 	300.0353335302539 	0.1023444284322082 	101366.7771601831
-0.8671171171171175 	300.0355345442524 	0.1029280455782259 	101367.0148681501
-0.8646146146146148 	300.0357236186852 	0.1034772829988448 	101367.2384571917
-0.8621121121121121 	300.0359048574535 	0.1040035266394293 	101367.4527804142
-0.8596096096096097 	300.0360815729813 	0.1045160197422015 	101367.661755366
-0.857107107107107 	300.0362553319834 	0.1050192001390134 	101367.8672348062
-0.8546046046046049 	300.036425686615 	0.1055119715779414 	101368.0686889859
-0.8521021021021022 	300.0365907215152 	0.1059892408461812 	101368.2638524846
-0.8495995995995997 	300.0367482816548 	0.1064453051111566 	101368.4501764038
-0.8470970970970974 	300.0368974195702 	0.1068777900872239 	101368.626540366
-0.8445945945945946 	300.0370393787301 	0.1072902739155198 	101368.7944147083
-0.8420920920920922 	300.0371775197327 	0.1076920247084774 	101368.9577740954
-0.8395895895895897 	300.0373160609139 	0.1080945257183776 	101369.1216075745
-0.8370870870870872 	300.0374580994539 	0.1085060672922827 	101369.289577427
-0.8345845845845846 	300.0376037857572 	0.1089267889559529 	101369.4618613675
-0.8320820820820823 	300.03774953367 	0.1093465595677457 	101369.6342181351
-0.8295795795795798 	300.037888718417 	0.109746919607461 	101369.7988132981
-0.8270770770770772 	300.0380136503878 	0.1101065126213291 	101369.9465537969
-0.8245745745745746 	300.038118057024 	0.1104079244111798 	101370.0700221488
-0.8220720720720721 	300.0381991280304 	0.1106433442620999 	101370.1658955169
-0.8195695695695699 	300.0382584076834 	0.1108170565341952 	101370.2359999742
-0.817067067067067 	300.0383012858649 	0.1109440705719413 	101370.286708887
-0.8145645645645651 	300.03833536644 	0.1110456298601594 	101370.3270136054
-0.8120620620620621 	300.0383683445663 	0.1111433146983239 	101370.366013169
-0.8095595595595597 	300.038406073534 	0.1112536293825991 	101370.4106297619
-0.8070570570570572 	300.0384513274686 	0.1113845024892319 	101370.4641446143
-0.8045545545545546 	300.0385034978453 	0.1115343884135781 	101370.5258384518
-0.8020520520520523 	300.0385591761795 	0.1116938423638795 	101370.5916813344
-0.7995495495495494 	300.0386133166925 	0.1118487264316487 	101370.655706506
-0.7970470470470474 	300.0386605452638 	0.1119838691233059 	101370.7115589328
-0.7945445445445446 	300.0386962480585 	0.1120861427559295 	101370.7537822921
-0.7920420420420423 	300.0387172278129 	0.112146350763282 	101370.7785945648
-0.7895395395395397 	300.0387218941088 	0.1121598317373421 	101370.7841135227
-0.7870370370370371 	300.0387101268597 	0.1121261585285244 	101370.7701984451
-0.7845345345345348 	300.0386830457186 	0.1120484937354913 	101370.7381744914
-0.7820320320320323 	300.0386427669912 	0.1119328376195529 	101370.6905430598
-0.7795295295295296 	300.0385920442832 	0.1117869670866806 	101370.6305607881
-0.7770270270270272 	300.0385337288087 	0.111618917201558 	101370.5615993945
-0.7745245245245247 	300.0384701771336 	0.1114353852807017 	101370.4864452875
-0.7720220220220222 	300.0384029147283 	0.1112408358715253 	101370.4069026603
-0.7695195195195199 	300.0383327535293 	0.1110377874454529 	101370.3239322082
-0.767017017017017 	300.0382602197951 	0.1108278872046832 	101370.2381562982
-0.7645145145145147 	300.0381858633789 	0.1106126560821728 	101370.1502249813
-0.7620120120120122 	300.0381100588259 	0.110392919194179 	101370.0605809295
-0.7595095095095097 	300.0380323256107 	0.1101670495497352 	101369.968656164
-0.7570070070070072 	300.0379507277225 	0.1099295050472872 	101369.8721617397
-0.7545045045045048 	300.0378620725343 	0.1096714971901825 	101369.7673224027
-0.7520020020020022 	300.037763139375 	0.1093843148504738 	101369.6503290901
-0.7494994994994997 	300.0376523118345 	0.1090636179440498 	101369.5192691413
-0.7469969969969972 	300.0375304724732 	0.1087117314602431 	101369.3751860688
-0.7444944944944945 	300.0374003794964 	0.1083359390196328 	101369.2213424815
-0.7419919919919924 	300.0372647942 	0.1079435202049383 	101369.0610049401
-0.7394894894894897 	300.0371245815435 	0.1075367480696318 	101368.8951969141
-0.7369869869869872 	300.0369781029683 	0.107111310296056 	101368.7219799459
-0.7344844844844846 	300.0368223790393 	0.1066594226176912 	101368.5378295301
-0.7319819819819822 	300.0366553417812 	0.1061758277197539 	101368.3402991981
-0.7294794794794797 	300.0364777739596 	0.1056629321129672 	101368.1303150215
-0.7269769769769773 	300.0362936562179 	0.1051316568873303 	101367.9125851907
-0.7244744744744747 	300.036108525355 	0.1045969821619262 	101367.6936582874
-0.721971971971972 	300.0359266504411 	0.1040703732634108 	101367.4785830167
-0.7194694694694695 	300.03574863515 	0.1035533689841237 	101367.268072844
-0.7169669669669674 	300.0355708562917 	0.1030360536795837 	101367.0578428952
-0.7144644644644647 	300.0353870073596 	0.1025011565659809 	101366.8404350536
-0.711961961961962 	300.0351907793211 	0.1019313000129593 	101366.6083886735
-0.7094594594594597 	300.0349782942104 	0.1013157154531491 	101366.3571180016
-0.7069569569569573 	300.0347493683897 	0.1006538146267678 	101366.0864056951
-0.7044544544544545 	300.0345073499256 	0.09995476464506055 	101365.800210913
-0.7019519519519523 	300.0342576728421 	0.09923346684749432 	101365.5049598538
-0.6994494494494495 	300.0340056069197 	0.09850440413512485 	101365.206884665
-0.6969469469469471 	300.033754176605 	0.09777605471755241 	101364.9095621913
-0.6944444444444446 	300.0335034004436 	0.0970488421092517 	101364.613014535
-0.6919419419419421 	300.0332512517398 	0.09631757361418505 	101364.3148445284
-0.6894394394394396 	300.0329954447412 	0.09557606414009767 	101364.0123487648
-0.6869369369369374 	300.0327346042516 	0.09482029800967771 	101363.7039003598
-0.6844344344344344 	300.0324682263173 	0.09404859824445033 	101363.3889037439
-0.6819319319319321 	300.0321961428003 	0.09326044482473933 	101363.0671610068
-0.6794294294294296 	300.0319184187358 	0.09245614098760631 	101362.7387498134
-0.6769269269269272 	300.0316355968821 	0.09163717101383159 	101362.4043124458
-0.6744244244244245 	300.0313484326426 	0.09080533461235785 	101362.064741832
-0.6719219219219222 	300.0310569016315 	0.08996028559099846 	101361.7200085635
-0.6694194194194195 	300.0307595299491 	0.08909804073184679 	101361.3683688553
-0.6669169169169172 	300.0304541663365 	0.08821306289854104 	101361.0072785462
-0.6644144144144146 	300.0301397703645 	0.08730271470556815 	101360.6355076558
-0.661911911911912 	300.0298173540305 	0.08636948036320956 	101360.2542534431
-0.6594094094094097 	300.029488808573 	0.0854179525375747 	101359.8657532647
-0.656906906906907 	300.0291546286563 	0.08444920583467802 	101359.4705927316
-0.6544044044044046 	300.0288130176376 	0.08345871991614562 	101359.0666470766
-0.6519019019019021 	300.0284616789377 	0.08244099209719523 	101358.6511998249
-0.6493993993993996 	300.0281007848059 	0.08139696322222682 	101358.2244535402
-0.6468968968968971 	300.0277340916817 	0.08033666028175902 	101357.7908494813
-0.6443943943943946 	300.0273666949732 	0.07927334115182597 	101357.3564129976
-0.6418918918918921 	300.0270011151115 	0.07821347808912589 	101356.924125186
-0.6393893893893897 	300.0266351421548 	0.07715127384769446 	101356.4913740648
-0.6368868868868871 	300.0262634165459 	0.07607275170167821 	101356.0518230347
-0.6343843843843846 	300.0258814819709 	0.07496623333062447 	101355.6002029174
-0.6318818818818821 	300.0254890191902 	0.07383078770331966 	101355.136136252
-0.6293793793793795 	300.0250898524375 	0.07267639998422512 	101354.6641445679
-0.6268768768768773 	300.0246891016522 	0.07151668354787348 	101354.1902811707
-0.6243743743743745 	300.0242899912832 	0.07036046600011212 	101353.7183408072
-0.6218718718718721 	300.023892515514 	0.06920819572850097 	101353.2483479568
-0.6193693693693696 	300.0234944681777 	0.06805420541856375 	101352.7777064489
-0.6168668668668671 	300.0230932864495 	0.06689139583177389 	101352.3033484563
-0.6143643643643645 	300.0226871073069 	0.06571439958875061 	101351.8230763256
-0.6118618618618621 	300.0222749008833 	0.06452015488394251 	101351.3356789845
-0.6093593593593596 	300.0218562675922 	0.06330758136568454 	101350.8406841239
-0.6068568568568571 	300.0214316322056 	0.0620780959081428 	101350.3385940384
-0.6043543543543546 	300.0210026964765 	0.06083660011998158 	101349.8314207893
-0.6018518518518521 	300.0205723217555 	0.05959093694312889 	101349.3225475336
-0.5993493493493496 	300.0201433312321 	0.05834861934795932 	101348.8153126697
-0.5968468468468471 	300.0197167598783 	0.05711225385195533 	101348.3109400306
-0.5943443443443446 	300.0192908442034 	0.05587699993430011 	101347.8073447808
-0.591841841841842 	300.0188617535193 	0.05463261222226389 	101347.2999977865
-0.5893393393393397 	300.0184258512605 	0.05336945827987873 	101346.7845990764
-0.5868368368368371 	300.0179820761438 	0.05208479031929755 	101346.2598935718
-0.5843343343343346 	300.0175327918683 	0.05078493865246362 	101345.7286759853
-0.5818318318318321 	300.0170824062928 	0.04948161206089786 	101345.196158004
-0.5793293293293297 	300.0166345616188 	0.04818443925086038 	101344.6666462515
-0.5768268268268271 	300.0161896946167 	0.04689450313085276 	101344.1406572055
-0.5743243243243245 	300.0157445622311 	0.04560310268544442 	101343.6143566496
-0.5718218218218221 	300.0152940942255 	0.0442967160877433 	101343.0817498449
-0.5693193193193196 	300.0148344979619 	0.04296530842438501 	101342.5383522698
-0.5668168168168171 	300.0143657853542 	0.04160908955079632 	101341.9841779651
-0.5643143143143147 	300.01389222523 	0.04023970185021204 	101341.4242737667
-0.5618118118118121 	300.0134204044498 	0.0388749871702888 	101340.8664274183
-0.5593093093093094 	300.0129559196893 	0.03753006288857736 	101340.3172564751
-0.5568068068068072 	300.0125004505601 	0.03620940310620787 	101339.7787470838
-0.5543043043043046 	300.0120507133807 	0.03490398830383702 	101339.2470171227
-0.551801801801802 	300.0115997907714 	0.03359491022677398 	101338.7138882929
-0.5492992992992995 	300.0111401803982 	0.03226168961136923 	101338.1704902013
-0.5467967967967969 	300.0106671727898 	0.03089152606633321 	101337.6112547862
-0.5442942942942947 	300.0101811036653 	0.02948547558838827 	101337.0365786864
-0.5417917917917919 	300.009687555533 	0.02805901177335302 	101336.4530618959
-0.5392892892892895 	300.009195465835 	0.02663684313731438 	101335.8712709079
-0.536786786786787 	300.0087139474992 	0.02524417843647402 	101335.3019798386
-0.5342842842842846 	300.0082490851304 	0.02389787898690048 	101334.7523827602
-0.531781781781782 	300.0078018614038 	0.02260067044573041 	101334.2236416931
-0.5292792792792794 	300.0073678184506 	0.02134013094138808 	101333.7104864022
-0.526776776776777 	300.0069383948586 	0.02009234616338878 	101333.2027951681
-0.5242742742742745 	300.0065033645467 	0.01882869281242335 	101332.6884779348
-0.521771771771772 	300.0060535972049 	0.01752358377778992 	101332.1567403397
-0.5192692692692695 	300.0055834206405 	0.01616113300463884 	101331.6008763537
-0.516766766766767 	300.0050920776632 	0.01473928605095748 	101331.0199903081
-0.5142642642642645 	300.0045840421466 	0.01327073766047272 	101330.4193715362
-0.511761761761762 	300.0040682338066 	0.01178073800252359 	101329.8095649318
-0.5092592592592596 	300.0035563953239 	0.01030254982638851 	101329.2044530471
-0.506756756756757 	300.0030610707824 	0.008871833966326993 	101328.6188658413
-0.5042542542542544 	300.0025937658552 	0.007521503506038047 	101328.0664052676
-0.5017517517517521 	300.0021637222728 	0.006278144696605196 	101327.5579970389
-0.4992492492492494 	300.0017773098487 	0.005160189946320345 	101327.1011714267
-0.496746746746747 	300.001437911096 	0.004177533285602675 	101326.6999270365
-0.4942442442442445 	300.0011461700409 	0.003332203635517089 	101326.3550249485
-0.4917417417417421 	300.0009004700243 	0.002619708396488131 	101326.0645536419
-0.4892392392392395 	300.0006975166884 	0.00203069211010885 	101325.8246183516
-0.486736736736737 	300.0005329284683 	0.001552627276439633 	101325.6300390681
-0.4842342342342345 	300.000401767294 	0.00117134153806442 	101325.4749779147
-0.481731731731732 	300.0002989720927 	0.0008722700121303183 	101325.3534513019
-0.4792292292292296 	300.0002196800161 	0.0006413904170048055 	101325.2597106573
-0.4767267267267268 	300.0001594418117 	0.0004658494262632048 	101325.1884959199
-0.4742242242242246 	300.0001143425755 	0.0003343193910109314 	101325.1351785857
-0.471721721721722 	300.0000810480342 	0.0002371404212873375 	101325.0958170971
-0.4692192192192195 	300.0000567983311 	0.0001663054305044818 	101325.0671485081
-0.4667167167167169 	300.0000393648728 	0.0001153418364804764 	101325.0465383388
-0.4642142142142145 	300.0000269887171 	7.913409650521492e-05 	101325.0319068173
-0.461711711711712 	300.0000183089913 	5.372148761765939e-05 	101325.021645392
-0.4592092092092094 	300.0000122930989 	3.609489014571812e-05 	101325.0145332469
-0.456706706706707 	300.0000081710355 	2.400808915638059e-05 	101325.0096599714
-0.4542042042042045 	300.0000053776627 	1.581173070779112e-05 	101325.0063577136
-0.451701701701702 	300.0000035052669 	1.031342377402999e-05 	101325.0041440923
-0.4491991991991995 	300.000002263266 	6.663690071864208e-06 	101325.0026757677
-0.4466966966966969 	300.0000014478393 	4.26578673402516e-06 	101325.0017117526
-0.4441941941941945 	300.0000009178709 	2.706040432527519e-06 	101325.0010851421
-0.441691691691692 	300.0000005766638 	1.701369129961347e-06 	101325.0006818066
-0.4391891891891895 	300.0000003591912 	1.060378034102456e-06 	101325.0004246556
-0.436686686686687 	300.000000221783 	6.552369961426268e-07 	101325.0002622302
-0.4341841841841846 	300.0000001358182 	4.014820163334672e-07 	101325.00016057
-0.431681681681682 	300.0000000824259 	2.439778597591208e-07 	101325.0000975087
-0.4291791791791794 	300.0000000496085 	1.470557646256061e-07 	101325.0000587325
-0.426676676676677 	300.0000000295862 	8.793571523670852e-08 	101325.0000350929
-0.4241741741741744 	300.0000000175675 	5.216666986816552e-08 	101325.0000208024
-0.421671671671672 	300.0000000103678 	3.071333226431398e-08 	101325.0000122347
-0.4191691691691694 	300.0000000061059 	1.794233622925064e-08 	101325.0000071397
-0.4166666666666669 	300.0000000035735 	1.040748526372181e-08 	101325.0000041336
-0.4141641641641645 	300.0000000019373 	5.989956300858486e-09 	101325.0000023738
-0.411661661661662 	300.0000000011532 	3.42542709096813e-09 	101325.0000013514
-0.4091591591591594 	300.0000000006499 	1.943054579609821e-09 	101325.0000007619
-0.406656656656657 	300.0000000002925 	1.096920214549949e-09 	101325.0000004245
-0.4041541541541545 	300.0000000002239 	6.123013525843224e-10 	101325.0000002329
-0.401651651651652 	300.0000000000258 	3.434395514874916e-10 	101325.0000001252
-0.3991491491491494 	300.0000000000553 	1.86345465640675e-10 	101325.0000000647
-0.396646646646647 	299.9999999999808 	1.066469744213791e-10 	101325.0000000312
-0.3941441441441444 	299.9999999999936 	5.466752799815781e-11 	101325.0000000127
-0.3916416416416419 	299.999999999931 	3.355847785827029e-11 	101325.0000000021
-0.3891391391391395 	299.9999999999575 	1.572421048809106e-11 	101324.9999999965
-0.3866366366366368 	299.9999999999537 	1.111422573396953e-11 	101324.9999999932
-0.3841341341341344 	299.9999999999919 	5.172596167097763e-12 	101324.9999999916
-0.381631631631632 	299.9999999999362 	4.875476954687246e-12 	101324.9999999907
-0.3791291291291294 	300.0000000000052 	3.467768295118361e-12 	101324.9999999902
-0.3766266266266269 	300.0000000000264 	3.475362962032865e-12 	101324.9999999898
-0.3741241241241244 	300.0000000000301 	4.238108338595288e-12 	101324.9999999895
-0.371621621621622 	300.0000000000189 	2.495130051427561e-12 	101324.9999999896
-0.3691191191191194 	300.0000000000057 	4.900493303030222e-12 	101324.9999999897
-0.366616616616617 	300.0000000000091 	1.758321751620914e-12 	101324.9999999898
-0.3641141141141143 	299.9999999999566 	4.389434233698422e-12 	101324.99999999
-0.3616116116116119 	299.9999999999399 	2.063706215501751e-12 	101324.9999999904
-0.3591091091091095 	299.9999999999807 	3.386830315011539e-12 	101324.9999999906
-0.356606606606607 	299.9999999999684 	2.726489704076921e-12 	101324.9999999908
-0.3541041041041044 	299.9999999999894 	2.526911572235113e-12 	101324.9999999906
-0.3516016016016019 	300.0000000000086 	3.434629771633433e-12 	101324.9999999903
-0.3490990990990994 	299.999999999992 	1.668335179959431e-12 	101324.9999999901
-0.346596596596597 	300.0000000000512 	4.047690875401413e-12 	101324.9999999902
-0.3440940940940944 	300.0000000000615 	1.489713201128022e-12 	101324.9999999902
-0.3415915915915919 	300.0000000000192 	3.349878672293957e-12 	101324.9999999904
-0.3390890890890895 	299.9999999999782 	7.606061737259403e-13 	101324.9999999906
-0.3365865865865869 	300.0000000000229 	2.559106452541542e-12 	101324.9999999908
-0.3340840840840844 	300.0000000000059 	1.195140390259137e-12 	101324.9999999911
-0.3315815815815819 	300.0000000000261 	2.858006190836419e-12 	101324.9999999908
-0.3290790790790794 	300.000000000024 	2.222322386432359e-12 	101324.9999999908
-0.3265765765765769 	299.999999999911 	4.739103682807439e-12 	101324.9999999908
-0.3240740740740744 	299.9999999999901 	3.473512056412604e-12 	101324.9999999907
-0.3215715715715718 	300.0000000000028 	5.791641420884599e-12 	101324.9999999906
-0.3190690690690695 	299.9999999999197 	2.827542844413751e-12 	101324.9999999906
-0.3165665665665668 	299.9999999999922 	4.707392136503389e-12 	101324.9999999906
-0.3140640640640644 	300.0000000000043 	9.547400171538222e-13 	101324.9999999903
-0.311561561561562 	299.9999999999135 	4.74495657417564e-12 	101324.9999999901
-0.3090590590590593 	299.9999999999917 	1.483177099764555e-12 	101324.9999999899
-0.3065565565565568 	300.0000000000013 	6.194500314860111e-12 	101324.99999999
-0.3040540540540545 	299.9999999999993 	1.863477144139912e-12 	101324.99999999
-0.3015515515515518 	300.000000000042 	5.68444377649502e-12 	101324.9999999897
-0.2990490490490494 	299.9999999999404 	1.739998073432565e-12 	101324.9999999898
-0.2965465465465469 	299.9999999999852 	4.542314988379259e-12 	101324.9999999897
-0.2940440440440444 	299.9999999999994 	2.967231587873845e-12 	101324.9999999898
-0.2915415415415418 	299.9999999999998 	4.183715079499487e-12 	101324.9999999898
-0.2890390390390395 	300.0000000000009 	4.527751724992751e-12 	101324.9999999899
-0.2865365365365368 	299.999999999977 	3.685904994980442e-12 	101324.9999999898
-0.2840340340340343 	300.0000000000002 	5.246057653597552e-12 	101324.9999999898
-0.2815315315315318 	299.99999999991 	2.894427715229224e-12 	101324.9999999899
-0.2790290290290295 	299.9999999999527 	4.62025874075172e-12 	101324.9999999898
-0.2765265265265269 	300.0000000000115 	3.212011658811518e-12 	101324.9999999899
-0.2740240240240244 	300.0000000000269 	3.958203424042432e-12 	101324.9999999901
-0.2715215215215219 	300.0000000000109 	3.696434765343114e-12 	101324.99999999
-0.2690190190190194 	299.9999999999358 	3.311466255091086e-12 	101324.9999999899
-0.2665165165165169 	299.9999999999989 	3.740304765791005e-12 	101324.9999999897
-0.2640140140140144 	299.9999999999566 	2.546895681122115e-12 	101324.9999999897
-0.2615115115115119 	299.9999999999987 	3.96860924958809e-12 	101324.9999999895
-0.2590090090090094 	299.9999999999209 	1.761870101745368e-12 	101324.9999999896
-0.2565065065065068 	299.9999999999903 	1.867651657531945e-12 	101324.9999999898
-0.2540040040040044 	299.9999999999961 	2.388925204474081e-12 	101324.9999999899
-0.2515015015015019 	300.0000000000453 	1.625977824233854e-12 	101324.99999999
-0.2489989989989994 	300.0000000000525 	4.307919502540038e-12 	101324.9999999901
-0.2464964964964968 	299.9999999999897 	1.511895060799467e-12 	101324.9999999902
-0.2439939939939944 	299.9999999999932 	5.883278250709039e-12 	101324.9999999904
-0.2414914914914919 	299.9999999999633 	1.280714889498251e-12 	101324.9999999905
-0.2389889889889893 	300.0000000000024 	6.253209265315789e-12 	101324.9999999901
-0.2364864864864869 	300.0000000000249 	2.123622678488739e-12 	101324.9999999902
-0.2339839839839843 	299.9999999999156 	7.048165641966721e-12 	101324.9999999901
-0.2314814814814819 	299.9999999999754 	2.522492715282467e-12 	101324.9999999899
-0.2289789789789792 	299.9999999999105 	6.228842942310077e-12 	101324.9999999897
-0.2264764764764769 	299.9999999999409 	3.321948255937058e-12 	101324.9999999894
-0.2239739739739743 	299.9999999999484 	6.03542051961379e-12 	101324.9999999894
-0.2214714714714718 	299.9999999999319 	5.452034304593769e-12 	101324.9999999892
-0.2189689689689693 	299.9999999999609 	5.886112746178641e-12 	101324.999999989
-0.2164664664664669 	299.9999999999781 	7.079283360227033e-12 	101324.9999999889
-0.2139639639639643 	299.9999999999172 	5.511831501467748e-12 	101324.9999999889
-0.2114614614614618 	299.9999999999634 	5.812859139004419e-12 	101324.9999999886
-0.2089589589589593 	299.9999999999903 	5.441130144389608e-12 	101324.999999989
-0.2064564564564568 	299.9999999999908 	4.493290744351787e-12 	101324.9999999892
-0.2039539539539543 	299.9999999998919 	4.77658704896277e-12 	101324.9999999894
-0.2014514514514518 	299.9999999999377 	1.870604874658987e-12 	101324.9999999894
-0.1989489489489494 	299.999999999966 	4.711178977367774e-12 	101324.9999999893
-0.1964464464464468 	299.9999999999963 	1.357669482039005e-12 	101324.9999999894
-0.1939439439439443 	299.9999999999776 	4.670169182078687e-12 	101324.9999999895
-0.1914414414414418 	299.9999999999035 	2.132023921439005e-12 	101324.9999999893
-0.1889389389389393 	300.0000000000024 	4.293090786471216e-12 	101324.9999999895
-0.1864364364364368 	300.0000000000498 	2.634750149975975e-12 	101324.9999999895
-0.1839339339339343 	299.9999999999682 	4.470885964841057e-12 	101324.9999999895
-0.1814314314314318 	299.9999999999905 	2.623261225507504e-12 	101324.9999999895
-0.1789289289289293 	299.9999999998815 	4.359146363802332e-12 	101324.9999999894
-0.1764264264264268 	299.9999999999753 	1.164141594170159e-12 	101324.9999999896
-0.1739239239239243 	299.9999999998836 	4.154805049102581e-12 	101324.9999999898
-0.1714214214214218 	299.9999999999857 	1.356993319327632e-12 	101324.9999999899
-0.1689189189189193 	299.9999999999415 	4.649146715131393e-12 	101324.9999999898
-0.1664164164164168 	300.0000000000036 	2.991357027677125e-12 	101324.9999999897
-0.1639139139139143 	299.9999999999791 	6.07232780001743e-12 	101324.9999999897
-0.1614114114114118 	300.000000000027 	3.545779654400592e-12 	101324.9999999897
-0.1589089089089093 	299.999999999998 	8.911412915993437e-12 	101324.9999999898
-0.1564064064064068 	299.99999999998 	4.549937460895603e-12 	101324.9999999897
-0.1539039039039043 	299.9999999999833 	9.433892834299611e-12 	101324.9999999897
-0.1514014014014018 	300.0000000000286 	3.330199233420698e-12 	101324.9999999898
-0.1488988988988993 	299.9999999999786 	9.560099365380239e-12 	101324.9999999901
-0.1463963963963968 	300.0000000000005 	1.84955468395497e-12 	101324.9999999903
-0.1438938938938943 	299.999999999945 	7.673458317450524e-12 	101324.9999999905
-0.1413913913913918 	299.9999999999165 	1.317969743512319e-12 	101324.9999999905
-0.1388888888888893 	299.9999999999751 	5.078111840819546e-12 	101324.9999999902
-0.1363863863863868 	299.9999999998757 	8.386825732331041e-13 	101324.9999999902
-0.1338838838838843 	299.9999999999009 	4.133466341627495e-12 	101324.9999999901
-0.1313813813813818 	299.9999999999947 	2.490365234601367e-13 	101324.9999999903
-0.1288788788788793 	299.9999999999517 	3.225368590926358e-12 	101324.9999999902
-0.1263763763763768 	299.9999999999682 	1.177330725080782e-12 	101324.9999999904
-0.1238738738738743 	299.999999999923 	2.725126395347347e-12 	101324.9999999903
-0.1213713713713717 	299.9999999999808 	1.452376478670481e-12 	101324.99999999
-0.1188688688688693 	300.0000000000055 	4.187871575186731e-12 	101324.9999999897
-0.1163663663663668 	299.9999999998936 	1.504472706352429e-12 	101324.9999999896
-0.1138638638638643 	299.9999999999857 	4.24233876816225e-12 	101324.9999999899
-0.1113613613613618 	299.9999999999825 	2.502767505391953e-12 	101324.9999999897
-0.1088588588588592 	299.9999999999695 	4.647088390586292e-12 	101324.9999999899
-0.1063563563563568 	299.9999999999515 	2.070001777326302e-12 	101324.9999999899
-0.1038538538538543 	299.9999999999718 	4.27255987829652e-12 	101324.99999999
-0.1013513513513517 	300.0000000000157 	9.301834364631735e-13 	101324.9999999904
-0.09884884884884926 	299.9999999999387 	2.993605600725354e-12 	101324.9999999903
-0.09634634634634676 	299.9999999998691 	9.756878647373667e-13 	101324.9999999901
-0.09384384384384425 	299.9999999999197 	1.643665843926207e-12 	101324.9999999899
-0.09134134134134177 	300.0000000000249 	3.846923614835439e-13 	101324.9999999897
-0.08883883883883925 	300.0000000000073 	1.469588917598975e-12 	101324.9999999897
-0.08633633633633674 	299.9999999999439 	6.025606566999149e-13 	101324.9999999898
-0.08383383383383426 	300.0000000000118 	1.532633611078601e-12 	101324.9999999897
-0.08133133133133173 	299.999999999962 	2.095846678439252e-12 	101324.9999999896
-0.07882882882882926 	299.9999999998614 	1.847101958832948e-12 	101324.9999999897
-0.07632632632632676 	299.9999999999532 	1.638286420384303e-12 	101324.9999999897
-0.07382382382382424 	299.9999999998822 	1.015417713380037e-12 	101324.9999999899
-0.07132132132132173 	300.0000000000112 	4.139443062038905e-13 	101324.9999999901
-0.06881881881881925 	299.9999999999523 	5.596527269852612e-13 	101324.9999999899
-0.06631631631631671 	299.9999999998763 	3.068542861332599e-14 	101324.9999999899
-0.06381381381381425 	299.9999999999471 	7.556058849524788e-14 	101324.99999999
-0.06131131131131173 	299.9999999999491 	1.220353596360419e-14 	101324.9999999898
-0.05880880880880923 	299.9999999999094 	6.709240012657094e-14 	101324.9999999897
-0.05630630630630672 	299.9999999999604 	2.813549443028212e-14 	101324.9999999897
-0.05380380380380424 	300.0000000000188 	9.192299808726727e-13 	101324.9999999897
-0.05130130130130173 	300.0000000000151 	1.819503442886002e-12 	101324.9999999896
-0.04879879879879922 	299.9999999999285 	2.435884322871443e-12 	101324.9999999894
-0.04629629629629672 	299.9999999999238 	2.085999177622677e-12 	101324.9999999898
-0.04379379379379422 	299.9999999999043 	2.552370715530117e-12 	101324.9999999899
-0.04129129129129173 	299.9999999999739 	1.497740269718437e-12 	101324.99999999
-0.03878878878878922 	299.9999999999829 	1.842974253699454e-12 	101324.9999999903
-0.03628628628628671 	299.9999999999803 	1.211797073076783e-12 	101324.9999999901
-0.03378378378378422 	299.9999999999155 	1.199123831446798e-12 	101324.99999999
-0.03128128128128172 	299.9999999999646 	5.779996727241178e-13 	101324.99999999
-0.02877877877877922 	299.9999999999637 	1.530249688105315e-12 	101324.99999999
-0.0262762762762767 	299.999999999882 	1.36017575353368e-12 	101324.9999999901
-0.02377377377377422 	300.0000000000238 	1.172745272455971e-12 	101324.9999999901
-0.0212712712712717 	299.9999999998854 	1.282093717348463e-12 	101324.99999999
-0.01876876876876921 	299.9999999999706 	4.397897858583711e-13 	101324.9999999898
-0.01626626626626671 	300.0000000000134 	8.706239649806747e-13 	101324.9999999894
-0.0137637637637642 	299.999999999957 	6.848702944667002e-13 	101324.9999999892
-0.0112612612612617 	300.0000000000182 	1.120088801074271e-12 	101324.9999999892
-0.008758758758759198 	299.999999999994 	9.412204066409124e-13 	101324.9999999891
-0.006256256256256697 	299.9999999998646 	1.398918185144261e-12 	101324.9999999888
-0.003753753753754195 	299.9999999999441 	5.761877056576247e-13 	101324.9999999888
-0.001251251251251693 	299.9999999999181 	1.398468446769415e-12 	101324.9999999887
0.00125125125125081 	299.9999999999443 	7.602954677313908e-13 	101324.9999999887
0.003753753753753312 	299.9999999999573 	1.558602359269436e-12 	101324.9999999887
0.006256256256255817 	299.999999999871 	1.0023812338636e-12 	101324.9999999888
0.008758758758758317 	299.9999999999885 	9.189701543531017e-13 	101324.9999999888
0.01126126126126082 	300.000000000006 	6.38733740281156e-13 	101324.9999999888
0.01376376376376332 	299.9999999999629 	8.830660692364107e-13 	101324.9999999889
0.01626626626626582 	300.00000000001 	5.180875582865762e-13 	101324.999999989
0.01876876876876833 	299.9999999999446 	8.129763370913736e-13 	101324.9999999893
0.02127127127127083 	299.9999999999643 	6.163876477752857e-14 	101324.9999999894
0.02377377377377332 	299.9999999999951 	5.416048324547812e-13 	101324.9999999896
0.02627627627627583 	299.9999999998918 	9.328626344252334e-13 	101324.9999999894
0.02877877877877833 	300.0000000000068 	1.826009279180407e-12 	101324.9999999894
0.03128128128128083 	299.9999999999353 	1.506696337241438e-12 	101324.9999999894
0.03378378378378333 	299.9999999998866 	2.264204237405802e-12 	101324.9999999895
0.03628628628628584 	299.9999999999675 	1.745755235714604e-12 	101324.9999999894
0.03878878878878834 	299.9999999999757 	1.363948345577112e-12 	101324.9999999895
0.04129129129129084 	299.9999999999732 	1.385964478401297e-12 	101324.9999999896
0.04379379379379333 	299.9999999999329 	1.497936521274547e-12 	101324.99999999
0.04629629629629585 	299.9999999998701 	1.689181133440163e-12 	101324.9999999903
0.04879879879879834 	299.9999999999464 	2.321150145124833e-12 	101324.9999999904
0.05130130130130085 	300.0000000000176 	2.519419911631323e-12 	101324.9999999905
0.05380380380380335 	300.0000000000224 	2.490893094934525e-12 	101324.9999999904
0.05630630630630584 	299.9999999999857 	2.191051967486103e-12 	101324.9999999903
0.05880880880880836 	299.999999999907 	1.901858378533082e-12 	101324.9999999903
0.06131131131131085 	299.99999999997 	2.001108745864218e-12 	101324.9999999901
0.06381381381381336 	299.9999999999581 	1.245732084043733e-12 	101324.9999999898
0.06631631631631586 	299.999999999873 	8.241446730071214e-13 	101324.9999999895
0.06881881881881835 	299.9999999999401 	7.988181932247666e-13 	101324.9999999897
0.07132132132132088 	299.9999999999873 	7.969125562723474e-13 	101324.9999999897
0.07382382382382337 	299.9999999998863 	7.885864687700178e-13 	101324.9999999898
0.07632632632632587 	299.9999999999644 	1.83817055647776e-12 	101324.9999999898
0.07882882882882837 	299.9999999999303 	1.823314598108149e-12 	101324.99999999
0.08133133133133086 	299.9999999999832 	2.865550140697345e-12 	101324.9999999901
0.08383383383383337 	299.9999999999807 	2.701696385487061e-12 	101324.9999999903
0.08633633633633589 	299.9999999998909 	3.446273609407463e-12 	101324.9999999902
0.08883883883883838 	300.0000000000092 	3.449316562153504e-12 	101324.9999999901
0.09134134134134086 	299.9999999999868 	2.542137406087406e-12 	101324.9999999899
0.09384384384384339 	299.9999999998772 	3.365699503497165e-12 	101324.9999999898
0.09634634634634588 	299.9999999999596 	3.250277508895802e-12 	101324.9999999899
0.09884884884884838 	299.9999999999668 	2.742398655446637e-12 	101324.9999999901
0.1013513513513509 	300.0000000000186 	2.178107899730662e-12 	101324.9999999899
0.1038538538538534 	299.9999999999461 	1.250933557801743e-12 	101324.9999999897
0.1063563563563559 	300.0000000000203 	9.09913308426586e-13 	101324.9999999898
0.1088588588588584 	300.0000000000351 	5.347909734190069e-13 	101324.9999999899
0.1113613613613609 	299.9999999999038 	2.206856102403905e-13 	101324.9999999898
0.1138638638638634 	299.9999999999349 	6.645160976490874e-13 	101324.9999999896
0.1163663663663659 	299.9999999999345 	1.301033464278773e-12 	101324.9999999894
0.1188688688688684 	299.99999999996 	2.551908768804216e-12 	101324.9999999891
0.1213713713713709 	299.9999999999927 	2.469797270221457e-12 	101324.9999999893
0.1238738738738734 	299.9999999999138 	3.263400705421247e-12 	101324.9999999893
0.1263763763763759 	299.9999999999847 	3.012526191632928e-12 	101324.9999999897
0.1288788788788784 	299.9999999999876 	2.987202516269727e-12 	101324.99999999
0.1313813813813809 	299.9999999999872 	3.354074130145469e-12 	101324.9999999903
0.1338838838838834 	299.9999999999722 	3.29353139522671e-12 	101324.9999999902
0.1363863863863859 	300.0000000000347 	3.226780675581134e-12 	101324.9999999904
0.1388888888888884 	300.0000000000523 	3.717633134322863e-12 	101324.9999999902
0.1413913913913909 	300.0000000000038 	2.803453645320821e-12 	101324.99999999
0.1438938938938934 	299.9999999999899 	3.260433308935518e-12 	101324.9999999901
0.1463963963963959 	299.9999999999532 	1.925086389964027e-12 	101324.9999999904
0.1488988988988985 	299.9999999998981 	3.030244736917018e-12 	101324.9999999902
0.1514014014014009 	299.9999999999649 	1.29942025507487e-12 	101324.9999999901
0.1539039039039035 	299.9999999999576 	2.699321216395054e-12 	101324.9999999898
0.1564064064064059 	299.9999999999236 	5.458252970179177e-13 	101324.9999999895
0.1589089089089084 	299.9999999999774 	3.217259511860076e-12 	101324.9999999895
0.1614114114114109 	299.9999999999715 	7.947981450104622e-13 	101324.9999999895
0.1639139139139134 	299.9999999998945 	2.797963751608871e-12 	101324.9999999894
0.166416416416416 	300.0000000000064 	1.63401769175172e-12 	101324.9999999893
0.1689189189189185 	300.0000000000324 	1.2820476839468e-12 	101324.9999999893
0.1714214214214209 	299.9999999999949 	2.161101590026602e-12 	101324.9999999892
0.1739239239239235 	299.999999999984 	8.773945198941632e-13 	101324.9999999892
0.1764264264264259 	299.9999999999628 	2.778405713940801e-12 	101324.9999999892
0.1789289289289284 	300.0000000000036 	3.38322520427705e-13 	101324.9999999894
0.181431431431431 	299.9999999999581 	2.75444054790747e-12 	101324.9999999896
0.1839339339339334 	299.9999999999664 	1.096959261483456e-12 	101324.9999999897
0.186436436436436 	299.999999999912 	2.88264943006232e-12 	101324.9999999894
0.1889389389389385 	299.9999999999804 	2.787959562378146e-12 	101324.9999999893
0.191441441441441 	299.9999999999739 	2.786087947181091e-12 	101324.9999999892
0.1939439439439434 	299.9999999999074 	4.306090224454461e-12 	101324.9999999891
0.196446446446446 	299.9999999999332 	3.178232236776484e-12 	101324.9999999892
0.1989489489489485 	299.9999999999639 	5.667891605092155e-12 	101324.9999999892
0.2014514514514509 	299.999999999979 	3.546131686011953e-12 	101324.9999999892
0.2039539539539535 	299.9999999999887 	4.876196258002617e-12 	101324.9999999893
0.2064564564564559 	299.9999999999518 	3.888812979267288e-12 	101324.9999999893
0.2089589589589585 	299.9999999999806 	4.259902725660198e-12 	101324.9999999897
0.211461461461461 	299.9999999999255 	3.956754913087094e-12 	101324.9999999895
0.2139639639639635 	299.9999999999799 	2.926477058393899e-12 	101324.9999999897
0.2164664664664659 	299.9999999999932 	4.019883743590994e-12 	101324.9999999898
0.2189689689689684 	299.9999999999918 	2.300018066834673e-12 	101324.9999999896
0.221471471471471 	299.9999999999892 	4.754802309345622e-12 	101324.9999999896
0.2239739739739735 	299.9999999999466 	2.168891857667359e-12 	101324.9999999895
0.226476476476476 	299.9999999999772 	3.575946196079368e-12 	101324.9999999895
0.2289789789789785 	299.9999999999949 	2.727938197121589e-12 	101324.9999999894
0.231481481481481 	299.9999999999857 	2.805089737603887e-12 	101324.9999999894
0.2339839839839835 	299.9999999999858 	2.73680383249789e-12 	101324.9999999893
0.236486486486486 	300.0000000000229 	1.695459412145929e-12 	101324.9999999891
0.2389889889889885 	300.000000000002 	3.061685796965158e-12 	101324.9999999892
0.241491491491491 	299.9999999999112 	1.021117482640536e-12 	101324.9999999893
0.2439939939939935 	299.9999999999828 	4.277115729373475e-12 	101324.9999999889
0.246496496496496 	299.9999999999898 	2.331116542708292e-12 	101324.999999989
0.2489989989989985 	300.0000000000398 	4.2085377693622e-12 	101324.9999999892
0.251501501501501 	300.0000000000339 	3.397520004984021e-12 	101324.9999999895
0.2540040040040035 	299.9999999999874 	3.66228627291772e-12 	101324.9999999899
0.256506506506506 	300.0000000000318 	3.961887747636172e-12 	101324.9999999901
0.2590090090090086 	299.9999999998928 	2.254946813652303e-12 	101324.9999999903
0.261511511511511 	299.9999999999988 	4.479423999747611e-12 	101324.9999999902
0.2640140140140135 	299.9999999999878 	2.015971254008356e-12 	101324.99999999
0.2665165165165161 	299.9999999999183 	3.595290693791064e-12 	101324.99999999
0.2690190190190185 	300.0000000000126 	1.905965654061008e-12 	101324.9999999901
0.271521521521521 	300.000000000016 	1.789771532722994e-12 	101324.99999999
0.2740240240240235 	300.0000000000194 	1.762320098350041e-12 	101324.9999999897
0.276526526526526 	300.0000000000103 	1.148557866922904e-12 	101324.9999999896
0.2790290290290286 	299.9999999999344 	2.108723985101298e-12 	101324.9999999896
0.281531531531531 	299.9999999999151 	1.13706016651518e-12 	101324.9999999896
0.2840340340340335 	299.9999999999711 	2.631989455491658e-12 	101324.9999999898
0.2865365365365361 	299.999999999958 	1.399410676435725e-12 	101324.9999999898
0.2890390390390385 	299.9999999999989 	1.797440500632377e-12 	101324.9999999899
0.291541541541541 	299.9999999999981 	1.596146143834761e-12 	101324.9999999896
0.2940440440440436 	299.9999999999876 	6.971245352648655e-13 	101324.9999999898
0.296546546546546 	299.9999999999899 	2.53474898172641e-12 	101324.9999999896
0.2990490490490486 	299.9999999999266 	8.724572861446005e-13 	101324.9999999897
0.3015515515515511 	300.0000000000397 	4.515700521600024e-12 	101324.9999999896
0.3040540540540535 	299.9999999999953 	2.027064459116481e-12 	101324.9999999899
0.3065565565565562 	299.9999999999974 	5.219924202778989e-12 	101324.9999999895
0.3090590590590585 	299.9999999999881 	2.382085616006504e-12 	101324.9999999894
0.3115615615615611 	299.9999999999322 	4.510111257979737e-12 	101324.9999999895
0.3140640640640635 	300.0000000000077 	1.024165383578372e-12 	101324.9999999897
0.316566566566566 	299.9999999999895 	4.253022810586127e-12 	101324.9999999899
0.3190690690690687 	299.999999999945 	1.172930745828635e-12 	101324.9999999899
0.3215715715715711 	300.0000000000202 	3.848349416830609e-12 	101324.9999999901
0.3240740740740735 	300.0000000000011 	7.728342227532044e-13 	101324.9999999903
0.326576576576576 	299.9999999998948 	2.188312143010561e-12 	101324.9999999904
0.3290790790790786 	300.0000000000108 	2.266808455710771e-13 	101324.9999999904
0.3315815815815811 	300.0000000000377 	6.70692775827343e-13 	101324.9999999903
0.3340840840840836 	299.9999999999818 	9.513197718879021e-13 	101324.9999999902
0.3365865865865861 	300.0000000000613 	1.359447440983478e-12 	101324.9999999901
0.3390890890890886 	300.0000000000543 	3.892640171155908e-13 	101324.9999999902
0.3415915915915911 	300.0000000000038 	1.318495603366758e-12 	101324.9999999904
0.3440940940940935 	299.9999999999445 	1.263288415864391e-12 	101324.9999999905
0.3465965965965962 	300.0000000000373 	1.436035003503132e-12 	101324.9999999905
0.3490990990990985 	300.0000000000284 	4.650763118773558e-14 	101324.9999999903
0.3516016016016011 	299.9999999999861 	2.423461145431097e-13 	101324.9999999902
0.3541041041041035 	300.0000000000075 	3.819839319444055e-13 	101324.99999999
0.3566066066066061 	299.9999999999537 	9.117692079271469e-13 	101324.9999999898
0.3591091091091085 	299.9999999999085 	1.369970317488034e-12 	101324.9999999896
0.3616116116116112 	299.9999999999307 	1.189078460885996e-12 	101324.9999999897
0.3641141141141137 	299.9999999999251 	2.507393441194009e-12 	101324.9999999897
0.3666166166166161 	299.9999999999176 	2.227532459612417e-12 	101324.9999999898
0.3691191191191185 	300.0000000000437 	3.288590974300314e-12 	101324.9999999897
0.371621621621621 	300.0000000000101 	2.477894189703253e-12 	101324.9999999896
0.3741241241241237 	300.0000000000502 	2.251750888427815e-12 	101324.9999999897
0.3766266266266261 	300.0000000000354 	1.922211520303862e-12 	101324.9999999897
0.3791291291291286 	299.9999999999866 	1.453819361573183e-12 	101324.9999999898
0.3816316316316311 	299.999999999911 	1.831637537593561e-12 	101324.9999999898
0.3841341341341336 	300.0000000000127 	1.434691467133248e-12 	101324.9999999901
0.3866366366366362 	299.9999999999981 	1.706208206173694e-12 	101324.9999999903
0.3891391391391387 	299.999999999952 	5.672680846311165e-13 	101324.9999999902
0.391641641641641 	299.9999999999933 	1.857214341816481e-12 	101324.9999999903
0.3941441441441436 	300.0000000000107 	4.499491069567928e-13 	101324.9999999901
0.3966466466466462 	300.000000000002 	2.066845774518264e-12 	101324.99999999
0.3991491491491486 	299.9999999999479 	1.225920106191298e-12 	101324.9999999901
0.4016516516516512 	299.9999999999105 	2.562121302490215e-12 	101324.9999999898
0.4041541541541536 	299.9999999999414 	1.051541247608579e-12 	101324.9999999896
0.4066566566566561 	299.9999999999413 	2.371545972308139e-12 	101324.9999999895
0.4091591591591587 	299.9999999999921 	3.683810977927771e-13 	101324.9999999893
0.4116616616616612 	300.0000000000043 	1.190053896248907e-12 	101324.9999999891
0.4141641641641635 	300.0000000000423 	2.754104988303131e-13 	101324.9999999892
0.4166666666666662 	299.9999999999944 	4.874819953914863e-13 	101324.9999999891
0.4191691691691687 	299.9999999999388 	1.586460919760617e-12 	101324.9999999892
0.421671671671671 	300.0000000000159 	1.716783849282036e-12 	101324.999999989
0.4241741741741737 	299.9999999999696 	3.026366761182525e-12 	101324.9999999892
0.4266766766766761 	299.9999999999458 	2.491525419333301e-12 	101324.9999999894
0.4291791791791785 	300.0000000000213 	3.845336185994062e-12 	101324.9999999895
0.4316816816816812 	300.0000000000142 	2.947344615355147e-12 	101324.9999999894
0.4341841841841836 	299.9999999999826 	3.211481644917233e-12 	101324.9999999895
0.4366866866866862 	299.9999999999138 	2.150500073624369e-12 	101324.9999999895
0.4391891891891885 	299.9999999999849 	1.916167353345549e-12 	101324.9999999895
0.4416916916916913 	299.9999999999778 	1.475305703311342e-12 	101324.9999999896
0.4441941941941936 	299.9999999999862 	2.16848123369295e-12 	101324.9999999895
0.4466966966966961 	299.9999999999081 	7.515886657676682e-13 	101324.9999999897
0.4491991991991987 	299.99999999998 	1.765178366853135e-12 	101324.9999999897
0.4517017017017012 	299.9999999999791 	1.398031948248168e-12 	101324.9999999897
0.4542042042042035 	299.9999999999794 	1.88937809829939e-12 	101324.9999999895
0.4567067067067062 	299.9999999999923 	1.960092249690494e-12 	101324.9999999894
0.4592092092092087 	299.9999999999163 	2.098086101896826e-12 	101324.9999999893
0.4617117117117112 	300.0000000000197 	2.320045284885846e-12 	101324.9999999894
0.4642142142142137 	299.9999999999578 	2.801592449931614e-12 	101324.9999999894
0.4667167167167162 	299.9999999999876 	2.573791239250592e-12 	101324.9999999894
0.4692192192192187 	299.9999999999494 	1.881430313895513e-12 	101324.9999999894
0.4717217217217212 	300.0000000000184 	1.174148123716198e-12 	101324.9999999895
0.4742242242242236 	299.9999999999508 	8.248462659955642e-13 	101324.9999999898
0.4767267267267262 	299.9999999999766 	4.072352627240936e-13 	101324.9999999896
0.4792292292292287 	300.000000000014 	1.750050854945129e-13 	101324.9999999891
0.4817317317317312 	300.000000000034 	1.937319464275315e-13 	101324.9999999889
0.4842342342342336 	299.9999999999852 	4.809809293778146e-13 	101324.999999989
0.4867367367367362 	299.9999999999494 	7.886240393315769e-13 	101324.999999989
0.4892392392392387 	300.0000000000291 	7.734295213937794e-13 	101324.9999999892
0.4917417417417412 	300.0000000000034 	1.550544039220423e-12 	101324.9999999892
0.4942442442442437 	299.9999999998943 	9.312617820819436e-13 	101324.9999999892
0.4967467467467462 	299.9999999999125 	1.390756162309355e-12 	101324.9999999896
0.4992492492492487 	299.9999999999096 	6.539039499440121e-13 	101324.9999999899
0.5017517517517511 	299.9999999999465 	3.846714356289719e-13 	101324.99999999
0.5042542542542537 	299.9999999999613 	3.960697947875119e-13 	101324.9999999899
0.5067567567567562 	299.9999999999405 	4.591443278252474e-13 	101324.9999999898
0.5092592592592589 	299.9999999999675 	7.223227522085846e-13 	101324.9999999899
0.5117617617617611 	299.9999999999529 	1.920335281599428e-12 	101324.9999999899
0.5142642642642637 	299.9999999999844 	1.345860482290666e-12 	101324.9999999898
0.5167667667667663 	299.9999999999691 	3.344876178730858e-12 	101324.9999999896
0.5192692692692688 	299.9999999999104 	2.575593769896614e-12 	101324.9999999895
0.5217717717717714 	299.9999999999266 	4.949359475517624e-12 	101324.9999999895
0.5242742742742736 	299.9999999999316 	1.263390204432285e-12 	101324.9999999896
0.5267767767767763 	299.9999999999479 	4.820902848834163e-12 	101324.9999999896
0.5292792792792789 	299.9999999999303 	1.763972535997429e-12 	101324.9999999895
0.5317817817817813 	299.9999999999 	5.213364345695699e-12 	101324.9999999896
0.5342842842842837 	300.0000000000163 	3.338686065064799e-12 	101324.9999999897
0.5367867867867864 	300.0000000000013 	4.967895581280396e-12 	101324.9999999898
0.5392892892892888 	299.9999999999519 	3.304170696724869e-12 	101324.9999999901
0.5417917917917912 	300.0000000000027 	4.46534202158186e-12 	101324.9999999904
0.5442942942942938 	299.9999999999822 	3.011302261497004e-12 	101324.9999999906
0.5467967967967964 	299.9999999999472 	4.127551226328252e-12 	101324.9999999908
0.5492992992992988 	299.9999999999387 	3.279410527868528e-12 	101324.9999999908
0.5518018018018012 	299.9999999999313 	4.501473014724943e-12 	101324.999999991
0.5543043043043039 	300.000000000022 	3.46599963945468e-12 	101324.9999999908
0.5568068068068063 	299.9999999999891 	4.132331730817665e-12 	101324.9999999907
0.5593093093093087 	299.9999999998931 	3.214418882784497e-12 	101324.9999999908
0.5618118118118114 	299.9999999999534 	5.127678920424452e-12 	101324.9999999907
0.5643143143143137 	299.9999999999366 	4.454046541093437e-12 	101324.9999999907
0.5668168168168163 	299.9999999999918 	5.766083617322765e-12 	101324.9999999907
0.5693193193193188 	300.000000000034 	5.838934466976634e-12 	101324.9999999906
0.5718218218218213 	300.0000000000283 	5.249445400349714e-12 	101324.9999999906
0.5743243243243239 	300.0000000000092 	6.220133844185661e-12 	101324.9999999908
0.5768268268268262 	300.0000000000078 	4.212169678158901e-12 	101324.9999999911
0.5793293293293288 	299.9999999999471 	6.302906368411217e-12 	101324.9999999911
0.5818318318318314 	299.9999999999116 	2.833913393803839e-12 	101324.999999991
0.5843343343343338 	299.9999999999764 	6.455113605851022e-12 	101324.9999999909
0.5868368368368363 	299.9999999999707 	2.100619986949769e-12 	101324.9999999907
0.5893393393393387 	299.9999999999382 	5.132321839103527e-12 	101324.9999999908
0.5918418418418413 	299.9999999999373 	2.521160007373596e-12 	101324.9999999907
0.5943443443443439 	300.0000000000164 	4.869685087240828e-12 	101324.9999999907
0.5968468468468463 	300.0000000000204 	2.818086893217691e-12 	101324.9999999905
0.5993493493493487 	300.0000000000467 	4.306295305403206e-12 	101324.9999999906
0.6018518518518514 	299.999999999979 	3.036748551765954e-12 	101324.9999999905
0.6043543543543537 	299.999999999993 	4.552312056424177e-12 	101324.9999999905
0.6068568568568564 	299.9999999999823 	3.513832925587275e-12 	101324.9999999906
0.6093593593593587 	299.9999999999313 	5.150666649606531e-12 	101324.9999999904
0.6118618618618614 	299.9999999999165 	4.756497974080302e-12 	101324.9999999906
0.6143643643643638 	300.0000000000114 	6.390324450713872e-12 	101324.9999999907
0.6168668668668662 	299.9999999999804 	4.989771100381843e-12 	101324.9999999908
0.6193693693693688 	299.9999999999533 	6.773824228481224e-12 	101324.9999999909
0.6218718718718714 	299.9999999999645 	4.497139741235504e-12 	101324.9999999908
0.6243743743743737 	299.9999999999342 	6.400814583604579e-12 	101324.9999999911
0.6268768768768762 	299.9999999999226 	4.903257252029751e-12 	101324.9999999914
0.629379379379379 	299.9999999999533 	5.762490286766736e-12 	101324.9999999915
0.6318818818818812 	299.9999999999776 	5.002630439484447e-12 	101324.9999999913
0.6343843843843838 	300.0000000000202 	4.784795086175897e-12 	101324.9999999912
0.6368868868868864 	299.9999999999852 	5.580371872486835e-12 	101324.9999999912
0.6393893893893888 	299.9999999999171 	4.583588501901915e-12 	101324.9999999913
0.6418918918918912 	300.0000000000072 	6.978695761427003e-12 	101324.9999999915
0.6443943943943939 	299.9999999999757 	3.29586003053111e-12 	101324.9999999916
0.6468968968968963 	299.9999999999837 	7.863515166049951e-12 	101324.9999999916
0.6493993993993988 	299.9999999999758 	3.898020811889241e-12 	101324.9999999916
0.6519019019019012 	299.9999999999739 	7.224593997897464e-12 	101324.9999999916
0.6544044044044038 	299.9999999998981 	3.865931159623962e-12 	101324.9999999915
0.6569069069069065 	299.9999999999474 	7.073787223379539e-12 	101324.9999999915
0.6594094094094087 	299.9999999999613 	4.805455601856246e-12 	101324.9999999914
0.6619119119119113 	299.9999999999517 	7.586239592835157e-12 	101324.9999999914
0.664414414414414 	300.0000000000044 	5.954627288319017e-12 	101324.9999999913
0.6669169169169162 	300.0000000000215 	7.106975692886501e-12 	101324.9999999912
0.6694194194194188 	299.9999999999852 	5.096467609827189e-12 	101324.9999999913
0.6719219219219214 	299.9999999999178 	5.861736189147329e-12 	101324.9999999912
0.674424424424424 	299.99999999997 	4.987829798609557e-12 	101324.9999999911
0.6769269269269262 	299.9999999999134 	6.948710509037967e-12 	101324.999999991
0.679429429429429 	300.0000000000064 	6.881038419509546e-12 	101324.9999999911
0.6819319319319311 	299.9999999999847 	7.55834304210806e-12 	101324.9999999912
0.6844344344344341 	299.9999999999974 	6.527907012252548e-12 	101324.9999999912
0.686936936936936 	299.9999999999918 	7.201573185670416e-12 	101324.9999999912
0.6894394394394392 	299.9999999999847 	5.955211641213495e-12 	101324.9999999914
0.6919419419419413 	299.9999999999863 	5.966778932996804e-12 	101324.9999999915
0.694444444444444 	299.9999999999287 	5.753136502975373e-12 	101324.9999999914
0.6969469469469463 	299.9999999999211 	5.375086833702209e-12 	101324.9999999911
0.6994494494494489 	299.9999999999158 	5.825126315436674e-12 	101324.999999991
0.7019519519519515 	299.999999999981 	5.058169464836051e-12 	101324.9999999909
0.7044544544544538 	299.9999999999413 	7.037356209806923e-12 	101324.999999991
0.7069569569569564 	299.9999999999987 	5.418458750588148e-12 	101324.999999991
0.7094594594594589 	299.9999999999644 	8.305605858271633e-12 	101324.9999999911
0.7119619619619615 	299.9999999999119 	6.148563833386223e-12 	101324.9999999914
0.7144644644644638 	299.9999999999553 	8.029103028801968e-12 	101324.9999999915
0.7169669669669665 	299.9999999999255 	7.05891685730708e-12 	101324.9999999916
0.7194694694694688 	299.9999999999994 	8.217687139565943e-12 	101324.9999999918
0.7219719719719715 	299.9999999999911 	7.574416221264147e-12 	101324.9999999918
0.7244744744744737 	300.0000000000073 	7.822735270804025e-12 	101324.9999999919
0.7269769769769764 	299.9999999999998 	7.759040377509432e-12 	101324.9999999921
0.7294794794794791 	299.9999999999897 	5.768727143546885e-12 	101324.9999999922
0.7319819819819813 	299.9999999999785 	7.097860735081063e-12 	101324.9999999921
0.7344844844844839 	299.999999999913 	5.058179326226789e-12 	101324.9999999924
0.7369869869869864 	299.9999999999421 	6.385758889274315e-12 	101324.9999999926
0.739489489489489 	299.9999999999355 	5.8711561849004e-12 	101324.9999999927
0.7419919919919914 	299.9999999999239 	6.197315518225802e-12 	101324.9999999926
0.7444944944944939 	299.9999999999804 	6.948844167271527e-12 	101324.9999999927
0.7469969969969963 	299.9999999999733 	5.494108661365477e-12 	101324.9999999927
0.7494994994994989 	299.9999999999356 	7.54577630604762e-12 	101324.9999999925
0.7520020020020015 	299.999999999964 	4.893466303513658e-12 	101324.9999999925
0.7545045045045039 	299.9999999999624 	8.288295522444495e-12 	101324.9999999925
0.7570070070070062 	299.9999999999383 	5.404898130314009e-12 	101324.9999999923
0.7595095095095092 	299.9999999999276 	7.156941141414876e-12 	101324.9999999922
0.7620120120120112 	300.0000000000081 	5.78998096770329e-12 	101324.999999992
0.7645145145145138 	299.9999999999835 	6.084276838434783e-12 	101324.9999999919
0.7670170170170165 	299.9999999999279 	6.557065890482155e-12 	101324.9999999919
0.7695195195195191 	299.9999999999208 	5.462040113924949e-12 	101324.999999992
0.7720220220220213 	299.9999999999352 	8.144306493836073e-12 	101324.9999999921
0.7745245245245239 	299.9999999999289 	6.725247616413947e-12 	101324.9999999921
0.7770270270270263 	299.9999999999597 	8.955409161335087e-12 	101324.9999999924
0.779529529529529 	299.999999999974 	7.613884283575961e-12 	101324.9999999925
0.7820320320320313 	299.9999999999679 	8.153007852517681e-12 	101324.9999999926
0.784534534534534 	300.0000000000056 	7.681896221062344e-12 	101324.9999999925
0.7870370370370364 	299.9999999999929 	7.059105636046668e-12 	101324.9999999924
0.7895395395395389 	299.9999999999773 	7.925930781963729e-12 	101324.9999999923
0.7920420420420413 	299.9999999999762 	6.846653220313802e-12 	101324.9999999924
0.794544544544544 	299.9999999999733 	8.651873820133251e-12 	101324.9999999924
0.7970470470470463 	300.0000000000015 	6.398181375710598e-12 	101324.9999999924
0.799549549549549 	299.9999999999906 	9.65469478794095e-12 	101324.9999999924
0.8020520520520515 	299.99999999998 	6.491234030006518e-12 	101324.9999999925
0.8045545545545539 	299.9999999999361 	8.46658161848408e-12 	101324.9999999924
0.8070570570570563 	299.9999999999814 	6.579445873089474e-12 	101324.9999999925
0.8095595595595589 	299.9999999999552 	6.856506252378332e-12 	101324.9999999925
0.8120620620620614 	299.9999999999388 	6.272653139774584e-12 	101324.9999999925
0.8145645645645638 	300.0000000000005 	5.721071405719025e-12 	101324.9999999926
0.8170670670670666 	300.0000000000019 	5.848957623403207e-12 	101324.9999999928
0.8195695695695689 	299.9999999999821 	4.28270631154998e-12 	101324.999999993
0.8220720720720714 	299.9999999999372 	6.73366153222885e-12 	101324.9999999931
0.8245745745745739 	299.9999999999866 	4.597201750472613e-12 	101324.9999999932
0.8270770770770765 	299.9999999999749 	6.372867887670758e-12 	101324.9999999933
0.8295795795795788 	299.9999999999521 	5.233377352265565e-12 	101324.9999999932
0.8320820820820815 	300.0000000000169 	6.234116101887712e-12 	101324.9999999931
0.834584584584584 	300.0000000000027 	5.494427786410793e-12 	101324.9999999929
0.8370870870870865 	299.9999999999502 	5.358334244539632e-12 	101324.9999999928
0.8395895895895891 	299.9999999999204 	6.482362677975771e-12 	101324.9999999928
0.8420920920920915 	299.9999999999479 	5.948389578882159e-12 	101324.999999993
0.844594594594594 	299.9999999999372 	6.487910437233507e-12 	101324.999999993
0.8470970970970964 	299.9999999999421 	6.505243348054889e-12 	101324.999999993
0.8495995995995991 	299.9999999999935 	6.396271370637841e-12 	101324.9999999929
0.8521021021021015 	299.9999999999811 	6.718316084335819e-12 	101324.9999999929
0.8546046046046039 	299.9999999999706 	6.140412551933324e-12 	101324.9999999927
0.8571071071071066 	300.0000000000016 	7.486527078386158e-12 	101324.9999999928
0.8596096096096089 	299.9999999999677 	6.035730158100046e-12 	101324.9999999931
0.8621121121121116 	299.9999999999362 	9.248581185821787e-12 	101324.999999993
0.8646146146146139 	300.0000000000016 	6.880647791817836e-12 	101324.9999999928
0.8671171171171166 	299.999999999977 	8.354501391481156e-12 	101324.9999999929
0.8696196196196189 	299.9999999999383 	7.679448600784777e-12 	101324.9999999928
0.8721221221221216 	299.9999999999714 	8.398756087697589e-12 	101324.9999999928
0.874624624624624 	300.000000000005 	7.739067731907596e-12 	101324.9999999929
0.8771271271271264 	299.9999999999976 	7.162370806975926e-12 	101324.999999993
0.879629629629629 	299.9999999999955 	7.776585701555669e-12 	101324.9999999929
0.8821321321321317 	299.9999999999813 	5.992850984157651e-12 	101324.999999993
0.8846346346346339 	299.9999999999272 	8.503408205584496e-12 	101324.9999999932
0.8871371371371364 	299.9999999999537 	6.102211614458759e-12 	101324.9999999932
0.8896396396396391 	299.999999999952 	7.571297205789993e-12 	101324.9999999932
0.8921421421421414 	299.9999999999612 	6.234445514545687e-12 	101324.9999999932
0.8946446446446441 	299.9999999999894 	7.3228101803078e-12 	101324.999999993
0.8971471471471464 	300.0000000000033 	7.059180969928732e-12 	101324.9999999927
0.8996496496496489 	299.9999999999787 	6.758240289275622e-12 	101324.9999999924
0.9021521521521517 	299.9999999999602 	7.841427875619175e-12 	101324.9999999924
0.9046546546546541 	299.9999999999897 	7.024638146021599e-12 	101324.9999999924
0.9071571571571564 	299.9999999999417 	7.570526876286583e-12 	101324.9999999925
0.9096596596596589 	299.9999999999429 	7.276226930911299e-12 	101324.9999999925
0.9121621621621616 	300.000000000016 	7.632397406386293e-12 	101324.9999999926
0.9146646646646639 	299.9999999999756 	7.339783042932998e-12 	101324.9999999927
0.9171671671671666 	299.999999999933 	7.084115271024917e-12 	101324.9999999928
0.9196696696696689 	299.9999999999924 	8.053594453335846e-12 	101324.9999999929
0.9221721721721714 	299.9999999999972 	6.436273090190003e-12 	101324.999999993
0.9246746746746741 	299.9999999999346 	8.751141381215124e-12 	101324.999999993
0.9271771771771765 	299.9999999999404 	6.707751209504528e-12 	101324.9999999929
0.9296796796796791 	299.9999999999901 	8.317251819492403e-12 	101324.9999999927
0.9321821821821816 	299.9999999999756 	6.666601278624467e-12 	101324.9999999927
0.9346846846846838 	299.9999999999542 	7.684681475180605e-12 	101324.9999999928
0.9371871871871866 	300.0000000000224 	7.138037085126735e-12 	101324.9999999927
0.9396896896896891 	300.0000000000233 	7.100367074763287e-12 	101324.9999999927
0.9421921921921914 	300.0000000000146 	7.325117608286322e-12 	101324.9999999928
0.9446946946946939 	299.9999999999659 	5.958856543449328e-12 	101324.9999999928
0.9471971971971965 	299.9999999999216 	7.735532608201152e-12 	101324.9999999928
0.9496996996996991 	299.9999999999504 	5.406463214386328e-12 	101324.9999999928
0.9522022022022016 	299.9999999999683 	6.445069998192123e-12 	101324.9999999928
0.9547047047047038 	299.9999999999686 	5.104943015929385e-12 	101324.999999993
0.9572072072072064 	299.9999999999569 	5.978606730822558e-12 	101324.9999999931
0.9597097097097093 	299.9999999999538 	5.631750736709553e-12 	101324.9999999932
0.9622122122122114 	299.9999999999491 	5.391848152623256e-12 	101324.9999999933
0.964714714714714 	299.9999999999482 	6.37095560839819e-12 	101324.9999999933
0.9672172172172167 	299.9999999999555 	5.544993572554541e-12 	101324.9999999933
0.969719719719719 	299.9999999999878 	6.168243879129088e-12 	101324.9999999933
0.9722222222222214 	299.9999999999706 	5.972877231204495e-12 	101324.9999999931
0.9747247247247239 	299.9999999999642 	6.579311706792951e-12 	101324.999999993
0.9772272272272267 	299.9999999999967 	7.111413718591861e-12 	101324.9999999931
0.9797297297297292 	299.999999999984 	6.566006335671172e-12 	101324.9999999931
0.9822322322322313 	299.9999999999933 	7.617536612802696e-12 	101324.9999999932
0.9847347347347344 	299.999999999993 	6.134106947650311e-12 	101324.999999993
0.9872372372372363 	299.9999999999458 	8.281786339530693e-12 	101324.9999999928
0.9897397397397389 	299.9999999999715 	5.585959016262065e-12 	101324.9999999927
0.9922422422422417 	299.9999999999516 	7.370360041301099e-12 	101324.9999999928
0.9947447447447441 	299.9999999999437 	5.687458785134361e-12 	101324.9999999928
0.9972472472472468 	299.9999999999563 	6.354494927940666e-12 	101324.9999999928
0.999749749749749 	299.999999999961 	5.86032611002216e-12 	101324.9999999928
1.002252252252252 	299.9999999999814 	6.632306553754058e-12 	101324.999999993
1.004754754754754 	299.9999999999835 	7.563670517408071e-12 	101324.9999999928
1.007257257257256 	299.9999999999633 	7.255126438190114e-12 	101324.9999999928
1.009759759759759 	299.9999999999519 	9.441767219171789e-12 	101324.9999999926
1.012262262262261 	299.9999999999526 	7.688878283045775e-12 	101324.9999999925
1.014764764764764 	299.9999999999227 	9.047182683232531e-12 	101324.9999999922
1.017267267267267 	299.9999999999092 	7.773894068937835e-12 	101324.9999999921
1.019769769769769 	299.9999999999536 	8.453684519594921e-12 	101324.9999999921
1.022272272272272 	299.999999999969 	7.657774082848459e-12 	101324.9999999921
1.024774774774774 	299.9999999999734 	7.570109007689509e-12 	101324.9999999923
1.027277277277277 	299.999999999969 	8.138121273249664e-12 	101324.9999999925
1.029779779779779 	299.9999999999968 	7.592613626419935e-12 	101324.9999999925
1.032282282282282 	299.9999999999974 	8.217445422988778e-12 	101324.9999999925
1.034784784784784 	299.9999999999903 	7.635017645823661e-12 	101324.9999999927
1.037287287287286 	299.9999999999595 	7.891871612683063e-12 	101324.999999993
1.039789789789789 	299.9999999999714 	7.956676529252771e-12 	101324.9999999931
1.042292292292291 	300.0000000000115 	7.776275034679169e-12 	101324.9999999931
1.044794794794794 	300.0000000000211 	7.71717124071538e-12 	101324.9999999931
1.047297297297296 	300.000000000034 	6.272766505276368e-12 	101324.9999999933
1.049799799799799 	299.9999999999874 	7.625992730327948e-12 	101324.9999999934
1.052302302302302 	299.9999999999576 	5.588686648164211e-12 	101324.9999999933
1.054804804804804 	299.9999999999354 	7.166474944790922e-12 	101324.9999999933
1.057307307307306 	299.9999999999135 	6.070302381451757e-12 	101324.9999999932
1.059809809809809 	299.9999999999445 	7.095255292327962e-12 	101324.9999999929
1.062312312312312 	299.9999999999394 	6.437562614157072e-12 	101324.9999999925
1.064814814814814 	299.9999999999362 	6.759258755412605e-12 	101324.9999999923
1.067317317317317 	299.9999999999148 	6.523734908995085e-12 	101324.9999999923
1.069819819819819 	299.9999999999172 	6.305376960586626e-12 	101324.9999999923
1.072322322322321 	299.9999999999876 	8.013651401313386e-12 	101324.9999999924
1.074824824824824 	300.0000000000178 	6.445855572836603e-12 	101324.9999999925
1.077327327327327 	300.0000000000343 	7.470982117220984e-12 	101324.9999999927
1.079829829829829 	300.0000000000351 	6.089420640639015e-12 	101324.9999999928
1.082332332332332 	300.000000000003 	6.703593930977653e-12 	101324.9999999927
1.084834834834834 	299.9999999999753 	6.667532618903558e-12 	101324.9999999927
1.087337337337337 	299.9999999999345 	6.896705399129352e-12 	101324.9999999927
1.089839839839839 	299.9999999999277 	8.615398660947818e-12 	101324.9999999927
1.092342342342342 	299.9999999999644 	8.045571128776644e-12 	101324.9999999926
1.094844844844844 	299.9999999999678 	9.440696002811755e-12 	101324.9999999924
1.097347347347347 	299.999999999939 	7.671358341452832e-12 	101324.9999999924
1.099849849849849 	299.9999999999234 	9.729397102539694e-12 	101324.9999999925
1.102352352352352 	299.9999999999513 	7.409597112282863e-12 	101324.9999999925
1.104854854854854 	299.9999999999771 	8.868600309519392e-12 	101324.9999999925
1.107357357357357 	299.9999999999583 	7.255148913121899e-12 	101324.9999999925
1.109859859859859 	299.9999999999388 	9.038758396490034e-12 	101324.9999999923
1.112362362362362 	300.0000000000159 	8.223232034462461e-12 	101324.9999999923
1.114864864864865 	300.0000000000174 	8.536595551319493e-12 	101324.9999999923
1.117367367367367 	299.9999999999615 	8.958344911941756e-12 	101324.9999999925
1.119869869869869 	299.9999999999227 	7.871435114906821e-12 	101324.9999999928
1.122372372372372 	299.9999999999546 	9.190257180519557e-12 	101324.9999999929
1.124874874874874 	299.9999999999489 	8.248998625369485e-12 	101324.999999993
1.127377377377377 	299.9999999999634 	9.140379034977897e-12 	101324.999999993
1.129879879879879 	300.0000000000202 	8.569768695501047e-12 	101324.9999999929
1.132382382382382 	300.0000000000237 	9.182447904368201e-12 	101324.9999999928
1.134884884884884 	300.0000000000001 	8.836070666988326e-12 	101324.9999999928
1.137387387387387 	300.0000000000166 	8.645509687364903e-12 	101324.9999999927
1.139889889889889 	299.9999999999566 	9.593301081173925e-12 	101324.9999999926
1.142392392392392 	299.9999999999451 	8.400538575365261e-12 	101324.9999999925
1.144894894894894 	300.0000000000131 	9.349454017588316e-12 	101324.9999999925
1.147397397397397 	300.0000000000014 	8.197345865940073e-12 	101324.9999999925
1.149899899899899 	299.9999999999357 	9.257394792560986e-12 	101324.9999999925
1.152402402402402 	299.9999999999205 	8.702161842895215e-12 	101324.9999999926
1.154904904904904 	299.9999999999674 	9.364721926870984e-12 	101324.9999999926
1.157407407407407 	299.9999999999685 	8.845469614991756e-12 	101324.9999999925
1.159909909909909 	299.9999999999339 	8.86978231303682e-12 	101324.9999999924
1.162412412412412 	299.9999999999227 	9.996896285697084e-12 	101324.9999999924
1.164914914914914 	299.9999999999588 	8.696697203658828e-12 	101324.9999999925
1.167417417417417 	299.999999999965 	1.005644804249516e-11 	101324.9999999925
1.169919919919919 	300.0000000000108 	9.113347351491161e-12 	101324.9999999925
1.172422422422422 	300.000000000033 	9.405372057776763e-12 	101324.9999999927
1.174924924924925 	299.9999999999802 	7.784380361598552e-12 	101324.9999999928
1.177427427427427 	299.9999999999606 	8.004590959475516e-12 	101324.999999993
1.179929929929929 	300.0000000000063 	8.70647714633213e-12 	101324.999999993
1.182432432432432 	300.0000000000251 	7.377892033829828e-12 	101324.999999993
1.184934934934934 	299.9999999999995 	8.201805294615548e-12 	101324.9999999931
1.187437437437437 	299.9999999999847 	7.323422797222948e-12 	101324.999999993
1.189939939939939 	299.9999999999727 	8.303221243279917e-12 	101324.9999999928
1.192442442442442 	299.9999999999222 	7.660270023227125e-12 	101324.9999999927
1.194944944944944 	299.9999999999275 	8.742759658347405e-12 	101324.9999999926
1.197447447447447 	300.000000000001 	8.178044843046688e-12 	101324.9999999926
1.199949949949949 	300.0000000000135 	8.061961191450068e-12 	101324.9999999928
1.202452452452452 	299.9999999999483 	8.798684779364204e-12 	101324.999999993
1.204954954954955 	299.9999999999449 	7.903557251773092e-12 	101324.9999999929
1.207457457457457 	299.999999999987 	8.741177206318311e-12 	101324.9999999929
1.20995995995996 	299.999999999977 	7.374947334702362e-12 	101324.9999999928
1.212462462462462 	299.9999999999724 	8.036547109003558e-12 	101324.9999999928
1.214964964964964 	299.9999999999721 	7.272514634605217e-12 	101324.9999999928
1.217467467467467 	299.9999999999724 	8.33082743709731e-12 	101324.9999999929
1.219969969969969 	299.9999999999662 	7.889437138465195e-12 	101324.9999999929
1.222472472472472 	300.0000000000133 	8.436733809721922e-12 	101324.999999993
1.224974974974975 	300.0000000000299 	8.507082014140448e-12 	101324.9999999928
1.227477477477477 	299.9999999999884 	6.941202787432826e-12 	101324.9999999926
1.229979979979979 	299.9999999999892 	7.932497960239644e-12 	101324.9999999926
1.232482482482482 	299.9999999999528 	7.054848092487636e-12 	101324.9999999925
1.234984984984984 	299.9999999999409 	8.256603089855678e-12 	101324.9999999924
1.237487487487487 	299.9999999999803 	7.160357605492377e-12 	101324.9999999923
1.239989989989989 	299.9999999999935 	7.291038141710524e-12 	101324.9999999927
1.242492492492492 	300.0000000000249 	7.033743090959391e-12 	101324.999999993
1.244994994994994 	299.9999999999946 	5.740368245595454e-12 	101324.9999999931
1.247497497497497 	300.0000000000001 	6.932068755309879e-12 	101324.9999999932
1.249999999999999 	300.0000000000467 	6.636800908919573e-12 	101324.9999999931
