-1.25 	300 	0.07204084276959029 	101295.6107373854
-1.247497497497497 	299.9745578849661 	0.07079192795283984 	101296.1600248036
-1.244994994994995 	299.9760580185427 	0.06919095600452463 	101296.7180678602
-1.242492492492492 	299.9765504969072 	0.06800627687364874 	101297.280400176
-1.23998998998999 	299.977028989292 	0.06651738385544728 	101297.8467179681
-1.237487487487487 	299.9775131862466 	0.0651516244652084 	101298.4190560274
-1.234984984984985 	299.9780017276061 	0.06373730776113515 	101298.9965077964
-1.232482482482482 	299.9784944301277 	0.06230893253309079 	101299.5788794258
-1.22997997997998 	299.978990591588 	0.06087085804855653 	101300.1653423883
-1.227477477477477 	299.9794902122914 	0.05942325712424256 	101300.7558968916
-1.224974974974975 	299.9799944362044 	0.05796483980699921 	101301.3518936824
-1.222472472472472 	299.9805027514686 	0.05649454915145405 	101301.9527296997
-1.21996996996997 	299.9810144741423 	0.05500781700518189 	101302.5575960935
-1.217467467467467 	299.9815289774818 	0.05351102271697317 	101303.1657500146
-1.214964964964965 	299.9820470365885 	0.05201411670902592 	101303.7781107336
-1.212462462462462 	299.9825689012433 	0.0505058831166248 	101304.3949721525
-1.20995995995996 	299.9830932040803 	0.04898704730881927 	101305.0147174348
-1.207457457457457 	299.9836206262394 	0.04745592735700754 	101305.6381539236
-1.204954954954955 	299.9841514527855 	0.0459136512390245 	101306.2656165237
-1.202452452452452 	299.9846849186606 	0.04437252029083909 	101306.8962008503
-1.19994994994995 	299.9852210749445 	0.04282298022540017 	101307.5299694424
-1.197447447447447 	299.9857613407027 	0.04125828456439821 	101308.1685984562
-1.194944944944945 	299.9863041880729 	0.03968233742842477 	101308.8102795877
-1.192442442442442 	299.9868470332014 	0.0381047287931827 	101309.4519611403
-1.18993993993994 	299.9873925216349 	0.03652671224961078 	101310.0967732393
-1.187437437437437 	299.9879438941813 	0.03493431773049504 	101310.7485431472
-1.184934934934935 	299.9884972232908 	0.03333320099174534 	101311.4026259817
-1.182432432432432 	299.9890487269728 	0.03173160584399044 	101312.0545537338
-1.17992992992993 	299.9896014410622 	0.0301275605066078 	101312.7079167733
-1.177427427427427 	299.9901582422222 	0.02851753134364213 	101313.3661157998
-1.174924924924925 	299.9907182557305 	0.02689653424779383 	101314.0281149391
-1.172422422422422 	299.9912807934582 	0.0252667674718552 	101314.6930995124
-1.16991991991992 	299.9918460112978 	0.02362914756362994 	101315.3612536385
-1.167417417417417 	299.9924119794188 	0.02198948600250037 	101316.0302965624
-1.164914914914915 	299.9929758356344 	0.02035764792910674 	101316.6968476737
-1.162412412412412 	299.9935366711438 	0.01873235554261439 	101317.3598343742
-1.15990990990991 	299.9940976322205 	0.01710423500124177 	101318.0229733114
-1.157407407407407 	299.9946643623173 	0.0154603938858626 	101318.6929324252
-1.154904904904904 	299.9952395020244 	0.01379574675354437 	101319.3728336981
-1.152402402402403 	299.9958198755846 	0.01211675952663715 	101320.0589255133
-1.1498998998999 	299.9963998179923 	0.01043856603441138 	101320.7445127802
-1.147397397397397 	299.9969740436582 	0.008776215350432949 	101321.4233478275
-1.144894894894895 	299.9975413827437 	0.007130982333388323 	101322.0940452442
-1.142392392392392 	299.9981051853936 	0.00549697564636002 	101322.7605619736
-1.13988988988989 	299.9986694959186 	0.003861918885574921 	101323.4276780281
-1.137387387387387 	299.9992367666772 	0.002215057618774591 	101324.0982924724
-1.134884884884885 	299.9998100973215 	0.0007732970039234728 	101324.7760706475
-1.132382382382382 	300.0003876171319 	0.001113666119341236 	101325.458802042
-1.12987987987988 	300.0009647774443 	0.002785064351906022 	101326.141112071
-1.127377377377377 	300.0015405665798 	0.004453036667661708 	101326.8218070907
-1.124874874874875 	300.0021151655598 	0.006117636753701729 	101327.5011011899
-1.122372372372372 	300.0026887969714 	0.00777943560748368 	101328.1792570637
-1.11986986986987 	300.0032615972532 	0.009438812935070815 	101328.8564352533
-1.117367367367367 	300.0038336110509 	0.01109590163308333 	101329.5326880264
-1.114864864864865 	300.0044048169727 	0.01275064414138448 	101330.2079896084
-1.112362362362362 	300.0049751538187 	0.01440286592328484 	101330.8822673115
-1.10985985985986 	300.0055445388545 	0.01605233011806209 	101331.5554232107
-1.107357357357357 	300.0061128788624 	0.01769876700506232 	101332.2273467598
-1.104854854854855 	300.0066800751674 	0.01934189042291945 	101332.8979213666
-1.102352352352353 	300.00724602682 	0.02098140810075713 	101333.5670276115
-1.09984984984985 	300.0078106318865 	0.02261702464240974 	101334.2345447676
-1.097347347347347 	300.0083737876709 	0.02424844196728341 	101334.9003515799
-1.094844844844845 	300.0089353915253 	0.02587536257601893 	101335.5643266474
-1.092342342342342 	300.0094953408844 	0.02749748985811155 	101336.2263486221
-1.08983983983984 	300.0100535333158 	0.02911452592039646 	101336.8862963332
-1.087337337337337 	300.0106098664974 	0.03072617424261351 	101337.5440488502
-1.084834834834835 	300.0111642384429 	0.0323321404031552 	101338.1994855593
-1.082332332332332 	300.0117165475726 	0.03393212919151561 	101338.8524861824
-1.07982982982983 	300.012266692392 	0.03552584633086663 	101339.5029308515
-1.077327327327327 	300.0128145719474 	0.03711300008708896 	101340.1507001852
-1.074824824824825 	300.0133600857683 	0.03869329910032578 	101340.795675292
-1.072322322322323 	300.0139031337384 	0.04026645291205852 	101341.4377377778
-1.06981981981982 	300.0144436161877 	0.04183217306439096 	101342.0767696979
-1.067317317317317 	300.0149814336897 	0.04339017196429888 	101342.7126536388
-1.064814814814815 	300.0155164876719 	0.04494016315287486 	101343.3452728118
-1.062312312312312 	300.0160486799174 	0.04648186268620827 	101343.9745110678
-1.05980980980981 	300.0165779126739 	0.04801498782897261 	101344.6002529374
-1.057307307307307 	300.0171040889484 	0.04953925637318062 	101345.2223835266
-1.054804804804805 	300.0176271121219 	0.05105438886491533 	101345.8407885444
-1.052302302302302 	300.0181468861103 	0.05256010781765137 	101346.4553543993
-1.0497997997998 	300.0186633153454 	0.05405613605533725 	101347.0659681988
-1.047297297297297 	300.0191763052767 	0.05554219892603005 	101347.6725178502
-1.044794794794795 	300.0196857619021 	0.05701802439932631 	101348.2748920222
-1.042292292292292 	300.0201915913736 	0.05848334139328321 	101348.8729801362
-1.03978978978979 	300.0206937008023 	0.05993788109420098 	101349.4666724153
-1.037287287287287 	300.0211919985085 	0.06138137691478422 	101350.0558598231
-1.034784784784785 	300.0216863933036 	0.06281356351593581 	101350.6404342201
-1.032282282282283 	300.0221767938419 	0.06423417841119476 	101351.2202883503
-1.02977977977978 	300.0226631096918 	0.06564296154048026 	101351.7953157476
-1.027277277277277 	300.0231452526572 	0.06703965383254815 	101352.365410877
-1.024774774774775 	300.0236231348464 	0.06842399898875531 	101352.9304690449
-1.022272272272272 	300.0240966673679 	0.06979574352662317 	101353.4903864395
-1.01976976976977 	300.0245657621765 	0.07115463503127779 	101354.0450602078
-1.017267267267267 	300.0250303343053 	0.07250042375866581 	101354.5943883405
-1.014764764764765 	300.0254903004789 	0.07383286324657524 	101355.1382699135
-1.012262262262262 	300.0259455751342 	0.07515170852821146 	101355.6766050626
-1.00975975975976 	300.0263960716593 	0.07645671744672071 	101356.2092948594
-1.007257257257257 	300.0268417074931 	0.07774765108341167 	101356.7362415575
-1.004754754754755 	300.0272824047792 	0.07902427217535715 	101357.2573483903
-1.002252252252252 	300.0277180849221 	0.08028634652944958 	101357.7725196381
-0.9997497497497498 	300.0281486644116 	0.08153364350223911 	101358.2816609463
-0.9972472472472473 	300.0285740589772 	0.08276593411094434 	101358.7846789105
-0.9947447447447449 	300.0289941914335 	0.08398299225081853 	101359.2814811422
-0.9922422422422421 	300.0294089921487 	0.08518459514367423 	101359.7719765327
-0.9897397397397399 	300.0298183896759 	0.08637052209654361 	101360.2560750138
-0.9872372372372376 	300.0302223039256 	0.0875405561972698 	101360.733687908
-0.9847347347347346 	300.030620651396 	0.08869448358409721 	101361.2047277753
-0.9822322322322323 	300.0310133559349 	0.08983209175648665 	101361.6691079162
-0.9797297297297296 	300.0314003539729 	0.09095317210452675 	101362.1267430739
-0.9772272272272275 	300.0317815861517 	0.09205751987541209 	101362.5775494371
-0.9747247247247248 	300.0321569841261 	0.09314493209255383 	101363.0214441696
-0.9722222222222224 	300.0325264685326 	0.09421520955532861 	101363.458345973
-0.9697197197197196 	300.0328899585988 	0.09526815660315816 	101363.8881747483
-0.9672172172172175 	300.0332473846989 	0.09630357938227725 	101364.3108512736
-0.9647147147147147 	300.0335986922825 	0.09732128794227453 	101364.7262980716
-0.9622122122122124 	300.0339438320762 	0.09832109595065715 	101365.1344389332
-0.9597097097097099 	300.0342827469494 	0.09930281969625526 	101365.5351986535
-0.9572072072072073 	300.0346153668861 	0.1002662799053281 	101365.9285040719
-0.9547047047047047 	300.0349416152267 	0.1012113003178301 	101366.3142832554
-0.9522022022022023 	300.0352614197964 	0.102137706583585 	101366.6924648724
-0.9496996996996998 	300.035574722755 	0.1030453287801621 	101367.0629794488
-0.9471971971971973 	300.0358814792958 	0.1039340001768803 	101367.425758885
-0.9446946946946947 	300.0361816484777 	0.104803556699217 	101367.7807360863
-0.9421921921921923 	300.0364751848883 	0.1056538401437112 	101368.1278463815
-0.93968968968969 	300.0367620321587 	0.1064846955976696 	101368.4670265474
-0.9371871871871872 	300.0370421247018 	0.1072959694178963 	101368.7982137215
-0.9346846846846848 	300.0373153968193 	0.1080875129597785 	101369.1213471492
-0.9321821821821823 	300.0375817890493 	0.108859181488167 	101369.4363678128
-0.9296796796796799 	300.0378412506779 	0.1096108319068287 	101369.7432170509
-0.9271771771771771 	300.0380937405806 	0.1103423258193257 	101370.0418382687
-0.9246746746746748 	300.0383392242322 	0.111053529184502 	101370.3321769977
-0.9221721721721724 	300.0385776680537 	0.1117443100704469 	101370.6141790948
-0.9196696696696698 	300.0388090361482 	0.1124145417868821 	101370.8877925038
-0.9171671671671672 	300.0390332895085 	0.1130641032043377 	101371.1529681669
-0.9146646646646649 	300.0392503841605 	0.113692875384283 	101371.4096574142
-0.9121621621621623 	300.0394602738195 	0.1143007423920353 	101371.6578124397
-0.9096596596596597 	300.039662914326 	0.1148875930632304 	101371.8973882293
-0.9071571571571573 	300.0398582630323 	0.1154533193864294 	101372.1283406912
-0.9046546546546547 	300.040046279138 	0.1159978159204053 	101372.3506261763
-0.9021521521521524 	300.0402269258699 	0.1165209826788504 	101372.5642041011
-0.8996496496496498 	300.0404001699914 	0.117022725092511 	101372.7690361889
-0.8971471471471473 	300.0405659791524 	0.1175029501729114 	101372.965084065
-0.894644644644645 	300.0407243225477 	0.1179615676039375 	101373.1523107218
-0.892142142142142 	300.0408751724642 	0.1183984933548355 	101373.330682055
-0.8896396396396397 	300.0410185020585 	0.1188136468280762 	101373.5001651063
-0.8871371371371374 	300.0411542848669 	0.1192069491361279 	101373.6607274712
-0.8846346346346349 	300.0412824968324 	0.1195783278991291 	101373.8123394544
-0.8821321321321324 	300.0414031160964 	0.1199277173972055 	101373.9549744965
-0.8796296296296297 	300.0415161211337 	0.1202550530269855 	101374.0886064141
-0.8771271271271271 	300.0416214898771 	0.1205602714439694 	101374.2132087179
-0.8746246246246248 	300.0417192031848 	0.1208433166526035 	101374.3287583451
-0.8721221221221224 	300.041809245019 	0.1211041393338388 	101374.4352361157
-0.8696196196196196 	300.0418915977721 	0.1213426887314773 	101374.5326211454
-0.8671171171171175 	300.0419662433599 	0.1215589148343074 	101374.6208917374
-0.8646146146146148 	300.042033169472 	0.1217527811584353 	101374.7000334774
-0.8621121121121121 	300.0420923672399 	0.1219242576727734 	101374.7700356428
-0.8596096096096097 	300.0421438218638 	0.1220733041325256 	101374.8308806756
-0.857107107107107 	300.0421875196348 	0.1221998862467124 	101374.8825526228
-0.8546046046046049 	300.0422234592495 	0.1223039942548941 	101374.9250496023
-0.8521021021021022 	300.0422516380337 	0.1223856153198113 	101374.9583685907
-0.8495995995995997 	300.0422720411391 	0.1224447152141424 	101374.9824920484
-0.8470970970970974 	300.0422846616733 	0.1224812787986238 	101374.9974117542
-0.8445945945945946 	300.0422895108822 	0.122495324747649 	101375.0031407652
-0.8420920920920922 	300.0422865879547 	0.1224868466103493 	101374.9996779249
-0.8395895895895897 	300.0422758712823 	0.1224558052368128 	101374.9869992703
-0.8370870870870872 	300.0422573657108 	0.1224022118598222 	101374.9651094007
-0.8345845845845846 	300.0422311002847 	0.1223261265885154 	101374.9340422681
-0.8320820820820823 	300.0421970744405 	0.1222275501635093 	101374.8937976251
-0.8295795795795798 	300.0421552629688 	0.1221064379429552 	101374.8443456004
-0.8270770770770772 	300.0421056828332 	0.1219628355853723 	101374.785706307
-0.8245745745745746 	300.0420483827358 	0.1217968481880335 	101374.7179374169
-0.8220720720720721 	300.0419833583354 	0.1216084693777055 	101374.6410337021
-0.8195695695695699 	300.0419105698746 	0.1213976295196969 	101374.5549481836
-0.817067067067067 	300.041830049011 	0.1211644116744989 	101374.4597184636
-0.8145645645645651 	300.041741875344 	0.1209089894633752 	101374.3554385811
-0.8120620620620621 	300.0416460422675 	0.120631353310599 	101374.2421006289
-0.8095595595595597 	300.0415424829773 	0.1203313805653797 	101374.1196257478
-0.8070570570570572 	300.0414312386913 	0.1200091838594836 	101373.9880628661
-0.8045545545545546 	300.0413124377665 	0.1196650466003586 	101373.8475636188
-0.8020520520520523 	300.0411860853029 	0.1192989823887393 	101373.6981339659
-0.7995495495495494 	300.0410520664383 	0.1189107669718177 	101373.5396381907
-0.7970470470470474 	300.0409104055528 	0.1185004881944232 	101373.3721052962
-0.7945445445445446 	300.0407613009462 	0.1180685909515471 	101373.1957698038
-0.7920420420420423 	300.0406048129836 	0.1176152048019109 	101373.0107029585
-0.7895395395395397 	300.0404407619217 	0.1171399567137154 	101372.8166922164
-0.7870370370370371 	300.0402690869912 	0.1166427598568341 	101372.6136659618
-0.7845345345345348 	300.0400900548002 	0.1161242304953539 	101372.4019395579
-0.7820320320320323 	300.0399038756021 	0.1155848266706294 	101372.1817614977
-0.7795295295295296 	300.0397103445866 	0.1150240989474949 	101371.9528895259
-0.7770270270270272 	300.0395092002478 	0.1144415171934347 	101371.7150145174
-0.7745245245245247 	300.0393006721627 	0.1138376505056908 	101371.4684082559
-0.7720220220220222 	300.0390852351288 	0.113213566621566 	101371.2136321727
-0.7695195195195199 	300.0388628596887 	0.1125691775350358 	101370.9506511935
-0.767017017017017 	300.0386330203063 	0.1119033271892163 	101370.67884377
-0.7645145145145147 	300.038395598143 	0.1112158316956355 	101370.3980699421
-0.7620120120120122 	300.0381512581936 	0.1105082521412506 	101370.1091163758
-0.7595095095095097 	300.037900538664 	0.109781785123686 	101369.812619132
-0.7570070070070072 	300.0376429714763 	0.1090353296856564 	101369.5080242087
-0.7545045045045048 	300.0373777320405 	0.1082670574548541 	101369.1943568647
-0.7520020020020022 	300.0371050197278 	0.1074775454738073 	101368.8718537582
-0.7494994994994997 	300.0368260308189 	0.1066695981110822 	101368.5419293677
-0.7469969969969972 	300.0365413100161 	0.1058444106777632 	101368.2052271349
-0.7444944944944945 	300.0362498239028 	0.1049995335118117 	101367.8605246951
-0.7419919919919924 	300.0359503391974 	0.1041321804556418 	101367.5063643863
-0.7394894894894897 	300.0356433716736 	0.1032437199212976 	101367.1433572687
-0.7369869869869872 	300.0353308371187 	0.1023387041029493 	101366.7737684986
-0.7344844844844846 	300.0350135460523 	0.1014189403412614 	101366.398555287
-0.7319819819819822 	300.0346898816003 	0.1004805105822222 	101366.0158048489
-0.7294794794794797 	300.0343577569582 	0.09951855176196582 	101365.6230509534
-0.7269769769769773 	300.0340175742845 	0.09853423835580631 	101365.2207709506
-0.7244744744744747 	300.0336722014781 	0.09753453779446894 	101364.8123562978
-0.721971971971972 	300.0333235689442 	0.09652397125268322 	101364.4000875645
-0.7194694694694695 	300.0329699972864 	0.09549832040598286 	101363.9819768801
-0.7169669669669674 	300.032607886481 	0.09444890127754271 	101363.5537683834
-0.7144644644644647 	300.0322361444863 	0.09337330832134473 	101363.114173777
-0.711961961961962 	300.031858059689 	0.09227977621288469 	101362.6670834974
-0.7094594594594597 	300.0314779677408 	0.09117887463897713 	101362.2176225905
-0.7069569569569573 	300.0310961956542 	0.09007117567878462 	101361.7661738145
-0.7044544544544545 	300.0307081696853 	0.08894527456820128 	101361.3073272064
-0.7019519519519523 	300.0303091767599 	0.08778967385289886 	101360.8355126075
-0.6994494494494495 	300.029899853395 	0.08660627502275635 	101360.3514874465
-0.6969469469469471 	300.029486255421 	0.08541033042607474 	101359.8624142097
-0.6944444444444446 	300.0290739326906 	0.08421557599764534 	101359.3748521597
-0.6919419419419421 	300.0286619417771 	0.08301937059822039 	101358.8876802716
-0.6894394394394396 	300.0282431643429 	0.08180369668723542 	101358.3924795612
-0.6869369369369374 	300.0278110737022 	0.08055228258495287 	101357.8815358519
-0.6844344344344344 	300.0273665092432 	0.07926759859412646 	101357.3558479794
-0.6819319319319321 	300.0269176900438 	0.07797069934314305 	101356.8251377894
-0.6794294294294296 	300.0264730267575 	0.07668289037568678 	101356.2993473423
-0.6769269269269272 	300.0260332142522 	0.07540566792733182 	101355.7792918374
-0.6744244244244245 	300.0255899686179 	0.07411763332217809 	101355.2551717041
-0.6719219219219222 	300.0251328538034 	0.07279207672097918 	101354.7146490086
-0.6694194194194195 	300.0246584489443 	0.07142049755806182 	101354.1536852194
-0.6669169169169172 	300.0241739486949 	0.07002175756967383 	101353.5807933564
-0.6644144144144146 	300.0236919177725 	0.06862844976278666 	101353.0108304701
-0.661911911911912 	300.0232203247448 	0.0672610988152943 	101352.4532129158
-0.6594094094094097 	300.0227558822 	0.06591090671661885 	101351.9040467337
-0.656906906906907 	300.0222860179874 	0.06454492568513559 	101351.3484640115
-0.6544044044044046 	300.0217980437597 	0.06313004193813521 	101350.7714659125
-0.6519019019019021 	300.0212887106753 	0.06165799297663827 	101350.1692189095
-0.6493993993993996 	300.0207671490027 	0.06015303716232146 	101349.5525246194
-0.6468968968968971 	300.0202490316216 	0.05865659021707587 	101348.9399141961
-0.6443943943943946 	300.0197460615821 	0.05719952381348643 	101348.3452183505
-0.6418918918918921 	300.019258014406 	0.05578108535197812 	101347.7681626068
-0.6393893893893897 	300.0187725351141 	0.05436827841209284 	101347.1941334842
-0.6368868868868871 	300.0182726128748 	0.05291572262862988 	101346.6030196371
-0.6343843843843846 	300.0177469387514 	0.05139332126400082 	101345.9814576524
-0.6318818818818821 	300.017196898443 	0.04980498873548419 	101345.3310958145
-0.6293793793793795 	300.0166361841243 	0.04818763801183015 	101344.6681290432
-0.6268768768768773 	300.0160834161877 	0.04659144241656867 	101344.014571292
-0.6243743743743745 	300.0155520452449 	0.0450529213854994 	101343.3864169668
-0.6218718718718721 	300.0150435440942 	0.04357563712950192 	101342.7852336716
-0.6193693693693696 	300.0145463625649 	0.04212805476804279 	101342.1973034025
-0.6168668668668671 	300.0140413832123 	0.04065851582140892 	101341.6002076408
-0.6143643643643645 	300.013511124029 	0.03911924714913643 	101340.9732467158
-0.6118618618618621 	300.0129474708997 	0.03748808648288165 	101340.3068059091
-0.6093593593593596 	300.0123553326907 	0.03577859655533854 	101339.6066984738
-0.6068568568568571 	300.011750761608 	0.03403491657694569 	101338.8919087695
-0.6043543543543546 	300.0111545577748 	0.03231432563747048 	101338.187028795
-0.6018518518518521 	300.010584297901 	0.03066539447097791 	101337.5128339802
-0.5993493493493496 	300.0100480456452 	0.02911051861471313 	101336.8788495801
-0.5968468468468471 	300.0095417901431 	0.02763864231414294 	101336.2803250418
-0.5943443443443446 	300.0090510175847 	0.02620939479538918 	101335.7000951054
-0.591841841841842 	300.0085553300326 	0.02476577766206357 	101335.1140420995
-0.5893393393393397 	300.0080342551699 	0.02325040895344307 	101334.4979644753
-0.5868368368368371 	300.0074725556441 	0.02162050513892574 	101333.8338533382
-0.5843343343343346 	300.0068638570509 	0.01985817179776345 	101333.1141802137
-0.5818318318318321 	300.0062119962844 	0.01797426162426098 	101332.3434889676
-0.5793293293293297 	300.0055300571137 	0.01600570142513366 	101331.537254046
-0.5768268268268271 	300.0048375502368 	0.01400759341182042 	101330.7185450697
-0.5743243243243245 	300.0041565544061 	0.01204245277662486 	101329.9134646363
-0.5718218218218221 	300.0035078896428 	0.01016962659475186 	101329.1466243853
-0.5693193193193196 	300.002908444209 	0.008437644133077842 	101328.4379859124
-0.5668168168168171 	300.0023699405099 	0.006880439174615683 	101327.8014031735
-0.5643143143143147 	300.0018987646102 	0.005516704980193297 	101327.244421193
-0.5618118118118121 	300.0014964942043 	0.004351323325314606 	101326.7689011071
-0.5593093093093094 	300.0011608311377 	0.003377987185770297 	101326.3721231766
-0.5568068068068072 	300.0008866913322 	0.002582301198042833 	101326.048074848
-0.5543043043043046 	300.0006672668421 	0.001944825929308376 	101325.7887064188
-0.551801801801802 	300.0004949447426 	0.00144372625912367 	101325.5850174283
-0.5492992992992995 	300.0003620273079 	0.001056855473256716 	101325.4279073592
-0.5467967967967969 	300.000261240437 	0.0007632371371734245 	101325.3087772709
-0.5442942942942947 	300.0001860504774 	0.0005439926277217761 	101325.2199036227
-0.5417917917917919 	300.0001308215672 	0.0003828096452799104 	101325.1546243578
-0.5392892892892895 	300.0000908539621 	0.0002660642462834005 	101325.1073839951
-0.536786786786787 	300.0000623409838 	0.0001827059970283766 	101325.0736828333
-0.5342842842842846 	300.0000422774884 	0.000124000219508995 	101325.0499688168
-0.531781781781782 	300.0000283454494 	8.320102168842519e-05 	101325.0335020225
-0.5292792792792794 	300.0000187941403 	5.520739358424846e-05 	101325.0222130474
-0.526776776776777 	300.0000123266492 	3.623659383111454e-05 	101325.0145689899
-0.5242742742742745 	300.0000079995904 	2.353376147610265e-05 	101325.0094546933
-0.521771771771772 	300.0000051380172 	1.51264187785173e-05 	101325.0060725148
-0.5192692692692695 	300.0000032667464 	9.624582057715656e-06 	101325.0038609451
-0.516766766766767 	300.0000020566029 	6.063529309375507e-06 	101325.0024306261
-0.5142642642642645 	300.0000012822059 	3.783172042147245e-06 	101325.00151542
-0.511761761761762 	300.0000007918366 	2.338099741054243e-06 	101325.0009358889
-0.5092592592592596 	300.000000484494 	1.431610835740771e-06 	101325.0005726303
-0.506756756756757 	300.0000002937029 	8.686145873129844e-07 	101325.0003471848
-0.5042542542542544 	300.0000001765209 	5.223184324753412e-07 	101325.000208621
-0.5017517517517521 	300.0000001051818 	3.113410984960583e-07 	101325.0001242614
-0.4992492492492494 	300.0000000621289 	1.839838969133677e-07 	101325.0000733772
-0.496746746746747 	300.0000000363491 	1.078117169989143e-07 	101325.0000429629
-0.4942442442442445 	300.0000000210561 	6.264926349529587e-08 	101325.0000249452
-0.4917417417417421 	300.0000000121007 	3.611371431655304e-08 	101325.0000143645
-0.4892392392392395 	300.0000000069048 	2.064824786790593e-08 	101325.000008204
-0.486736736736737 	300.0000000038993 	1.171766102509122e-08 	101325.0000046472
-0.4842342342342345 	300.0000000021368 	6.594629698207648e-09 	101325.0000026103
-0.481731731731732 	300.000000001269 	3.688275353418736e-09 	101325.0000014527
-0.4792292292292296 	300.0000000007069 	2.043602884468532e-09 	101325.0000008004
-0.4767267267267268 	300.0000000003151 	1.129702260670205e-09 	101325.000000436
-0.4742242242242246 	300.0000000001895 	6.142879321255795e-10 	101325.0000002337
-0.471721721721722 	300.0000000000554 	3.370259137349663e-10 	101325.0000001222
-0.4692192192192195 	300.0000000000185 	1.786055775986973e-10 	101325.0000000613
-0.4667167167167169 	299.9999999999336 	9.815461166291924e-11 	101325.0000000281
-0.4642142142142145 	300.0000000000117 	4.979904351198699e-11 	101325.0000000103
-0.461711711711712 	300.000000000023 	2.894655426618985e-11 	101325.0000000009
-0.4592092092092094 	300.0000000000176 	1.439057512708949e-11 	101324.9999999958
-0.456706706706707 	300.0000000000548 	1.101817922958384e-11 	101324.9999999932
-0.4542042042042045 	299.9999999999345 	6.415815183815413e-12 	101324.999999992
-0.451701701701702 	299.9999999999513 	6.486334333439244e-12 	101324.9999999915
-0.4491991991991995 	299.9999999999516 	3.311745725481795e-12 	101324.9999999909
-0.4466966966966969 	299.9999999999325 	4.353608120103964e-12 	101324.9999999908
-0.4441941941941945 	299.9999999999922 	9.942558833521177e-13 	101324.9999999905
-0.441691691691692 	299.9999999999504 	3.969444043222075e-12 	101324.9999999905
-0.4391891891891895 	299.9999999999844 	2.538310400924612e-12 	101324.9999999904
-0.436686686686687 	299.9999999999646 	4.331557199844535e-12 	101324.9999999905
-0.4341841841841846 	299.9999999999949 	3.822195602277452e-12 	101324.9999999904
-0.431681681681682 	299.9999999999456 	3.50631572409705e-12 	101324.9999999905
-0.4291791791791794 	299.9999999999026 	2.539792089184067e-12 	101324.9999999909
-0.426676676676677 	299.9999999999083 	2.976320615039488e-12 	101324.9999999909
-0.4241741741741744 	299.9999999999643 	1.655343684684574e-12 	101324.9999999911
-0.421671671671672 	300.000000000007 	2.945289641513559e-12 	101324.9999999909
-0.4191691691691694 	300.000000000051 	5.883086242973001e-13 	101324.9999999909
-0.4166666666666669 	300.0000000000584 	2.966414811662407e-12 	101324.9999999911
-0.4141641641641645 	299.9999999999278 	1.940015093885746e-12 	101324.9999999911
-0.411661661661662 	300.000000000005 	3.122710116061039e-12 	101324.999999991
-0.4091591591591594 	300.0000000000041 	2.331684807439787e-12 	101324.9999999912
-0.406656656656657 	299.99999999993 	3.887885906868363e-12 	101324.9999999911
-0.4041541541541545 	300.0000000000165 	1.768679058762078e-12 	101324.9999999911
-0.401651651651652 	299.9999999999145 	4.503708244874953e-12 	101324.9999999912
-0.3991491491491494 	299.9999999999969 	1.220132857180026e-12 	101324.9999999912
-0.396646646646647 	299.9999999999521 	5.353474334878681e-12 	101324.9999999914
-0.3941441441441444 	299.9999999999727 	1.476487839128965e-12 	101324.9999999915
-0.3916416416416419 	299.9999999999264 	5.485792256794628e-12 	101324.9999999914
-0.3891391391391395 	299.9999999999578 	1.282602207978806e-12 	101324.9999999913
-0.3866366366366368 	299.9999999999535 	3.924845395847463e-12 	101324.9999999913
-0.3841341341341344 	299.9999999999951 	2.072234484598246e-12 	101324.9999999912
-0.381631631631632 	299.999999999949 	3.48935758571332e-12 	101324.9999999911
-0.3791291291291294 	300.0000000000052 	2.162180280090665e-12 	101324.9999999912
-0.3766266266266269 	300.0000000000228 	1.829446800442249e-12 	101324.9999999913
-0.3741241241241244 	300.0000000000257 	2.73104680079473e-12 	101324.9999999914
-0.371621621621622 	300.0000000000168 	9.005702201700031e-13 	101324.9999999911
-0.3691191191191194 	300.0000000000057 	3.91421218982106e-12 	101324.9999999913
-0.366616616616617 	300.0000000000099 	1.249205227025511e-12 	101324.9999999913
-0.3641141141141143 	299.9999999999618 	3.970237717531201e-12 	101324.9999999913
-0.3616116116116119 	299.9999999999441 	1.906372672622631e-12 	101324.9999999912
-0.3591091091091095 	299.9999999999867 	2.749412297608471e-12 	101324.9999999912
-0.356606606606607 	299.9999999999835 	1.713109073207937e-12 	101324.9999999914
-0.3541041041041044 	299.9999999999843 	1.394059320848466e-12 	101324.9999999915
-0.3516016016016019 	300.0000000000005 	2.548402219039655e-12 	101324.9999999915
-0.3490990990990994 	299.9999999999823 	1.494116414846355e-12 	101324.9999999912
-0.346596596596597 	300.0000000000463 	3.91378917990983e-12 	101324.9999999909
-0.3440940940940944 	300.0000000000567 	1.681180022286659e-12 	101324.9999999912
-0.3415915915915919 	300.0000000000191 	4.18995673233418e-12 	101324.9999999912
-0.3390890890890895 	299.9999999999773 	2.951212329454454e-12 	101324.9999999909
-0.3365865865865869 	300.00000000002 	4.34759238325695e-12 	101324.9999999907
-0.3340840840840844 	300.0000000000074 	2.538138931562889e-12 	101324.9999999906
-0.3315815815815819 	300.0000000000276 	3.168869683371344e-12 	101324.9999999908
-0.3290790790790794 	300.0000000000152 	1.79315618987167e-12 	101324.9999999906
-0.3265765765765769 	299.9999999999243 	2.76823780234844e-12 	101324.9999999903
-0.3240740740740744 	299.999999999994 	1.000021408318546e-12 	101324.9999999905
-0.3215715715715718 	300.0000000000061 	3.214696662909761e-12 	101324.9999999906
-0.3190690690690695 	299.9999999999215 	1.01354943654515e-12 	101324.9999999908
-0.3165665665665668 	299.9999999999879 	3.434627476931762e-12 	101324.9999999909
-0.3140640640640644 	300.0000000000048 	8.336694640037187e-13 	101324.9999999909
-0.311561561561562 	299.9999999999216 	4.758073180023034e-12 	101324.999999991
-0.3090590590590593 	299.9999999999909 	1.171706365734081e-12 	101324.999999991
-0.3065565565565568 	300.0000000000014 	6.204264767245844e-12 	101324.9999999912
-0.3040540540540545 	300.0000000000191 	1.432643952502086e-12 	101324.9999999914
-0.3015515515515518 	300.0000000000346 	6.404050076553164e-12 	101324.9999999915
-0.2990490490490494 	299.9999999999429 	2.367245780833463e-12 	101324.9999999916
-0.2965465465465469 	299.9999999999824 	4.871216839436016e-12 	101324.9999999914
-0.2940440440440444 	300.0000000000002 	3.015285354718176e-12 	101324.9999999913
-0.2915415415415418 	300.000000000001 	4.394250838245828e-12 	101324.9999999912
-0.2890390390390395 	299.9999999999999 	4.647070018465722e-12 	101324.999999991
-0.2865365365365368 	299.9999999999769 	3.939854861633472e-12 	101324.9999999912
-0.2840340340340343 	300.0000000000061 	5.56476677046249e-12 	101324.9999999914
-0.2815315315315318 	299.9999999999249 	3.78262367099375e-12 	101324.9999999912
-0.2790290290290295 	299.999999999954 	4.946249647672342e-12 	101324.9999999908
-0.2765265265265269 	300.0000000000101 	4.208440497026826e-12 	101324.9999999908
-0.2740240240240244 	300.0000000000345 	5.305909244541837e-12 	101324.9999999907
-0.2715215215215219 	300.0000000000123 	5.78410540279961e-12 	101324.9999999909
-0.2690190190190194 	299.9999999999396 	4.612311149661018e-12 	101324.9999999911
-0.2665165165165169 	299.999999999997 	5.546884531476052e-12 	101324.9999999913
-0.2640140140140144 	299.9999999999624 	4.129985901474782e-12 	101324.9999999915
-0.2615115115115119 	299.9999999999994 	5.819978913638105e-12 	101324.9999999917
-0.2590090090090094 	299.9999999999329 	4.250064247400784e-12 	101324.9999999917
-0.2565065065065068 	299.9999999999976 	4.762391061221418e-12 	101324.9999999918
-0.2540040040040044 	300.0000000000003 	4.693255304775272e-12 	101324.9999999916
-0.2515015015015019 	300.0000000000452 	3.62077474921591e-12 	101324.9999999915
-0.2489989989989994 	300.0000000000509 	5.41077919854705e-12 	101324.9999999917
-0.2464964964964968 	299.9999999999924 	2.230339942722715e-12 	101324.9999999915
-0.2439939939939944 	300.0000000000008 	6.102367247127038e-12 	101324.9999999915
-0.2414914914914919 	299.9999999999696 	1.757762482996053e-12 	101324.9999999914
-0.2389889889889893 	300.0000000000059 	5.797581087627892e-12 	101324.9999999915
-0.2364864864864869 	300.0000000000231 	1.724988434052185e-12 	101324.9999999916
-0.2339839839839843 	299.9999999999213 	5.679788920728916e-12 	101324.9999999914
-0.2314814814814819 	299.9999999999807 	1.663431063933713e-12 	101324.9999999916
-0.2289789789789792 	299.9999999999218 	4.419521794277796e-12 	101324.9999999916
-0.2264764764764769 	299.9999999999445 	1.175724256548533e-12 	101324.9999999914
-0.2239739739739743 	299.9999999999592 	2.498324153237384e-12 	101324.9999999913
-0.2214714714714718 	299.9999999999377 	1.220060007510625e-12 	101324.9999999913
-0.2189689689689693 	299.9999999999714 	7.259314213694355e-13 	101324.9999999914
-0.2164664664664669 	299.9999999999779 	2.074835495256883e-12 	101324.9999999914
-0.2139639639639643 	299.9999999999249 	2.436919890166779e-13 	101324.9999999916
-0.2114614614614618 	299.9999999999733 	7.600613410814836e-13 	101324.9999999918
-0.2089589589589593 	299.9999999999939 	6.269861341723286e-13 	101324.9999999918
-0.2064564564564568 	299.9999999999923 	8.147128639007461e-13 	101324.9999999915
-0.2039539539539543 	299.9999999999004 	1.602665266839529e-12 	101324.9999999915
-0.2014514514514518 	299.9999999999486 	7.374763702343989e-13 	101324.9999999916
-0.1989489489489494 	299.9999999999743 	2.725457890750947e-12 	101324.9999999916
-0.1964464464464468 	299.9999999999975 	1.232682471578764e-12 	101324.9999999915
-0.1939439439439443 	299.9999999999853 	2.443439017372918e-12 	101324.9999999915
-0.1914414414414418 	299.9999999999139 	8.202767403106815e-13 	101324.9999999913
-0.1889389389389393 	300.0000000000059 	1.798256400400649e-12 	101324.9999999909
-0.1864364364364368 	300.0000000000395 	1.028816932891664e-12 	101324.9999999906
-0.1839339339339343 	299.999999999969 	2.600111494392834e-12 	101324.9999999906
-0.1814314314314318 	299.9999999999947 	1.167181427314809e-12 	101324.9999999908
-0.1789289289289293 	299.9999999999013 	3.13648908197326e-12 	101324.9999999907
-0.1764264264264268 	299.9999999999754 	7.17739065310233e-13 	101324.999999991
-0.1739239239239243 	299.999999999893 	3.940884618324156e-12 	101324.9999999911
-0.1714214214214218 	299.9999999999865 	1.124896671651268e-12 	101324.9999999914
-0.1689189189189193 	299.9999999999525 	4.57213971629307e-12 	101324.9999999915
-0.1664164164164168 	300.0000000000068 	2.495713497025596e-12 	101324.9999999913
-0.1639139139139143 	299.9999999999915 	5.592055065657154e-12 	101324.9999999914
-0.1614114114114118 	300.0000000000321 	3.682033921702298e-12 	101324.9999999914
-0.1589089089089093 	299.9999999999985 	7.25037350333324e-12 	101324.9999999914
-0.1564064064064068 	299.9999999999847 	4.760849086422057e-12 	101324.9999999912
-0.1539039039039043 	299.9999999999905 	7.469371403434882e-12 	101324.9999999909
-0.1514014014014018 	300.0000000000287 	3.922351863991893e-12 	101324.9999999908
-0.1488988988988993 	299.9999999999945 	7.873628477452062e-12 	101324.9999999907
-0.1463963963963968 	300.0000000000028 	1.916998783910674e-12 	101324.9999999905
-0.1438938938938943 	299.9999999999515 	7.493577291494625e-12 	101324.9999999901
-0.1413913913913918 	299.9999999999233 	8.025164088999182e-13 	101324.9999999903
-0.1388888888888893 	299.9999999999776 	5.272671736833681e-12 	101324.9999999906
-0.1363863863863868 	299.9999999998835 	1.03664603556483e-12 	101324.999999991
-0.1338838838838843 	299.9999999999185 	2.576797576105656e-12 	101324.9999999911
-0.1313813813813818 	299.9999999999936 	7.969710840559231e-13 	101324.999999991
-0.1288788788788793 	299.9999999999678 	2.506610190196074e-12 	101324.9999999915
-0.1263763763763768 	299.9999999999674 	1.448488947884367e-12 	101324.9999999917
-0.1238738738738743 	299.9999999999217 	2.059504656011785e-12 	101324.9999999913
-0.1213713713713717 	299.9999999999746 	1.876152194104465e-12 	101324.9999999911
-0.1188688688688693 	300.0000000000047 	3.874909524648225e-12 	101324.9999999911
-0.1163663663663668 	299.999999999899 	9.49185784274713e-13 	101324.999999991
-0.1138638638638643 	299.9999999999922 	4.643658676412602e-12 	101324.9999999912
-0.1113613613613618 	299.9999999999854 	1.419187213122027e-12 	101324.9999999912
-0.1088588588588592 	299.9999999999761 	5.619190494313836e-12 	101324.9999999909
-0.1063563563563568 	299.9999999999487 	8.882946593569959e-13 	101324.9999999908
-0.1038538538538543 	299.9999999999711 	4.633026770768396e-12 	101324.9999999908
-0.1013513513513517 	300.0000000000154 	5.705704848461139e-13 	101324.9999999909
-0.09884884884884926 	299.999999999937 	4.344956302992771e-12 	101324.9999999909
-0.09634634634634676 	299.9999999998889 	1.276279035125623e-12 	101324.9999999907
-0.09384384384384425 	299.9999999999248 	3.869089323515404e-12 	101324.9999999905
-0.09134134134134177 	300.0000000000247 	1.792563004909385e-12 	101324.9999999903
-0.08883883883883925 	300.0000000000056 	3.837930052185408e-12 	101324.9999999903
-0.08633633633633674 	299.9999999999546 	2.795868016754646e-12 	101324.9999999904
-0.08383383383383426 	300.0000000000106 	3.91142891234545e-12 	101324.9999999903
-0.08133133133133173 	299.9999999999644 	4.40015371314597e-12 	101324.9999999904
-0.07882882882882926 	299.9999999998837 	3.160016336534072e-12 	101324.9999999904
-0.07632632632632676 	299.9999999999559 	1.627771064737488e-12 	101324.9999999908
-0.07382382382382424 	299.9999999998899 	9.198476587601388e-13 	101324.9999999906
-0.07132132132132173 	300.0000000000149 	1.680473635632031e-13 	101324.9999999908
-0.06881881881881925 	299.9999999999623 	2.923789061333863e-14 	101324.999999991
-0.06631631631631671 	299.9999999998908 	6.642649900875835e-13 	101324.999999991
-0.06381381381381425 	299.9999999999531 	6.16270211025746e-13 	101324.9999999909
-0.06131131131131173 	299.9999999999552 	2.604187428766145e-13 	101324.9999999912
-0.05880880880880923 	299.9999999999067 	1.059297151329393e-13 	101324.9999999912
-0.05630630630630672 	299.9999999999708 	2.80983205457813e-13 	101324.9999999913
-0.05380380380380424 	300.0000000000167 	1.095608907843102e-12 	101324.9999999914
-0.05130130130130173 	300.0000000000126 	1.020293250803426e-12 	101324.9999999915
-0.04879879879879922 	299.9999999999412 	1.1310304020421e-12 	101324.9999999914
-0.04629629629629672 	299.999999999929 	3.975729938761363e-13 	101324.9999999913
-0.04379379379379422 	299.9999999999157 	9.321951971490443e-13 	101324.9999999911
-0.04129129129129173 	299.999999999982 	4.215338803921821e-13 	101324.9999999913
-0.03878878878878922 	299.9999999999828 	1.057678112400528e-12 	101324.9999999912
-0.03628628628628671 	299.9999999999811 	5.527493994491018e-13 	101324.9999999912
-0.03378378378378422 	299.9999999999181 	1.125019794527447e-12 	101324.9999999913
-0.03128128128128172 	299.9999999999634 	2.018613018521975e-13 	101324.9999999916
-0.02877877877877922 	299.999999999964 	8.429051864554283e-13 	101324.9999999915
-0.0262762762762767 	299.9999999998982 	1.077769276023429e-13 	101324.9999999913
-0.02377377377377422 	300.0000000000216 	1.40006918791878e-13 	101324.9999999912
-0.0212712712712717 	299.999999999898 	7.932208905489112e-14 	101324.9999999911
-0.01876876876876921 	299.9999999999643 	7.432934114600872e-13 	101324.9999999909
-0.01626626626626671 	300.0000000000154 	1.066016647403278e-13 	101324.9999999911
-0.0137637637637642 	299.9999999999649 	1.401743178737264e-13 	101324.9999999913
-0.0112612612612617 	300.0000000000199 	5.451787740060593e-13 	101324.9999999913
-0.008758758758759198 	299.9999999999965 	2.110169434443192e-14 	101324.9999999915
-0.006256256256256697 	299.9999999998809 	4.445313260624974e-13 	101324.9999999914
-0.003753753753754195 	299.9999999999482 	2.775144752831318e-13 	101324.9999999916
-0.001251251251251693 	299.9999999999253 	8.868734489089918e-13 	101324.9999999915
0.00125125125125081 	299.9999999999546 	6.923609719036427e-13 	101324.9999999914
0.003753753753753312 	299.9999999999616 	1.331355961247672e-12 	101324.9999999916
0.006256256256255817 	299.9999999998855 	9.581036031724588e-13 	101324.9999999913
0.008758758758758317 	299.9999999999861 	9.472469636872571e-13 	101324.9999999912
0.01126126126126082 	300.0000000000065 	1.073872369262654e-12 	101324.9999999912
0.01376376376376332 	299.9999999999654 	1.355767187378687e-12 	101324.9999999913
0.01626626626626582 	300.0000000000092 	5.660982350527805e-13 	101324.9999999914
0.01876876876876833 	299.99999999995 	5.725064178984337e-13 	101324.9999999912
0.02127127127127083 	299.999999999964 	4.754675434251447e-13 	101324.9999999909
0.02377377377377332 	299.9999999999971 	7.314586668752997e-13 	101324.9999999907
0.02627627627627583 	299.9999999998939 	7.861559164016572e-13 	101324.9999999904
0.02877877877877833 	300.0000000000132 	6.57672659856823e-13 	101324.9999999904
0.03128128128128083 	299.9999999999494 	9.747455451130506e-13 	101324.9999999903
0.03378378378378333 	299.9999999998994 	6.325857390858743e-14 	101324.9999999904
0.03628628628628584 	299.9999999999671 	3.819555525965192e-14 	101324.9999999907
0.03878878878878834 	299.9999999999793 	4.006576962500534e-14 	101324.9999999911
0.04129129129129084 	299.999999999978 	6.821262211630385e-13 	101324.9999999912
0.04379379379379333 	299.9999999999484 	2.744522689064244e-13 	101324.9999999911
0.04629629629629585 	299.9999999998847 	1.078106514071552e-12 	101324.9999999908
0.04879879879879834 	299.9999999999578 	4.070144983118663e-13 	101324.9999999908
0.05130130130130085 	300.0000000000123 	8.834546383807723e-13 	101324.999999991
0.05380380380380335 	300.0000000000206 	2.719232475599558e-13 	101324.9999999911
0.05630630630630584 	299.9999999999973 	6.024068431955509e-13 	101324.9999999908
0.05880880880880836 	299.9999999999118 	1.909724563392636e-13 	101324.9999999904
0.06131131131131085 	299.9999999999669 	4.509163540195987e-13 	101324.9999999903
0.06381381381381336 	299.9999999999609 	2.204665320518006e-13 	101324.9999999901
0.06631631631631586 	299.9999999998864 	3.017701710042281e-13 	101324.9999999901
0.06881881881881835 	299.9999999999549 	1.079571617340301e-12 	101324.9999999903
0.07132132132132088 	299.9999999999822 	5.791626520683675e-13 	101324.9999999904
0.07382382382382337 	299.9999999998925 	6.930509857943328e-13 	101324.9999999905
0.07632632632632587 	299.9999999999673 	7.004685698715835e-14 	101324.9999999906
0.07882882882882837 	299.9999999999322 	4.316293967301926e-13 	101324.999999991
0.08133133133133086 	299.9999999999795 	9.222586685813212e-13 	101324.9999999911
0.08383383383383337 	299.9999999999847 	8.441793817857852e-13 	101324.9999999913
0.08633633633633589 	299.9999999998988 	9.40304380285527e-13 	101324.9999999914
0.08883883883883838 	300.0000000000053 	1.60330746303994e-12 	101324.9999999918
0.09134134134134086 	299.9999999999768 	1.385804676989909e-12 	101324.9999999918
0.09384384384384339 	299.9999999998878 	1.675652140267176e-12 	101324.9999999916
0.09634634634634588 	299.9999999999583 	2.209576437911265e-12 	101324.9999999912
0.09884884884884838 	299.9999999999727 	2.698527096775749e-12 	101324.9999999912
0.1013513513513509 	300.000000000018 	3.227242584327416e-12 	101324.9999999912
0.1038538538538534 	299.9999999999557 	2.820717800390455e-12 	101324.9999999908
0.1063563563563559 	300.0000000000076 	2.694560410451861e-12 	101324.9999999909
0.1088588588588584 	300.0000000000301 	1.944198381870145e-12 	101324.9999999911
0.1113613613613609 	299.9999999999206 	2.702204347422089e-12 	101324.9999999913
0.1138638638638634 	299.9999999999416 	3.392602919600654e-12 	101324.9999999909
0.1163663663663659 	299.9999999999493 	3.952039887580432e-12 	101324.9999999909
0.1188688688688684 	299.9999999999735 	3.765485105426625e-12 	101324.9999999911
0.1213713713713709 	300.0000000000046 	3.508543849801101e-12 	101324.9999999907
0.1238738738738734 	299.9999999999234 	3.853697216223438e-12 	101324.9999999908
0.1263763763763759 	299.9999999999832 	4.105575641969629e-12 	101324.9999999909
0.1288788788788784 	299.9999999999807 	4.116852154002446e-12 	101324.9999999908
0.1313813813813809 	299.9999999999818 	4.25210329009713e-12 	101324.999999991
0.1338838838838834 	299.999999999975 	4.453844834144335e-12 	101324.9999999909
0.1363863863863859 	300.0000000000168 	4.107108312767304e-12 	101324.9999999909
0.1388888888888884 	300.0000000000434 	3.986223285713309e-12 	101324.9999999908
0.1413913913913909 	300.0000000000063 	2.539030232217804e-12 	101324.9999999908
0.1438938938938934 	299.9999999999933 	3.265022668532968e-12 	101324.9999999909
0.1463963963963959 	299.9999999999546 	2.202817164610208e-12 	101324.9999999907
0.1488988988988985 	299.9999999999052 	3.779985324657387e-12 	101324.9999999909
0.1514014014014009 	299.9999999999711 	2.130576837089786e-12 	101324.9999999907
0.1539039039039035 	299.9999999999638 	4.054985562491819e-12 	101324.9999999908
0.1564064064064059 	299.999999999924 	1.587042143418231e-12 	101324.9999999913
0.1589089089089084 	299.9999999999748 	5.029222674032906e-12 	101324.9999999911
0.1614114114114109 	299.999999999969 	2.223677390571249e-12 	101324.9999999907
0.1639139139139134 	299.9999999999023 	3.994844550124842e-12 	101324.9999999905
0.166416416416416 	300.0000000000067 	3.077191744205038e-12 	101324.9999999904
0.1689189189189185 	300.0000000000333 	3.171052854428953e-12 	101324.9999999904
0.1714214214214209 	300.0000000000065 	3.278954659755732e-12 	101324.9999999902
0.1739239239239235 	299.9999999999892 	1.676305310504196e-12 	101324.9999999903
0.1764264264264259 	299.9999999999707 	3.795130780297819e-12 	101324.9999999902
0.1789289289289284 	300.0000000000068 	1.830322807314458e-12 	101324.9999999899
0.181431431431431 	299.9999999999616 	3.949413706971702e-12 	101324.9999999901
0.1839339339339334 	299.9999999999641 	1.608456533018255e-12 	101324.9999999899
0.186436436436436 	299.999999999923 	2.200586909694762e-12 	101324.9999999904
0.1889389389389385 	299.9999999999742 	1.607573245671408e-12 	101324.9999999905
0.191441441441441 	299.99999999997 	8.09042048279768e-13 	101324.9999999904
0.1939439439439434 	299.9999999999135 	2.041455185511186e-12 	101324.9999999906
0.196446446446446 	299.9999999999443 	3.783803610678568e-13 	101324.9999999906
0.1989489489489485 	299.9999999999569 	2.70496457261153e-12 	101324.9999999907
0.2014514514514509 	299.9999999999849 	6.756723867876582e-13 	101324.9999999906
0.2039539539539535 	299.999999999997 	2.227841418888536e-12 	101324.9999999907
0.2064564564564559 	299.9999999999515 	1.873751350710828e-12 	101324.9999999907
0.2089589589589585 	299.9999999999868 	2.213975975205754e-12 	101324.9999999906
0.211461461461461 	299.999999999927 	2.610892879738698e-12 	101324.9999999905
0.2139639639639635 	299.9999999999695 	2.414287725130687e-12 	101324.9999999906
0.2164664664664659 	299.9999999999961 	4.180319640977e-12 	101324.9999999909
0.2189689689689684 	299.9999999999952 	2.36500508530878e-12 	101324.9999999909
0.221471471471471 	299.9999999999939 	4.996470806579593e-12 	101324.9999999904
0.2239739739739735 	299.9999999999492 	2.585776544985397e-12 	101324.9999999899
0.226476476476476 	299.9999999999761 	4.084080639626638e-12 	101324.9999999901
0.2289789789789785 	299.9999999999914 	3.128575381785162e-12 	101324.9999999898
0.231481481481481 	299.9999999999898 	3.912648616569039e-12 	101324.9999999899
0.2339839839839835 	299.9999999999819 	4.656680859078937e-12 	101324.99999999
0.236486486486486 	300.000000000028 	3.947505101060107e-12 	101324.9999999903
0.2389889889889885 	300.0000000000024 	4.90323585168296e-12 	101324.9999999902
0.241491491491491 	299.9999999999153 	2.473163571535544e-12 	101324.9999999903
0.2439939939939935 	299.9999999999774 	4.667864793521446e-12 	101324.9999999904
0.246496496496496 	299.9999999999921 	2.124388020224901e-12 	101324.9999999904
0.2489989989989985 	300.0000000000404 	3.257747557776525e-12 	101324.9999999904
0.251501501501501 	300.000000000035 	2.213334730951114e-12 	101324.9999999903
0.2540040040040035 	299.9999999999941 	1.898496240213498e-12 	101324.9999999907
0.256506506506506 	300.0000000000286 	1.781343539644135e-12 	101324.9999999905
0.2590090090090086 	299.9999999999102 	1.044265611146979e-12 	101324.9999999906
0.261511511511511 	299.9999999999975 	9.170381939534431e-13 	101324.9999999903
0.2640140140140135 	299.9999999999886 	1.962870785587353e-12 	101324.9999999901
0.2665165165165161 	299.9999999999272 	4.054810108615728e-13 	101324.99999999
0.2690190190190185 	300.000000000016 	3.960038623421361e-13 	101324.9999999899
0.271521521521521 	300.0000000000188 	3.118022103199654e-13 	101324.9999999899
0.2740240240240235 	300.0000000000205 	1.001315100578503e-12 	101324.9999999897
0.276526526526526 	300.0000000000096 	7.09546909622033e-13 	101324.9999999899
0.2790290290290286 	299.9999999999425 	1.759001061557046e-12 	101324.99999999
0.281531531531531 	299.9999999999267 	3.816758198012666e-13 	101324.9999999899
0.2840340340340335 	299.9999999999829 	1.109227479860596e-12 	101324.9999999899
0.2865365365365361 	299.9999999999584 	5.488957393817927e-13 	101324.9999999901
0.2890390390390385 	299.9999999999967 	1.550003809419009e-12 	101324.9999999904
0.291541541541541 	299.9999999999956 	1.527600590185508e-12 	101324.9999999906
0.2940440440440436 	299.9999999999922 	5.578308370681608e-13 	101324.9999999907
0.296546546546546 	299.999999999988 	2.231933581308389e-12 	101324.9999999908
0.2990490490490486 	299.999999999939 	8.356013752008945e-13 	101324.9999999912
0.3015515515515511 	300.0000000000353 	4.659826606009455e-12 	101324.999999991
0.3040540540540535 	300.0000000000015 	1.802694429943232e-12 	101324.9999999909
0.3065565565565562 	299.9999999999928 	4.297881592830046e-12 	101324.9999999908
0.3090590590590585 	299.9999999999886 	2.547096018675897e-12 	101324.9999999905
0.3115615615615611 	299.9999999999412 	2.566950798335441e-12 	101324.9999999903
0.3140640640640635 	300.0000000000064 	2.205755647757467e-12 	101324.9999999902
0.316566566566566 	299.9999999999909 	1.858276087853241e-12 	101324.9999999901
0.3190690690690687 	299.9999999999524 	1.195394746666094e-12 	101324.9999999901
0.3215715715715711 	300.0000000000131 	2.474032757308273e-12 	101324.9999999901
0.3240740740740735 	299.9999999999977 	1.148249932411213e-12 	101324.99999999
0.326576576576576 	299.9999999998942 	1.463600147933417e-12 	101324.99999999
0.3290790790790786 	300.0000000000101 	1.860074635256018e-13 	101324.9999999901
0.3315815815815811 	300.00000000004 	1.115488228260396e-12 	101324.9999999901
0.3340840840840836 	299.9999999999881 	7.215116142964094e-13 	101324.9999999901
0.3365865865865861 	300.0000000000539 	1.060077138588973e-12 	101324.9999999899
0.3390890890890886 	300.0000000000448 	5.517937367098893e-13 	101324.9999999898
0.3415915915915911 	299.999999999997 	6.373212671753765e-13 	101324.9999999895
0.3440940940940935 	299.9999999999512 	1.207318948972665e-12 	101324.9999999898
0.3465965965965962 	300.0000000000406 	7.605300028759695e-13 	101324.99999999
0.3490990990990985 	300.0000000000307 	1.237432249053029e-12 	101324.9999999903
0.3516016016016011 	299.9999999999873 	1.83767472896437e-13 	101324.9999999906
0.3541041041041035 	300.0000000000056 	2.293689164205058e-13 	101324.9999999904
0.3566066066066061 	299.9999999999534 	9.583334846245294e-13 	101324.9999999907
0.3591091091091085 	299.9999999999135 	9.555992559365132e-13 	101324.9999999905
0.3616116116116112 	299.9999999999379 	1.613893329409505e-12 	101324.9999999904
0.3641141141141137 	299.9999999999305 	1.713121996253008e-12 	101324.9999999904
0.3666166166166161 	299.9999999999222 	2.925543650108606e-12 	101324.9999999905
0.3691191191191185 	300.0000000000369 	2.061642999778048e-12 	101324.9999999905
0.371621621621621 	300.0000000000157 	2.945917815823317e-12 	101324.9999999904
0.3741241241241237 	300.0000000000484 	1.395440621160267e-12 	101324.9999999906
0.3766266266266261 	300.000000000028 	2.256560042267892e-12 	101324.9999999906
0.3791291291291286 	299.9999999999862 	1.283429559729859e-12 	101324.9999999908
0.3816316316316311 	299.9999999999125 	1.181883367245834e-12 	101324.9999999906
0.3841341341341336 	300.0000000000103 	1.823578462377038e-12 	101324.9999999905
0.3866366366366362 	299.9999999999968 	8.600905115176703e-13 	101324.9999999905
0.3891391391391387 	299.9999999999553 	1.294590910635488e-12 	101324.9999999905
0.391641641641641 	299.9999999999912 	5.696337828457498e-13 	101324.9999999906
0.3941441441441436 	300.0000000000059 	1.591146291317769e-12 	101324.9999999908
0.3966466466466462 	299.9999999999982 	1.859210947615072e-13 	101324.9999999909
0.3991491491491486 	299.9999999999447 	1.095646727287048e-12 	101324.9999999907
0.4016516516516512 	299.9999999999118 	7.52139793610889e-13 	101324.9999999905
0.4041541541541536 	299.9999999999505 	6.60012450967989e-13 	101324.9999999906
0.4066566566566561 	299.9999999999459 	1.468192939047925e-12 	101324.9999999904
0.4091591591591587 	299.9999999999855 	4.654224919493972e-13 	101324.9999999906
0.4116616616616612 	299.9999999999991 	1.36795768187569e-12 	101324.9999999905
0.4141641641641635 	300.000000000044 	6.18452850742167e-13 	101324.9999999903
0.4166666666666662 	299.9999999999941 	6.503663253929398e-13 	101324.9999999901
0.4191691691691687 	299.9999999999359 	1.697753098966837e-12 	101324.9999999901
0.421671671671671 	300.0000000000114 	1.543699530033825e-12 	101324.9999999903
0.4241741741741737 	299.9999999999721 	2.658809440753788e-12 	101324.9999999904
0.4266766766766761 	299.9999999999549 	2.487316028172664e-12 	101324.9999999904
0.4291791791791785 	300.0000000000163 	2.878350471907067e-12 	101324.9999999905
0.4316816816816812 	300.0000000000117 	3.237281813962318e-12 	101324.9999999907
0.4341841841841836 	299.9999999999861 	2.930666320573197e-12 	101324.9999999907
0.4366866866866862 	299.9999999999187 	2.005543803173838e-12 	101324.9999999911
0.4391891891891885 	299.9999999999862 	1.903423458203477e-12 	101324.9999999909
0.4416916916916913 	299.9999999999827 	1.711308806707354e-12 	101324.9999999906
0.4441941941941936 	299.9999999999854 	1.274975361828277e-12 	101324.9999999902
0.4466966966966961 	299.9999999999137 	1.095454234556142e-12 	101324.9999999899
0.4491991991991987 	299.9999999999759 	4.190415208387983e-13 	101324.9999999901
0.4517017017017012 	299.9999999999698 	1.17632518000782e-12 	101324.99999999
0.4542042042042035 	299.9999999999932 	1.521332154357658e-12 	101324.9999999899
0.4567067067067062 	299.9999999999951 	1.129651436871653e-12 	101324.99999999
0.4592092092092087 	299.9999999999229 	1.393162676451765e-12 	101324.9999999897
0.4617117117117112 	300.0000000000196 	9.992725430574322e-13 	101324.9999999894
0.4642142142142137 	299.9999999999592 	9.624264740738113e-13 	101324.9999999896
0.4667167167167162 	299.999999999989 	1.113011293333068e-12 	101324.9999999899
0.4692192192192187 	299.9999999999562 	1.229262710393783e-12 	101324.99999999
0.4717217217217212 	300.0000000000109 	1.6319931623407e-12 	101324.9999999901
0.4742242242242236 	299.9999999999559 	1.493998516428927e-12 	101324.9999999903
0.4767267267267262 	299.9999999999744 	1.538719619451347e-12 	101324.9999999904
0.4792292292292287 	300.000000000018 	1.136339104582542e-12 	101324.9999999903
0.4817317317317312 	300.0000000000306 	7.562740386074349e-13 	101324.9999999904
0.4842342342342336 	299.9999999999847 	1.113772954322821e-12 	101324.9999999903
0.4867367367367362 	299.999999999955 	6.868836930698001e-13 	101324.9999999903
0.4892392392392387 	300.0000000000285 	1.68097105896529e-12 	101324.9999999902
0.4917417417417412 	300.000000000006 	5.166485201270253e-13 	101324.9999999903
0.4942442442442437 	299.9999999999098 	1.335553999764089e-12 	101324.9999999903
0.4967467467467462 	299.9999999999243 	1.187635524115174e-12 	101324.9999999901
0.4992492492492487 	299.9999999999199 	9.578730490336957e-13 	101324.9999999902
0.5017517517517511 	299.9999999999525 	6.005069917334818e-13 	101324.9999999904
0.5042542542542537 	299.9999999999655 	5.238768927593877e-13 	101324.9999999906
0.5067567567567562 	299.999999999945 	3.878183191838959e-13 	101324.9999999907
0.5092592592592589 	299.9999999999652 	9.319687075725448e-13 	101324.9999999906
0.5117617617617611 	299.9999999999558 	1.827542471249318e-12 	101324.9999999904
0.5142642642642637 	299.9999999999858 	1.305041673329745e-12 	101324.9999999903
0.5167667667667663 	299.9999999999701 	3.024099829208526e-12 	101324.9999999902
0.5192692692692688 	299.9999999999148 	2.750520664891234e-12 	101324.99999999
0.5217717717717714 	299.9999999999371 	3.622336177508462e-12 	101324.9999999896
0.5242742742742736 	299.9999999999394 	2.981522031680372e-12 	101324.9999999894
0.5267767767767763 	299.9999999999569 	2.5324807774596e-12 	101324.9999999895
0.5292792792792789 	299.9999999999384 	2.662178879189042e-12 	101324.9999999896
0.5317817817817813 	299.9999999999058 	1.714418869257789e-12 	101324.9999999898
0.5342842842842837 	300.0000000000158 	1.474345593945229e-12 	101324.9999999897
0.5367867867867864 	300.0000000000013 	1.165915031821707e-12 	101324.9999999897
0.5392892892892888 	299.9999999999586 	1.381157901701181e-12 	101324.9999999898
0.5417917917917912 	300.0000000000014 	8.50816450372086e-13 	101324.99999999
0.5442942942942938 	299.9999999999824 	7.378558885680612e-13 	101324.99999999
0.5467967967967964 	299.9999999999478 	1.3827489259639e-12 	101324.9999999901
0.5492992992992988 	299.999999999943 	8.306810613645174e-13 	101324.9999999901
0.5518018018018012 	299.9999999999426 	2.439402273334353e-12 	101324.9999999902
0.5543043043043039 	300.0000000000182 	1.918829569308041e-12 	101324.9999999905
0.5568068068068063 	299.9999999999905 	2.691810496620223e-12 	101324.9999999904
0.5593093093093087 	299.9999999999096 	2.164181448854511e-12 	101324.9999999906
0.5618118118118114 	299.9999999999623 	3.204403567689605e-12 	101324.9999999908
0.5643143143143137 	299.9999999999498 	2.328697075956375e-12 	101324.999999991
0.5668168168168163 	299.9999999999936 	3.618110646044838e-12 	101324.9999999913
0.5693193193193188 	300.0000000000336 	3.280456675190713e-12 	101324.9999999914
0.5718218218218213 	300.0000000000287 	1.753796011761319e-12 	101324.999999991
0.5743243243243239 	300.0000000000093 	2.339635654186951e-12 	101324.9999999909
0.5768268268268262 	300.0000000000039 	1.802050278342205e-12 	101324.9999999909
0.5793293293293288 	299.9999999999401 	2.870514845105231e-12 	101324.9999999907
0.5818318318318314 	299.999999999918 	2.8284512432765e-12 	101324.9999999905
0.5843343343343338 	299.9999999999829 	3.740788050088467e-12 	101324.9999999905
0.5868368368368363 	299.999999999978 	1.989441559617376e-12 	101324.9999999906
0.5893393393393387 	299.9999999999501 	2.93713165481939e-12 	101324.9999999907
0.5918418418418413 	299.9999999999428 	1.088219536914308e-12 	101324.9999999907
0.5943443443443439 	300.0000000000126 	2.748613508212503e-12 	101324.9999999908
0.5968468468468463 	300.0000000000139 	1.110515937476468e-12 	101324.9999999909
0.5993493493493487 	300.000000000036 	2.33245449884335e-12 	101324.9999999913
0.6018518518518514 	299.999999999979 	8.143536265990894e-13 	101324.9999999914
0.6043543543543537 	299.9999999999965 	1.99377776852689e-12 	101324.9999999914
0.6068568568568564 	299.9999999999831 	1.029895398688441e-12 	101324.9999999912
0.6093593593593587 	299.9999999999321 	1.484566875195584e-12 	101324.9999999912
0.6118618618618614 	299.9999999999247 	1.101997349568444e-12 	101324.9999999913
0.6143643643643638 	300.000000000019 	1.621218815889057e-12 	101324.9999999914
0.6168668668668662 	299.9999999999873 	1.655835574456605e-12 	101324.9999999915
0.6193693693693688 	299.9999999999564 	1.884667920149841e-12 	101324.9999999916
0.6218718718718714 	299.9999999999656 	1.047829721533424e-12 	101324.9999999917
0.6243743743743737 	299.9999999999327 	2.2851780325468e-12 	101324.999999992
0.6268768768768762 	299.9999999999305 	1.646394515147503e-12 	101324.9999999923
0.629379379379379 	299.9999999999583 	3.080811793493216e-12 	101324.9999999923
0.6318818818818812 	299.9999999999791 	2.751765187329652e-12 	101324.999999992
0.6343843843843838 	300.0000000000195 	2.843055786294194e-12 	101324.9999999921
0.6368868868868864 	299.9999999999854 	3.285046067488064e-12 	101324.9999999922
0.6393893893893888 	299.999999999928 	2.570688666156969e-12 	101324.9999999919
0.6418918918918912 	300.0000000000042 	4.801224621973467e-12 	101324.9999999916
0.6443943943943939 	299.9999999999775 	2.456509928421869e-12 	101324.9999999914
0.6468968968968963 	299.9999999999828 	6.670442725376829e-12 	101324.9999999915
0.6493993993993988 	299.9999999999732 	3.547980834821867e-12 	101324.9999999916
0.6519019019019012 	299.9999999999738 	6.975818604137455e-12 	101324.9999999915
0.6544044044044038 	299.999999999904 	3.847163063935705e-12 	101324.9999999916
0.6569069069069065 	299.9999999999521 	6.00996134137954e-12 	101324.9999999918
0.6594094094094087 	299.9999999999641 	2.821556530631836e-12 	101324.9999999917
0.6619119119119113 	299.9999999999594 	4.769802019975143e-12 	101324.9999999916
0.664414414414414 	300.0000000000046 	2.508479236208797e-12 	101324.9999999916
0.6669169169169162 	300.0000000000195 	3.527470115425084e-12 	101324.9999999917
0.6694194194194188 	299.999999999987 	2.121118249290707e-12 	101324.9999999919
0.6719219219219214 	299.9999999999258 	3.700652985649727e-12 	101324.999999992
0.674424424424424 	299.9999999999749 	3.301320000948238e-12 	101324.9999999921
0.6769269269269262 	299.9999999999246 	4.745497306299567e-12 	101324.9999999916
0.679429429429429 	300.0000000000006 	4.337734142345609e-12 	101324.9999999916
0.6819319319319311 	299.9999999999826 	4.977258256129204e-12 	101324.9999999915
0.6844344344344341 	299.9999999999944 	4.44342392721471e-12 	101324.9999999914
0.686936936936936 	299.9999999999895 	4.659838258225537e-12 	101324.9999999914
0.6894394394394392 	299.9999999999846 	3.614083139678661e-12 	101324.9999999916
0.6919419419419413 	299.9999999999858 	3.14281931710378e-12 	101324.999999992
0.694444444444444 	299.9999999999354 	3.378679104741772e-12 	101324.999999992
0.6969469469469463 	299.9999999999274 	3.102356671184324e-12 	101324.9999999924
0.6994494494494489 	299.9999999999214 	3.891452331266684e-12 	101324.9999999924
0.7019519519519515 	299.9999999999825 	3.518687496409637e-12 	101324.9999999925
0.7044544544544538 	299.9999999999519 	5.379283916025817e-12 	101324.9999999925
0.7069569569569564 	299.9999999999952 	3.404133291895947e-12 	101324.9999999923
0.7094594594594589 	299.9999999999675 	5.299318125392517e-12 	101324.9999999922
0.7119619619619615 	299.9999999999187 	2.950348308045061e-12 	101324.9999999923
0.7144644644644638 	299.9999999999532 	4.748147532192659e-12 	101324.9999999926
0.7169669669669665 	299.9999999999216 	4.024415010855829e-12 	101324.9999999928
0.7194694694694688 	299.9999999999936 	5.403573992234233e-12 	101324.9999999931
0.7219719719719715 	299.9999999999887 	4.907468617175977e-12 	101324.9999999933
0.7244744744744737 	300.0000000000034 	5.514934566493642e-12 	101324.9999999933
0.7269769769769764 	299.9999999999949 	5.407484938565802e-12 	101324.999999993
0.7294794794794791 	299.9999999999896 	4.169533910781237e-12 	101324.999999993
0.7319819819819813 	299.999999999983 	5.41190511115282e-12 	101324.9999999928
0.7344844844844839 	299.9999999999198 	4.102502884362664e-12 	101324.9999999926
0.7369869869869864 	299.9999999999458 	5.781555713599668e-12 	101324.9999999926
0.739489489489489 	299.9999999999393 	6.203884090418855e-12 	101324.9999999927
0.7419919919919914 	299.9999999999332 	6.228997685068762e-12 	101324.9999999924
0.7444944944944939 	299.9999999999824 	6.964717992229612e-12 	101324.9999999924
0.7469969969969963 	299.999999999971 	6.053556514249434e-12 	101324.9999999928
0.7494994994994989 	299.9999999999463 	8.461919527249212e-12 	101324.9999999928
0.7520020020020015 	299.9999999999722 	6.453884728542158e-12 	101324.999999993
0.7545045045045039 	299.9999999999663 	9.270649897201413e-12 	101324.999999993
0.7570070070070062 	299.9999999999394 	6.673874063268299e-12 	101324.999999993
0.7595095095095092 	299.9999999999313 	7.790497087591098e-12 	101324.9999999933
0.7620120120120112 	300.000000000007 	6.393626323116628e-12 	101324.9999999936
0.7645145145145138 	299.9999999999872 	6.50585323676948e-12 	101324.9999999937
0.7670170170170165 	299.9999999999328 	6.859787396377031e-12 	101324.9999999936
0.7695195195195191 	299.9999999999266 	5.736410458723625e-12 	101324.9999999934
0.7720220220220213 	299.9999999999358 	7.170709154532431e-12 	101324.9999999931
0.7745245245245239 	299.9999999999274 	4.70325886250406e-12 	101324.999999993
0.7770270270270263 	299.9999999999642 	5.740435916560639e-12 	101324.9999999929
0.779529529529529 	299.9999999999805 	4.801474643998978e-12 	101324.9999999928
0.7820320320320313 	299.9999999999736 	5.781334246546382e-12 	101324.9999999929
0.784534534534534 	300.000000000002 	5.816377570341159e-12 	101324.9999999929
0.7870370370370364 	299.9999999999947 	5.218579142805545e-12 	101324.999999993
0.7895395395395389 	299.9999999999821 	5.798199102262035e-12 	101324.9999999931
0.7920420420420413 	299.9999999999788 	4.621453497870019e-12 	101324.9999999934
0.794544544544544 	299.999999999977 	6.529310731253031e-12 	101324.9999999935
0.7970470470470463 	299.999999999997 	4.592824695224199e-12 	101324.9999999937
0.799549549549549 	299.9999999999831 	7.246825429957433e-12 	101324.9999999939
0.8020520520520515 	299.999999999985 	4.426003311505358e-12 	101324.999999994
0.8045545545545539 	299.9999999999482 	6.557326571511509e-12 	101324.9999999941
0.8070570570570563 	299.999999999978 	4.985351400416064e-12 	101324.9999999942
0.8095595595595589 	299.999999999956 	5.265354080153181e-12 	101324.9999999942
0.8120620620620614 	299.9999999999433 	5.145292129702394e-12 	101324.9999999941
0.8145645645645638 	299.9999999999965 	5.443443218619547e-12 	101324.9999999938
0.8170670670670666 	299.9999999999928 	6.203772329069772e-12 	101324.9999999936
0.8195695695695689 	299.9999999999763 	4.805464559527136e-12 	101324.9999999936
0.8220720720720714 	299.9999999999452 	6.671028060058261e-12 	101324.9999999938
0.8245745745745739 	299.9999999999956 	4.960276330387071e-12 	101324.9999999939
0.8270770770770765 	299.9999999999736 	7.107617295270115e-12 	101324.999999994
0.8295795795795788 	299.9999999999543 	6.276309731713409e-12 	101324.9999999941
0.8320820820820815 	300.000000000014 	6.753752979105945e-12 	101324.9999999941
0.834584584584584 	300.0000000000027 	6.226758572757911e-12 	101324.9999999941
0.8370870870870865 	299.9999999999622 	6.069802280451009e-12 	101324.9999999942
0.8395895895895891 	299.9999999999372 	6.388221214965813e-12 	101324.9999999942
0.8420920920920915 	299.9999999999503 	5.1910511451823e-12 	101324.9999999941
0.844594594594594 	299.9999999999494 	5.545513654409063e-12 	101324.9999999943
0.8470970970970964 	299.9999999999659 	5.73937171870671e-12 	101324.9999999945
0.8495995995995991 	299.999999999999 	5.816853015576001e-12 	101324.9999999945
0.8521021021021015 	299.9999999999829 	6.055240024907601e-12 	101324.9999999945
0.8546046046046039 	299.9999999999686 	5.413605364143203e-12 	101324.9999999946
0.8571071071071066 	300.0000000000003 	6.501178875053231e-12 	101324.9999999947
0.8596096096096089 	299.9999999999713 	4.78851380679978e-12 	101324.9999999946
0.8621121121121116 	299.9999999999444 	6.891176568631804e-12 	101324.9999999945
0.8646146146146139 	299.9999999999999 	4.504908602197739e-12 	101324.9999999945
0.8671171171171166 	299.9999999999761 	6.170870179437417e-12 	101324.9999999944
0.8696196196196189 	299.999999999943 	5.13664256535392e-12 	101324.9999999942
0.8721221221221216 	299.9999999999801 	6.026899679375813e-12 	101324.9999999941
0.874624624624624 	300.0000000000094 	6.169608211547391e-12 	101324.9999999941
0.8771271271271264 	300.0000000000007 	6.478438237117963e-12 	101324.9999999941
0.879629629629629 	299.9999999999977 	7.122940829750015e-12 	101324.9999999938
0.8821321321321317 	299.9999999999853 	5.219362622054434e-12 	101324.9999999939
0.8846346346346339 	299.9999999999305 	6.820217582496326e-12 	101324.999999994
0.8871371371371364 	299.9999999999561 	4.556948233859411e-12 	101324.9999999942
0.8896396396396391 	299.9999999999523 	5.939564789843108e-12 	101324.9999999942
0.8921421421421414 	299.9999999999604 	4.707619941068002e-12 	101324.9999999941
0.8946446446446441 	299.9999999999887 	5.563388991517337e-12 	101324.9999999939
0.8971471471471464 	300.0000000000044 	5.06896882343119e-12 	101324.9999999937
0.8996496496496489 	299.9999999999829 	5.12759063662052e-12 	101324.9999999936
0.9021521521521517 	299.9999999999627 	6.562471209977858e-12 	101324.9999999937
0.9046546546546541 	299.9999999999881 	5.728677072729942e-12 	101324.999999994
0.9071571571571564 	299.9999999999511 	6.447742939303676e-12 	101324.9999999939
0.9096596596596589 	299.9999999999463 	6.533434853759302e-12 	101324.999999994
0.9121621621621616 	300.0000000000065 	6.36301593295591e-12 	101324.999999994
0.9146646646646639 	299.999999999973 	5.898555968800317e-12 	101324.999999994
0.9171671671671666 	299.9999999999395 	5.670537675327636e-12 	101324.9999999939
0.9196696696696689 	299.9999999999936 	6.386028258652832e-12 	101324.999999994
0.9221721721721714 	299.9999999999982 	4.875097257442839e-12 	101324.9999999943
0.9246746746746741 	299.9999999999448 	7.317995704443084e-12 	101324.9999999945
0.9271771771771765 	299.9999999999483 	5.355814994402053e-12 	101324.9999999946
0.9296796796796791 	299.9999999999921 	7.227183026124305e-12 	101324.9999999946
0.9321821821821816 	299.9999999999789 	5.514063674351473e-12 	101324.9999999945
0.9346846846846838 	299.9999999999574 	6.516344088309789e-12 	101324.9999999946
0.9371871871871866 	300.0000000000122 	6.339780799735136e-12 	101324.9999999946
0.9396896896896891 	300.0000000000125 	6.552395865838864e-12 	101324.9999999947
0.9421921921921914 	300.0000000000098 	6.312784206509283e-12 	101324.9999999947
0.9446946946946939 	299.9999999999675 	4.532712923046178e-12 	101324.9999999947
0.9471971971971965 	299.9999999999252 	6.307651212267221e-12 	101324.9999999946
0.9496996996996991 	299.9999999999583 	4.714954224771186e-12 	101324.9999999946
0.9522022022022016 	299.999999999976 	6.378039208836658e-12 	101324.9999999947
0.9547047047047038 	299.9999999999794 	5.778221635230492e-12 	101324.9999999947
0.9572072072072064 	299.999999999974 	6.980967590774788e-12 	101324.9999999945
0.9597097097097093 	299.9999999999642 	6.940019483910727e-12 	101324.9999999943
0.9622122122122114 	299.9999999999552 	7.094779757783224e-12 	101324.9999999941
0.964714714714714 	299.9999999999568 	8.530332201562056e-12 	101324.9999999939
0.9672172172172167 	299.9999999999613 	8.0837190859101e-12 	101324.9999999938
0.969719719719719 	299.9999999999867 	9.144654490731259e-12 	101324.9999999936
0.9722222222222214 	299.9999999999702 	8.421493294557527e-12 	101324.9999999934
0.9747247247247239 	299.9999999999646 	8.188117915097098e-12 	101324.9999999934
0.9772272272272267 	299.999999999999 	7.623423418026499e-12 	101324.9999999936
0.9797297297297292 	299.9999999999874 	6.841404402466349e-12 	101324.9999999937
0.9822322322322313 	299.9999999999946 	7.469974049449882e-12 	101324.9999999938
0.9847347347347344 	299.9999999999923 	6.090108043871426e-12 	101324.999999994
0.9872372372372363 	299.9999999999489 	7.567460230406334e-12 	101324.9999999939
0.9897397397397389 	299.9999999999753 	4.718842317441874e-12 	101324.999999994
0.9922422422422417 	299.9999999999583 	6.334172135987208e-12 	101324.999999994
0.9947447447447441 	299.9999999999561 	5.215660841995016e-12 	101324.999999994
0.9972472472472468 	299.9999999999615 	6.690031531126749e-12 	101324.9999999941
0.999749749749749 	299.9999999999565 	6.886367961650674e-12 	101324.9999999939
1.002252252252252 	299.9999999999774 	7.441312788930295e-12 	101324.9999999938
1.004754754754754 	299.9999999999882 	7.856957221945769e-12 	101324.9999999939
1.007257257257256 	299.9999999999684 	7.678897107053436e-12 	101324.999999994
1.009759759759759 	299.9999999999584 	1.025152343446429e-11 	101324.9999999939
1.012262262262261 	299.999999999954 	8.457411554497964e-12 	101324.9999999937
1.014764764764764 	299.9999999999266 	9.363922041974853e-12 	101324.9999999936
1.017267267267267 	299.9999999999179 	8.155816166932272e-12 	101324.9999999937
1.019769769769769 	299.9999999999616 	9.220199037377033e-12 	101324.9999999938
1.022272272272272 	299.9999999999708 	8.47516705953677e-12 	101324.9999999939
1.024774774774774 	299.9999999999721 	7.881953271929231e-12 	101324.9999999938
1.027277277277277 	299.9999999999734 	7.689343052846401e-12 	101324.9999999937
1.029779779779779 	300.0000000000001 	6.768341947249947e-12 	101324.9999999937
1.032282282282282 	300.0000000000008 	7.443169726258435e-12 	101324.9999999936
1.034784784784784 	299.99999999999 	7.00423326974914e-12 	101324.9999999934
1.037287287287286 	299.9999999999604 	7.509224438932632e-12 	101324.9999999932
1.039789789789789 	299.9999999999711 	7.914761572437003e-12 	101324.9999999932
1.042292292292291 	300.0000000000089 	8.114981412449879e-12 	101324.9999999929
1.044794794794794 	300.0000000000209 	8.195935060296222e-12 	101324.9999999929
1.047297297297296 	300.0000000000352 	6.688679493519103e-12 	101324.9999999933
1.049799799799799 	299.9999999999919 	7.856896996748661e-12 	101324.9999999936
1.052302302302302 	299.9999999999613 	6.046287702230797e-12 	101324.9999999937
1.054804804804804 	299.9999999999384 	7.636075486885938e-12 	101324.9999999936
1.057307307307306 	299.99999999992 	6.517697989196625e-12 	101324.9999999936
1.059809809809809 	299.9999999999521 	7.555595490251104e-12 	101324.9999999935
1.062312312312312 	299.9999999999455 	6.981636333489361e-12 	101324.9999999935
1.064814814814814 	299.99999999994 	7.488397710565407e-12 	101324.9999999936
1.067317317317317 	299.9999999999226 	7.360519129417448e-12 	101324.9999999937
1.069819819819819 	299.9999999999245 	6.935285837452297e-12 	101324.9999999937
1.072322322322321 	299.9999999999852 	8.344192898020419e-12 	101324.9999999936
1.074824824824824 	300.0000000000133 	6.682039411266154e-12 	101324.9999999935
1.077327327327327 	300.0000000000304 	7.754043476392319e-12 	101324.9999999935
1.079829829829829 	300.000000000031 	6.485094433359138e-12 	101324.9999999933
1.082332332332332 	299.9999999999952 	7.133755375298268e-12 	101324.9999999931
1.084834834834834 	299.9999999999694 	7.24167900974565e-12 	101324.999999993
1.087337337337337 	299.9999999999357 	7.606280102017041e-12 	101324.999999993
1.089839839839839 	299.999999999932 	8.928473816606274e-12 	101324.999999993
1.092342342342342 	299.9999999999727 	7.606178833691728e-12 	101324.9999999933
1.094844844844844 	299.9999999999776 	8.4913666562226e-12 	101324.9999999933
1.097347347347347 	299.9999999999465 	7.038274783077811e-12 	101324.999999993
1.099849849849849 	299.9999999999331 	9.256651028208634e-12 	101324.9999999929
1.102352352352352 	299.9999999999574 	6.943590460218105e-12 	101324.9999999932
1.104854854854854 	299.999999999974 	8.679551938784004e-12 	101324.9999999932
1.107357357357357 	299.9999999999583 	7.675837495743365e-12 	101324.9999999932
1.109859859859859 	299.9999999999467 	9.502237895102985e-12 	101324.9999999932
1.112362362362362 	300.0000000000161 	8.356040022728586e-12 	101324.9999999933
1.114864864864865 	300.0000000000182 	7.98729497501279e-12 	101324.9999999935
1.117367367367367 	299.9999999999665 	8.578327658402213e-12 	101324.9999999935
1.119869869869869 	299.9999999999291 	7.282850581868644e-12 	101324.9999999936
1.122372372372372 	299.9999999999579 	7.931568249277598e-12 	101324.9999999937
1.124874874874874 	299.9999999999534 	6.755318542381892e-12 	101324.9999999937
1.127377377377377 	299.9999999999681 	7.867226323046348e-12 	101324.9999999935
1.129879879879879 	300.0000000000188 	7.45404907666017e-12 	101324.9999999934
1.132382382382382 	300.0000000000235 	7.828000805655886e-12 	101324.9999999933
1.134884884884884 	300.0000000000028 	7.557682024600557e-12 	101324.9999999933
1.137387387387387 	300.0000000000157 	7.33495379524436e-12 	101324.9999999932
1.139889889889889 	299.9999999999588 	8.295870046837173e-12 	101324.9999999932
1.142392392392392 	299.9999999999475 	7.715155923793873e-12 	101324.9999999932
1.144894894894894 	300.0000000000126 	9.326013354975956e-12 	101324.9999999932
1.147397397397397 	300.0000000000007 	8.351298563432651e-12 	101324.999999993
1.149899899899899 	299.9999999999413 	8.805140893297407e-12 	101324.9999999928
1.152402402402402 	299.9999999999287 	7.718875879234727e-12 	101324.999999993
1.154904904904904 	299.9999999999762 	8.17724480043248e-12 	101324.9999999932
1.157407407407407 	299.9999999999783 	7.95223622534985e-12 	101324.999999993
1.159909909909909 	299.9999999999413 	8.464429566279742e-12 	101324.9999999927
1.162412412412412 	299.9999999999271 	9.550182790602874e-12 	101324.9999999925
1.164914914914914 	299.9999999999634 	7.837127801800418e-12 	101324.9999999927
1.167417417417417 	299.9999999999688 	8.538346994465314e-12 	101324.9999999928
1.169919919919919 	300.0000000000097 	7.331670494953202e-12 	101324.999999993
1.172422422422422 	300.0000000000334 	7.797269768953988e-12 	101324.9999999932
1.174924924924925 	299.9999999999879 	6.841928649758549e-12 	101324.9999999935
1.177427427427427 	299.9999999999684 	7.487533728808556e-12 	101324.9999999936
1.179929929929929 	300.000000000006 	8.123481897969509e-12 	101324.9999999934
1.182432432432432 	300.0000000000251 	6.128202347211166e-12 	101324.9999999933
1.184934934934934 	299.9999999999926 	6.139259756969453e-12 	101324.9999999934
1.187437437437437 	299.9999999999723 	5.423804199679198e-12 	101324.9999999932
1.189939939939939 	299.9999999999706 	6.538210956292922e-12 	101324.9999999932
1.192442442442442 	299.9999999999268 	5.935936820081006e-12 	101324.9999999932
1.194944944944944 	299.9999999999379 	7.404957129623863e-12 	101324.9999999929
1.197447447447447 	300.0000000000026 	7.814467740929469e-12 	101324.9999999927
1.199949949949949 	300.000000000009 	8.244880565339939e-12 	101324.9999999928
1.202452452452452 	299.9999999999524 	8.81606633685582e-12 	101324.9999999928
1.204954954954955 	299.9999999999524 	7.71769898285863e-12 	101324.9999999928
1.207457457457457 	299.9999999999939 	8.599207253885666e-12 	101324.9999999931
1.20995995995996 	299.9999999999847 	7.776813006844131e-12 	101324.9999999932
1.212462462462462 	299.9999999999773 	8.492298006770383e-12 	101324.9999999932
1.214964964964964 	299.99999999998 	7.414347193588411e-12 	101324.9999999932
1.217467467467467 	299.9999999999794 	7.852733591852961e-12 	101324.9999999933
1.219969969969969 	299.9999999999686 	6.785246181549726e-12 	101324.9999999932
1.222472472472472 	300.00000000001 	6.890471890125445e-12 	101324.9999999932
1.224974974974975 	300.0000000000231 	7.202346533579142e-12 	101324.999999993
1.227477477477477 	299.999999999986 	6.418461390594489e-12 	101324.9999999931
1.229979979979979 	299.999999999989 	7.436919229281842e-12 	101324.9999999932
1.232482482482482 	299.9999999999582 	5.947808983937383e-12 	101324.9999999934
1.234984984984984 	299.9999999999512 	6.664854428047094e-12 	101324.9999999935
1.237487487487487 	299.9999999999844 	5.485040203044307e-12 	101324.9999999936
1.239989989989989 	299.9999999999948 	5.96391641301524e-12 	101324.9999999937
1.242492492492492 	300.000000000028 	6.006724885514025e-12 	101324.9999999937
1.244994994994994 	299.999999999999 	5.044350725163293e-12 	101324.9999999936
1.247497497497497 	300.0000000000015 	6.438893394858153e-12 	101324.9999999935
1.249999999999999 	300.0000000000633 	6.360578947067778e-12 	101324.9999999932
