-1.25 	299.9773825262085 	0.927004920446227 	101295.6107373854
-1.247497497497497 	299.9798705292711 	0.938098440151222 	101301.1851142784
-1.244994994994995 	299.9850894802046 	0.9570071322792267 	101307.3940022771
-1.242492492492492 	299.9906457522166 	0.9729806710130003 	101313.9400341384
-1.23998998998999 	299.9963543844761 	0.9894625932204837 	101320.6895793278
-1.237487487487487 	300.0021328498283 	1.006161924841267 	101327.52070816
-1.234984984984985 	300.0078630951103 	1.022735691110686 	101334.2953010599
-1.232482482482482 	300.0134587868661 	1.038902123149507 	101340.9112963302
-1.22997997997998 	300.0188000686454 	1.054344341861515 	101347.2267700462
-1.227477477477477 	300.0237988260786 	1.068806462170116 	101353.1373799366
-1.224974974974975 	300.028385002485 	1.082025451198194 	101358.5603344669
-1.222472472472472 	300.0324019758096 	1.093664893546765 	101363.3103522464
-1.21996996996997 	300.035838882085 	1.103608797627398 	101367.3745839791
-1.217467467467467 	300.0386506612059 	1.111682405493688 	101370.6996923745
-1.214964964964965 	300.0406851744149 	1.117639667203804 	101373.1056949702
-1.212462462462462 	300.0420850760523 	1.12172121675765 	101374.7612799574
-1.20995995995996 	300.0428813817849 	1.123818866974862 	101375.702694163
-1.207457457457457 	300.0425763886462 	1.122864441120264 	101375.3411620946
-1.204954954954955 	300.0410351590004 	1.11871824194406 	101373.5189924676
-1.202452452452452 	300.039055913763 	1.113246630757182 	101371.1792821611
-1.19994994994995 	300.0372806628671 	1.107887628278774 	101369.0799546993
-1.197447447447447 	300.0351575680853 	1.101288935052574 	101366.5693917874
-1.194944944944945 	300.0315460741619 	1.09066535993134 	101362.2988806752
-1.192442442442442 	300.0260396280274 	1.075008720316481 	101355.7877624257
-1.18993993993994 	300.0194203261569 	1.056331675366574 	101347.9610133621
-1.187437437437437 	300.0130183311139 	1.038163392601213 	101340.3915220766
-1.184934934934935 	300.0078578266865 	1.023339969291252 	101334.2901508994
-1.182432432432432 	300.0042915146024 	1.012937796537106 	101330.0737367093
-1.17992992992993 	300.0021336346287 	1.006535446201603 	101327.5225335456
-1.177427427427427 	300.0009718208048 	1.003026067628705 	101326.1489587212
-1.174924924924925 	300.0004079959226 	1.001291710837373 	101325.4823656974
-1.172422422422422 	300.0001587664751 	1.00051105895184 	101325.1877077768
-1.16991991991992 	300.0000575540225 	1.000188330838006 	101325.0680459496
-1.167417417417417 	300.0000195230513 	1.000064927098664 	101325.0230822209
-1.164914914914915 	300.0000062216207 	1.000021022967292 	101325.0073559151
-1.162412412412412 	300.0000018693329 	1.000006415914437 	101325.0022101633
-1.15990990990991 	300.0000005312311 	1.000001851395583 	101325.0006280977
-1.157407407407407 	300.0000001432044 	1.000000506597842 	101325.0001693149
-1.154904904904904 	300.0000000367158 	1.000000131789896 	101325.0000434071
-1.152402402402403 	300.0000000089718 	1.000000032672595 	101325.0000106082
-1.1498998998999 	300.0000000020901 	1.000000007736094 	101325.0000024763
-1.147397397397397 	300.000000000468 	1.000000001752019 	101325.000000553
-1.144894894894895 	300.000000000105 	1.000000000380249 	101325.0000001181
-1.142392392392392 	300.0000000000183 	1.000000000080313 	101325.0000000238
-1.13988988988989 	300.0000000000023 	1.00000000001686 	101325.0000000044
-1.137387387387387 	300.0000000000025 	1.00000000000184 	101325.0000000006
-1.134884884884885 	300.0000000000022 	0.9999999999992752 	101324.9999999999
-1.132382382382382 	300.0000000000059 	0.9999999999999183 	101324.9999999996
-1.12987987987988 	300.0000000000035 	1.000000000000489 	101324.9999999996
-1.127377377377377 	300.0000000000015 	0.9999999999998732 	101324.9999999997
-1.124874874874875 	299.9999999999993 	0.9999999999996829 	101324.9999999995
-1.122372372372372 	299.9999999999969 	1.000000000000317 	101324.9999999993
-1.11986986986987 	299.9999999999936 	1.00000000000128 	101324.9999999994
-1.117367367367367 	299.9999999999977 	1.000000000000901 	101324.9999999998
-1.114864864864865 	300.0000000000037 	0.9999999999992779 	101324.9999999999
-1.112362362362362 	300.0000000000021 	0.9999999999999087 	101324.9999999996
-1.10985985985986 	299.9999999999968 	1.000000000000615 	101324.9999999995
-1.107357357357357 	299.9999999999987 	1.00000000000015 	101324.9999999997
-1.104854854854855 	299.9999999999982 	0.9999999999998366 	101324.9999999998
-1.102352352352353 	299.9999999999976 	0.9999999999997264 	101324.9999999998
-1.09984984984985 	299.9999999999973 	0.9999999999993645 	101324.9999999995
-1.097347347347347 	299.9999999999989 	0.9999999999989173 	101324.9999999995
-1.094844844844845 	299.9999999999997 	0.999999999999283 	101324.9999999999
-1.092342342342342 	299.999999999998 	1.000000000000279 	101325
-1.08983983983984 	299.9999999999953 	1.000000000000563 	101324.9999999997
-1.087337337337337 	299.9999999999955 	1.000000000000016 	101324.9999999993
-1.084834834834835 	299.9999999999974 	0.9999999999997004 	101324.9999999993
-1.082332332332332 	299.9999999999994 	0.999999999999845 	101324.9999999995
-1.07982982982983 	300.0000000000034 	0.999999999999956 	101324.9999999993
-1.077327327327327 	300.0000000000019 	1.000000000001201 	101324.9999999992
-1.074824824824825 	300.0000000000005 	1.00000000000039 	101324.9999999991
-1.072322322322323 	300 	1.000000000000966 	101324.9999999991
-1.06981981981982 	300.0000000000022 	1.000000000000531 	101324.9999999992
-1.067317317317317 	300.0000000000023 	0.9999999999999672 	101324.9999999997
-1.064814814814815 	299.9999999999993 	1.000000000000596 	101324.9999999998
-1.062312312312312 	299.9999999999973 	1.000000000000792 	101324.9999999995
-1.05980980980981 	299.9999999999957 	1.000000000000763 	101324.9999999993
-1.057307307307307 	299.9999999999925 	1.00000000000024 	101324.9999999994
-1.054804804804805 	299.9999999999946 	0.9999999999994849 	101324.9999999994
-1.052302302302302 	299.9999999999984 	0.9999999999993594 	101324.9999999994
-1.0497997997998 	300.0000000000016 	0.9999999999998721 	101324.9999999992
-1.047297297297297 	300.0000000000044 	1.000000000000203 	101324.9999999992
-1.044794794794795 	300.0000000000049 	1.0000000000005 	101324.9999999995
-1.042292292292292 	300.0000000000026 	1.000000000000757 	101324.9999999994
-1.03978978978979 	300.0000000000008 	1.000000000000944 	101324.9999999995
-1.037287287287287 	299.9999999999977 	1.000000000001472 	101324.9999999995
-1.034784784784785 	300.0000000000002 	1.000000000001716 	101324.9999999995
-1.032282282282283 	300.0000000000028 	1.000000000001725 	101324.9999999994
-1.02977977977978 	300.0000000000027 	1.000000000001737 	101324.999999999
-1.027277277277277 	299.9999999999976 	1.000000000001779 	101324.9999999989
-1.024774774774775 	299.9999999999958 	1.000000000001681 	101324.9999999988
-1.022272272272272 	299.9999999999982 	1.000000000001463 	101324.999999999
-1.01976976976977 	299.9999999999987 	1.000000000001166 	101324.9999999994
-1.017267267267267 	299.9999999999945 	1.000000000001154 	101324.9999999994
-1.014764764764765 	299.9999999999956 	1.000000000001194 	101324.9999999992
-1.012262262262262 	299.9999999999952 	1.000000000000979 	101324.9999999991
-1.00975975975976 	299.999999999996 	1.000000000002001 	101324.9999999992
-1.007257257257257 	299.9999999999998 	1.000000000000394 	101324.9999999991
-1.004754754754755 	300.0000000000011 	0.9999999999996811 	101324.9999999988
-1.002252252252252 	299.999999999996 	1.000000000000477 	101324.9999999988
-0.9997497497497498 	299.9999999999974 	1.000000000000617 	101324.999999999
-0.9972472472472473 	299.9999999999966 	1.00000000000026 	101324.999999999
-0.9947447447447449 	299.9999999999952 	1.00000000000016 	101324.9999999991
-0.9922422422422421 	299.9999999999975 	1.000000000000436 	101324.9999999991
-0.9897397397397399 	299.999999999997 	1.000000000000467 	101324.9999999991
-0.9872372372372376 	299.9999999999951 	1.00000000000138 	101324.9999999993
-0.9847347347347346 	299.9999999999957 	0.9999999999998362 	101324.9999999993
-0.9822322322322323 	299.9999999999991 	0.9999999999991116 	101324.9999999991
-0.9797297297297296 	299.9999999999987 	0.999999999999331 	101324.999999999
-0.9772272272272275 	299.9999999999996 	0.9999999999994724 	101324.9999999991
-0.9747247247247248 	300.0000000000002 	0.9999999999999987 	101324.9999999991
-0.9722222222222224 	299.9999999999953 	1.000000000000061 	101324.9999999991
-0.9697197197197196 	299.9999999999952 	0.9999999999997995 	101324.9999999989
-0.9672172172172175 	299.9999999999927 	0.9999999999996279 	101324.9999999989
-0.9647147147147147 	299.9999999999923 	1.000000000000018 	101324.9999999989
-0.9622122122122124 	299.9999999999959 	0.9999999999990874 	101324.999999999
-0.9597097097097099 	299.9999999999981 	0.9999999999986473 	101324.9999999989
-0.9572072072072073 	299.9999999999976 	0.9999999999990156 	101324.9999999989
-0.9547047047047047 	300.0000000000023 	0.9999999999986731 	101324.9999999989
-0.9522022022022023 	299.9999999999966 	0.9999999999982464 	101324.999999999
-0.9496996996996998 	299.9999999999947 	0.9999999999982584 	101324.999999999
-0.9471971971971973 	300.0000000000014 	0.999999999999966 	101324.9999999991
-0.9446946946946947 	299.9999999999973 	0.9999999999988742 	101324.9999999991
-0.9421921921921923 	299.9999999999961 	0.999999999998344 	101324.999999999
-0.93968968968969 	300.000000000001 	0.9999999999987302 	101324.9999999991
-0.9371871871871872 	300.0000000000027 	0.9999999999986968 	101324.9999999992
-0.9346846846846848 	299.9999999999989 	0.9999999999992578 	101324.999999999
-0.9321821821821823 	299.9999999999949 	0.9999999999997958 	101324.9999999989
-0.9296796796796799 	299.9999999999971 	0.9999999999996961 	101324.999999999
-0.9271771771771771 	299.9999999999953 	0.999999999998894 	101324.9999999993
-0.9246746746746748 	299.9999999999986 	0.9999999999997196 	101324.9999999993
-0.9221721721721724 	300.0000000000014 	0.9999999999987383 	101324.9999999993
-0.9196696696696698 	300.0000000000005 	0.9999999999992757 	101324.9999999994
-0.9171671671671672 	299.9999999999941 	1.000000000000552 	101324.9999999993
-0.9146646646646649 	299.9999999999957 	1.000000000000474 	101324.9999999993
-0.9121621621621623 	299.9999999999988 	1.000000000000211 	101324.9999999994
-0.9096596596596597 	299.9999999999949 	1.000000000000141 	101324.9999999992
-0.9071571571571573 	299.9999999999966 	1.000000000000327 	101324.9999999989
-0.9046546546546547 	299.9999999999996 	1.000000000000437 	101324.9999999992
-0.9021521521521524 	299.9999999999993 	1.000000000000782 	101324.9999999995
-0.8996496496496498 	299.9999999999975 	0.9999999999997331 	101324.9999999993
-0.8971471471471473 	300.0000000000016 	0.9999999999996707 	101324.9999999993
-0.894644644644645 	299.9999999999999 	1.000000000000481 	101324.9999999994
-0.892142142142142 	300.0000000000027 	1.000000000000828 	101324.9999999994
-0.8896396396396397 	300.0000000000056 	1.000000000001018 	101324.9999999992
-0.8871371371371374 	299.9999999999984 	1.00000000000131 	101324.9999999994
-0.8846346346346349 	299.9999999999962 	1.000000000002348 	101324.9999999992
-0.8821321321321324 	299.9999999999977 	1.000000000000457 	101324.9999999991
-0.8796296296296297 	299.9999999999961 	1.00000000000082 	101324.9999999993
-0.8771271271271271 	299.9999999999929 	1.000000000000452 	101324.9999999991
-0.8746246246246248 	299.9999999999947 	1.000000000000335 	101324.9999999988
-0.8721221221221224 	299.9999999999945 	0.9999999999996289 	101324.9999999989
-0.8696196196196196 	299.9999999999947 	0.9999999999999161 	101324.999999999
-0.8671171171171175 	299.9999999999962 	1.0000000000005 	101324.9999999992
-0.8646146146146148 	299.9999999999941 	1.000000000001693 	101324.9999999994
-0.8621121121121121 	299.9999999999968 	1.000000000000515 	101324.9999999993
-0.8596096096096097 	299.9999999999995 	0.9999999999984657 	101324.9999999992
-0.857107107107107 	299.9999999999985 	0.9999999999992211 	101324.9999999991
-0.8546046046046049 	299.9999999999994 	0.9999999999997461 	101324.9999999994
-0.8521021021021022 	300.0000000000016 	0.9999999999997994 	101324.9999999996
-0.8495995995995997 	300.0000000000019 	1.000000000000205 	101324.9999999997
-0.8470970970970974 	299.999999999998 	1.000000000000087 	101324.9999999995
-0.8445945945945946 	299.9999999999944 	0.9999999999996252 	101324.9999999994
-0.8420920920920922 	300.0000000000022 	0.9999999999998344 	101324.9999999992
-0.8395895895895897 	300.0000000000045 	1.000000000001767 	101324.999999999
-0.8370870870870872 	299.9999999999994 	1.000000000000399 	101324.9999999989
-0.8345845845845846 	299.9999999999973 	1.000000000000152 	101324.9999999989
-0.8320820820820823 	299.9999999999972 	1.000000000000419 	101324.999999999
-0.8295795795795798 	299.999999999994 	1.000000000000491 	101324.9999999992
-0.8270770770770772 	299.999999999994 	1.000000000000763 	101324.9999999991
-0.8245745745745746 	299.9999999999945 	1.000000000000711 	101324.9999999989
-0.8220720720720721 	299.9999999999976 	1.000000000000345 	101324.9999999988
-0.8195695695695699 	299.9999999999988 	1.000000000000296 	101324.9999999986
-0.817067067067067 	299.9999999999969 	1.000000000001346 	101324.9999999988
-0.8145645645645651 	299.9999999999899 	0.9999999999992437 	101324.999999999
-0.8120620620620621 	299.9999999999953 	0.9999999999993008 	101324.9999999989
-0.8095595595595597 	300.0000000000006 	1.000000000000196 	101324.999999999
-0.8070570570570572 	299.999999999998 	1.000000000000424 	101324.9999999991
-0.8045545545545546 	299.9999999999898 	0.9999999999999797 	101324.9999999989
-0.8020520520520523 	299.9999999999966 	0.9999999999992161 	101324.999999999
-0.7995495495495494 	300.0000000000014 	1.000000000000467 	101324.9999999989
-0.7970470470470474 	299.9999999999982 	0.9999999999993504 	101324.9999999989
-0.7945445445445446 	299.9999999999991 	1.000000000000421 	101324.9999999992
-0.7920420420420423 	300.0000000000006 	1.000000000000433 	101324.9999999993
-0.7895395395395397 	300.0000000000028 	1.000000000000782 	101324.9999999991
-0.7870370370370371 	300.0000000000004 	0.9999999999999458 	101324.9999999987
-0.7845345345345348 	299.9999999999986 	1.000000000000086 	101324.9999999987
-0.7820320320320323 	299.9999999999997 	1.000000000000741 	101324.999999999
-0.7795295295295296 	299.999999999995 	1.000000000002341 	101324.9999999989
-0.7770270270270272 	299.9999999999931 	1.000000000000017 	101324.9999999987
-0.7745245245245247 	299.9999999999927 	0.9999999999993457 	101324.9999999986
-0.7720220220220222 	299.9999999999955 	0.9999999999997166 	101324.9999999988
-0.7695195195195199 	299.9999999999918 	0.9999999999998257 	101324.999999999
-0.767017017017017 	299.9999999999937 	0.99999999999988 	101324.9999999989
-0.7645145145145147 	299.9999999999982 	0.9999999999995255 	101324.9999999988
-0.7620120120120122 	299.9999999999993 	0.9999999999993854 	101324.999999999
-0.7595095095095097 	299.9999999999959 	1.000000000001602 	101324.999999999
-0.7570070070070072 	299.9999999999907 	0.9999999999980804 	101324.9999999988
-0.7545045045045048 	299.9999999999934 	0.9999999999990422 	101324.9999999988
-0.7520020020020022 	299.9999999999918 	0.9999999999985664 	101324.9999999992
-0.7494994994994997 	299.9999999999957 	1.000000000000066 	101324.9999999993
-0.7469969969969972 	299.9999999999983 	0.9999999999996947 	101324.9999999992
-0.7444944944944945 	299.9999999999947 	0.9999999999996024 	101324.9999999991
-0.7419919919919924 	299.9999999999966 	0.9999999999996578 	101324.9999999993
-0.7394894894894897 	299.999999999992 	0.9999999999993984 	101324.9999999992
-0.7369869869869872 	299.9999999999949 	0.9999999999995176 	101324.9999999991
-0.7344844844844846 	299.999999999998 	0.9999999999999715 	101324.9999999995
-0.7319819819819822 	299.9999999999993 	1.000000000001155 	101324.9999999994
-0.7294794794794797 	300.0000000000013 	0.9999999999986259 	101324.9999999992
-0.7269769769769773 	300.0000000000014 	0.9999999999986966 	101324.9999999989
-0.7244744744744747 	299.9999999999986 	0.9999999999993769 	101324.9999999991
-0.721971971971972 	299.9999999999968 	0.9999999999996192 	101324.999999999
-0.7194694694694695 	299.9999999999962 	0.9999999999995204 	101324.9999999988
-0.7169669669669674 	299.9999999999931 	0.9999999999991553 	101324.9999999989
-0.7144644644644647 	300.0000000000001 	0.9999999999988389 	101324.999999999
-0.711961961961962 	300.0000000000037 	0.9999999999989111 	101324.9999999989
-0.7094594594594597 	300.0000000000031 	0.9999999999999056 	101324.999999999
-0.7069569569569573 	299.9999999999991 	0.9999999999987808 	101324.9999999991
-0.7044544544544545 	300.000000000001 	0.9999999999986703 	101324.9999999993
-0.7019519519519523 	300.0000000000024 	0.9999999999995408 	101324.9999999993
-0.6994494494494495 	299.9999999999958 	1.000000000000048 	101324.9999999992
-0.6969469469469471 	299.9999999999972 	0.9999999999995695 	101324.9999999995
-0.6944444444444446 	300.0000000000005 	0.9999999999992449 	101324.9999999994
-0.6919419419419421 	300.000000000003 	0.9999999999996968 	101324.9999999994
-0.6894394394394396 	299.9999999999978 	1.000000000000129 	101324.9999999996
-0.6869369369369374 	299.999999999999 	1.000000000000114 	101324.9999999994
-0.6844344344344344 	299.9999999999999 	0.9999999999999839 	101324.9999999993
-0.6819319319319321 	299.9999999999926 	0.9999999999995909 	101324.9999999995
-0.6794294294294296 	299.9999999999965 	0.9999999999994807 	101324.9999999997
-0.6769269269269272 	299.9999999999942 	0.9999999999998354 	101324.9999999996
-0.6744244244244245 	300.0000000000011 	0.9999999999999899 	101324.9999999995
-0.6719219219219222 	299.9999999999939 	0.9999999999997541 	101324.9999999996
-0.6694194194194195 	299.9999999999973 	0.999999999999767 	101324.9999999994
-0.6669169169169172 	299.9999999999999 	0.9999999999998621 	101324.9999999994
-0.6644144144144146 	299.9999999999994 	0.9999999999998618 	101324.9999999995
-0.661911911911912 	299.9999999999984 	0.9999999999997319 	101324.9999999994
-0.6594094094094097 	299.9999999999968 	0.9999999999995748 	101324.9999999993
-0.656906906906907 	299.9999999999949 	1.000000000000084 	101324.9999999991
-0.6544044044044046 	299.9999999999897 	1.00000000000013 	101324.9999999992
-0.6519019019019021 	299.9999999999933 	0.9999999999997271 	101324.9999999995
-0.6493993993993996 	299.9999999999996 	0.9999999999996673 	101324.9999999998
-0.6468968968968971 	300.0000000000016 	1.000000000000878 	101324.9999999998
-0.6443943943943946 	300.0000000000026 	0.9999999999986093 	101324.9999999997
-0.6418918918918921 	300.0000000000028 	0.9999999999991197 	101324.9999999994
-0.6393893893893897 	300.0000000000028 	1.00000000000021 	101324.9999999994
-0.6368868868868871 	300.000000000004 	1.000000000000542 	101324.9999999993
-0.6343843843843846 	300.0000000000043 	1.000000000000228 	101324.9999999992
-0.6318818818818821 	299.9999999999977 	0.9999999999997407 	101324.9999999996
-0.6293793793793795 	299.9999999999997 	0.9999999999993151 	101324.9999999997
-0.6268768768768773 	300.0000000000002 	0.9999999999993321 	101324.9999999995
-0.6243743743743745 	299.9999999999957 	0.9999999999998925 	101324.9999999996
-0.6218718718718721 	299.9999999999972 	0.9999999999988887 	101324.9999999998
-0.6193693693693696 	299.9999999999948 	0.9999999999991963 	101324.9999999997
-0.6168668668668671 	299.9999999999995 	0.9999999999993392 	101324.9999999995
-0.6143643643643645 	300.0000000000001 	0.9999999999992054 	101324.9999999994
-0.6118618618618621 	300.0000000000019 	0.9999999999992559 	101324.9999999994
-0.6093593593593596 	300.0000000000045 	0.9999999999997152 	101324.9999999996
-0.6068568568568571 	299.999999999997 	1.000000000000342 	101324.9999999996
-0.6043543543543546 	299.999999999997 	1.000000000000698 	101324.9999999996
-0.6018518518518521 	299.9999999999937 	1.000000000000526 	101324.9999999993
-0.5993493493493496 	299.9999999999968 	1.000000000000503 	101324.9999999995
-0.5968468468468471 	299.999999999998 	1.000000000000241 	101324.9999999995
-0.5943443443443446 	299.9999999999975 	1.000000000000101 	101324.9999999993
-0.591841841841842 	299.9999999999928 	1.0000000000007 	101324.9999999991
-0.5893393393393397 	299.9999999999947 	1.0000000000011 	101324.9999999991
-0.5868368368368371 	299.999999999999 	1.000000000000829 	101324.9999999994
-0.5843343343343346 	300.0000000000039 	1.000000000001569 	101324.9999999999
-0.5818318318318321 	300.0000000000036 	0.9999999999991229 	101324.9999999996
-0.5793293293293297 	299.9999999999957 	0.999999999999459 	101324.9999999993
-0.5768268268268271 	299.9999999999965 	0.9999999999997849 	101324.999999999
-0.5743243243243245 	299.9999999999999 	0.9999999999998876 	101324.9999999991
-0.5718218218218221 	299.9999999999998 	0.999999999999663 	101324.9999999995
-0.5693193193193196 	300.0000000000028 	0.9999999999999578 	101324.9999999996
-0.5668168168168171 	300.0000000000013 	1.000000000000826 	101324.9999999995
-0.5643143143143147 	299.9999999999925 	1.000000000000717 	101324.9999999996
-0.5618118118118121 	299.9999999999993 	1.000000000001122 	101324.9999999996
-0.5593093093093094 	300.0000000000016 	1.00000000000037 	101324.9999999994
-0.5568068068068072 	300.0000000000012 	1.000000000000516 	101324.9999999996
-0.5543043043043046 	300.0000000000001 	1.000000000000917 	101324.9999999994
-0.551801801801802 	299.9999999999927 	1.000000000001173 	101324.9999999993
-0.5492992992992995 	299.9999999999985 	1.000000000000945 	101324.9999999995
-0.5467967967967969 	300.0000000000018 	1.000000000001057 	101324.9999999993
-0.5442942942942947 	300.000000000003 	1.000000000001317 	101324.9999999995
-0.5417917917917919 	299.9999999999941 	1.000000000001197 	101324.9999999993
-0.5392892892892895 	299.9999999999943 	1.000000000000627 	101324.9999999993
-0.536786786786787 	299.9999999999949 	1.000000000000429 	101324.9999999994
-0.5342842842842846 	299.9999999999928 	1.000000000000496 	101324.9999999992
-0.531781781781782 	299.9999999999891 	1.000000000000201 	101324.9999999991
-0.5292792792792794 	299.9999999999906 	1.000000000000261 	101324.999999999
-0.526776776776777 	299.9999999999926 	1.000000000000145 	101324.9999999991
-0.5242742742742745 	299.9999999999928 	0.9999999999998872 	101324.9999999994
-0.521771771771772 	299.9999999999986 	1.000000000001354 	101324.9999999996
-0.5192692692692695 	299.9999999999983 	0.9999999999992372 	101324.9999999995
-0.516766766766767 	299.9999999999998 	1.000000000000857 	101324.9999999994
-0.5142642642642645 	299.9999999999929 	0.9999999999997304 	101324.9999999994
-0.511761761761762 	299.9999999999984 	1.000000000000742 	101324.9999999992
-0.5092592592592596 	300.0000000000013 	0.9999999999997602 	101324.9999999989
-0.506756756756757 	299.9999999999959 	1.000000000000083 	101324.9999999988
-0.5042542542542544 	300.000000000002 	1.000000000000287 	101324.9999999993
-0.5017517517517521 	300.000000000004 	1.00000000000055 	101324.9999999993
-0.4992492492492494 	300.0000000000008 	1.000000000000509 	101324.9999999988
-0.496746746746747 	299.9999999999985 	1.000000000000524 	101324.9999999987
-0.4942442442442445 	299.9999999999922 	1.000000000000434 	101324.9999999987
-0.4917417417417421 	299.9999999999936 	1.000000000000608 	101324.9999999989
-0.4892392392392395 	299.9999999999931 	1.000000000000499 	101324.999999999
-0.486736736736737 	299.9999999999965 	1.000000000000328 	101324.9999999989
-0.4842342342342345 	299.9999999999954 	0.9999999999999057 	101324.9999999987
-0.481731731731732 	300.000000000002 	0.9999999999996926 	101324.9999999987
-0.4792292292292296 	300.0000000000031 	0.9999999999999486 	101324.9999999983
-0.4767267267267268 	299.9999999999947 	1.00000000000176 	101324.9999999985
-0.4742242242242246 	299.9999999999972 	0.9999999999991573 	101324.9999999987
-0.471721721721722 	299.9999999999919 	0.9999999999998116 	101324.9999999986
-0.4692192192192195 	299.9999999999933 	1.000000000000495 	101324.999999999
-0.4667167167167169 	299.9999999999918 	1.000000000000429 	101324.9999999991
-0.4642142142142145 	300.0000000000005 	0.9999999999995732 	101324.9999999992
-0.461711711711712 	300.0000000000011 	0.9999999999991269 	101324.9999999989
-0.4592092092092094 	299.9999999999993 	1.000000000000192 	101324.9999999992
-0.456706706706707 	300.000000000004 	1.000000000001679 	101324.9999999991
-0.4542042042042045 	299.9999999999962 	1.00000000000179 	101324.999999999
-0.451701701701702 	299.9999999999977 	1.000000000001544 	101324.999999999
-0.4491991991991995 	299.9999999999944 	1.000000000000726 	101324.999999999
-0.4466966966966969 	299.9999999999933 	1.000000000000234 	101324.9999999989
-0.4441941941941945 	299.9999999999962 	1.000000000000019 	101324.9999999989
-0.441691691691692 	299.9999999999914 	1.000000000000097 	101324.9999999989
-0.4391891891891895 	299.9999999999948 	1.000000000000153 	101324.9999999991
-0.436686686686687 	299.999999999993 	1.000000000001339 	101324.9999999993
-0.4341841841841846 	299.999999999997 	0.9999999999984571 	101324.9999999994
-0.431681681681682 	299.999999999996 	0.9999999999989078 	101324.9999999994
-0.4291791791791794 	299.9999999999954 	0.9999999999993572 	101324.9999999992
-0.426676676676677 	299.999999999992 	0.999999999999053 	101324.9999999993
-0.4241741741741744 	299.9999999999968 	0.9999999999991057 	101324.999999999
-0.421671671671672 	300.0000000000009 	0.999999999998735 	101324.9999999991
-0.4191691691691694 	300.0000000000009 	0.9999999999990234 	101324.9999999992
-0.4166666666666669 	300.0000000000024 	0.9999999999993073 	101324.9999999992
-0.4141641641641645 	299.9999999999959 	0.9999999999992074 	101324.999999999
-0.411661661661662 	299.9999999999993 	0.9999999999991134 	101324.9999999992
-0.4091591591591594 	299.9999999999973 	0.9999999999989468 	101324.9999999991
-0.406656656656657 	299.9999999999918 	0.9999999999987768 	101324.9999999992
-0.4041541541541545 	300.0000000000003 	0.9999999999989503 	101324.9999999993
-0.401651651651652 	299.9999999999939 	0.9999999999990542 	101324.9999999993
-0.3991491491491494 	299.9999999999995 	0.9999999999995239 	101324.9999999991
-0.396646646646647 	299.9999999999988 	1.00000000000089 	101324.9999999993
-0.3941441441441444 	300.0000000000023 	0.9999999999977502 	101324.9999999994
-0.3916416416416419 	299.9999999999964 	0.9999999999982718 	101324.9999999996
-0.3891391391391395 	299.9999999999986 	0.9999999999987225 	101324.9999999998
-0.3866366366366368 	300.0000000000003 	0.9999999999993965 	101324.9999999994
-0.3841341341341344 	300.0000000000002 	0.9999999999996158 	101324.999999999
-0.381631631631632 	299.9999999999914 	0.9999999999995763 	101324.9999999993
-0.3791291291291294 	299.9999999999987 	0.9999999999991918 	101324.9999999994
-0.3766266266266269 	299.9999999999976 	0.9999999999987849 	101324.9999999996
-0.3741241241241244 	300.0000000000053 	0.9999999999989478 	101324.9999999994
-0.371621621621622 	299.9999999999984 	0.9999999999988127 	101324.9999999994
-0.3691191191191194 	300.0000000000031 	1.000000000000443 	101324.9999999994
-0.366616616616617 	300.0000000000007 	0.9999999999978511 	101324.9999999993
-0.3641141141141143 	299.9999999999928 	0.9999999999985817 	101324.9999999996
-0.3616116116116119 	300.0000000000001 	0.9999999999987349 	101325
-0.3591091091091095 	300.0000000000035 	0.9999999999993898 	101324.9999999997
-0.356606606606607 	299.999999999996 	0.9999999999999486 	101324.9999999993
-0.3541041041041044 	300.0000000000005 	0.9999999999999614 	101324.9999999995
-0.3516016016016019 	300.0000000000015 	0.9999999999992637 	101324.9999999993
-0.3490990990990994 	300.0000000000008 	0.9999999999991334 	101324.9999999994
-0.346596596596597 	300.0000000000011 	0.9999999999998421 	101324.9999999991
-0.3440940940940944 	300.0000000000009 	0.9999999999992975 	101324.9999999992
-0.3415915915915919 	299.9999999999997 	1.000000000000489 	101324.9999999995
-0.3390890890890895 	299.9999999999966 	1.000000000000354 	101324.9999999998
-0.3365865865865869 	300.0000000000007 	1.000000000000709 	101324.9999999999
-0.3340840840840844 	299.9999999999984 	1.000000000000656 	101324.9999999996
-0.3315815815815819 	300.0000000000039 	1.000000000000582 	101324.9999999997
-0.3290790790790794 	300.000000000004 	1.000000000001139 	101324.9999999996
-0.3265765765765769 	299.9999999999945 	1.000000000000926 	101324.9999999994
-0.3240740740740744 	299.999999999998 	1.000000000000444 	101324.9999999997
-0.3215715715715718 	299.9999999999997 	1.000000000000474 	101324.9999999999
-0.3190690690690695 	299.9999999999951 	1.00000000000032 	101325
-0.3165665665665668 	299.9999999999995 	0.9999999999997076 	101324.9999999999
-0.3140640640640644 	300.0000000000031 	0.9999999999997928 	101324.9999999997
-0.311561561561562 	299.9999999999948 	0.9999999999995087 	101324.9999999995
-0.3090590590590593 	299.9999999999994 	0.9999999999996604 	101325
-0.3065565565565568 	300.0000000000018 	1.000000000001267 	101325
-0.3040540540540545 	299.9999999999964 	0.9999999999981467 	101324.9999999997
-0.3015515515515518 	299.9999999999997 	0.9999999999993832 	101324.9999999997
-0.2990490490490494 	299.999999999997 	0.9999999999998873 	101324.9999999996
-0.2965465465465469 	299.9999999999986 	0.9999999999996974 	101324.9999999994
-0.2940440440440444 	300.0000000000026 	0.9999999999998854 	101324.999999999
-0.2915415415415418 	300.0000000000021 	1.000000000000354 	101324.9999999995
-0.2890390390390395 	299.9999999999977 	1.000000000000566 	101324.9999999995
-0.2865365365365368 	299.9999999999999 	1.000000000000536 	101324.9999999993
-0.2840340340340343 	299.9999999999982 	1.000000000001214 	101324.9999999995
-0.2815315315315318 	299.9999999999964 	1.000000000000391 	101324.9999999994
-0.2790290290290295 	299.9999999999928 	1.000000000000962 	101324.999999999
-0.2765265265265269 	299.9999999999974 	1.00000000000114 	101324.9999999992
-0.2740240240240244 	300.0000000000048 	1.000000000001074 	101324.9999999992
-0.2715215215215219 	300.0000000000027 	1.000000000001037 	101324.9999999993
-0.2690190190190194 	299.9999999999912 	1.000000000000791 	101324.9999999993
-0.2665165165165169 	300.0000000000007 	1.000000000000462 	101324.9999999993
-0.2640140140140144 	299.9999999999981 	1.000000000000615 	101324.9999999993
-0.2615115115115119 	300.0000000000018 	1.000000000001806 	101324.9999999991
-0.2590090090090094 	299.9999999999945 	1.000000000000381 	101324.9999999989
-0.2565065065065068 	299.9999999999963 	1.000000000000924 	101324.999999999
-0.2540040040040044 	300.0000000000013 	1.000000000001127 	101324.9999999993
-0.2515015015015019 	300.0000000000052 	1.000000000001509 	101324.999999999
-0.2489989989989994 	300.0000000000026 	1.000000000001442 	101324.9999999993
-0.2464964964964968 	300.0000000000008 	1.000000000001657 	101324.9999999997
-0.2439939939939944 	300.0000000000018 	1.000000000001954 	101324.9999999993
-0.2414914914914919 	299.9999999999975 	1.000000000000273 	101324.9999999994
-0.2389889889889893 	299.9999999999999 	1.000000000000889 	101324.9999999994
-0.2364864864864869 	300.0000000000029 	1.000000000000984 	101324.9999999993
-0.2339839839839843 	299.9999999999919 	1.000000000002286 	101324.9999999992
-0.2314814814814819 	300.0000000000018 	1.000000000000571 	101324.999999999
-0.2289789789789792 	299.9999999999881 	1.000000000001191 	101324.9999999985
-0.2264764764764769 	299.9999999999943 	1.000000000000549 	101324.9999999991
-0.2239739739739743 	299.9999999999956 	0.9999999999999309 	101324.999999999
-0.2214714714714718 	299.9999999999896 	1.0000000000002 	101324.9999999992
-0.2189689689689693 	299.9999999999968 	1.00000000000025 	101324.9999999991
-0.2164664664664669 	300.0000000000005 	1.000000000000784 	101324.9999999991
-0.2139639639639643 	299.9999999999945 	0.9999999999990252 	101324.9999999994
-0.2114614614614618 	299.9999999999975 	0.99999999999933 	101324.9999999994
-0.2089589589589593 	299.999999999998 	0.9999999999993566 	101324.9999999994
-0.2064564564564568 	299.9999999999971 	0.9999999999997307 	101324.9999999994
-0.2039539539539543 	299.9999999999916 	0.9999999999999918 	101324.999999999
-0.2014514514514518 	299.9999999999953 	0.9999999999994696 	101324.9999999992
-0.1989489489489494 	299.9999999999936 	1.00000000000048 	101324.9999999992
-0.1964464464464468 	299.9999999999973 	0.9999999999995537 	101324.9999999995
-0.1939439439439443 	299.9999999999978 	1.000000000000571 	101324.9999999993
-0.1914414414414418 	299.9999999999899 	1.000000000000208 	101324.9999999989
-0.1889389389389393 	300.0000000000021 	0.9999999999996405 	101324.9999999988
-0.1864364364364368 	300.0000000000046 	0.9999999999998208 	101324.9999999994
-0.1839339339339343 	300.0000000000016 	1.000000000000587 	101324.9999999989
-0.1814314314314318 	300.0000000000021 	1.000000000000216 	101324.9999999985
-0.1789289289289293 	299.9999999999915 	0.9999999999995007 	101324.9999999984
-0.1764264264264268 	299.9999999999957 	0.99999999999911 	101324.9999999988
-0.1739239239239243 	299.9999999999922 	0.9999999999990421 	101324.9999999987
-0.1714214214214218 	299.9999999999955 	0.999999999999388 	101324.9999999987
-0.1689189189189193 	299.9999999999917 	0.9999999999989371 	101324.9999999986
-0.1664164164164168 	300.0000000000001 	0.9999999999983588 	101324.9999999986
-0.1639139139139143 	300.0000000000006 	0.9999999999991187 	101324.9999999986
-0.1614114114114118 	299.9999999999999 	0.9999999999998344 	101324.9999999984
-0.1589089089089093 	299.9999999999966 	1.00000000000177 	101324.9999999989
-0.1564064064064068 	299.9999999999973 	0.9999999999988132 	101324.9999999988
-0.1539039039039043 	299.9999999999962 	1.000000000001646 	101324.9999999985
-0.1514014014014018 	299.9999999999994 	1.000000000000302 	101324.999999999
-0.1488988988988993 	299.9999999999991 	1.000000000001551 	101324.999999999
-0.1463963963963968 	300.0000000000013 	1.000000000000541 	101324.9999999989
-0.1438938938938943 	299.9999999999933 	1.000000000001105 	101324.9999999993
-0.1413913913913918 	299.9999999999975 	1.000000000000692 	101324.9999999989
-0.1388888888888893 	299.9999999999949 	1.000000000000504 	101324.9999999986
-0.1363863863863868 	299.999999999994 	1.000000000000637 	101324.999999999
-0.1338838838838843 	299.9999999999897 	1.000000000001403 	101324.9999999984
-0.1313813813813818 	299.9999999999964 	1.000000000001056 	101324.999999999
-0.1288788788788793 	299.9999999999914 	1.000000000000392 	101324.9999999988
-0.1263763763763768 	299.999999999995 	1.000000000000095 	101324.9999999987
-0.1238738738738743 	299.9999999999908 	1.000000000000147 	101324.9999999986
-0.1213713713713717 	299.9999999999952 	1.00000000000042 	101324.9999999989
-0.1188688688688693 	300.0000000000002 	1.000000000000166 	101324.9999999989
-0.1163663663663668 	299.9999999999907 	1.000000000000017 	101324.9999999984
-0.1138638638638643 	299.9999999999973 	1.000000000000953 	101324.9999999989
-0.1113613613613618 	299.999999999999 	0.9999999999999122 	101324.9999999992
-0.1088588588588592 	299.999999999999 	1.000000000001373 	101324.9999999993
-0.1063563563563568 	299.9999999999938 	0.9999999999997212 	101324.9999999989
-0.1038538538538543 	299.9999999999986 	1.000000000000584 	101324.9999999985
-0.1013513513513517 	300.0000000000044 	1.000000000000827 	101324.9999999984
-0.09884884884884926 	299.9999999999941 	1.000000000000667 	101324.9999999985
-0.09634634634634676 	299.9999999999923 	1.000000000000717 	101324.9999999988
-0.09384384384384425 	299.9999999999875 	1.00000000000059 	101324.9999999987
-0.09134134134134177 	299.9999999999994 	1.000000000000647 	101324.9999999987
-0.08883883883883925 	300.0000000000026 	1.000000000000796 	101324.9999999989
-0.08633633633633674 	299.9999999999916 	1.000000000000592 	101324.9999999986
-0.08383383383383426 	299.999999999999 	1.000000000000327 	101324.9999999982
-0.08133133133133173 	299.9999999999994 	1.000000000000097 	101324.9999999983
-0.07882882882882926 	299.9999999999911 	0.9999999999998165 	101324.9999999987
-0.07632632632632676 	299.9999999999947 	1.000000000000274 	101324.9999999985
-0.07382382382382424 	299.9999999999928 	0.9999999999999337 	101324.9999999986
-0.07132132132132173 	299.9999999999971 	0.9999999999996226 	101324.9999999984
-0.06881881881881925 	299.9999999999953 	1.00000000000058 	101324.9999999986
-0.06631631631631671 	299.9999999999927 	1.000000000000652 	101324.9999999985
-0.06381381381381425 	299.999999999998 	1.000000000000072 	101324.9999999986
-0.06131131131131173 	299.9999999999965 	0.9999999999998214 	101324.9999999984
-0.05880880880880923 	299.9999999999945 	1.000000000000034 	101324.9999999982
-0.05630630630630672 	299.9999999999979 	1.000000000000246 	101324.9999999982
-0.05380380380380424 	300.0000000000018 	1.000000000001216 	101324.9999999986
-0.05130130130130173 	299.9999999999986 	1.000000000000852 	101324.9999999986
-0.04879879879879922 	299.9999999999889 	1.000000000000649 	101324.9999999984
-0.04629629629629672 	299.9999999999906 	1.000000000000725 	101324.9999999983
-0.04379379379379422 	299.9999999999948 	1.000000000000457 	101324.999999998
-0.04129129129129173 	299.9999999999917 	1.000000000000207 	101324.9999999982
-0.03878878878878922 	300.0000000000001 	1.000000000000324 	101324.9999999988
-0.03628628628628671 	299.9999999999902 	1.000000000000386 	101324.9999999984
-0.03378378378378422 	299.9999999999911 	1.000000000000503 	101324.9999999981
-0.03128128128128172 	299.9999999999968 	1.000000000000184 	101324.9999999983
-0.02877877877877922 	299.9999999999994 	1.000000000000617 	101324.9999999984
-0.0262762762762767 	299.9999999999891 	1.000000000000772 	101324.9999999984
-0.02377377377377422 	299.9999999999974 	0.9999999999999323 	101324.9999999985
-0.0212712712712717 	299.9999999999879 	0.999999999999485 	101324.9999999983
-0.01876876876876921 	299.9999999999965 	1.000000000000164 	101324.9999999985
-0.01626626626626671 	299.999999999999 	1.000000000000246 	101324.9999999984
-0.0137637637637642 	299.9999999999921 	0.9999999999994611 	101324.9999999983
-0.0112612612612617 	299.999999999997 	0.9999999999993169 	101324.9999999982
-0.008758758758759198 	299.9999999999966 	0.9999999999994965 	101324.9999999981
-0.006256256256256697 	299.9999999999915 	0.9999999999995296 	101324.9999999979
-0.003753753753754195 	299.9999999999919 	1.000000000000013 	101324.9999999982
-0.001251251251251693 	299.999999999991 	1.00000000000038 	101324.9999999986
0.00125125125125081 	299.9999999999885 	1.000000000000159 	101324.9999999983
0.003753753753753312 	299.9999999999926 	1.000000000000241 	101324.9999999983
0.006256256256255817 	299.9999999999915 	1.000000000000117 	101324.9999999985
0.008758758758758317 	299.9999999999933 	1.000000000000041 	101324.9999999982
0.01126126126126082 	299.9999999999949 	1.000000000000095 	101324.9999999983
0.01376376376376332 	299.9999999999942 	1.000000000000132 	101324.9999999983
0.01626626626626582 	299.9999999999977 	1.000000000000282 	101324.9999999981
0.01876876876876833 	299.9999999999948 	1.000000000000675 	101324.9999999983
0.02127127127127083 	299.9999999999914 	1.000000000000937 	101324.999999998
0.02377377377377332 	299.9999999999955 	1.000000000000633 	101324.9999999984
0.02627627627627583 	299.9999999999871 	1.000000000000721 	101324.9999999983
0.02877877877877833 	299.9999999999965 	1.000000000000502 	101324.9999999981
0.03128128128128083 	299.9999999999955 	0.9999999999996743 	101324.9999999981
0.03378378378378333 	299.9999999999873 	0.9999999999994728 	101324.999999998
0.03628628628628584 	299.9999999999958 	1.000000000000065 	101324.9999999985
0.03878878878878834 	300.0000000000019 	1.000000000000724 	101324.9999999985
0.04129129129129084 	299.9999999999928 	1.000000000000779 	101324.9999999985
0.04379379379379333 	299.9999999999966 	0.9999999999999898 	101324.9999999985
0.04629629629629585 	299.9999999999895 	0.9999999999998537 	101324.9999999982
0.04879879879879834 	299.9999999999907 	1.000000000000059 	101324.9999999982
0.05130130130130085 	300.000000000003 	0.9999999999997705 	101324.9999999983
0.05380380380380335 	300.0000000000029 	0.9999999999993382 	101324.9999999982
0.05630630630630584 	299.9999999999924 	0.9999999999995349 	101324.9999999983
0.05880880880880836 	299.9999999999951 	0.9999999999999549 	101324.9999999982
0.06131131131131085 	299.999999999997 	1.000000000000232 	101324.9999999987
0.06381381381381336 	299.9999999999972 	0.9999999999999719 	101324.9999999985
0.06631631631631586 	299.9999999999932 	0.9999999999998804 	101324.9999999985
0.06881881881881835 	299.9999999999945 	0.9999999999993716 	101324.9999999981
0.07132132132132088 	299.9999999999984 	0.9999999999990919 	101324.9999999982
0.07382382382382337 	299.9999999999911 	0.9999999999995314 	101324.9999999985
0.07632632632632587 	299.9999999999952 	0.999999999999194 	101324.9999999987
0.07882882882882837 	299.9999999999961 	0.999999999998979 	101324.9999999986
0.08133133133133086 	299.9999999999973 	0.9999999999990938 	101324.9999999985
0.08383383383383337 	299.9999999999988 	0.9999999999993757 	101324.9999999985
0.08633633633633589 	299.9999999999924 	0.9999999999994365 	101324.9999999985
0.08883883883883838 	299.9999999999972 	0.9999999999994897 	101324.9999999985
0.09134134134134086 	299.999999999993 	0.9999999999997979 	101324.9999999984
0.09384384384384339 	299.9999999999894 	0.9999999999992002 	101324.9999999986
0.09634634634634588 	299.9999999999954 	0.9999999999994168 	101324.999999999
0.09884884884884838 	299.9999999999962 	0.9999999999996583 	101324.999999999
0.1013513513513509 	300.0000000000004 	0.9999999999998573 	101324.9999999987
0.1038538538538534 	299.9999999999984 	0.9999999999995565 	101324.9999999983
0.1063563563563559 	299.9999999999957 	0.9999999999990815 	101324.9999999986
0.1088588588588584 	300.0000000000067 	0.9999999999993445 	101324.9999999985
0.1113613613613609 	299.9999999999939 	0.9999999999994178 	101324.9999999984
0.1138638638638634 	299.9999999999919 	0.9999999999989837 	101324.9999999981
0.1163663663663659 	299.999999999991 	0.9999999999987601 	101324.9999999984
0.1188688688688684 	299.9999999999988 	0.9999999999989515 	101324.9999999987
0.1213713713713709 	300.000000000001 	0.9999999999995531 	101324.9999999989
0.1238738738738734 	299.9999999999928 	0.9999999999996401 	101324.9999999988
0.1263763763763759 	299.9999999999948 	0.9999999999994419 	101324.9999999982
0.1288788788788784 	299.9999999999949 	0.9999999999992084 	101324.9999999986
0.1313813813813809 	299.9999999999955 	0.9999999999986414 	101324.9999999983
0.1338838838838834 	299.9999999999985 	0.999999999998651 	101324.9999999983
0.1363863863863859 	299.9999999999959 	0.9999999999997355 	101324.9999999985
0.1388888888888884 	300.0000000000002 	1.000000000000505 	101324.9999999985
0.1413913913913909 	300.0000000000024 	1.000000000000803 	101324.9999999985
0.1438938938938934 	300.000000000001 	1.000000000000293 	101324.9999999987
0.1463963963963959 	299.9999999999914 	0.9999999999999764 	101324.999999999
0.1488988988988985 	299.9999999999951 	1.000000000000291 	101324.9999999989
0.1514014014014009 	299.9999999999955 	1.00000000000047 	101324.9999999989
0.1539039039039035 	299.9999999999964 	1.000000000000406 	101324.9999999986
0.1564064064064059 	299.9999999999923 	1.00000000000028 	101324.9999999988
0.1589089089089084 	299.9999999999956 	0.9999999999990841 	101324.999999999
0.1614114114114109 	299.9999999999986 	1.000000000000301 	101324.9999999988
0.1639139139139134 	299.9999999999893 	0.9999999999996794 	101324.9999999989
0.166416416416416 	299.9999999999993 	0.9999999999996104 	101324.9999999989
0.1689189189189185 	299.9999999999994 	1.000000000000149 	101324.9999999987
0.1714214214214209 	300.0000000000006 	0.9999999999995861 	101324.9999999989
0.1739239239239235 	299.9999999999943 	0.9999999999997291 	101324.9999999984
0.1764264264264259 	299.9999999999994 	1.000000000000232 	101324.9999999986
0.1789289289289284 	299.9999999999995 	1.000000000000951 	101324.9999999985
0.181431431431431 	299.999999999996 	0.9999999999988615 	101324.9999999988
0.1839339339339334 	299.9999999999962 	0.9999999999995552 	101324.9999999988
0.186436436436436 	299.999999999993 	0.999999999999156 	101324.9999999992
0.1889389389389385 	299.9999999999954 	0.9999999999990945 	101324.9999999991
0.191441441441441 	299.9999999999942 	0.9999999999995721 	101324.9999999988
0.1939439439439434 	299.9999999999937 	0.9999999999995621 	101324.9999999991
0.196446446446446 	299.9999999999922 	0.9999999999998131 	101324.9999999994
0.1989489489489485 	299.9999999999943 	0.9999999999982881 	101324.9999999991
0.2014514514514509 	299.9999999999965 	0.9999999999993963 	101324.999999999
0.2039539539539535 	300.0000000000006 	0.9999999999996743 	101324.9999999987
0.2064564564564559 	299.9999999999924 	0.9999999999992744 	101324.9999999987
0.2089589589589585 	299.9999999999973 	0.9999999999988759 	101324.9999999989
0.211461461461461 	299.9999999999905 	0.9999999999990563 	101324.9999999992
0.2139639639639635 	299.9999999999956 	0.9999999999993897 	101324.999999999
0.2164664664664659 	300.0000000000008 	0.9999999999992254 	101324.9999999991
0.2189689689689684 	300.0000000000016 	1.00000000000004 	101324.9999999992
0.221471471471471 	299.9999999999978 	0.9999999999986853 	101324.9999999991
0.2239739739739735 	299.9999999999947 	0.9999999999991493 	101324.9999999987
0.226476476476476 	299.9999999999982 	0.999999999998646 	101324.9999999992
0.2289789789789785 	300.0000000000007 	0.9999999999984783 	101324.9999999994
0.231481481481481 	300.0000000000002 	0.9999999999990481 	101324.9999999993
0.2339839839839835 	299.999999999996 	0.9999999999993101 	101324.9999999993
0.236486486486486 	300.0000000000031 	0.9999999999993001 	101324.9999999994
0.2389889889889885 	299.9999999999984 	0.9999999999991416 	101324.9999999993
0.241491491491491 	299.9999999999931 	1.000000000000478 	101324.9999999994
0.2439939939939935 	299.9999999999966 	0.9999999999988779 	101324.9999999994
0.246496496496496 	300.0000000000018 	0.9999999999991527 	101324.9999999992
0.2489989989989985 	300.000000000007 	0.9999999999992893 	101324.9999999992
0.251501501501501 	300.0000000000068 	0.9999999999992577 	101324.9999999995
0.2540040040040035 	300.0000000000014 	0.999999999999274 	101324.9999999993
0.256506506506506 	300.0000000000008 	0.999999999999415 	101324.9999999991
0.2590090090090086 	299.9999999999919 	0.9999999999994292 	101324.9999999994
0.261511511511511 	299.9999999999997 	0.9999999999984419 	101324.9999999993
0.2640140140140135 	299.9999999999975 	0.9999999999997797 	101324.9999999991
0.2665165165165161 	299.9999999999945 	0.9999999999996682 	101324.9999999995
0.2690190190190185 	300.0000000000036 	0.9999999999992747 	101324.9999999999
0.271521521521521 	300.0000000000053 	0.9999999999990348 	101324.9999999996
0.2740240240240235 	300.0000000000051 	0.9999999999993158 	101324.9999999994
0.276526526526526 	299.9999999999997 	0.9999999999999306 	101325
0.2790290290290286 	299.9999999999945 	1.000000000000227 	101325
0.281531531531531 	299.9999999999966 	1.000000000000159 	101324.9999999997
0.2840340340340335 	299.9999999999952 	0.9999999999981143 	101324.9999999999
0.2865365365365361 	299.9999999999991 	0.9999999999990128 	101324.9999999996
0.2890390390390385 	300.0000000000037 	0.9999999999995579 	101324.9999999997
0.291541541541541 	300.0000000000041 	1.000000000000008 	101324.9999999996
0.2940440440440436 	300.0000000000038 	1.000000000000167 	101324.9999999996
0.296546546546546 	300.0000000000006 	0.9999999999999911 	101324.9999999997
0.2990490490490486 	299.9999999999972 	0.9999999999997364 	101324.9999999994
0.3015515515515511 	299.9999999999995 	1.000000000000091 	101324.9999999992
0.3040540540540535 	299.9999999999961 	1.000000000001589 	101324.9999999993
0.3065565565565562 	300.0000000000006 	0.9999999999988707 	101324.9999999996
0.3090590590590585 	299.9999999999983 	1.000000000000206 	101324.9999999997
0.3115615615615611 	299.9999999999901 	1.000000000000471 	101324.9999999997
0.3140640640640635 	299.9999999999998 	1.000000000000164 	101324.9999999997
0.316566566566566 	300.0000000000007 	1.000000000000003 	101324.9999999997
0.3190690690690687 	299.999999999991 	0.9999999999995358 	101324.9999999998
0.3215715715715711 	299.9999999999989 	0.9999999999994668 	101324.9999999996
0.3240740740740735 	299.9999999999974 	0.9999999999998119 	101324.9999999994
0.326576576576576 	299.9999999999942 	0.999999999999947 	101324.9999999999
0.3290790790790786 	300.0000000000048 	1.00000000000037 	101324.9999999997
0.3315815815815811 	300.0000000000045 	1.000000000000776 	101324.9999999995
0.3340840840840836 	300.0000000000018 	1.000000000000719 	101324.9999999996
0.3365865865865861 	300.0000000000045 	1.000000000000388 	101324.9999999995
0.3390890890890886 	300.0000000000029 	1.000000000000013 	101324.9999999997
0.3415915915915911 	299.9999999999995 	1.000000000000471 	101324.9999999998
0.3440940940940935 	299.9999999999922 	1.00000000000138 	101324.9999999995
0.3465965965965962 	300.0000000000022 	1.000000000000363 	101324.9999999997
0.3490990990990985 	300.0000000000014 	1.00000000000128 	101324.9999999995
0.3516016016016011 	300.0000000000038 	1.000000000001367 	101324.9999999995
0.3541041041041035 	300.0000000000009 	1.000000000001079 	101325
0.3566066066066061 	299.9999999999911 	1.000000000000778 	101324.9999999999
0.3591091091091085 	299.9999999999961 	1.000000000000441 	101324.9999999995
0.3616116116116112 	299.9999999999979 	1.000000000000524 	101324.9999999996
0.3641141141141137 	299.9999999999915 	1.000000000000516 	101324.9999999992
0.3666166166166161 	299.9999999999901 	1.000000000000549 	101324.9999999994
0.3691191191191185 	300.0000000000013 	0.9999999999978083 	101324.9999999994
0.371621621621621 	299.999999999999 	0.9999999999997954 	101324.9999999992
0.3741241241241237 	300.0000000000032 	1.00000000000031 	101324.9999999992
0.3766266266266261 	299.9999999999988 	1.000000000000692 	101324.9999999991
0.3791291291291286 	299.9999999999976 	1.000000000000527 	101324.9999999993
0.3816316316316311 	299.9999999999977 	1.000000000000181 	101324.9999999995
0.3841341341341336 	300.0000000000015 	1.000000000000244 	101324.9999999998
0.3866366366366362 	299.9999999999977 	1.000000000000783 	101324.9999999996
0.3891391391391387 	299.9999999999944 	1.000000000000339 	101324.9999999993
0.391641641641641 	299.9999999999997 	0.9999999999999271 	101324.9999999994
0.3941441441441436 	299.9999999999968 	1.000000000000046 	101324.9999999997
0.3966466466466462 	299.9999999999987 	1.000000000000339 	101324.9999999996
0.3991491491491486 	299.9999999999993 	1.000000000000566 	101324.9999999992
0.4016516516516512 	299.9999999999975 	1.000000000000657 	101324.9999999994
0.4041541541541536 	299.9999999999986 	1.000000000000712 	101324.9999999992
0.4066566566566561 	299.999999999998 	1.000000000001019 	101324.9999999993
0.4091591591591587 	300.0000000000013 	0.999999999998842 	101324.9999999992
0.4116616616616612 	300.0000000000007 	0.9999999999992253 	101324.9999999991
0.4141641641641635 	300.0000000000031 	0.9999999999998368 	101324.9999999993
0.4166666666666662 	300.0000000000017 	1.000000000000256 	101324.9999999994
0.4191691691691687 	299.999999999992 	1.0000000000003 	101324.9999999991
0.421671671671671 	299.999999999999 	1.000000000000305 	101324.9999999994
0.4241741741741737 	299.9999999999949 	1.000000000000314 	101324.9999999995
0.4266766766766761 	299.9999999999932 	1.000000000000221 	101324.9999999995
0.4291791791791785 	299.9999999999994 	1.000000000001056 	101324.9999999994
0.4316816816816812 	299.9999999999998 	0.9999999999987091 	101324.9999999991
0.4341841841841836 	300.0000000000004 	1.000000000000214 	101324.9999999992
0.4366866866866862 	299.9999999999968 	1.000000000000393 	101324.9999999994
0.4391891891891885 	300.0000000000032 	1.00000000000086 	101324.9999999995
0.4416916916916913 	300.0000000000028 	1.000000000000745 	101324.9999999996
0.4441941941941936 	299.9999999999974 	1.000000000000163 	101324.9999999997
0.4466966966966961 	299.9999999999905 	0.9999999999996853 	101324.9999999998
0.4491991991991987 	299.9999999999991 	0.9999999999997872 	101324.9999999994
0.4517017017017012 	299.9999999999957 	1.000000000000365 	101324.9999999992
0.4542042042042035 	300.0000000000039 	1.000000000000257 	101324.9999999994
0.4567067067067062 	300.0000000000014 	0.999999999999722 	101324.9999999992
0.4592092092092087 	299.9999999999911 	0.9999999999995751 	101324.9999999992
0.4617117117117112 	299.9999999999987 	0.9999999999998639 	101324.9999999989
0.4642142142142137 	299.9999999999943 	1.000000000000612 	101324.999999999
0.4667167167167162 	300.0000000000011 	1.000000000001129 	101324.999999999
0.4692192192192187 	299.9999999999927 	1.000000000001132 	101324.9999999991
0.4717217217217212 	299.9999999999995 	1.000000000000566 	101324.9999999992
0.4742242242242236 	299.9999999999941 	1.000000000000406 	101324.9999999992
0.4767267267267262 	299.9999999999949 	1.000000000000855 	101324.9999999995
0.4792292292292287 	300.0000000000027 	1.000000000000729 	101324.9999999993
0.4817317317317312 	300.0000000000019 	1.000000000000766 	101324.9999999992
0.4842342342342336 	300.0000000000016 	1.000000000000837 	101324.9999999992
0.4867367367367362 	300 	1.000000000000763 	101324.999999999
0.4892392392392387 	299.9999999999993 	1.0000000000006 	101324.9999999989
0.4917417417417412 	300.0000000000036 	1.000000000001054 	101324.9999999991
0.4942442442442437 	299.9999999999955 	1.000000000001495 	101324.9999999992
0.4967467467467462 	299.9999999999902 	1.00000000000209 	101324.9999999988
0.4992492492492487 	299.9999999999879 	1.000000000000452 	101324.9999999986
0.5017517517517511 	299.9999999999927 	1.000000000000108 	101324.9999999986
0.5042542542542537 	299.9999999999999 	1.00000000000021 	101324.9999999988
0.5067567567567562 	299.9999999999973 	1.000000000000649 	101324.9999999989
0.5092592592592589 	299.9999999999947 	1.000000000000716 	101324.9999999992
0.5117617617617611 	299.9999999999999 	1.000000000000494 	101324.999999999
0.5142642642642637 	300.0000000000016 	1.000000000000563 	101324.9999999989
0.5167667667667663 	299.9999999999988 	1.000000000001357 	101324.9999999988
0.5192692692692688 	299.9999999999895 	1.000000000001714 	101324.9999999986
0.5217717717717714 	299.9999999999994 	0.9999999999986421 	101324.9999999986
0.5242742742742736 	299.9999999999981 	1.000000000000329 	101324.9999999991
0.5267767767767763 	299.999999999993 	1.000000000000754 	101324.9999999991
0.5292792792792789 	299.9999999999956 	1.000000000000116 	101324.9999999992
0.5317817817817813 	299.9999999999925 	0.9999999999992086 	101324.9999999991
0.5342842842842837 	299.9999999999982 	0.9999999999986177 	101324.9999999989
0.5367867867867864 	299.9999999999974 	0.9999999999986724 	101324.9999999987
0.5392892892892888 	299.9999999999922 	0.9999999999990271 	101324.9999999987
0.5417917917917912 	299.9999999999962 	0.9999999999991024 	101324.9999999992
0.5442942942942938 	299.9999999999956 	0.9999999999988192 	101324.9999999994
0.5467967967967964 	299.999999999997 	0.9999999999988467 	101324.9999999992
0.5492992992992988 	299.9999999999969 	0.9999999999994262 	101324.9999999994
0.5518018018018012 	299.9999999999956 	0.9999999999994715 	101324.9999999993
0.5543043043043039 	299.9999999999985 	0.9999999999991239 	101324.999999999
0.5568068068068063 	299.9999999999963 	0.9999999999992321 	101324.9999999989
0.5593093093093087 	299.9999999999916 	0.9999999999995643 	101324.9999999989
0.5618118118118114 	299.9999999999928 	0.9999999999981848 	101324.9999999987
0.5643143143143137 	299.9999999999919 	0.9999999999994514 	101324.9999999988
0.5668168168168163 	299.9999999999989 	0.9999999999993523 	101324.9999999991
0.5693193193193188 	300.0000000000001 	0.9999999999984712 	101324.9999999989
0.5718218218218213 	300.0000000000009 	0.9999999999979914 	101324.999999999
0.5743243243243239 	300.000000000001 	0.9999999999987139 	101324.9999999989
0.5768268268268262 	299.9999999999994 	0.9999999999992946 	101324.999999999
0.5793293293293288 	299.9999999999956 	0.9999999999997986 	101324.9999999991
0.5818318318318314 	299.9999999999953 	1.000000000000088 	101324.999999999
0.5843343343343338 	300.0000000000021 	0.9999999999980055 	101324.9999999992
0.5868368368368363 	299.9999999999991 	0.9999999999998032 	101324.9999999992
0.5893393393393387 	299.9999999999917 	1.000000000000211 	101324.9999999992
0.5918418418418413 	299.9999999999979 	0.9999999999999614 	101324.9999999994
0.5943443443443439 	299.9999999999987 	0.9999999999999748 	101324.9999999991
0.5968468468468463 	299.9999999999997 	1.000000000000343 	101324.999999999
0.5993493493493487 	300.0000000000045 	1.000000000000692 	101324.9999999994
0.6018518518518514 	300.0000000000039 	1.0000000000008 	101324.9999999995
0.6043543543543537 	300.0000000000023 	1.000000000001082 	101324.9999999991
0.6068568568568564 	299.9999999999991 	1.000000000001511 	101324.9999999992
0.6093593593593587 	299.9999999999902 	1.000000000001358 	101324.999999999
0.6118618618618614 	299.9999999999956 	1.000000000000623 	101324.9999999987
0.6143643643643638 	300.0000000000006 	1.000000000000631 	101324.9999999989
0.6168668668668662 	300.0000000000003 	1.000000000000672 	101324.9999999991
0.6193693693693688 	299.9999999999991 	1.000000000000398 	101324.9999999992
0.6218718718718714 	299.9999999999997 	1.000000000000367 	101324.9999999991
0.6243743743743737 	299.9999999999976 	0.9999999999994449 	101324.9999999991
0.6268768768768762 	299.9999999999965 	0.9999999999998737 	101324.9999999991
0.629379379379379 	299.9999999999984 	1.000000000000103 	101324.9999999991
0.6318818818818812 	300.0000000000006 	0.9999999999999415 	101324.9999999992
0.6343843843843838 	300.0000000000028 	0.9999999999998355 	101324.9999999992
0.6368868868868864 	300.0000000000004 	1.000000000000514 	101324.9999999993
0.6393893893893888 	299.9999999999937 	1.000000000000932 	101324.9999999994
0.6418918918918912 	299.9999999999968 	1.000000000001291 	101324.9999999995
0.6443943943943939 	299.9999999999957 	1.00000000000173 	101324.9999999993
0.6468968968968963 	299.9999999999997 	0.9999999999996531 	101324.9999999991
0.6493993993993988 	299.9999999999969 	1.0000000000009 	101324.999999999
0.6519019019019012 	300.0000000000031 	1.000000000000806 	101324.9999999994
0.6544044044044038 	299.9999999999945 	1.000000000000469 	101324.9999999994
0.6569069069069065 	299.9999999999918 	1.0000000000005 	101324.9999999991
0.6594094094094087 	299.9999999999965 	1.000000000000566 	101324.9999999988
0.6619119119119113 	300.0000000000018 	1.000000000000339 	101324.999999999
0.664414414414414 	300.0000000000019 	1.000000000000097 	101324.9999999988
0.6669169169169162 	299.9999999999968 	0.9999999999998554 	101324.9999999991
0.6694194194194188 	299.9999999999961 	0.9999999999996718 	101324.9999999992
0.6719219219219214 	299.9999999999933 	0.9999999999994684 	101324.9999999991
0.674424424424424 	299.999999999997 	0.9999999999991737 	101324.9999999991
0.6769269269269262 	299.9999999999959 	0.9999999999989848 	101324.999999999
0.679429429429429 	300.0000000000011 	0.9999999999993827 	101324.9999999989
0.6819319319319311 	300.0000000000033 	1.000000000000171 	101324.9999999989
0.6844344344344341 	300.0000000000024 	1.000000000000245 	101324.9999999987
0.686936936936936 	300.0000000000008 	0.9999999999994831 	101324.9999999986
0.6894394394394392 	300.000000000003 	1.000000000000724 	101324.9999999985
0.6919419419419413 	300.000000000002 	1.000000000000979 	101324.9999999985
0.694444444444444 	299.9999999999932 	1.000000000000997 	101324.9999999987
0.6969469469469463 	299.9999999999922 	1.000000000001056 	101324.9999999987
0.6994494494494489 	299.999999999995 	1.000000000000478 	101324.9999999986
0.7019519519519515 	299.9999999999951 	0.999999999999746 	101324.9999999987
0.7044544544544538 	299.999999999994 	1.000000000000006 	101324.9999999991
0.7069569569569564 	300.0000000000005 	1.000000000000921 	101324.9999999989
0.7094594594594589 	299.9999999999963 	0.9999999999995113 	101324.9999999987
0.7119619619619615 	299.9999999999955 	1.00000000000075 	101324.9999999987
0.7144644644644638 	300 	1.000000000000179 	101324.9999999989
0.7169669669669665 	299.9999999999964 	0.999999999999617 	101324.9999999986
0.7194694694694688 	300.0000000000023 	0.9999999999996279 	101324.9999999985
0.7219719719719715 	300.0000000000003 	0.9999999999998825 	101324.9999999985
0.7244744744744737 	299.9999999999974 	1.000000000000141 	101324.9999999987
0.7269769769769764 	300.000000000002 	1.000000000000941 	101324.999999999
0.7294794794794791 	299.9999999999999 	1.000000000001515 	101324.9999999989
0.7319819819819813 	299.9999999999963 	0.999999999999359 	101324.9999999988
0.7344844844844839 	299.9999999999896 	1.000000000000041 	101324.9999999987
0.7369869869869864 	299.9999999999947 	1.000000000000032 	101324.9999999988
0.739489489489489 	299.999999999998 	1.000000000000377 	101324.9999999993
0.7419919919919914 	299.9999999999941 	1.000000000000513 	101324.9999999993
0.7444944944944939 	299.9999999999932 	1.00000000000064 	101324.9999999989
0.7469969969969963 	299.9999999999968 	1.000000000001011 	101324.9999999987
0.7494994994994989 	299.9999999999914 	1.000000000000634 	101324.9999999988
0.7520020020020015 	299.999999999994 	1.00000000000089 	101324.9999999988
0.7545045045045039 	299.9999999999949 	0.9999999999985844 	101324.999999999
0.7570070070070062 	299.999999999996 	0.9999999999997814 	101324.9999999991
0.7595095095095092 	299.999999999996 	1.000000000000032 	101324.999999999
0.7620120120120112 	299.9999999999973 	0.9999999999998437 	101324.9999999988
0.7645145145145138 	299.999999999997 	0.9999999999999462 	101324.9999999988
0.7670170170170165 	299.9999999999937 	0.9999999999999609 	101324.9999999988
0.7695195195195191 	299.9999999999918 	0.9999999999997197 	101324.999999999
0.7720220220220213 	299.9999999999953 	0.999999999998147 	101324.9999999991
0.7745245245245239 	299.9999999999921 	0.9999999999996336 	101324.9999999991
0.7770270270270263 	299.9999999999941 	1.000000000000009 	101324.9999999988
0.779529529529529 	299.9999999999956 	0.9999999999998318 	101324.9999999986
0.7820320320320313 	299.9999999999941 	0.999999999999299 	101324.9999999989
0.784534534534534 	300.000000000001 	0.9999999999989286 	101324.9999999989
0.7870370370370364 	299.9999999999974 	0.9999999999992037 	101324.9999999991
0.7895395395395389 	299.9999999999965 	0.9999999999995681 	101324.9999999991
0.7920420420420413 	300.0000000000004 	0.999999999999621 	101324.9999999989
0.794544544544544 	299.9999999999984 	1.000000000000022 	101324.999999999
0.7970470470470463 	300.000000000001 	0.9999999999998241 	101324.9999999989
0.799549549549549 	300.0000000000007 	0.9999999999981302 	101324.9999999988
0.8020520520520515 	299.999999999997 	0.9999999999993973 	101324.9999999988
0.8045545545545539 	299.9999999999918 	0.9999999999992062 	101324.9999999989
0.8070570570570563 	299.9999999999959 	0.9999999999989013 	101324.999999999
0.8095595595595589 	299.9999999999943 	0.9999999999989899 	101324.999999999
0.8120620620620614 	299.9999999999968 	0.9999999999988685 	101324.999999999
0.8145645645645638 	300.0000000000014 	0.9999999999989243 	101324.9999999989
0.8170670670670666 	300.0000000000049 	1.000000000000545 	101324.9999999986
0.8195695695695689 	300.0000000000001 	1.000000000001162 	101324.9999999989
0.8220720720720714 	299.9999999999913 	0.9999999999992109 	101324.9999999991
0.8245745745745739 	299.9999999999969 	1.000000000000246 	101324.9999999989
0.8270770770770765 	299.9999999999974 	0.999999999999899 	101324.9999999988
0.8295795795795788 	299.9999999999981 	0.9999999999993576 	101324.9999999992
0.8320820820820815 	300.000000000002 	0.9999999999998108 	101324.999999999
0.834584584584584 	300.0000000000005 	1.000000000000984 	101324.999999999
0.8370870870870865 	299.9999999999951 	1.000000000001396 	101324.9999999993
0.8395895895895891 	299.9999999999927 	1.00000000000016 	101324.9999999994
0.8420920920920915 	299.9999999999986 	1.00000000000033 	101324.9999999993
0.844594594594594 	299.9999999999957 	1.000000000000585 	101324.9999999991
0.8470970970970964 	299.9999999999936 	1.000000000000985 	101324.999999999
0.8495995995995991 	300.0000000000021 	1.000000000000721 	101324.999999999
0.8521021021021015 	299.9999999999998 	0.999999999999917 	101324.9999999991
0.8546046046046039 	299.9999999999961 	0.9999999999993769 	101324.999999999
0.8571071071071066 	299.9999999999994 	1.000000000000238 	101324.9999999991
0.8596096096096089 	299.9999999999985 	1.00000000000081 	101324.9999999992
0.8621121121121116 	299.9999999999969 	0.9999999999993 	101324.9999999991
0.8646146146146139 	300.000000000003 	1.000000000000374 	101324.999999999
0.8671171171171166 	299.9999999999987 	1.000000000000191 	101324.9999999989
0.8696196196196189 	299.9999999999927 	1.000000000000225 	101324.9999999988
0.8721221221221216 	299.9999999999978 	1.000000000000594 	101324.9999999987
0.874624624624624 	300.000000000001 	1.000000000000866 	101324.9999999986
0.8771271271271264 	299.9999999999987 	1.000000000000508 	101324.9999999986
0.879629629629629 	299.9999999999974 	1.000000000001116 	101324.9999999988
0.8821321321321317 	299.9999999999984 	1.000000000001284 	101324.999999999
0.8846346346346339 	299.9999999999954 	0.9999999999994831 	101324.999999999
0.8871371371371364 	299.9999999999956 	1.000000000000533 	101324.9999999987
0.8896396396396391 	299.9999999999943 	1.000000000000495 	101324.9999999986
0.8921421421421414 	299.9999999999946 	1.000000000000743 	101324.9999999988
0.8946446446446441 	299.9999999999978 	1.000000000001279 	101324.999999999
0.8971471471471464 	299.9999999999986 	1.000000000001495 	101324.9999999987
0.8996496496496489 	300.0000000000003 	1.000000000000793 	101324.9999999987
0.9021521521521517 	299.9999999999977 	0.9999999999993294 	101324.9999999987
0.9046546546546541 	299.999999999996 	0.9999999999996267 	101324.9999999986
0.9071571571571564 	299.9999999999936 	0.9999999999994424 	101324.9999999987
0.9096596596596589 	299.999999999992 	0.9999999999994719 	101324.9999999987
0.9121621621621616 	299.9999999999978 	0.9999999999999891 	101324.9999999987
0.9146646646646639 	299.9999999999946 	1.000000000000038 	101324.9999999988
0.9171671671671666 	299.9999999999918 	0.9999999999997902 	101324.999999999
0.9196696696696689 	299.9999999999969 	1.000000000000417 	101324.9999999991
0.9221721721721714 	299.9999999999968 	1.000000000000456 	101324.999999999
0.9246746746746741 	299.9999999999925 	0.99999999999881 	101324.9999999987
0.9271771771771765 	299.9999999999949 	0.9999999999995861 	101324.9999999985
0.9296796796796791 	299.9999999999958 	0.999999999999818 	101324.9999999986
0.9321821821821816 	299.9999999999955 	0.9999999999997361 	101324.9999999988
0.9346846846846838 	299.9999999999962 	0.999999999999073 	101324.9999999989
0.9371871871871866 	300.0000000000013 	0.9999999999989011 	101324.9999999989
0.9396896896896891 	300.0000000000002 	0.9999999999995115 	101324.9999999989
0.9421921921921914 	299.9999999999992 	1.000000000000966 	101324.9999999988
0.9446946946946939 	299.9999999999994 	1.000000000000945 	101324.999999999
0.9471971971971965 	299.9999999999952 	0.9999999999990076 	101324.999999999
0.9496996996996991 	299.9999999999943 	0.9999999999996767 	101324.9999999987
0.9522022022022016 	299.9999999999982 	0.9999999999999387 	101324.9999999987
0.9547047047047038 	300.0000000000016 	1.000000000000045 	101324.9999999987
0.9572072072072064 	299.9999999999994 	0.999999999999484 	101324.9999999988
0.9597097097097093 	299.9999999999949 	0.9999999999998993 	101324.9999999988
0.9622122122122114 	299.9999999999928 	1.000000000000121 	101324.9999999988
0.964714714714714 	299.9999999999924 	0.9999999999994875 	101324.9999999991
0.9672172172172167 	299.9999999999932 	0.999999999999861 	101324.999999999
0.969719719719719 	299.9999999999967 	0.9999999999996345 	101324.9999999987
0.9722222222222214 	299.9999999999944 	0.9999999999997496 	101324.9999999989
0.9747247247247239 	299.9999999999947 	0.9999999999999174 	101324.9999999991
0.9772272272272267 	299.9999999999992 	0.9999999999997106 	101324.9999999992
0.9797297297297292 	299.9999999999962 	0.9999999999994643 	101324.9999999991
0.9822322322322313 	299.9999999999983 	1.000000000000312 	101324.9999999988
0.9847347347347344 	299.9999999999965 	1.000000000000358 	101324.9999999989
0.9872372372372363 	299.9999999999924 	0.999999999998783 	101324.9999999992
0.9897397397397389 	299.9999999999936 	0.9999999999995084 	101324.9999999991
0.9922422422422417 	299.9999999999938 	0.9999999999995475 	101324.999999999
0.9947447447447441 	299.9999999999962 	0.9999999999995683 	101324.9999999989
0.9972472472472468 	299.9999999999953 	0.9999999999995307 	101324.9999999985
0.999749749749749 	299.9999999999952 	0.9999999999992961 	101324.9999999988
1.002252252252252 	299.9999999999967 	0.999999999999259 	101324.999999999
1.004754754754754 	300.0000000000011 	0.9999999999999386 	101324.9999999992
1.007257257257256 	299.9999999999998 	0.9999999999996002 	101324.9999999991
1.009759759759759 	299.9999999999968 	0.9999999999980604 	101324.999999999
1.012262262262261 	299.9999999999956 	0.9999999999990019 	101324.9999999991
1.014764764764764 	299.9999999999947 	0.9999999999988894 	101324.9999999993
1.017267267267267 	299.9999999999945 	0.9999999999985734 	101324.9999999994
1.019769769769769 	299.9999999999993 	0.9999999999983187 	101324.9999999995
1.022272272272272 	300.0000000000011 	0.9999999999987506 	101324.9999999995
1.024774774774774 	300 	0.9999999999989004 	101324.9999999993
1.027277277277277 	299.9999999999991 	0.9999999999985989 	101324.9999999992
1.029779779779779 	300.0000000000018 	0.9999999999995798 	101324.9999999991
1.032282282282282 	300.0000000000012 	0.9999999999996494 	101324.999999999
1.034784784784784 	300.0000000000018 	0.9999999999996048 	101324.9999999992
1.037287287287286 	299.9999999999997 	0.9999999999998899 	101324.9999999991
1.039789789789789 	299.9999999999992 	1.000000000000013 	101324.9999999989
1.042292292292291 	300.0000000000024 	0.9999999999998503 	101324.9999999988
1.044794794794794 	300.0000000000045 	1.000000000000619 	101324.9999999991
1.047297297297296 	300.0000000000039 	1.000000000000314 	101324.9999999991
1.049799799799799 	299.9999999999998 	0.9999999999990644 	101324.999999999
1.052302302302302 	299.9999999999974 	1.000000000000294 	101324.9999999991
1.054804804804804 	299.9999999999957 	1.000000000000335 	101324.9999999991
1.057307307307306 	299.9999999999932 	1.000000000000147 	101324.999999999
1.059809809809809 	299.9999999999965 	1.000000000000272 	101324.9999999992
1.062312312312312 	299.9999999999987 	1.000000000000031 	101324.9999999994
1.064814814814814 	299.9999999999985 	0.9999999999998225 	101324.9999999992
1.067317317317317 	299.9999999999964 	1.000000000000784 	101324.9999999993
1.069819819819819 	299.9999999999959 	1.000000000000471 	101324.9999999995
1.072322322322321 	300.0000000000018 	0.9999999999992988 	101324.9999999995
1.074824824824824 	300.0000000000036 	1.000000000000118 	101324.9999999995
1.077327327327327 	300.0000000000036 	0.9999999999999303 	101324.9999999993
1.079829829829829 	300.0000000000039 	1.000000000000416 	101324.9999999992
1.082332332332332 	300.0000000000001 	1.000000000001046 	101324.9999999994
1.084834834834834 	299.9999999999964 	1.000000000002172 	101324.9999999996
1.087337337337337 	299.9999999999941 	1.000000000001625 	101324.9999999995
1.089839839839839 	299.9999999999928 	0.9999999999998987 	101324.9999999994
1.092342342342342 	299.9999999999956 	1.00000000000036 	101324.9999999993
1.094844844844844 	299.9999999999953 	1.000000000000949 	101324.9999999993
1.097347347347347 	299.9999999999933 	1.000000000000698 	101324.9999999994
1.099849849849849 	299.999999999991 	0.9999999999996401 	101324.9999999996
1.102352352352352 	299.9999999999965 	1.000000000000177 	101324.9999999994
1.104854854854854 	300.0000000000007 	0.9999999999997071 	101324.9999999992
1.107357357357357 	299.9999999999972 	0.9999999999995719 	101324.9999999992
1.109859859859859 	299.9999999999962 	0.9999999999998817 	101324.9999999991
1.112362362362362 	300.0000000000009 	1.000000000000941 	101324.9999999988
1.114864864864865 	300.0000000000009 	1.000000000000143 	101324.999999999
1.117367367367367 	299.9999999999959 	0.9999999999987457 	101324.9999999988
1.119869869869869 	299.9999999999925 	0.9999999999997009 	101324.9999999989
1.122372372372372 	299.999999999997 	0.9999999999995985 	101324.9999999993
1.124874874874874 	299.999999999997 	0.9999999999996678 	101324.9999999991
1.127377377377377 	299.9999999999961 	0.999999999999766 	101324.9999999989
1.129879879879879 	299.9999999999991 	0.9999999999995444 	101324.999999999
1.132382382382382 	300.0000000000044 	0.999999999999524 	101324.9999999989
1.134884884884884 	300.0000000000027 	1.000000000000611 	101324.9999999991
1.137387387387387 	300.0000000000014 	1.000000000000504 	101324.9999999995
1.139889889889889 	299.9999999999959 	0.9999999999999369 	101324.9999999995
1.142392392392392 	299.9999999999935 	1.0000000000008 	101324.9999999994
1.144894894894894 	300.0000000000013 	1.000000000000756 	101324.9999999993
1.147397397397397 	300.000000000002 	1.000000000000732 	101324.9999999994
1.149899899899899 	299.9999999999973 	1.000000000000452 	101324.9999999994
1.152402402402402 	299.9999999999951 	1.000000000000038 	101324.9999999994
1.154904904904904 	299.9999999999973 	0.9999999999993896 	101324.9999999993
1.157407407407407 	299.9999999999972 	0.9999999999996925 	101324.9999999993
1.159909909909909 	299.9999999999928 	0.9999999999990553 	101324.9999999993
1.162412412412412 	299.9999999999923 	0.9999999999982568 	101324.9999999991
1.164914914914914 	299.9999999999974 	0.9999999999992167 	101324.9999999991
1.167417417417417 	299.999999999997 	0.9999999999990299 	101324.9999999992
1.169919919919919 	300.0000000000009 	0.9999999999990214 	101324.9999999995
1.172422422422422 	300.000000000005 	0.9999999999996824 	101324.9999999996
1.174924924924925 	300.0000000000013 	1.00000000000116 	101324.9999999994
1.177427427427427 	299.9999999999973 	1.000000000000385 	101324.9999999992
1.179929929929929 	300.000000000002 	0.9999999999990745 	101324.9999999993
1.182432432432432 	300.0000000000068 	1.000000000000036 	101324.9999999994
1.184934934934934 	300.000000000002 	1.00000000000027 	101324.9999999996
1.187437437437437 	299.9999999999974 	1.000000000000637 	101324.9999999996
1.189939939939939 	299.9999999999975 	1.000000000000862 	101324.9999999994
1.192442442442442 	299.9999999999961 	1.000000000000252 	101324.9999999992
1.194944944944944 	299.9999999999972 	0.9999999999996212 	101324.9999999992
1.197447447447447 	300.0000000000022 	1.000000000000983 	101324.9999999993
1.199949949949949 	300.0000000000035 	1.000000000000719 	101324.9999999992
1.202452452452452 	299.9999999999985 	0.9999999999993339 	101324.9999999991
1.204954954954955 	299.9999999999961 	1.000000000000158 	101324.9999999989
1.207457457457457 	299.9999999999982 	1.000000000000597 	101324.9999999988
1.20995995995996 	299.9999999999999 	1.000000000000785 	101324.9999999991
1.212462462462462 	299.9999999999995 	1.000000000000765 	101324.9999999992
1.214964964964964 	299.9999999999993 	1.000000000000612 	101324.9999999992
1.217467467467467 	300.0000000000003 	1.000000000000513 	101324.9999999992
1.219969969969969 	299.9999999999958 	1.000000000001467 	101324.999999999
1.222472472472472 	299.999999999998 	1.000000000000824 	101324.999999999
1.224974974974975 	300.0000000000005 	1.000000000000009 	101324.9999999991
1.227477477477477 	299.9999999999976 	1.000000000001045 	101324.9999999987
1.229979979979979 	299.9999999999986 	1.00000000000135 	101324.9999999989
1.232482482482482 	299.9999999999952 	1.000000000001539 	101324.999999999
1.234984984984984 	299.9999999999949 	1.000000000001577 	101324.9999999989
1.237487487487487 	299.9999999999994 	1.000000000002665 	101324.999999999
1.239989989989989 	300.0000000000006 	1.00000000000195 	101324.9999999989
1.242492492492492 	300.0000000000029 	1.000000000000745 	101324.9999999987
1.244994994994994 	300 	1.000000000001508 	101324.9999999987
1.247497497497497 	299.9999999999994 	1.000000000001614 	101324.9999999985
1.249999999999999 	299.9999999999819 	1.000000000001342 	101324.9999999984
