-1.25 	300 	0.1183339639037781 	101277.4471741852
-1.247497497497497 	299.9571218952876 	0.1190721447509323 	101275.3250348574
-1.244994994994995 	299.9574486810632 	0.1224736348592537 	101274.6981678593
-1.242492492492492 	299.9575673264552 	0.123413339275975 	101274.8435077238
-1.23998998998999 	299.9584004799008 	0.120039430916332 	101275.8296018546
-1.237487487487487 	299.9601183824665 	0.1152747774346831 	101277.8596162017
-1.234984984984985 	299.9626037895626 	0.1080640247009635 	101280.7968520822
-1.232482482482482 	299.9657770872961 	0.09887909195878716 	101284.5471067097
-1.22997997997998 	299.9696132473919 	0.08783094576842208 	101289.0808824156
-1.227477477477477 	299.9739674609403 	0.07521080267489824 	101294.2271424538
-1.224974974974975 	299.9787371152023 	0.0614009509073867 	101299.864642341
-1.222472472472472 	299.9838758433187 	0.04654086716013871 	101305.9386436611
-1.21996996996997 	299.9893197841878 	0.03082502546245893 	101312.3737069123
-1.217467467467467 	299.9949443205537 	0.01455170600969719 	101319.0225418156
-1.214964964964965 	300.0006373641206 	0.008321653725664012 	101325.7526927173
-1.212462462462462 	300.0063585181967 	0.01846968684788061 	101332.516391067
-1.20995995995996 	300.0119971844958 	0.03471015615222085 	101339.1829189202
-1.207457457457457 	300.0173979228566 	0.05034228105974678 	101345.5684514108
-1.204954954954955 	300.0224979058049 	0.06512877174044968 	101351.5986407458
-1.202452452452452 	300.0272219545176 	0.07880228958318533 	101357.1845814587
-1.19994994994995 	300.0314344489428 	0.09093813939431725 	101362.1658446968
-1.197447447447447 	300.035031640667 	0.1013090838160443 	101366.4196536043
-1.194944944944945 	300.0379693900524 	0.109803774725261 	101369.8937634887
-1.192442442442442 	300.0402134585873 	0.1162874456365242 	101372.5476330653
-1.18993993993994 	300.041736975714 	0.1206848730396364 	101374.3493984102
-1.187437437437437 	300.0425213888032 	0.1229101365858696 	101375.2771172145
-1.184934934934935 	300.042520350827 	0.1228677034093123 	101375.2759011088
-1.182432432432432 	300.0416907784452 	0.1204827081374575 	101374.2949193253
-1.17992992992993 	300.0400473727464 	0.1157579976141131 	101372.3515824415
-1.177427427427427 	300.0376523992185 	0.1088546354654523 	101369.5194149809
-1.174924924924925 	300.0345765344429 	0.09995489810870689 	101365.8821172761
-1.172422422422422 	300.0308782990694 	0.08924184061434771 	101361.508948388
-1.16991991991992 	300.0266227746065 	0.07693702235602562 	101356.476944591
-1.167417417417417 	300.0218866782668 	0.0632436416938995 	101350.8768892811
-1.164914914914915 	300.0167540920052 	0.04839457887098902 	101344.8082231451
-1.162412412412412 	300.0113143170142 	0.03266358538143408 	101338.3766355212
-1.15990990990991 	300.0056902424979 	0.01640283134829765 	101331.7274383132
-1.157407407407407 	299.9999928980536 	0.008208637538612121 	101324.9919279365
-1.154904904904904 	299.9942858437005 	0.01657377075555628 	101318.2452660334
-1.152402402402403 	299.9886441827662 	0.03287562093325935 	101311.5761858948
-1.1498998998999 	299.9831704238902 	0.04866541271301117 	101305.1058918857
-1.147397397397397 	299.9779886017373 	0.06362979950958006 	101298.9809481624
-1.144894894894895 	299.9732287770919 	0.07740414706797796 	101293.3550243802
-1.142392392392392 	299.9689896285339 	0.08968747705206587 	101288.3447081183
-1.13988988988989 	299.9653410433098 	0.1002398078270273 	101284.0324932959
-1.137387387387387 	299.962329238916 	0.1089351315106185 	101280.4729818619
-1.134884884884885 	299.959993242343 	0.1156717488635875 	101277.7122116896
-1.132382382382382 	299.9583827265627 	0.1203088027988807 	101275.8087929988
-1.12987987987988 	299.9575420054611 	0.1227440929781836 	101274.8151761384
-1.127377377377377 	299.9574938226758 	0.1228420375440415 	101274.758197696
-1.124874874874875 	299.9582611350769 	0.1205881657043294 	101275.6649290003
-1.122372372372372 	299.9598306150937 	0.1160806837602949 	101277.5196404711
-1.11986986986987 	299.9621454140322 	0.1094112877941224 	101280.2552293614
-1.117367367367367 	299.9651445475279 	0.1007615895882987 	101283.7996482059
-1.114864864864865 	299.9687704493703 	0.09028104040503712 	101288.084906099
-1.112362362362362 	299.9729509609974 	0.07814967313094288 	101293.0258248816
-1.10985985985986 	299.9776294067283 	0.06462749669680011 	101298.5554535152
-1.107357357357357 	299.9827174778103 	0.04993620093801727 	101304.5695169805
-1.104854854854855 	299.9880968769613 	0.03437258897269327 	101310.9282103647
-1.102352352352353 	299.9936576335134 	0.01825955945167765 	101317.5015699153
-1.09984984984985 	299.9993085438809 	0.007866942012725637 	101324.1818423194
-1.097347347347347 	300.004990202837 	0.01451539476628478 	101330.8987628941
-1.094844844844845 	300.0106331289726 	0.03075580973103541 	101337.5702499655
-1.092342342342342 	300.016102095877 	0.04655656018312528 	101344.036373425
-1.08983983983984 	300.0212717250409 	0.06154146002837111 	101350.148848899
-1.087337337337337 	300.0260414635952 	0.07535539686200297 	101355.7887706122
-1.084834834834835 	300.0303231347757 	0.08770891763915251 	101360.851757188
-1.082332332332332 	300.0340482783604 	0.09847476906786436 	101365.2568431628
-1.07982982982983 	300.0371740190644 	0.1075256418677065 	101368.9532394765
-1.077327327327327 	300.0396379507912 	0.1146562465419057 	101371.8670736054
-1.074824824824825 	300.0413821990936 	0.1196772712913932 	101373.9298909789
-1.072322322322323 	300.0423508882288 	0.1224039769379476 	101375.0755321816
-1.06981981981982 	300.0425022465836 	0.1227992934178812 	101375.254547809
-1.067317317317317 	300.0418397341621 	0.1209200144804059 	101374.4711292775
-1.064814814814815 	300.040404384162 	0.1167850022212821 	101372.7738063038
-1.062312312312312 	300.0382271940622 	0.1105102195274354 	101370.1991963338
-1.05980980980981 	300.0353493572582 	0.102185079824821 	101366.796051153
-1.057307307307307 	300.0318146478136 	0.09194910871146653 	101362.616231135
-1.054804804804805 	300.0276802978466 	0.08003022855609068 	101357.7274799597
-1.052302302302302 	300.0230325939417 	0.0665920473305926 	101352.2318779676
-1.0497997997998 	300.0179735755664 	0.05193517165383824 	101346.2501543926
-1.047297297297297 	300.0125947677425 	0.03636089346180434 	101339.8905772095
-1.044794794794795 	300.0070031902455 	0.0201655644539269 	101333.2797340082
-1.042292292292292 	300.001297367422 	0.007422046422850032 	101326.5341345981
-1.03978978978979 	299.9955590614265 	0.01290578888636189 	101319.7504369451
-1.037287287287287 	299.9898838879907 	0.02929810093731557 	101313.0416899038
-1.034784784784785 	299.9843853554555 	0.04514842677725348 	101306.5420361449
-1.032282282282283 	299.9791788268867 	0.06019709047404728 	101300.3878267556
-1.02977977977978 	299.974363514691 	0.07412737478092368 	101294.6962795349
-1.027277277277277 	299.9700098879275 	0.08674202467392134 	101289.5505916776
-1.024774774774775 	299.9661959594997 	0.09778258919761898 	101285.0429481633
-1.022272272272272 	299.9629987474538 	0.1070187683634094 	101281.2642766859
-1.01976976976977 	299.9604885997188 	0.1142684172710978 	101278.2976723519
-1.017267267267267 	299.9587284593878 	0.1193187246055697 	101276.2174380688
-1.014764764764765 	299.9577571654183 	0.1221340566630661 	101275.0694765559
-1.012262262262262 	299.9575694258935 	0.1226487607494402 	101274.8475867875
-1.00975975975976 	299.9581674241825 	0.1208892813221595 	101275.554242832
-1.007257257257257 	299.9595399312584 	0.1169383381994285 	101277.176166524
-1.004754754754755 	299.9616628092015 	0.1107903822961183 	101279.6849420257
-1.002252252252252 	299.964498026461 	0.1026113456780617 	101283.0356006756
-0.9997497497497498 	299.9679909555302 	0.0925573118549938 	101287.163689722
-0.9972472472472473 	299.9720477601686 	0.08080437133803541 	101291.9583706541
-0.9947447447447449 	299.9766070483381 	0.06762907343829905 	101297.3471170024
-0.9922422422422421 	299.9815851583913 	0.05322229445882364 	101303.2311540378
-0.9897397397397399 	299.9868894873273 	0.03785971203397769 	101309.5010276943
-0.9872372372372376 	299.9924138359173 	0.02188893043722041 	101316.0312925865
-0.9847347347347346 	299.9980477201487 	0.006658704088659933 	101322.6913687138
-0.9822322322322323 	300.0037139914215 	0.01080198485355215 	101329.3900335524
-0.9797297297297296 	300.0093287664578 	0.0269894053816127 	101336.0281650044
-0.9772272272272275 	300.0147815607461 	0.0427606988357682 	101342.475078086
-0.9747247247247248 	300.0199707083059 	0.05775625807426595 	101348.6105721848
-0.9722222222222224 	300.0248089298593 	0.07177539965508176 	101354.3314020514
-0.9697197197197196 	300.0292146009117 	0.08450656374962795 	101359.5409692655
-0.9672172172172175 	300.0331030921497 	0.09572626401182259 	101364.1391755715
-0.9647147147147147 	300.0363949903884 	0.1052633836440268 	101368.032012678
-0.9622122122122124 	300.0390209475549 	0.1128356150481857 	101371.137449441
-0.9597097097097099 	300.0409279501099 	0.1183532140595122 	101373.3927278144
-0.9572072072072073 	300.0420740732256 	0.1216285056866038 	101374.7482039971
-0.9547047047047047 	300.0424302469434 	0.1226070603604922 	101375.1694612868
-0.9522022022022023 	300.04198480949 	0.1213327695468873 	101374.6427027954
-0.9496996996996998 	300.0407497878243 	0.1177518924714593 	101373.1822922397
-0.9471971971971973 	300.0387559983461 	0.1120332836441794 	101370.8245823073
-0.9446946946946947 	300.0360487090661 	0.1042115358852527 	101367.6230999176
-0.9421921921921923 	300.0326771514494 	0.09444028932198853 	101363.6361972305
-0.93968968968969 	300.0286990889211 	0.08296560298759835 	101358.9321927038
-0.9371871871871872 	300.0241847118048 	0.06989042979727027 	101353.5942084536
-0.9346846846846848 	300.019219305407 	0.05555118592823317 	101347.7231241414
-0.9321821821821823 	300.0138981492249 	0.04014541210039933 	101341.4316377378
-0.9296796796796799 	300.0083310926607 	0.02400169520340374 	101334.8497316892
-0.9271771771771771 	300.0026305831066 	0.007538147964753427 	101328.1103117395
-0.9246746746746748 	299.9968933963052 	0.01011504169438402 	101321.3278733345
-0.9221721721721724 	299.99120660013 	0.02545105934412923 	101314.6053244205
-0.9196696696696698 	299.9856726988954 	0.04142082749884002 	101308.0637821481
-0.9171671671671672 	299.9803955618283 	0.05671078992188071 	101301.8260713741
-0.9146646646646649 	299.9754682972875 	0.07093297047750648 	101296.0021120246
-0.9121621621621623 	299.9709846324683 	0.08391320692979021 	101290.7027001553
-0.9096596596596597 	299.9670405338471 	0.09529079435704339 	101286.0411888228
-0.9071571571571573 	299.9637177638359 	0.1049108932766936 	101282.1140862788
-0.9046546546546547 	299.9610795782946 	0.1125810138105262 	101278.9961722958
-0.9021521521521524 	299.9591717112211 	0.1180691706160903 	101276.741334239
-0.8996496496496498 	299.9580223568998 	0.1213832632469786 	101275.3829264068
-0.8971471471471473 	299.9576542270419 	0.1223963719104469 	101274.9478682765
-0.894644644644645 	299.958078583022 	0.1211663462738395 	101275.4493044196
-0.892142142142142 	299.9592811375759 	0.1177197201104881 	101276.8704021219
-0.8896396396396397 	299.9612344697719 	0.1120538540041625 	101279.1787762519
-0.8871371371371374 	299.9638986790181 	0.1043687925309104 	101282.3273243052
-0.8846346346346349 	299.9672213978465 	0.09474563289826304 	101286.2542413376
-0.8821321321321324 	299.9711441145669 	0.08339952681031962 	101290.8903860557
-0.8796296296296297 	299.9755947421088 	0.07055785437786748 	101296.1506738931
-0.8771271271271271 	299.980479308368 	0.05640885086080134 	101301.9240787968
-0.8746246246246248 	299.9857023223297 	0.04131758056034848 	101308.0977770618
-0.8721221221221224 	299.9911557043065 	0.02555364546982743 	101314.5441018483
-0.8696196196196196 	299.9967256812557 	0.009420373705262837 	101321.1285314275
-0.8671171171171175 	300.0023393014923 	0.009420601634465182 	101327.7648916585
-0.8646146146146148 	300.0079281310269 	0.02296271031082883 	101334.3722671162
-0.8621121121121121 	300.0134006162961 	0.03877277608042942 	101340.8423770441
-0.8596096096096097 	300.018660007578 	0.05395285592958564 	101347.0608633354
-0.857107107107107 	300.0235955046455 	0.06824049828380122 	101352.8966254854
-0.8546046046046049 	300.028107541259 	0.08127675426861199 	101358.2319282627
-0.8521021021021022 	300.0321168948651 	0.09287985842930588 	101362.9730171262
-0.8495995995995997 	300.0355482315027 	0.1027810272250778 	101367.0307044476
-0.8470970970970974 	300.0383379797107 	0.1108251670718617 	101370.3298219221
-0.8445945945945946 	300.0404300391151 	0.1168760546173649 	101372.8039080683
-0.8420920920920922 	300.0417614627235 	0.1206925433808182 	101374.3785332471
-0.8395895895895897 	300.0422997015695 	0.1222636910560456 	101375.0151199752
-0.8370870870870872 	300.0420469486267 	0.1215166401780367 	101374.7162123988
-0.8345845845845846 	300.041020196943 	0.1185314439171809 	101373.5020941765
-0.8320820820820823 	300.0392411449534 	0.1134183320523214 	101371.3983098047
-0.8295795795795798 	300.0367319590774 	0.1061371598019437 	101368.431104538
-0.8270770770770772 	300.0335164375887 	0.09685116013544982 	101364.6286925617
-0.8245745745745746 	300.0296571340462 	0.08570511417231458 	101360.065096713
-0.8220720720720721 	300.025235814916 	0.0729026355252531 	101354.8371082834
-0.8195695695695699 	300.0203350631357 	0.05873379969135958 	101349.0424050701
-0.817067067067067 	300.0150528494174 	0.04345271828199512 	101342.7969196727
-0.8145645645645651 	300.0095094720078 	0.02743241501393961 	101336.2429355801
-0.8120620620620621 	300.003826633972 	0.01103514320528204 	101329.5243514252
-0.8095595595595597 	299.9981304475152 	0.009132425428792158 	101322.7903169631
-0.8070570570570572 	299.9924902023901 	0.02177283825775194 	101316.1227153085
-0.8045545545545546 	299.9869598919266 	0.03776338137642725 	101309.5853682239
-0.8020520520520523 	299.9816131706668 	0.0532046001396828 	101303.265333954
-0.7995495495495494 	299.9765550452429 	0.06779601015388104 	101297.2866584569
-0.7970470470470474 	299.9719213090273 	0.08118026153970817 	101291.8098273712
-0.7945445445445446 	299.9678473952591 	0.09297584189758411 	101286.9948385412
-0.7920420420420423 	299.964417869571 	0.102908870285547 	101282.9415541038
-0.7895395395395397 	299.961677343484 	0.1108228845397247 	101279.7026712594
-0.7870370370370371 	299.9596424171434 	0.1166995118375022 	101277.2976966878
-0.7845345345345348 	299.9583150963834 	0.1205378507894122 	101275.7289455267
-0.7820320320320323 	299.9577211836132 	0.1222167372704322 	101275.0270406625
-0.7795295295295296 	299.9579287085662 	0.1216246902597754 	101275.2722488354
-0.7770270270270272 	299.9589605535598 	0.1186374884712408 	101276.4915942981
-0.7745245245245247 	299.9607998244623 	0.1133047520626766 	101278.6651647254
-0.7720220220220222 	299.9633627850407 	0.1059122614163365 	101281.6940455243
-0.7695195195195199 	299.9665467440423 	0.09672302112922923 	101285.4569449951
-0.767017017017017 	299.9702584728374 	0.08598776750182642 	101289.8437154581
-0.7645145145145147 	299.9744422077123 	0.07386796693272252 	101294.7885020691
-0.7620120120120122 	299.9790847288764 	0.06040559063490258 	101300.2757524473
-0.7595095095095097 	299.9841795152544 	0.04565792246337743 	101306.2977988804
-0.7570070070070072 	299.9896690457894 	0.02979607068869851 	101312.7867407667
-0.7545045045045048 	299.9954242753172 	0.01318662227047663 	101319.5900978232
-0.7520020020020022 	300.0012559309764 	0.008515938061873712 	101326.4841435916
-0.7494994994994997 	300.0069474531513 	0.02004918314309247 	101333.2128806969
-0.7469969969969972 	300.0123198985942 	0.03557989164806936 	101339.5646933473
-0.7444944944944945 	300.0172919732343 	0.04999097020736973 	101345.4434029691
-0.7419919919919924 	300.0218884457894 	0.06333605878737272 	101350.8782478182
-0.7394894894894897 	300.0261902925191 	0.07582034542190734 	101355.9648981343
-0.7369869869869872 	300.030257394722 	0.08759345510714928 	101360.774153764
-0.7344844844844846 	300.0340659446159 	0.09857759917594437 	101365.2778411241
-0.7319819819819822 	300.0374862776446 	0.1084036894756643 	101369.3225881274
-0.7294794794794797 	300.0403034463223 	0.1164662092529011 	101372.6541869262
-0.7269769769769773 	300.0422675840988 	0.122062957476324 	101374.9770718329
-0.7244744744744747 	300.0431557142992 	0.1245687601978712 	101376.0274651173
-0.721971971971972 	300.0428280390348 	0.1235940567444974 	101375.6399574126
-0.7194694694694695 	300.0412653947378 	0.119091433528935 	101373.7921421734
-0.7169669669669674 	300.0385820971212 	0.1113882202750328 	101370.6190667219
-0.7144644644644647 	300.0350087496678 	0.1011393120789946 	101366.3934589141
-0.711961961961962 	300.0308521948226 	0.08921404989576519 	101361.4782981388
-0.7094594594594597 	300.0264422721977 	0.07654673001368127 	101356.2636848467
-0.7069569569569573 	300.0220784062552 	0.0639889573702133 	101351.1036985922
-0.7044544544544545 	300.0179913765036 	0.05220470915301546 	101346.271206171
-0.7019519519519523 	300.014331111078 	0.04163170672208735 	101341.9434454333
-0.6994494494494495 	300.0111741073035 	0.03249728817966931 	101338.2108185909
-0.6969469469469471 	300.0085385671628 	0.02485995532186923 	101335.0948025479
-0.6944444444444446 	300.0064010977734 	0.01865702384672928 	101332.5677033918
-0.6919419419419421 	300.0047122288369 	0.01374924203836418 	101330.5710057112
-0.6894394394394396 	300.0034092697687 	0.009957965222295327 	101329.0305737097
-0.6869369369369374 	300.0024259535447 	0.007093186331304853 	101327.8680505168
-0.6844344344344344 	300.0016989504763 	0.004972587988160437 	101327.0085576008
-0.6819319319319321 	300.0011717088038 	0.003432874628403102 	101326.3852331581
-0.6794294294294296 	300.0007962317415 	0.002335114499487479 	101325.9413313819
-0.6769269269269272 	300.0005334082652 	0.001565860859878558 	101325.630612914
-0.6744244244244245 	300.0003524377584 	0.00103560727011766 	101325.4166637247
-0.6719219219219222 	300.0002297702374 	0.0006758036630430589 	101325.2716422564
-0.6694194194194195 	300.0001478654011 	0.0004353137430845944 	101325.1748116489
-0.6669169169169172 	300.0000939639378 	0.000276886187243591 	101325.1110875187
-0.6644144144144146 	300.0000589830101 	0.0001739670977385914 	101325.0697319251
-0.661911911911912 	300.0000365851006 	0.000108004040448816 	101325.0432523277
-0.6594094094094097 	300.000022429746 	6.627524433658957e-05 	101325.0265173416
-0.656906906906907 	300.000013595936 	4.020912840293167e-05 	101325.0160737237
-0.6544044044044046 	300.0000081503554 	2.412549726512072e-05 	101325.0096357435
-0.6519019019019021 	300.0000048332383 	1.431911326737609e-05 	101325.005714074
-0.6493993993993996 	300.0000028359552 	8.409069146143284e-06 	101325.0033527572
-0.6468968968968971 	300.0000016468549 	4.887317574030972e-06 	101325.0019469386
-0.6443943943943946 	300.000000946641 	2.811750910566266e-06 	101325.0011191531
-0.6418918918918921 	300.0000005387631 	1.601610416774493e-06 	101325.0006369456
-0.6393893893893897 	300.0000003036508 	9.034289901221388e-07 	101325.0003589836
-0.6368868868868871 	300.0000001694881 	5.047440466281618e-07 	101325.0002003947
-0.6343843843843846 	300.0000000937337 	2.793595101532737e-07 	101325.0001108184
-0.6318818818818821 	300.000000051318 	1.531964122591903e-07 	101325.0000607185
-0.6293793793793795 	300.0000000278926 	8.325231762819792e-08 	101325.0000329667
-0.6268768768768773 	300.0000000150281 	4.484113135423371e-08 	101325.0000177389
-0.6243743743743745 	300.0000000079851 	2.394246598664761e-08 	101325.0000094605
-0.6218718718718721 	300.0000000042405 	1.26740339402167e-08 	101325.000005001
-0.6193693693693696 	300.0000000021615 	6.654366888025996e-09 	101325.0000026199
-0.6168668668668671 	300.0000000011396 	3.463983092598005e-09 	101325.0000013594
-0.6143643643643645 	300.0000000006099 	1.790453752114641e-09 	101325.0000006981
-0.6118618618618621 	300.0000000002888 	9.174475012084195e-10 	101325.000000354
-0.6093593593593596 	300.0000000001426 	4.675410193705752e-10 	101325.0000001765
-0.6068568568568571 	300.0000000000643 	2.359027568427982e-10 	101325.0000000856
-0.6043543543543546 	299.9999999999985 	1.187423363151166e-10 	101325.0000000395
-0.6018518518518521 	299.9999999999862 	5.874901852699648e-11 	101325.0000000164
-0.5993493493493496 	299.9999999999576 	2.985239509368792e-11 	101325.0000000048
-0.5968468468468471 	299.9999999999648 	1.426773019808015e-11 	101324.999999999
-0.5943443443443446 	299.9999999999953 	8.449987486525092e-12 	101324.9999999962
-0.591841841841842 	299.9999999999617 	3.149928243107239e-12 	101324.9999999948
-0.5893393393393397 	299.9999999999497 	3.671266378199303e-12 	101324.999999994
-0.5868368368368371 	299.9999999999891 	1.425125610529452e-12 	101324.9999999938
-0.5843343343343346 	300.0000000000017 	3.472072800753721e-12 	101324.9999999939
-0.5818318318318321 	300.0000000000286 	2.13763516143899e-12 	101324.9999999942
-0.5793293293293297 	299.9999999999902 	2.637782238897584e-12 	101324.9999999942
-0.5768268268268271 	300.0000000000007 	1.574853704796777e-12 	101324.9999999941
-0.5743243243243245 	300.0000000000206 	1.744747441023412e-12 	101324.9999999939
-0.5718218218218221 	300.0000000000195 	7.935995508250589e-13 	101324.9999999935
-0.5693193193193196 	300.0000000000428 	5.904440413108669e-13 	101324.9999999931
-0.5668168168168171 	299.9999999999877 	1.114706778592507e-12 	101324.9999999931
-0.5643143143143147 	299.9999999999499 	6.390327895228023e-13 	101324.9999999929
-0.5618118118118121 	300.0000000000131 	1.639560596316274e-12 	101324.9999999929
-0.5593093093093094 	300.0000000000329 	8.985601286629963e-13 	101324.9999999929
-0.5568068068068072 	300.0000000000149 	2.645585885065261e-12 	101324.9999999929
-0.5543043043043046 	300.0000000000134 	2.508876650002105e-12 	101324.9999999929
-0.551801801801802 	299.9999999999559 	3.36775410727246e-12 	101324.9999999929
-0.5492992992992995 	299.9999999999946 	2.123208597662097e-12 	101324.9999999928
-0.5467967967967969 	300.0000000000101 	3.106771758192655e-12 	101324.9999999929
-0.5442942942942947 	300.0000000000075 	2.585531458555123e-12 	101324.9999999928
-0.5417917917917919 	299.9999999999613 	3.951158151420341e-12 	101324.9999999925
-0.5392892892892895 	299.9999999999351 	1.846688443319333e-12 	101324.9999999922
-0.536786786786787 	299.9999999999565 	3.509863265133595e-12 	101324.9999999923
-0.5342842842842846 	299.9999999999617 	1.158583467037265e-12 	101324.9999999925
-0.531781781781782 	299.9999999999379 	3.942938235020773e-12 	101324.9999999928
-0.5292792792792794 	299.9999999999333 	1.856480811943796e-12 	101324.999999993
-0.526776776776777 	299.9999999999175 	4.499978541877737e-12 	101324.999999993
-0.5242742742742745 	299.9999999999782 	3.374887497129215e-12 	101324.9999999929
-0.521771771771772 	300.000000000014 	6.039070575486414e-12 	101324.9999999931
-0.5192692692692695 	299.9999999999641 	4.174561980244514e-12 	101324.9999999933
-0.516766766766767 	300.0000000000044 	5.829835654965436e-12 	101324.9999999934
-0.5142642642642645 	299.9999999999736 	4.157283544900623e-12 	101324.9999999932
-0.511761761761762 	299.9999999999543 	4.809531787935674e-12 	101324.9999999929
-0.5092592592592596 	299.9999999999726 	3.42050120989218e-12 	101324.9999999929
-0.506756756756757 	299.9999999999424 	3.651639646365632e-12 	101324.9999999926
-0.5042542542542544 	299.9999999999933 	2.568042971906455e-12 	101324.9999999924
-0.5017517517517521 	300.0000000000279 	3.67303256520388e-12 	101324.9999999922
-0.4992492492492494 	300.0000000000319 	1.26980777646218e-12 	101324.9999999922
-0.496746746746747 	299.9999999999871 	2.984115863005216e-12 	101324.9999999924
-0.4942442442442445 	299.9999999999434 	8.176757491347989e-13 	101324.9999999925
-0.4917417417417421 	299.9999999999444 	2.648458354379527e-12 	101324.9999999927
-0.4892392392392395 	299.9999999999594 	7.004793554543002e-13 	101324.9999999929
-0.486736736736737 	299.9999999999615 	2.211307620701463e-12 	101324.9999999931
-0.4842342342342345 	299.9999999999289 	1.723698109901069e-12 	101324.9999999933
-0.481731731731732 	300.0000000000333 	2.366191678295944e-12 	101324.9999999932
-0.4792292292292296 	300.0000000000194 	1.777392906989631e-12 	101324.9999999929
-0.4767267267267268 	299.9999999999624 	3.251444150480941e-12 	101324.9999999928
-0.4742242242242246 	299.9999999999999 	2.381978507559406e-12 	101324.9999999927
-0.471721721721722 	299.99999999996 	3.715754618154728e-12 	101324.9999999925
-0.4692192192192195 	299.9999999999799 	1.571558242732104e-12 	101324.9999999923
-0.4667167167167169 	299.9999999999188 	2.360697741354224e-12 	101324.9999999921
-0.4642142142142145 	299.9999999999945 	1.818743745028415e-12 	101324.9999999921
-0.461711711711712 	300.0000000000155 	1.916272383338819e-12 	101324.9999999922
-0.4592092092092094 	300.0000000000074 	1.311621737789032e-12 	101324.999999992
-0.456706706706707 	300.0000000000463 	1.906763771816375e-12 	101324.9999999919
-0.4542042042042045 	299.9999999999445 	5.019271001873451e-13 	101324.9999999918
-0.451701701701702 	299.9999999999555 	1.74291625542745e-12 	101324.9999999918
-0.4491991991991995 	299.9999999999629 	7.500539922815475e-13 	101324.9999999919
-0.4466966966966969 	299.9999999999626 	2.081939793467254e-12 	101324.9999999922
-0.4441941941941945 	299.9999999999965 	6.903647858926156e-13 	101324.9999999924
-0.441691691691692 	299.9999999999619 	3.059585957399952e-12 	101324.9999999926
-0.4391891891891895 	299.9999999999898 	1.497083565401524e-12 	101324.9999999925
-0.436686686686687 	299.9999999999716 	3.880100995723343e-12 	101324.9999999925
-0.4341841841841846 	299.9999999999986 	2.44977865940411e-12 	101324.9999999924
-0.431681681681682 	299.999999999952 	3.77625335452144e-12 	101324.9999999924
-0.4291791791791794 	299.9999999999363 	9.523169055164662e-13 	101324.9999999923
-0.426676676676677 	299.9999999999178 	3.457107196464064e-12 	101324.9999999921
-0.4241741741741744 	299.9999999999683 	9.377052104874212e-13 	101324.9999999921
-0.421671671671672 	300.0000000000022 	3.324212126835055e-12 	101324.9999999922
-0.4191691691691694 	300.0000000000454 	1.423990647936396e-12 	101324.9999999921
-0.4166666666666669 	300.0000000000529 	2.770870722462644e-12 	101324.9999999919
-0.4141641641641645 	299.9999999999453 	1.7555293890978e-12 	101324.9999999917
-0.411661661661662 	300.0000000000024 	2.47612241530729e-12 	101324.9999999917
-0.4091591591591594 	300.0000000000063 	1.558190686179323e-12 	101324.9999999917
-0.406656656656657 	299.9999999999513 	2.242646291386636e-12 	101324.9999999919
-0.4041541541541545 	300.0000000000108 	5.704681782414581e-13 	101324.9999999918
-0.401651651651652 	299.9999999999326 	2.686056294312948e-12 	101324.9999999918
-0.3991491491491494 	300.0000000000009 	1.279241570717929e-12 	101324.9999999916
-0.396646646646647 	299.9999999999592 	4.0981299554088e-12 	101324.9999999919
-0.3941441441441444 	299.9999999999838 	1.604677940014052e-12 	101324.9999999919
-0.3916416416416419 	299.9999999999415 	4.615468791828988e-12 	101324.9999999919
-0.3891391391391395 	299.9999999999588 	1.645388948500194e-12 	101324.9999999921
-0.3866366366366368 	299.9999999999616 	4.024703384272301e-12 	101324.9999999921
-0.3841341341341344 	299.9999999999956 	2.605185288364236e-12 	101324.9999999922
-0.381631631631632 	299.9999999999537 	3.463702886724611e-12 	101324.9999999919
-0.3791291291291294 	300.0000000000003 	2.753525189582423e-12 	101324.9999999919
-0.3766266266266269 	300.000000000016 	2.741192654991189e-12 	101324.9999999921
-0.3741241241241244 	300.0000000000211 	3.936442460155136e-12 	101324.9999999924
-0.371621621621622 	300.0000000000163 	2.499833747081377e-12 	101324.9999999922
-0.3691191191191194 	300.0000000000105 	5.480710240831562e-12 	101324.9999999923
-0.366616616616617 	300.0000000000082 	2.310356360377815e-12 	101324.9999999923
-0.3641141141141143 	299.9999999999718 	5.047348329849886e-12 	101324.9999999924
-0.3616116116116119 	299.9999999999544 	2.88438589507122e-12 	101324.9999999927
-0.3591091091091095 	299.9999999999847 	4.512624306102264e-12 	101324.9999999925
-0.356606606606607 	299.9999999999773 	4.189152468139877e-12 	101324.9999999923
-0.3541041041041044 	299.9999999999918 	4.13770583699565e-12 	101324.9999999922
-0.3516016016016019 	300.0000000000113 	4.850712199671573e-12 	101324.9999999924
-0.3490990990990994 	299.9999999999936 	3.418319049281811e-12 	101324.9999999921
-0.346596596596597 	300.0000000000339 	5.689739912993521e-12 	101324.9999999921
-0.3440940940940944 	300.0000000000407 	3.075122028103359e-12 	101324.9999999924
-0.3415915915915919 	300.0000000000191 	5.909560449559477e-12 	101324.9999999927
-0.3390890890890895 	299.9999999999798 	4.098768383351781e-12 	101324.9999999928
-0.3365865865865869 	300.0000000000146 	5.108850523945589e-12 	101324.9999999926
-0.3340840840840844 	299.9999999999978 	3.86758019779061e-12 	101324.9999999925
-0.3315815815815819 	300.0000000000184 	4.041051208518885e-12 	101324.9999999928
-0.3290790790790794 	300.0000000000178 	3.272775679002782e-12 	101324.9999999926
-0.3265765765765769 	299.9999999999381 	3.915751288051892e-12 	101324.9999999923
-0.3240740740740744 	299.9999999999954 	2.627193313376862e-12 	101324.9999999924
-0.3215715715715718 	300.000000000006 	4.711947545755551e-12 	101324.9999999923
-0.3190690690690695 	299.999999999942 	2.825856336161498e-12 	101324.9999999921
-0.3165665665665668 	299.9999999999907 	4.526103591275764e-12 	101324.9999999923
-0.3140640640640644 	300.0000000000018 	2.251380554670703e-12 	101324.9999999924
-0.311561561561562 	299.9999999999375 	5.759197475215208e-12 	101324.9999999924
-0.3090590590590593 	299.9999999999931 	1.998384171923499e-12 	101324.9999999923
-0.3065565565565568 	300.0000000000036 	7.625220206845563e-12 	101324.9999999923
-0.3040540540540545 	300.000000000002 	1.710071744513699e-12 	101324.9999999923
-0.3015515515515518 	300.0000000000311 	5.892084311371168e-12 	101324.9999999924
-0.2990490490490494 	299.9999999999546 	2.176741761437424e-12 	101324.9999999925
-0.2965465465465469 	299.9999999999862 	3.963454532456001e-12 	101324.9999999923
-0.2940440440440444 	299.9999999999943 	3.002756909490878e-12 	101324.9999999922
-0.2915415415415418 	300.0000000000047 	3.261481307154416e-12 	101324.9999999921
-0.2890390390390395 	300.0000000000063 	3.915111148026323e-12 	101324.999999992
-0.2865365365365368 	299.9999999999841 	2.631885563450622e-12 	101324.9999999919
-0.2840340340340343 	299.9999999999984 	4.865207308245701e-12 	101324.999999992
-0.2815315315315318 	299.9999999999344 	2.806328502520775e-12 	101324.9999999921
-0.2790290290290295 	299.9999999999646 	5.211509541517705e-12 	101324.9999999919
-0.2765265265265269 	300.0000000000034 	3.756921311491072e-12 	101324.9999999916
-0.2740240240240244 	300.0000000000221 	4.366053131202406e-12 	101324.9999999915
-0.2715215215215219 	300.0000000000107 	3.914445016434343e-12 	101324.9999999916
-0.2690190190190194 	299.9999999999511 	3.63829370712033e-12 	101324.9999999918
-0.2665165165165169 	299.999999999998 	4.261043388140324e-12 	101324.9999999919
-0.2640140140140144 	299.9999999999761 	2.740489679342582e-12 	101324.9999999919
-0.2615115115115119 	300.0000000000026 	4.472013348832372e-12 	101324.9999999921
-0.2590090090090094 	299.9999999999413 	1.722462513936724e-12 	101324.9999999921
-0.2565065065065068 	299.9999999999931 	2.783745974625508e-12 	101324.9999999922
-0.2540040040040044 	299.999999999996 	3.221087787669896e-12 	101324.9999999925
-0.2515015015015019 	300.0000000000327 	3.040064349747958e-12 	101324.9999999927
-0.2489989989989994 	300.0000000000359 	5.304873417909852e-12 	101324.9999999928
-0.2464964964964968 	299.9999999999906 	3.047943835468645e-12 	101324.9999999928
-0.2439939939939944 	299.9999999999951 	6.936884343341274e-12 	101324.9999999929
-0.2414914914914919 	299.9999999999703 	2.954609544072251e-12 	101324.9999999931
-0.2389889889889893 	300.0000000000019 	6.916334614108342e-12 	101324.999999993
-0.2364864864864869 	300.0000000000214 	3.057109215466529e-12 	101324.9999999929
-0.2339839839839843 	299.9999999999421 	7.422658368534145e-12 	101324.999999993
-0.2314814814814819 	299.9999999999862 	3.608056354781538e-12 	101324.9999999931
-0.2289789789789792 	299.9999999999284 	6.474078381962892e-12 	101324.9999999929
-0.2264764764764769 	299.9999999999549 	3.299508678136203e-12 	101324.9999999933
-0.2239739739739743 	299.9999999999686 	4.82282612458902e-12 	101324.9999999932
-0.2214714714714718 	299.9999999999448 	3.709522928779682e-12 	101324.9999999931
-0.2189689689689693 	299.9999999999739 	2.554698732724501e-12 	101324.9999999928
-0.2164664664664669 	299.9999999999861 	3.639120165677804e-12 	101324.9999999926
-0.2139639639639643 	299.9999999999429 	1.548779678417133e-12 	101324.9999999927
-0.2114614614614618 	299.9999999999748 	2.685534947139079e-12 	101324.9999999927
-0.2089589589589593 	299.9999999999919 	2.511761889875403e-12 	101324.9999999927
-0.2064564564564568 	299.9999999999916 	2.062888282675044e-12 	101324.9999999926
-0.2039539539539543 	299.9999999999255 	2.852373186641753e-12 	101324.9999999928
-0.2014514514514518 	299.9999999999521 	4.837723794712677e-13 	101324.9999999928
-0.1989489489489494 	299.9999999999725 	3.666095542148885e-12 	101324.9999999928
-0.1964464464464468 	299.9999999999927 	7.419463596097414e-13 	101324.9999999928
-0.1939439439439443 	299.9999999999916 	4.030236995347177e-12 	101324.9999999928
-0.1914414414414418 	299.9999999999325 	2.102576594950695e-12 	101324.9999999929
-0.1889389389389393 	300.0000000000044 	3.777331668040382e-12 	101324.9999999932
-0.1864364364364368 	300.0000000000322 	2.876721813178583e-12 	101324.9999999932
-0.1839339339339343 	299.9999999999785 	3.232545441980327e-12 	101324.999999993
-0.1814314314314318 	299.9999999999972 	2.181981849824338e-12 	101324.9999999925
-0.1789289289289293 	299.9999999999141 	2.338737778458807e-12 	101324.9999999922
-0.1764264264264268 	299.9999999999829 	1.018065779808463e-12 	101324.9999999921
-0.1739239239239243 	299.9999999999156 	2.55507197444856e-12 	101324.9999999921
-0.1714214214214218 	299.9999999999902 	5.815245064098562e-13 	101324.9999999922
-0.1689189189189193 	299.9999999999594 	3.589714593572524e-12 	101324.9999999921
-0.1664164164164168 	300.0000000000036 	1.258946091065309e-12 	101324.9999999921
-0.1639139139139143 	299.9999999999874 	6.194698180135709e-12 	101324.9999999923
-0.1614114114114118 	300.0000000000201 	1.62642427104376e-12 	101324.9999999924
-0.1589089089089093 	299.9999999999952 	8.500301367520182e-12 	101324.9999999926
-0.1564064064064068 	299.9999999999811 	2.474044149925626e-12 	101324.9999999925
-0.1539039039039043 	299.999999999992 	9.331696061116459e-12 	101324.9999999928
-0.1514014014014018 	300.0000000000222 	1.446084278293325e-12 	101324.9999999929
-0.1488988988988993 	299.999999999987 	8.997339492293488e-12 	101324.9999999932
-0.1463963963963968 	300.0000000000006 	1.306502669111492e-12 	101324.9999999932
-0.1438938938938943 	299.9999999999616 	7.605923779519846e-12 	101324.999999993
-0.1413913913913918 	299.999999999941 	1.754323518302808e-12 	101324.999999993
-0.1388888888888893 	299.9999999999844 	5.639524551981917e-12 	101324.999999993
-0.1363863863863868 	299.9999999999063 	2.637564720262945e-12 	101324.9999999931
-0.1338838838838843 	299.9999999999296 	4.626887348374964e-12 	101324.9999999931
-0.1313813813813818 	299.999999999996 	2.067354859044775e-12 	101324.9999999932
-0.1288788788788793 	299.9999999999687 	3.307951444384232e-12 	101324.9999999931
-0.1263763763763768 	299.9999999999719 	1.666003842245849e-12 	101324.9999999931
-0.1238738738738743 	299.9999999999412 	3.864204264024017e-12 	101324.999999993
-0.1213713713713717 	299.9999999999858 	1.667656419512566e-12 	101324.9999999929
-0.1188688688688693 	300.0000000000056 	5.563770085190228e-12 	101324.9999999929
-0.1163663663663668 	299.9999999999214 	1.113975903931171e-12 	101324.999999993
-0.1138638638638643 	299.9999999999931 	5.103203468156362e-12 	101324.999999993
-0.1113613613613618 	299.999999999988 	4.389934271470278e-13 	101324.999999993
-0.1088588588588592 	299.9999999999797 	5.372101585841406e-12 	101324.9999999928
-0.1063563563563568 	299.9999999999631 	2.696216095362464e-13 	101324.9999999926
-0.1038538538538543 	299.9999999999795 	4.659567286092153e-12 	101324.9999999926
-0.1013513513513517 	300.0000000000111 	1.930090495169851e-12 	101324.9999999926
-0.09884884884884926 	299.9999999999547 	4.882989536852396e-12 	101324.9999999924
-0.09634634634634676 	299.9999999999098 	2.323732927121521e-12 	101324.9999999926
-0.09384384384384425 	299.9999999999382 	3.552771311896311e-12 	101324.9999999926
-0.09134134134134177 	300.0000000000165 	2.243338802895684e-12 	101324.9999999925
-0.08883883883883925 	300.0000000000072 	3.080904506095204e-12 	101324.9999999925
-0.08633633633633674 	299.99999999996 	2.1736233140545e-12 	101324.9999999926
-0.08383383383383426 	300.000000000006 	2.292866804068824e-12 	101324.9999999926
-0.08133133133133173 	299.999999999973 	3.013054570758198e-12 	101324.9999999926
-0.07882882882882926 	299.9999999998986 	2.496010395149941e-12 	101324.9999999927
-0.07632632632632676 	299.9999999999661 	2.385141304103132e-12 	101324.9999999925
-0.07382382382382424 	299.9999999999116 	2.339538818990856e-12 	101324.9999999922
-0.07132132132132173 	300.0000000000102 	1.720050796697825e-12 	101324.9999999923
-0.06881881881881925 	299.9999999999649 	1.367412709077931e-12 	101324.9999999922
-0.06631631631631671 	299.9999999999089 	8.44430994183234e-13 	101324.9999999919
-0.06381381381381425 	299.9999999999598 	8.024833034036622e-13 	101324.9999999916
-0.06131131131131173 	299.9999999999608 	8.874908319107819e-13 	101324.9999999916
-0.05880880880880923 	299.9999999999299 	5.812067042814388e-13 	101324.9999999918
-0.05630630630630672 	299.99999999997 	4.675349421872608e-13 	101324.999999992
-0.05380380380380424 	300.0000000000121 	6.82668280061151e-13 	101324.9999999923
-0.05130130130130173 	300.0000000000084 	1.068316265134569e-12 	101324.9999999924
-0.04879879879879922 	299.9999999999534 	1.282779045600826e-12 	101324.9999999923
-0.04629629629629672 	299.9999999999455 	1.097204028578309e-12 	101324.9999999926
-0.04379379379379422 	299.9999999999281 	1.406319613461994e-12 	101324.9999999927
-0.04129129129129173 	299.9999999999815 	8.266986881700481e-13 	101324.9999999928
-0.03878878878878922 	299.999999999984 	1.428998285365917e-12 	101324.9999999928
-0.03628628628628671 	299.9999999999834 	7.776727320934677e-13 	101324.9999999926
-0.03378378378378422 	299.9999999999409 	8.331028544685078e-13 	101324.9999999926
-0.03128128128128172 	299.9999999999744 	2.429315141006525e-13 	101324.9999999924
-0.02877877877877922 	299.9999999999727 	1.734763604406696e-13 	101324.9999999925
-0.0262762762762767 	299.9999999999155 	4.152652448967737e-13 	101324.9999999924
-0.02377377377377422 	300.0000000000143 	1.655473793612335e-13 	101324.9999999922
-0.0212712712712717 	299.9999999999175 	4.310863125746424e-13 	101324.9999999922
-0.01876876876876921 	299.9999999999732 	5.860628261702916e-13 	101324.999999992
-0.01626626626626671 	300.0000000000116 	1.61520134131668e-12 	101324.9999999921
-0.0137637637637642 	299.9999999999676 	8.662381174265935e-13 	101324.9999999916
-0.0112612612612617 	300.0000000000109 	1.21129070510836e-12 	101324.9999999917
-0.008758758758759198 	299.9999999999947 	4.306050999627876e-13 	101324.9999999915
-0.006256256256256697 	299.9999999999029 	6.346708218192481e-13 	101324.9999999912
-0.003753753753754195 	299.9999999999577 	2.75122107918118e-13 	101324.9999999913
-0.001251251251251693 	299.9999999999383 	3.430947284472393e-13 	101324.9999999913
0.00125125125125081 	299.9999999999586 	8.967699807015303e-13 	101324.9999999913
0.003753753753753312 	299.9999999999683 	9.901059429934084e-14 	101324.9999999914
0.006256256256255817 	299.9999999999035 	7.114498389693609e-13 	101324.9999999916
0.008758758758758317 	299.9999999999915 	6.845361862879284e-14 	101324.9999999919
0.01126126126126082 	300.000000000006 	3.824018656171642e-13 	101324.999999992
0.01376376376376332 	299.9999999999732 	2.215154084141628e-13 	101324.999999992
0.01626626626626582 	300.0000000000061 	2.510715706827672e-14 	101324.9999999922
0.01876876876876833 	299.999999999962 	2.480721845130647e-13 	101324.9999999924
0.02127127127127083 	299.9999999999754 	1.162453640229706e-13 	101324.9999999924
0.02377377377377332 	299.9999999999961 	4.662391237968928e-14 	101324.9999999925
0.02627627627627583 	299.9999999999197 	1.67853016807653e-13 	101324.9999999924
0.02877877877877833 	300.0000000000049 	3.910038583201004e-13 	101324.9999999923
0.03128128128128083 	299.999999999952 	3.771569432899613e-13 	101324.9999999922
0.03378378378378333 	299.9999999999174 	1.696708232803426e-12 	101324.9999999923
0.03628628628628584 	299.9999999999777 	1.918227979122655e-12 	101324.9999999923
0.03878878878878834 	299.9999999999833 	1.77196877720225e-12 	101324.9999999923
0.04129129129129084 	299.9999999999797 	1.604041080741624e-12 	101324.9999999922
0.04379379379379333 	299.9999999999476 	1.607856468693045e-12 	101324.9999999921
0.04629629629629585 	299.9999999999052 	1.581245204397763e-12 	101324.9999999923
0.04879879879879834 	299.9999999999609 	2.120107875132672e-12 	101324.9999999924
0.05130130130130085 	300.0000000000111 	2.057106745953256e-12 	101324.9999999925
0.05380380380380335 	300.0000000000142 	1.214217827832653e-12 	101324.9999999923
0.05630630630630584 	299.9999999999893 	1.206964451377463e-12 	101324.9999999923
0.05880880880880836 	299.9999999999308 	1.027370598625444e-12 	101324.9999999923
0.06131131131131085 	299.9999999999795 	1.58455272510283e-12 	101324.9999999921
0.06381381381381336 	299.9999999999692 	1.616476228778483e-12 	101324.9999999922
0.06631631631631586 	299.9999999999064 	1.866860689020024e-12 	101324.9999999925
0.06881881881881835 	299.9999999999575 	2.247579700079326e-12 	101324.9999999925
0.07132132132132088 	299.9999999999893 	2.141906244753283e-12 	101324.9999999924
0.07382382382382337 	299.9999999999185 	2.811827660853373e-12 	101324.9999999924
0.07632632632632587 	299.999999999975 	2.832942756496895e-12 	101324.9999999925
0.07882882882882837 	299.999999999947 	2.234378879400025e-12 	101324.9999999925
0.08133133133133086 	299.9999999999889 	2.602495890350201e-12 	101324.9999999928
0.08383383383383337 	299.9999999999865 	2.281005645650122e-12 	101324.9999999929
0.08633633633633589 	299.999999999922 	2.399125521179937e-12 	101324.9999999929
0.08883883883883838 	300.0000000000107 	2.547205314795968e-12 	101324.9999999928
0.09134134134134086 	299.9999999999925 	2.207788477324222e-12 	101324.9999999929
0.09384384384384339 	299.9999999999123 	3.103647168358858e-12 	101324.9999999926
0.09634634634634588 	299.9999999999725 	3.252616887523593e-12 	101324.9999999927
0.09884884884884838 	299.9999999999762 	3.62926203353181e-12 	101324.9999999929
0.1013513513513509 	300.0000000000161 	3.633801977236309e-12 	101324.9999999931
0.1038538538538534 	299.9999999999582 	3.575417189947425e-12 	101324.9999999931
0.1063563563563559 	300.0000000000111 	3.965019139103215e-12 	101324.9999999929
0.1088588588588584 	300.0000000000244 	3.408926073540356e-12 	101324.999999993
0.1113613613613609 	299.9999999999331 	3.56068113370965e-12 	101324.9999999929
0.1138638638638634 	299.9999999999537 	3.721465213161855e-12 	101324.9999999929
0.1163663663663659 	299.9999999999529 	3.539383555773606e-12 	101324.9999999928
0.1188688688688684 	299.9999999999728 	2.865960368663831e-12 	101324.9999999925
0.1213713713713709 	299.9999999999951 	2.05140476818106e-12 	101324.9999999926
0.1238738738738734 	299.9999999999366 	2.227368189674853e-12 	101324.999999993
0.1263763763763759 	299.9999999999884 	2.135757478887198e-12 	101324.999999993
0.1288788788788784 	299.9999999999906 	1.910441148511894e-12 	101324.999999993
0.1313813813813809 	299.9999999999887 	1.941664208772393e-12 	101324.9999999929
0.1338838838838834 	299.9999999999782 	1.960221096900358e-12 	101324.9999999927
0.1363863863863859 	300.0000000000229 	1.605667425292325e-12 	101324.9999999925
0.1388888888888884 	300.0000000000383 	1.979099363821691e-12 	101324.9999999928
0.1413913913913909 	300.0000000000012 	2.246071201183642e-12 	101324.9999999929
0.1438938938938934 	299.9999999999948 	2.408588686362916e-12 	101324.9999999931
0.1463963963963959 	299.9999999999667 	1.410699402394493e-12 	101324.999999993
0.1488988988988985 	299.9999999999266 	2.322895924574741e-12 	101324.9999999926
0.1514014014014009 	299.9999999999702 	1.280668729881889e-12 	101324.9999999924
0.1539039039039035 	299.9999999999683 	3.148459793233892e-12 	101324.9999999924
0.1564064064064059 	299.9999999999472 	1.00207738663937e-12 	101324.9999999922
0.1589089089089084 	299.9999999999844 	4.304469661854997e-12 	101324.9999999923
0.1614114114114109 	299.9999999999799 	1.322866844147362e-12 	101324.9999999922
0.1639139139139134 	299.9999999999214 	3.196070993143218e-12 	101324.9999999922
0.166416416416416 	300.0000000000068 	2.748874788659364e-12 	101324.9999999921
0.1689189189189185 	300.0000000000213 	2.740819769935572e-12 	101324.9999999921
0.1714214214214209 	299.9999999999938 	3.613702712260651e-12 	101324.9999999925
0.1739239239239235 	299.9999999999854 	2.476643955289247e-12 	101324.9999999928
0.1764264264264259 	299.9999999999712 	4.668569859706964e-12 	101324.9999999926
0.1789289289289284 	300.0000000000017 	2.117697912074037e-12 	101324.9999999927
0.181431431431431 	299.9999999999678 	4.448845776794015e-12 	101324.9999999929
0.1839339339339334 	299.9999999999739 	1.986505389835975e-12 	101324.9999999928
0.186436436436436 	299.9999999999376 	3.231971678702283e-12 	101324.999999993
0.1889389389389385 	299.9999999999845 	2.755372147779813e-12 	101324.9999999928
0.191441441441441 	299.9999999999815 	2.18926616169205e-12 	101324.9999999925
0.1939439439439434 	299.9999999999327 	3.178911350631458e-12 	101324.9999999922
0.196446446446446 	299.9999999999556 	1.171086828685313e-12 	101324.9999999922
0.1989489489489485 	299.99999999997 	3.526371853304196e-12 	101324.9999999922
0.2014514514514509 	299.9999999999861 	1.281839165504082e-12 	101324.999999992
0.2039539539539535 	299.9999999999931 	2.85561498612733e-12 	101324.9999999919
0.2064564564564559 	299.9999999999633 	1.720117946898024e-12 	101324.9999999919
0.2089589589589585 	299.9999999999867 	2.272939977908996e-12 	101324.9999999917
0.211461461461461 	299.9999999999415 	2.804332798899027e-12 	101324.9999999916
0.2139639639639635 	299.9999999999828 	2.458951119083268e-12 	101324.9999999912
0.2164664664664659 	299.9999999999961 	3.373740056775398e-12 	101324.9999999913
0.2189689689689684 	299.9999999999964 	1.053384043042763e-12 	101324.9999999916
0.221471471471471 	299.9999999999929 	3.580425988089335e-12 	101324.9999999916
0.2239739739739735 	299.9999999999622 	1.573564311196259e-12 	101324.9999999917
0.226476476476476 	299.9999999999819 	3.396109945823813e-12 	101324.9999999919
0.2289789789789785 	299.9999999999933 	2.685664344627342e-12 	101324.999999992
0.231481481481481 	299.9999999999906 	2.809184781680873e-12 	101324.9999999917
0.2339839839839835 	299.9999999999886 	2.982303069494409e-12 	101324.9999999919
0.236486486486486 	300.0000000000177 	1.597009846861193e-12 	101324.9999999921
0.2389889889889885 	300.0000000000015 	2.633387447655788e-12 	101324.9999999921
0.241491491491491 	299.9999999999375 	5.32388537749748e-13 	101324.9999999923
0.2439939939939935 	299.9999999999819 	3.718387053290042e-12 	101324.9999999924
0.246496496496496 	299.9999999999926 	1.420444105581514e-12 	101324.9999999926
0.2489989989989985 	300.0000000000289 	3.613623772463981e-12 	101324.9999999926
0.251501501501501 	300.0000000000243 	2.885176687821627e-12 	101324.9999999925
0.2540040040040035 	299.9999999999928 	3.20401852907143e-12 	101324.9999999925
0.256506506506506 	300.0000000000219 	3.642225369387039e-12 	101324.9999999925
0.2590090090090086 	299.9999999999225 	2.194048917688451e-12 	101324.9999999925
0.261511511511511 	299.9999999999985 	4.95025912217201e-12 	101324.9999999924
0.2640140140140135 	299.9999999999928 	2.053559981012157e-12 	101324.9999999924
0.2665165165165161 	299.9999999999411 	4.030543456585371e-12 	101324.9999999924
0.2690190190190185 	300.0000000000045 	3.381153237019405e-12 	101324.9999999923
0.271521521521521 	300.0000000000075 	4.28901581345457e-12 	101324.9999999923
0.2740240240240235 	300.0000000000122 	3.96059055492758e-12 	101324.999999992
0.276526526526526 	300.0000000000055 	3.480438881051868e-12 	101324.9999999917
0.2790290290290286 	299.9999999999524 	4.862843167431081e-12 	101324.9999999916
0.281531531531531 	299.9999999999378 	3.417904385839468e-12 	101324.9999999918
0.2840340340340335 	299.9999999999782 	5.248976221980595e-12 	101324.999999992
0.2865365365365361 	299.9999999999674 	3.004586532590504e-12 	101324.9999999923
0.2890390390390385 	299.999999999999 	3.226893841391829e-12 	101324.9999999924
0.291541541541541 	299.9999999999988 	2.203796497804884e-12 	101324.9999999924
0.2940440440440436 	299.9999999999913 	1.531053546953383e-12 	101324.9999999927
0.296546546546546 	299.9999999999943 	2.750457507144872e-12 	101324.9999999926
0.2990490490490486 	299.9999999999463 	9.25766461341523e-13 	101324.9999999925
0.3015515515515511 	300.0000000000248 	4.513739883076398e-12 	101324.9999999923
0.3040540540540535 	299.9999999999937 	1.938028165114445e-12 	101324.9999999922
0.3065565565565562 	299.9999999999984 	4.854320087982772e-12 	101324.999999992
0.3090590590590585 	299.9999999999926 	1.458596740903173e-12 	101324.9999999916
0.3115615615615611 	299.9999999999508 	4.254029832218223e-12 	101324.9999999913
0.3140640640640635 	300.0000000000053 	1.423598496522272e-12 	101324.9999999914
0.316566566566566 	299.9999999999927 	4.199277431633516e-12 	101324.9999999911
0.3190690690690687 	299.9999999999578 	2.819830102838289e-12 	101324.9999999914
0.3215715715715711 	300.0000000000115 	4.756720149242912e-12 	101324.9999999913
0.3240740740740735 	299.9999999999977 	2.809082711555211e-12 	101324.9999999911
0.326576576576576 	299.9999999999221 	4.309120195031109e-12 	101324.9999999912
0.3290790790790786 	300.0000000000034 	3.236265433899285e-12 	101324.9999999913
0.3315815815815811 	300.0000000000263 	3.120881580587642e-12 	101324.9999999916
0.3340840840840836 	299.9999999999879 	1.786744043360895e-12 	101324.999999992
0.3365865865865861 	300.0000000000426 	2.160682047152917e-12 	101324.9999999921
0.3390890890890886 	300.00000000004 	6.90183026469384e-13 	101324.9999999923
0.3415915915915911 	300.0000000000009 	1.638188137535785e-12 	101324.9999999924
0.3440940940940935 	299.9999999999563 	5.908427949512846e-13 	101324.9999999924
0.3465965965965962 	300.0000000000281 	2.48497293487726e-12 	101324.9999999924
0.3490990990990985 	300.0000000000218 	1.044540729279582e-12 	101324.9999999924
0.3516016016016011 	299.9999999999891 	1.947413054021112e-12 	101324.9999999923
0.3541041041041035 	300.0000000000033 	1.763220534417394e-12 	101324.999999992
0.3566066066066061 	299.9999999999652 	1.115627033026298e-12 	101324.9999999919
0.3591091091091085 	299.9999999999341 	1.857296647846774e-12 	101324.9999999917
0.3616116116116112 	299.9999999999482 	1.048234806203029e-12 	101324.9999999918
0.3641141141141137 	299.9999999999425 	2.923710867870975e-12 	101324.9999999916
0.3666166166166161 	299.9999999999387 	1.335954397776274e-12 	101324.9999999917
0.3691191191191185 	300.0000000000319 	3.384304356116976e-12 	101324.9999999915
0.371621621621621 	300.000000000007 	2.220584213571449e-12 	101324.9999999916
0.3741241241241237 	300.0000000000358 	1.578858596161356e-12 	101324.9999999918
0.3766266266266261 	300.0000000000231 	1.720211983441019e-12 	101324.9999999917
0.3791291291291286 	299.9999999999868 	1.227313113896998e-12 	101324.9999999919
0.3816316316316311 	299.9999999999339 	9.776011403642185e-13 	101324.9999999919
0.3841341341341336 	300.0000000000077 	1.437844175971992e-12 	101324.999999992
0.3866366366366362 	299.9999999999982 	5.85135522475051e-13 	101324.9999999918
0.3891391391391387 	299.9999999999623 	1.114369008575985e-12 	101324.9999999915
0.391641641641641 	299.9999999999916 	2.277174976486952e-13 	101324.9999999915
0.3941441441441436 	300.0000000000073 	1.011743896739929e-12 	101324.9999999916
0.3966466466466462 	300.0000000000011 	6.185885378228374e-13 	101324.9999999916
0.3991491491491486 	299.9999999999596 	5.835278592309058e-13 	101324.9999999915
0.4016516516516512 	299.9999999999339 	1.207598332660464e-12 	101324.9999999913
0.4041541541541536 	299.9999999999565 	1.25490519242474e-12 	101324.9999999913
0.4066566566566561 	299.9999999999566 	5.329360423748988e-13 	101324.9999999915
0.4091591591591587 	299.999999999994 	2.134987682338202e-12 	101324.9999999918
0.4116616616616612 	300.0000000000043 	2.203721305401808e-13 	101324.9999999919
0.4141641641641635 	300.0000000000309 	3.514724525656671e-13 	101324.9999999922
0.4166666666666662 	299.9999999999961 	3.981953099946989e-13 	101324.9999999922
0.4191691691691687 	299.9999999999536 	1.43712510744691e-12 	101324.9999999921
0.421671671671671 	300.000000000008 	1.765177318398545e-12 	101324.9999999921
0.4241741741741737 	299.9999999999759 	2.118050248481207e-12 	101324.9999999918
0.4266766766766761 	299.9999999999565 	2.954720776884782e-12 	101324.9999999917
0.4291791791791785 	300.0000000000144 	2.599368398110052e-12 	101324.9999999916
0.4316816816816812 	300.0000000000072 	3.155805438680618e-12 	101324.9999999917
0.4341841841841836 	299.999999999984 	2.137583967398545e-12 	101324.9999999917
0.4366866866866862 	299.9999999999354 	2.363147238778094e-12 	101324.9999999917
0.4391891891891885 	299.999999999993 	1.560103862242985e-12 	101324.9999999917
0.4416916916916913 	299.9999999999846 	1.153585621058036e-12 	101324.9999999917
0.4441941941941936 	299.9999999999885 	1.809559272730521e-12 	101324.9999999916
0.4466966966966961 	299.999999999933 	5.885341575343989e-13 	101324.9999999916
0.4491991991991987 	299.9999999999865 	7.727359874497432e-13 	101324.9999999917
0.4517017017017012 	299.9999999999847 	2.614560098511558e-13 	101324.9999999918
0.4542042042042035 	299.9999999999877 	1.343251372474614e-13 	101324.9999999919
0.4567067067067062 	299.9999999999967 	2.928213564574422e-13 	101324.999999992
0.4592092092092087 	299.9999999999409 	8.503939100282093e-13 	101324.9999999919
0.4617117117117112 	300.000000000016 	6.615264216192255e-13 	101324.9999999921
0.4642142142142137 	299.9999999999701 	4.652283366423261e-13 	101324.9999999921
0.4667167167167162 	299.9999999999934 	3.398646412435503e-13 	101324.9999999922
0.4692192192192187 	299.9999999999649 	2.466258010489125e-13 	101324.9999999921
0.4717217217217212 	300.0000000000089 	4.893765850930658e-13 	101324.9999999921
0.4742242242242236 	299.9999999999658 	3.888881418307374e-13 	101324.9999999922
0.4767267267267262 	299.9999999999808 	7.414012651811671e-13 	101324.999999992
0.4792292292292287 	300.0000000000148 	3.349851924286286e-13 	101324.9999999921
0.4817317317317312 	300.0000000000288 	1.431040199813032e-13 	101324.9999999923
0.4842342342342336 	299.9999999999878 	5.206914159400072e-13 	101324.9999999921
0.4867367367367362 	299.9999999999625 	9.711208250607375e-13 	101324.999999992
0.4892392392392387 	300.0000000000229 	5.624451622782503e-13 	101324.9999999922
0.4917417417417412 	300.0000000000038 	2.04787456840819e-12 	101324.9999999922
0.4942442442442437 	299.9999999999242 	1.12131699214767e-12 	101324.999999992
0.4967467467467462 	299.999999999939 	2.417933108346533e-12 	101324.9999999919
0.4992492492492487 	299.9999999999364 	5.333057969417727e-13 	101324.999999992
0.5017517517517511 	299.9999999999656 	1.300409504225786e-12 	101324.9999999919
0.5042542542542537 	299.9999999999714 	1.194880003507147e-13 	101324.9999999919
0.5067567567567562 	299.9999999999568 	2.500639346690469e-13 	101324.9999999916
0.5092592592592589 	299.9999999999791 	3.603938300579903e-13 	101324.9999999918
0.5117617617617611 	299.9999999999665 	1.674674026691299e-12 	101324.9999999918
0.5142642642642637 	299.9999999999872 	1.553329731296479e-12 	101324.999999992
0.5167667667667663 	299.9999999999761 	2.347191539541466e-12 	101324.9999999923
0.5192692692692688 	299.9999999999368 	3.473182884578756e-12 	101324.9999999926
0.5217717717717714 	299.9999999999482 	2.890043143353141e-12 	101324.9999999928
0.5242742742742736 	299.9999999999502 	3.239764312451577e-12 	101324.9999999929
0.5267767767767763 	299.999999999965 	2.093359213354374e-12 	101324.9999999927
0.5292792792792789 	299.9999999999495 	2.709090785453382e-12 	101324.9999999925
0.5317817817817813 	299.9999999999291 	9.179560761307335e-13 	101324.9999999927
0.5342842842842837 	300.0000000000136 	1.896199727713155e-12 	101324.9999999928
0.5367867867867864 	300.0000000000014 	9.53773894623743e-13 	101324.9999999927
0.5392892892892888 	299.9999999999651 	1.592485434432677e-12 	101324.9999999925
0.5417917917917912 	300.0000000000014 	4.201839413786479e-13 	101324.9999999925
0.5442942942942938 	299.9999999999878 	1.056358703879891e-12 	101324.9999999928
0.5467967967967964 	299.9999999999657 	1.991692024385554e-13 	101324.9999999928
0.5492992992992988 	299.9999999999573 	7.117555076177865e-13 	101324.9999999929
0.5518018018018012 	299.9999999999478 	5.360028774077868e-13 	101324.9999999929
0.5543043043043039 	300.0000000000161 	7.323432854818313e-13 	101324.9999999929
0.5568068068068063 	299.9999999999921 	8.60700188610872e-13 	101324.9999999928
0.5593093093093087 	299.9999999999226 	8.822443994842913e-13 	101324.9999999928
0.5618118118118114 	299.9999999999675 	1.12488459901103e-12 	101324.9999999927
0.5643143143143137 	299.9999999999516 	3.840126426431563e-13 	101324.9999999925
0.5668168168168163 	299.9999999999939 	8.463748216283793e-13 	101324.9999999924
0.5693193193193188 	300.0000000000277 	8.565951577419334e-13 	101324.9999999924
0.5718218218218213 	300.0000000000227 	7.058435626231211e-13 	101324.9999999925
0.5743243243243239 	300.0000000000072 	1.352913113818626e-12 	101324.9999999924
0.5768268268268262 	300.0000000000066 	2.068280639211886e-12 	101324.9999999925
0.5793293293293288 	299.9999999999617 	2.190907222237953e-12 	101324.9999999924
0.5818318318318314 	299.9999999999356 	2.921118381232458e-12 	101324.9999999926
0.5843343343343338 	299.9999999999811 	2.265736066370001e-12 	101324.9999999926
0.5868368368368363 	299.999999999977 	2.863193503600989e-12 	101324.9999999925
0.5893393393393387 	299.9999999999565 	1.357840510609741e-12 	101324.9999999926
0.5918418418418413 	299.9999999999534 	2.126274026613996e-12 	101324.9999999927
0.5943443443443439 	300.0000000000124 	1.120805973908902e-12 	101324.9999999928
0.5968468468468463 	300.0000000000147 	1.205322806534728e-12 	101324.9999999928
0.5993493493493487 	300.0000000000372 	1.109878792647189e-12 	101324.9999999928
0.6018518518518514 	299.9999999999831 	9.616739355764199e-13 	101324.9999999927
0.6043543543543537 	299.9999999999936 	8.167225248698607e-13 	101324.9999999926
0.6068568568568564 	299.9999999999847 	1.763891098896339e-12 	101324.9999999926
0.6093593593593587 	299.9999999999475 	1.086355801368171e-12 	101324.9999999927
0.6118618618618614 	299.9999999999386 	1.618599261856054e-12 	101324.9999999926
0.6143643643643638 	300.0000000000088 	1.659566905532604e-12 	101324.9999999926
0.6168668668668662 	299.9999999999835 	3.079303864821472e-12 	101324.9999999927
0.6193693693693688 	299.9999999999652 	1.802867905469375e-12 	101324.9999999928
0.6218718718718714 	299.9999999999733 	3.164461279892341e-12 	101324.9999999929
0.6243743743743737 	299.9999999999502 	1.880911490136675e-12 	101324.9999999928
0.6268768768768762 	299.9999999999404 	3.248072128920337e-12 	101324.9999999929
0.629379379379379 	299.9999999999596 	1.646094789484936e-12 	101324.9999999929
0.6318818818818812 	299.9999999999782 	2.046124841339584e-12 	101324.9999999929
0.6343843843843838 	300.0000000000146 	1.599364203818736e-12 	101324.9999999931
0.6368868868868864 	299.9999999999853 	1.282028527333334e-12 	101324.9999999929
0.6393893893893888 	299.9999999999374 	2.791451486445242e-12 	101324.9999999928
0.6418918918918912 	300.0000000000059 	2.080913710540031e-12 	101324.9999999928
0.6443943943943939 	299.9999999999851 	4.172747393303968e-12 	101324.9999999929
0.6468968968968963 	299.9999999999863 	2.867728396234551e-12 	101324.9999999928
0.6493993993993988 	299.9999999999828 	3.253986640661753e-12 	101324.9999999929
0.6519019019019012 	299.9999999999761 	1.885818880469697e-12 	101324.999999993
0.6544044044044038 	299.999999999924 	3.275780664050204e-12 	101324.9999999929
0.6569069069069065 	299.9999999999644 	1.280883425486802e-12 	101324.9999999929
0.6594094094094087 	299.9999999999703 	2.734852942831566e-12 	101324.9999999928
0.6619119119119113 	299.9999999999604 	1.336855562494002e-12 	101324.9999999926
0.664414414414414 	300.000000000001 	2.710963110301725e-12 	101324.9999999926
0.6669169169169162 	300.0000000000177 	1.566529934074663e-12 	101324.9999999924
0.6694194194194188 	299.9999999999902 	2.607384142350599e-12 	101324.9999999922
0.6719219219219214 	299.9999999999391 	1.495957210119731e-12 	101324.9999999923
0.674424424424424 	299.9999999999775 	2.083250587399542e-12 	101324.9999999924
0.6769269269269262 	299.9999999999333 	1.20725976789973e-12 	101324.9999999926
0.679429429429429 	300.0000000000043 	1.737896716981731e-12 	101324.999999993
0.6819319319319311 	299.9999999999864 	1.303172757555474e-12 	101324.9999999931
0.6844344344344341 	299.9999999999953 	2.284396440386115e-12 	101324.9999999931
0.686936936936936 	299.9999999999907 	1.338847264764277e-12 	101324.999999993
0.6894394394394392 	299.9999999999845 	1.990139945640044e-12 	101324.999999993
0.6919419419419413 	299.9999999999889 	1.654884393879521e-12 	101324.999999993
0.694444444444444 	299.999999999955 	1.606813288866188e-12 	101324.9999999931
0.6969469469469463 	299.999999999946 	1.425016842714142e-12 	101324.9999999932
0.6994494494494489 	299.9999999999349 	4.835604311498086e-13 	101324.9999999932
0.7019519519519515 	299.9999999999885 	1.673041047396374e-12 	101324.9999999932
0.7044544544544538 	299.9999999999579 	1.754445159449699e-12 	101324.999999993
0.7069569569569564 	299.9999999999958 	1.966412703657254e-12 	101324.9999999929
0.7094594594594589 	299.9999999999713 	1.95804621605327e-12 	101324.9999999927
0.7119619619619615 	299.99999999993 	1.306635361850895e-12 	101324.9999999926
0.7144644644644638 	299.9999999999603 	1.137418854228714e-12 	101324.9999999927
0.7169669669669665 	299.9999999999388 	7.44107168783114e-13 	101324.9999999929
0.7194694694694688 	299.9999999999945 	5.974893542031179e-13 	101324.9999999932
0.7219719719719715 	299.9999999999915 	3.202819119120877e-13 	101324.9999999935
0.7244744744744737 	300.0000000000038 	5.428384256836594e-13 	101324.9999999937
0.7269769769769764 	299.999999999996 	9.495675238788558e-13 	101324.9999999939
0.7294794794794791 	299.9999999999897 	1.38084950840805e-12 	101324.999999994
0.7319819819819813 	299.9999999999876 	9.017791179966674e-13 	101324.999999994
0.7344844844844839 	299.9999999999392 	7.682567270558682e-13 	101324.9999999939
0.7369869869869864 	299.9999999999607 	1.263656306954521e-12 	101324.9999999939
0.739489489489489 	299.99999999995 	1.292674989495434e-12 	101324.999999994
0.7419919919919914 	299.9999999999411 	1.203144854506513e-12 	101324.999999994
0.7444944944944939 	299.9999999999829 	2.28214304699143e-12 	101324.999999994
0.7469969969969963 	299.9999999999785 	1.589761277420915e-12 	101324.999999994
0.7494994994994989 	299.999999999955 	2.699277974719052e-12 	101324.999999994
0.7520020020020015 	299.9999999999753 	1.872288235624988e-12 	101324.9999999941
0.7545045045045039 	299.9999999999752 	2.315269472357285e-12 	101324.9999999942
0.7570070070070062 	299.9999999999533 	9.679067849742662e-13 	101324.9999999942
0.7595095095095092 	299.999999999942 	2.146711745229461e-12 	101324.9999999942
0.7620120120120112 	300.0000000000051 	1.814383099429671e-12 	101324.9999999942
0.7645145145145138 	299.9999999999912 	1.974873339906217e-12 	101324.9999999943
0.7670170170170165 	299.9999999999463 	2.102317757218229e-12 	101324.9999999945
0.7695195195195191 	299.9999999999383 	1.598585637045534e-12 	101324.9999999946
0.7720220220220213 	299.99999999995 	3.598645537164887e-12 	101324.9999999945
0.7745245245245239 	299.9999999999506 	2.546022499330873e-12 	101324.9999999944
0.7770270270270263 	299.9999999999754 	3.875942261844607e-12 	101324.9999999945
0.779529529529529 	299.9999999999858 	2.792273622555323e-12 	101324.9999999945
0.7820320320320313 	299.9999999999794 	3.457903236229408e-12 	101324.9999999946
0.784534534534534 	299.9999999999981 	3.364985983403469e-12 	101324.9999999945
0.7870370370370364 	299.9999999999954 	2.982342821146653e-12 	101324.9999999946
0.7895395395395389 	299.9999999999827 	3.653836037414019e-12 	101324.9999999946
0.7920420420420413 	299.9999999999766 	2.483781412137997e-12 	101324.9999999946
0.794544544544544 	299.9999999999779 	3.82354288028607e-12 	101324.9999999945
0.7970470470470463 	300.0000000000002 	2.029319295029019e-12 	101324.9999999946
0.799549549549549 	299.9999999999877 	4.138403446373401e-12 	101324.9999999946
0.8020520520520515 	299.99999999999 	2.124611065665476e-12 	101324.9999999946
0.8045545545545539 	299.9999999999578 	3.959071444454397e-12 	101324.9999999945
0.8070570570570563 	299.9999999999867 	3.050724100427055e-12 	101324.9999999945
0.8095595595595589 	299.9999999999673 	3.632522135658857e-12 	101324.9999999946
0.8120620620620614 	299.9999999999535 	3.332435872926618e-12 	101324.9999999945
0.8145645645645638 	299.9999999999999 	3.36837769716631e-12 	101324.9999999946
0.8170670670670666 	299.9999999999967 	4.251798781566094e-12 	101324.9999999945
0.8195695695695689 	299.9999999999829 	3.583295268641292e-12 	101324.9999999945
0.8220720720720714 	299.9999999999575 	5.913818797013769e-12 	101324.9999999943
0.8245745745745739 	299.9999999999959 	4.028343179822868e-12 	101324.9999999944
0.8270770770770765 	299.9999999999842 	5.637111068672671e-12 	101324.9999999945
0.8295795795795788 	299.9999999999605 	5.113268363040539e-12 	101324.9999999944
0.8320820820820815 	300.0000000000101 	5.767100302770159e-12 	101324.9999999945
0.834584584584584 	300.0000000000015 	5.09952841172695e-12 	101324.9999999946
0.8370870870870865 	299.9999999999671 	4.691943900837524e-12 	101324.9999999946
0.8395895895895891 	299.9999999999421 	5.359762228544302e-12 	101324.9999999945
0.8420920920920915 	299.9999999999578 	4.586830505800148e-12 	101324.9999999946
0.844594594594594 	299.999999999952 	4.766910583634641e-12 	101324.9999999947
0.8470970970970964 	299.9999999999573 	4.669932560198094e-12 	101324.9999999946
0.8495995995995991 	299.9999999999899 	4.675026961087012e-12 	101324.9999999946
0.8521021021021015 	299.9999999999831 	5.04433975501656e-12 	101324.9999999946
0.8546046046046039 	299.99999999998 	4.604143506719805e-12 	101324.9999999947
0.8571071071071066 	299.9999999999982 	5.390962019970055e-12 	101324.9999999949
0.8596096096096089 	299.9999999999715 	3.621591763114958e-12 	101324.9999999949
0.8621121121121116 	299.9999999999457 	5.806002511855547e-12 	101324.9999999947
0.8646146146146139 	299.9999999999937 	3.890464497179677e-12 	101324.9999999945
0.8671171171171166 	299.999999999979 	5.652998967360361e-12 	101324.9999999946
0.8696196196196189 	299.9999999999562 	5.463955839376992e-12 	101324.9999999946
0.8721221221221216 	299.9999999999782 	6.407891517192312e-12 	101324.9999999946
0.874624624624624 	300.0000000000057 	6.701464749885295e-12 	101324.9999999948
0.8771271271271264 	300.0000000000004 	6.45441408407962e-12 	101324.9999999948
0.879629629629629 	300.0000000000009 	6.735836802819555e-12 	101324.9999999949
0.8821321321321317 	299.9999999999865 	4.893061835994002e-12 	101324.9999999947
0.8846346346346339 	299.9999999999406 	7.017373503156804e-12 	101324.9999999946
0.8871371371371364 	299.9999999999639 	5.544872992474731e-12 	101324.9999999947
0.8896396396396391 	299.9999999999683 	7.636931850344605e-12 	101324.9999999948
0.8921421421421414 	299.9999999999724 	7.097404479587326e-12 	101324.9999999948
0.8946446446446441 	299.9999999999862 	8.111685805056766e-12 	101324.9999999948
0.8971471471471464 	299.9999999999991 	7.824095839545874e-12 	101324.9999999948
0.8996496496496489 	299.9999999999839 	7.631322539757382e-12 	101324.999999995
0.9021521521521517 	299.9999999999734 	8.287026017325162e-12 	101324.999999995
0.9046546546546541 	299.9999999999943 	6.950993644878569e-12 	101324.9999999949
0.9071571571571564 	299.9999999999603 	7.181500780352023e-12 	101324.9999999949
0.9096596596596589 	299.9999999999604 	6.839332998752119e-12 	101324.9999999949
0.9121621621621616 	300.0000000000079 	7.051128913878262e-12 	101324.999999995
0.9146646646646639 	299.9999999999829 	6.806281766059483e-12 	101324.999999995
0.9171671671671666 	299.9999999999567 	6.643299782202314e-12 	101324.999999995
0.9196696696696689 	299.9999999999999 	7.092544892016103e-12 	101324.999999995
0.9221721721721714 	300.0000000000004 	6.002128220211872e-12 	101324.9999999949
0.9246746746746741 	299.9999999999571 	8.587022741630242e-12 	101324.9999999949
0.9271771771771765 	299.999999999962 	6.964574628427007e-12 	101324.9999999949
0.9296796796796791 	299.9999999999952 	8.926322850733837e-12 	101324.9999999951
0.9321821821821816 	299.9999999999806 	8.155539797643228e-12 	101324.9999999951
0.9346846846846838 	299.999999999963 	9.654765775154139e-12 	101324.999999995
0.9371871871871866 	300.0000000000121 	9.413397249224891e-12 	101324.9999999949
0.9396896896896891 	300.0000000000122 	9.938530761441171e-12 	101324.9999999948
0.9421921921921914 	300.0000000000074 	1.024074664467038e-11 	101324.9999999948
0.9446946946946939 	299.9999999999731 	9.341722507975166e-12 	101324.9999999947
0.9471971971971965 	299.9999999999399 	1.103422729147938e-11 	101324.9999999947
0.9496996996996991 	299.9999999999653 	9.049606107667673e-12 	101324.999999995
0.9522022022022016 	299.9999999999769 	1.010560110966378e-11 	101324.9999999952
0.9547047047047038 	299.9999999999776 	8.775433575069725e-12 	101324.9999999952
0.9572072072072064 	299.9999999999694 	9.057347982226278e-12 	101324.9999999953
0.9597097097097093 	299.9999999999685 	8.471078918079097e-12 	101324.9999999952
0.9622122122122114 	299.9999999999632 	8.160655485783241e-12 	101324.9999999949
0.964714714714714 	299.9999999999613 	9.158165233213951e-12 	101324.9999999949
0.9672172172172167 	299.9999999999661 	8.201590198614508e-12 	101324.999999995
0.969719719719719 	299.9999999999907 	8.515443459295171e-12 	101324.9999999951
0.9722222222222214 	299.9999999999814 	7.695084749311554e-12 	101324.999999995
0.9747247247247239 	299.9999999999793 	7.851207631589879e-12 	101324.9999999949
0.9772272272272267 	300.000000000002 	7.855287913869329e-12 	101324.999999995
0.9797297297297292 	299.9999999999901 	7.696217109948523e-12 	101324.9999999952
0.9822322322322313 	299.999999999993 	8.030212761309243e-12 	101324.9999999952
0.9847347347347344 	299.9999999999942 	6.584022655724447e-12 	101324.9999999953
0.9872372372372363 	299.9999999999612 	8.552985177467978e-12 	101324.9999999953
0.9897397397397389 	299.9999999999812 	6.937141907795691e-12 	101324.9999999953
0.9922422422422417 	299.9999999999658 	8.64645652679428e-12 	101324.9999999954
0.9947447447447441 	299.9999999999626 	7.434696970392371e-12 	101324.9999999955
0.9972472472472468 	299.9999999999692 	8.458666871416129e-12 	101324.9999999955
0.999749749749749 	299.9999999999716 	8.595325982635965e-12 	101324.9999999957
1.002252252252252 	299.9999999999876 	9.026887317457537e-12 	101324.9999999957
1.004754754754754 	299.9999999999876 	8.953732571819188e-12 	101324.9999999955
1.007257257257256 	299.999999999976 	7.873035874046286e-12 	101324.9999999952
1.009759759759759 	299.9999999999678 	9.35200859495572e-12 	101324.999999995
1.012262262262261 	299.9999999999627 	7.962025596615727e-12 	101324.999999995
1.014764764764764 	299.9999999999435 	9.961552350558806e-12 	101324.999999995
1.017267267267267 	299.9999999999352 	9.470432612376378e-12 	101324.9999999951
1.019769769769769 	299.9999999999635 	1.003489997828003e-11 	101324.9999999953
1.022272272272272 	299.9999999999762 	9.414568552056228e-12 	101324.9999999953
1.024774774774774 	299.9999999999851 	9.36951621462309e-12 	101324.9999999953
1.027277277277277 	299.9999999999809 	9.827928954362914e-12 	101324.9999999951
1.029779779779779 	300.0000000000016 	8.649142079703065e-12 	101324.9999999951
1.032282282282282 	300.0000000000019 	9.248461538952127e-12 	101324.9999999951
1.034784784784784 	299.9999999999942 	8.486543617782205e-12 	101324.9999999952
1.037287287287286 	299.9999999999733 	8.532288073606293e-12 	101324.9999999951
1.039789789789789 	299.9999999999807 	8.386198845739014e-12 	101324.9999999949
1.042292292292291 	300.000000000007 	8.707940307372963e-12 	101324.9999999947
1.044794794794794 	300.0000000000171 	8.967590209172435e-12 	101324.9999999946
1.047297297297296 	300.0000000000283 	7.740473742491187e-12 	101324.9999999947
1.049799799799799 	299.999999999994 	8.614587896894152e-12 	101324.9999999948
1.052302302302302 	299.9999999999707 	6.697375419674655e-12 	101324.999999995
1.054804804804804 	299.9999999999555 	8.050495934645422e-12 	101324.9999999952
1.057307307307306 	299.9999999999414 	7.145607261752831e-12 	101324.9999999953
1.059809809809809 	299.999999999964 	8.245198624343678e-12 	101324.9999999953
1.062312312312312 	299.9999999999602 	8.066858293775947e-12 	101324.9999999953
1.064814814814814 	299.9999999999588 	8.740184725983298e-12 	101324.9999999954
1.067317317317317 	299.9999999999445 	8.490911357131784e-12 	101324.9999999955
1.069819819819819 	299.9999999999451 	7.965234300685202e-12 	101324.9999999954
1.072322322322321 	299.9999999999951 	9.230432534806536e-12 	101324.9999999953
1.074824824824824 	300.0000000000172 	7.542615068184216e-12 	101324.9999999952
1.077327327327327 	300.0000000000285 	8.428885717975707e-12 	101324.9999999952
1.079829829829829 	300.0000000000286 	6.76947443934967e-12 	101324.9999999951
1.082332332332332 	300.0000000000004 	7.114933376813108e-12 	101324.999999995
1.084834834834834 	299.99999999998 	6.63893546101797e-12 	101324.999999995
1.087337337337337 	299.9999999999541 	6.607278520416089e-12 	101324.9999999949
1.089839839839839 	299.9999999999476 	7.734202321819449e-12 	101324.9999999948
1.092342342342342 	299.9999999999756 	6.663914211868717e-12 	101324.999999995
1.094844844844844 	299.9999999999764 	7.688259869086808e-12 	101324.999999995
1.097347347347347 	299.9999999999554 	6.937465135553062e-12 	101324.999999995
1.099849849849849 	299.9999999999441 	9.408316034269825e-12 	101324.9999999949
1.102352352352352 	299.999999999967 	7.799752094481536e-12 	101324.9999999949
1.104854854854854 	299.9999999999865 	9.577763490646867e-12 	101324.9999999949
1.107357357357357 	299.9999999999731 	7.925471464029253e-12 	101324.999999995
1.109859859859859 	299.9999999999601 	9.079317657524127e-12 	101324.9999999951
1.112362362362362 	300.0000000000147 	8.23378131145463e-12 	101324.9999999952
1.114864864864865 	300.0000000000181 	8.445403606997076e-12 	101324.9999999953
1.117367367367367 	299.9999999999768 	9.073321078228679e-12 	101324.9999999952
1.119869869869869 	299.9999999999467 	7.488121259302571e-12 	101324.9999999952
1.122372372372372 	299.9999999999722 	8.12177568774943e-12 	101324.9999999952
1.124874874874874 	299.9999999999695 	6.810945994946012e-12 	101324.9999999951
1.127377377377377 	299.9999999999784 	7.722236911648318e-12 	101324.9999999953
1.129879879879879 	300.0000000000147 	7.235973862181116e-12 	101324.9999999955
1.132382382382382 	300.0000000000178 	7.715926594962051e-12 	101324.9999999955
1.134884884884884 	299.9999999999993 	7.476428652458989e-12 	101324.9999999956
1.137387387387387 	300.0000000000107 	7.274672900939112e-12 	101324.9999999957
1.139889889889889 	299.9999999999699 	8.334645734281882e-12 	101324.9999999957
1.142392392392392 	299.9999999999592 	7.544892760558301e-12 	101324.9999999956
1.144894894894894 	300.0000000000085 	8.40954730027307e-12 	101324.9999999956
1.147397397397397 	300.0000000000008 	7.086831367525007e-12 	101324.9999999956
1.149899899899899 	299.9999999999537 	7.75117583730094e-12 	101324.9999999955
1.152402402402402 	299.999999999945 	7.180298214731171e-12 	101324.9999999955
1.154904904904904 	299.9999999999815 	7.877209727160499e-12 	101324.9999999958
1.157407407407407 	299.9999999999829 	7.302173845283377e-12 	101324.9999999958
1.159909909909909 	299.9999999999541 	6.867675782513355e-12 	101324.9999999957
1.162412412412412 	299.9999999999418 	7.703389326622658e-12 	101324.9999999957
1.164914914914914 	299.9999999999712 	6.609587408329421e-12 	101324.9999999957
1.167417417417417 	299.9999999999818 	8.04661123815696e-12 	101324.9999999956
1.169919919919919 	300.0000000000153 	7.143138964754859e-12 	101324.9999999957
1.172422422422422 	300.0000000000304 	7.525084654903654e-12 	101324.9999999956
1.174924924924925 	299.9999999999899 	6.308051428181397e-12 	101324.9999999955
1.177427427427427 	299.9999999999734 	6.928769400974877e-12 	101324.9999999955
1.179929929929929 	300.0000000000073 	7.991814200962085e-12 	101324.9999999955
1.182432432432432 	300.0000000000227 	6.73957399111672e-12 	101324.9999999955
1.184934934934934 	300.0000000000008 	7.403913919449014e-12 	101324.9999999956
1.187437437437437 	299.9999999999863 	6.503964930186001e-12 	101324.9999999959
1.189939939939939 	299.9999999999815 	7.318395357005147e-12 	101324.9999999959
1.192442442442442 	299.9999999999478 	6.746651461287249e-12 	101324.9999999956
1.194944944944944 	299.9999999999533 	7.486456499370782e-12 	101324.9999999955
1.197447447447447 	300.0000000000051 	6.537114636865931e-12 	101324.9999999953
1.199949949949949 	300.0000000000132 	6.38207753680916e-12 	101324.9999999951
1.202452452452452 	299.9999999999661 	7.246812630311817e-12 	101324.9999999952
1.204954954954955 	299.9999999999627 	6.711101769049499e-12 	101324.9999999953
1.207457457457457 	299.9999999999929 	7.732927147440862e-12 	101324.9999999954
1.20995995995996 	299.9999999999883 	6.983898588643169e-12 	101324.9999999952
1.212462462462462 	299.9999999999833 	7.948478150196208e-12 	101324.9999999951
1.214964964964964 	299.9999999999833 	7.241804548156415e-12 	101324.9999999951
1.217467467467467 	299.9999999999826 	7.766010045465189e-12 	101324.9999999952
1.219969969969969 	299.9999999999716 	6.663677080368701e-12 	101324.9999999952
1.222472472472472 	300.0000000000071 	6.287004558527811e-12 	101324.9999999952
1.224974974974975 	300.0000000000215 	6.226356486432913e-12 	101324.9999999951
1.227477477477477 	299.9999999999894 	5.271937605587757e-12 	101324.9999999951
1.229979979979979 	299.9999999999873 	6.596658687097805e-12 	101324.9999999953
1.232482482482482 	299.9999999999647 	5.936643774212341e-12 	101324.9999999953
1.234984984984984 	299.9999999999641 	7.085318548726832e-12 	101324.9999999953
1.237487487487487 	299.9999999999894 	6.355887177082087e-12 	101324.9999999953
1.239989989989989 	299.9999999999915 	6.988878214488225e-12 	101324.9999999953
1.242492492492492 	300.0000000000124 	7.08418503721873e-12 	101324.9999999953
1.244994994994994 	299.999999999993 	5.993731091925188e-12 	101324.9999999953
1.247497497497497 	299.9999999999987 	6.766518522214982e-12 	101324.9999999953
1.249999999999999 	300.0000000000597 	5.823987330875458e-12 	101324.9999999955
