-1.25 	300 	0.0725760618070618 	101354.3892626146
-1.247497497497497 	300.0291306880436 	0.08139558660301101 	101359.9711852896
-1.244994994994995 	300.0333423172292 	0.09649400932801973 	101364.4170218008
-1.242492492492492 	300.0366460371896 	0.106564826901794 	101368.3283110904
-1.23998998998999 	300.0392845787775 	0.1133936972257857 	101371.4492274021
-1.237487487487487 	300.0411402077747 	0.118911371165545 	101373.643682605
-1.234984984984985 	300.0422128892426 	0.1220588959412411 	101374.9123225436
-1.232482482482482 	300.0425983410754 	0.123145676544938 	101375.3681917275
-1.22997997997998 	300.0422179994872 	0.1220072783150826 	101374.9184212305
-1.227477477477477 	300.041006255184 	0.1185379274560853 	101373.48552693
-1.224974974974975 	300.0390104230847 	0.112758618723513 	101371.125406622
-1.222472472472472 	300.0362824359977 	0.1048459746467414 	101367.8994603015
-1.21996996996997 	300.0328629151052 	0.09493299985374275 	101363.8558291922
-1.217467467467467 	300.0288347537484 	0.08330939454818251 	101359.0925977516
-1.214964964964965 	300.0243199869184 	0.07025388531653705 	101353.7541291243
-1.212462462462462 	300.0193912866238 	0.05598933643613171 	101347.9264291447
-1.20995995995996 	300.0141128078056 	0.04076561825076398 	101341.6854126808
-1.207457457457457 	300.0085958705479 	0.02480654979272987 	101335.162731043
-1.204954954954955 	300.0029263354493 	0.008431974194958539 	101328.459933676
-1.202452452452452 	299.9971817497953 	0.008637125202943276 	101321.6687247026
-1.19994994994995 	299.991477026314 	0.02469884655562983 	101314.9249659093
-1.197447447447447 	299.9859281475688 	0.04075842543922338 	101308.3657196803
-1.194944944944945 	299.9806148635798 	0.05614439794981983 	101302.0852425115
-1.192442442442442 	299.9756120792751 	0.07057872294451414 	101296.1720471221
-1.18993993993994 	299.9710570240839 	0.08371062472737405 	101290.78823812
-1.187437437437437 	299.9670765305818 	0.09524774140919076 	101286.0836949502
-1.184934934934935 	299.9637273664946 	0.1049082345792042 	101282.1254180939
-1.182432432432432 	299.9610519482142 	0.1126018709185768 	101278.9634805676
-1.17992992992993 	299.9590913025386 	0.1182571905101171 	101276.6463072275
-1.177427427427427 	299.9578552582705 	0.12182520468441 	101275.1854448596
-1.174924924924925 	299.9573850699999 	0.1232135450017005 	101274.6297488738
-1.172422422422422 	299.9577286114901 	0.1222352254207046 	101275.0357048619
-1.16991991991992 	299.9588801084592 	0.1188894978657159 	101276.3964378969
-1.167417417417417 	299.9608119083769 	0.1132709763467 	101278.6793646668
-1.164914914914915 	299.9634906619721 	0.1055685900319098 	101281.8450947916
-1.162412412412412 	299.9668290697375 	0.09596006588744369 	101285.7905336238
-1.15990990990991 	299.9707450619597 	0.08458250847329282 	101290.4187351744
-1.157407407407407 	299.9751744426219 	0.07172767189219921 	101295.653874879
-1.154904904904904 	299.9800517334784 	0.05758162011641604 	101301.4186610382
-1.152402402402403 	299.9853076962577 	0.04241510012614274 	101307.6312907513
-1.1498998998999 	299.9908359941358 	0.02655767373149593 	101314.1661359448
-1.147397397397397 	299.9964764699682 	0.01021089749715185 	101320.8339166766
-1.144894894894895 	300.0021422396029 	0.008655238471914083 	101327.5318990007
-1.142392392392392 	300.0077999443654 	0.02259155649577466 	101334.2206867439
-1.13988988988989 	300.0133635050862 	0.03868119002454892 	101340.7984910911
-1.137387387387387 	300.0187186616608 	0.05413218577736101 	101347.130198916
-1.134884884884885 	300.0237313312238 	0.06861921653918371 	101353.0572448166
-1.132382382382382 	300.0282837667046 	0.08179057112803832 	101358.4403118716
-1.12987987987988 	300.0323013761226 	0.09339087489798767 	101363.1911580364
-1.127377377377377 	300.0357318441196 	0.103311373736403 	101367.247845381
-1.124874874874875 	300.0385270633314 	0.1113776332339602 	101370.5534161605
-1.122372372372372 	300.0406334017194 	0.1174530637634981 	101373.0444139195
-1.11986986986987 	300.041989406976 	0.1213693714387149 	101374.6480963903
-1.117367367367367 	300.0425515910648 	0.1229786313986002 	101375.3129910803
-1.114864864864865 	300.0423034721462 	0.1222480384433604 	101375.0195864505
-1.112362362362362 	300.0412507801793 	0.1192004334418759 	101373.774767902
-1.10985985985986 	300.0394314447052 	0.113957062280715 	101371.6233619242
-1.107357357357357 	300.0368944352069 	0.1066276514246835 	101368.6232386536
-1.104854854854855 	300.03367912865 	0.09732831357525711 	101364.8210708901
-1.102352352352353 	300.0298369913672 	0.08621725246211395 	101360.2777753077
-1.09984984984985 	300.0254373155856 	0.07347726205085527 	101355.075358738
-1.097347347347347 	300.0205628904039 	0.05940204221313641 	101349.3117839679
-1.094844844844845 	300.0153256855459 	0.04427999564239359 	101343.1194998589
-1.092342342342342 	300.0098397188014 	0.02839848407637498 	101336.6333707681
-1.08983983983984 	300.004199468314 	0.01207493946708027 	101329.9651283502
-1.087337337337337 	299.9984888924441 	0.008723867438366048 	101323.2140591446
-1.084834834834835 	299.9927765305513 	0.02097234503960627 	101316.4611906087
-1.082332332332332 	299.9871571602491 	0.03718812833390504 	101309.8185557985
-1.07982982982983 	299.9817579170356 	0.05276640398115096 	101303.4364155403
-1.077327327327327 	299.9767060532875 	0.06737285054909554 	101297.4651375724
-1.074824824824825 	299.9721031446918 	0.08068165966338653 	101292.0247334835
-1.072322322322323 	299.968024722898 	0.09246070404724729 	101287.2044067257
-1.06981981981982 	299.96453119022 	0.102569614294777 	101283.0754850391
-1.067317317317317 	299.9616737341908 	0.1108369175371222 	101279.6984010717
-1.064814814814815 	299.9595104411915 	0.1170843522330666 	101277.1417221861
-1.062312312312312 	299.9581075980411 	0.1211257702808797 	101275.4837249453
-1.05980980980981 	299.957494526369 	0.1228711163693325 	101274.7591598333
-1.057307307307307 	299.9576746889343 	0.1223321005815623 	101274.9720483023
-1.054804804804805 	299.9586556781165 	0.1194920724269386 	101276.1312891285
-1.052302302302302 	299.9604334543436 	0.114360643930151 	101278.2321806294
-1.0497997997998 	299.9629631055127 	0.1070417887835419 	101281.2216885725
-1.047297297297297 	299.966149539991 	0.09783690129266129 	101284.9874908065
-1.044794794794795 	299.9698768161643 	0.08707382062183193 	101289.3926275859
-1.042292292292292 	299.974090979477 	0.07486517020261063 	101294.3733641873
-1.03978978978979 	299.9788010241715 	0.06122222354287378 	101299.9404010038
-1.037287287287287 	299.9839818366447 	0.04625350024987134 	101306.0641317037
-1.034784784784785 	299.9895025562357 	0.03033769225875577 	101312.5899403311
-1.032282282282283 	299.9951396852999 	0.01407791396302604 	101319.25368817
-1.02977977977978 	300.0007091932934 	0.008110603247905124 	101325.837811712
-1.027277277277277 	300.006189526489 	0.01796165699782809 	101332.3168062298
-1.024774774774775 	300.0116696327449 	0.03384766997460675 	101338.7958333972
-1.022272272272272 	300.0171690265065 	0.04971520377362534 	101345.2979666818
-1.01976976976977 	300.0225159524431 	0.06508312410474956 	101351.6201442225
-1.017267267267267 	300.0273942343736 	0.07909868188908205 	101357.3884827327
-1.014764764764765 	300.0315133091959 	0.09098457389607523 	101362.2592976506
-1.012262262262262 	300.0347734257429 	0.1004699912598226 	101366.1145251556
-1.00975975975976 	300.0373023689872 	0.1078794335449131 	101369.1051798008
-1.007257257257257 	300.0393300696448 	0.1138049527535712 	101371.5031173752
-1.004754754754755 	300.0409965668085 	0.1186051381138664 	101373.4739423495
-1.002252252252252 	300.0422327108079 	0.1220840147235612 	101374.9358668162
-0.9997497497497498 	300.0427780034613 	0.1235295382842434 	101375.5807768486
-0.9972472472472473 	300.0423025806003 	0.1220412221708804 	101375.0185581094
-0.9947447447447449 	300.0405596056669 	0.1169504407050728 	101372.957490367
-0.9922422422422421 	300.0375035225607 	0.1081463809171327 	101369.3436199476
-0.9897397397397399 	300.0333320893085 	0.09619165792367076 	101364.4108147486
-0.9872372372372376 	300.0284429366271 	0.08219958666919808 	101358.6294481435
-0.9847347347347346 	300.0233236033167 	0.06753117058765236 	101352.5761058686
-0.9822322322322323 	300.0184203174294 	0.05344289103460826 	101346.7784381905
-0.9797297297297296 	300.0140476615953 	0.04083971863384112 	101341.6083659402
-0.9772272272272275 	300.0103692511704 	0.03020639317269658 	101337.2592732339
-0.9747247247247248 	300.0074238653244 	0.02166899910040848 	101333.7769406399
-0.9722222222222224 	300.0051646821034 	0.01510404663730064 	101331.1059552635
-0.9697197197197196 	300.0034969090474 	0.01024610122262485 	101329.1342080894
-0.9672172172172175 	300.0023076401476 	0.006774090524864519 	101327.7281916559
-0.9647147147147147 	300.001486080504 	0.004370372772973139 	101326.7569060775
-0.9622122122122124 	300.0009349678396 	0.002754554545518143 	101326.105357472
-0.9597097097097099 	300.0005752695639 	0.001697816255219428 	101325.680107646
-0.9572072072072073 	300.0003464692148 	0.001024319054332577 	101325.4096107189
-0.9547047047047047 	300.0002044270675 	0.0006054072538041072 	101325.2416826921
-0.9522022022022023 	300.0001182559706 	0.000350799476466033 	101325.1398076249
-0.9496996996996998 	300.0000671153675 	0.000199421962584259 	101325.0793469863
-0.9471971971971973 	300.0000373950833 	0.0001112934487065959 	101325.0442103114
-0.9446946946946947 	300.0000204671908 	6.10109069082113e-05 	101325.0241973881
-0.9421921921921923 	300.0000110101668 	3.287203938391265e-05 	101325.0130168149
-0.93968968968969 	300.0000058243111 	1.741608189213073e-05 	101325.006885813
-0.9371871871871872 	300.0000030312123 	9.077941815143897e-06 	101325.00358367
-0.9346846846846848 	300.0000015527462 	4.6572829262299e-06 	101325.0018357679
-0.9321821821821823 	300.0000007832299 	2.352714205526468e-06 	101325.0009259916
-0.9296796796796799 	300.0000003891889 	1.17076490694016e-06 	101325.000460116
-0.9271771771771771 	300.0000001905652 	5.741113138762481e-07 	101325.0002252994
-0.9246746746746748 	300.0000000919768 	2.775260229578213e-07 	101325.0001087518
-0.9221721721721724 	300.0000000437879 	1.322922191067841e-07 	101325.0000517653
-0.9196696696696698 	300.0000000205565 	6.220662813722214e-08 	101325.000024305
-0.9171671671671672 	300.0000000095029 	2.886232352078193e-08 	101325.0000112594
-0.9146646646646649 	300.0000000043488 	1.321816456808857e-08 	101325.0000051472
-0.9121621621621623 	300.0000000019706 	5.976801777575005e-09 	101325.0000023221
-0.9096596596596597 	300.0000000008591 	2.668684631428945e-09 	101325.0000010335
-0.9071571571571573 	300.0000000003798 	1.176824991130856e-09 	101325.0000004534
-0.9046546546546547 	300.0000000001765 	5.125020660848778e-10 	101325.0000001954
-0.9021521521521524 	300.0000000000592 	2.212745084569538e-10 	101325.0000000823
-0.8996496496496498 	300.0000000000258 	9.394852374512264e-11 	101325.0000000332
-0.8971471471471473 	300.0000000000197 	3.995051939803694e-11 	101325.0000000121
-0.894644644644645 	300.0000000000084 	1.729025529010891e-11 	101325.0000000033
-0.892142142142142 	300.0000000000059 	6.9249197382691e-12 	101324.9999999996
-0.8896396396396397 	300.0000000000078 	4.631565027361466e-12 	101324.9999999981
-0.8871371371371374 	299.9999999999832 	1.939694112470121e-12 	101324.9999999974
-0.8846346346346349 	299.9999999999743 	2.959827703544365e-12 	101324.9999999972
-0.8821321321321324 	299.9999999999756 	2.959380285635953e-12 	101324.9999999972
-0.8796296296296297 	299.9999999999775 	3.017467369787902e-12 	101324.9999999972
-0.8771271271271271 	299.999999999979 	3.18349183861349e-12 	101324.9999999971
-0.8746246246246248 	299.9999999999941 	2.657630399982266e-12 	101324.9999999971
-0.8721221221221224 	300.0000000000006 	2.288541002402555e-12 	101324.999999997
-0.8696196196196196 	299.9999999999878 	1.994185526712383e-12 	101324.999999997
-0.8671171171171175 	299.9999999999953 	1.402873845273217e-12 	101324.999999997
-0.8646146146146148 	299.9999999999732 	1.484792130811258e-12 	101324.9999999969
-0.8621121121121121 	299.9999999999891 	7.106033331997523e-13 	101324.9999999969
-0.8596096096096097 	300.0000000000094 	7.74816747785488e-13 	101324.9999999968
-0.857107107107107 	299.9999999999851 	6.95954392104949e-13 	101324.9999999967
-0.8546046046046049 	299.9999999999939 	5.265896646293261e-13 	101324.9999999966
-0.8521021021021022 	299.9999999999999 	1.925598363043028e-13 	101324.9999999967
-0.8495995995995997 	299.9999999999939 	8.941943179891587e-13 	101324.9999999967
-0.8470970970970974 	299.9999999999708 	6.343914034740868e-13 	101324.9999999967
-0.8445945945945946 	299.9999999999808 	9.15323893744756e-13 	101324.9999999966
-0.8420920920920922 	300.0000000000041 	1.020311542710007e-12 	101324.9999999966
-0.8395895895895897 	299.9999999999967 	2.287193700170265e-12 	101324.9999999969
-0.8370870870870872 	299.999999999998 	1.419865284695679e-12 	101324.9999999971
-0.8345845845845846 	300.000000000002 	2.024448261950558e-12 	101324.999999997
-0.8320820820820823 	299.9999999999786 	1.200877334198134e-12 	101324.9999999971
-0.8295795795795798 	299.9999999999606 	9.100050287292952e-13 	101324.999999997
-0.8270770770770772 	299.9999999999765 	1.132694648513906e-12 	101324.999999997
-0.8245745745745746 	299.9999999999685 	8.913264041131678e-13 	101324.9999999969
-0.8220720720720721 	299.9999999999787 	8.734184153642022e-13 	101324.999999997
-0.8195695695695699 	299.9999999999969 	1.021626614162639e-12 	101324.9999999971
-0.817067067067067 	299.9999999999805 	1.749052445477931e-12 	101324.9999999972
-0.8145645645645651 	299.9999999999661 	1.44003275514499e-12 	101324.9999999972
-0.8120620620620621 	299.9999999999937 	1.044470141967443e-12 	101324.9999999972
-0.8095595595595597 	300.0000000000047 	8.229092438034646e-13 	101324.9999999973
-0.8070570570570572 	299.9999999999739 	5.792090922502503e-13 	101324.9999999971
-0.8045545545545546 	299.9999999999712 	1.079860645643961e-12 	101324.9999999971
-0.8020520520520523 	299.9999999999957 	1.384679438494513e-12 	101324.999999997
-0.7995495495495494 	300.0000000000101 	2.554901821456898e-12 	101324.999999997
-0.7970470470470474 	299.9999999999998 	2.783662699948997e-12 	101324.999999997
-0.7945445445445446 	300.0000000000016 	3.317501906581224e-12 	101324.999999997
-0.7920420420420423 	300.0000000000047 	3.163655471234537e-12 	101324.9999999968
-0.7895395395395397 	300.0000000000045 	3.064632326703177e-12 	101324.9999999967
-0.7870370370370371 	300.0000000000013 	3.02312419371239e-12 	101324.9999999965
-0.7845345345345348 	299.9999999999857 	2.865083313050913e-12 	101324.9999999963
-0.7820320320320323 	299.9999999999851 	2.559747833814368e-12 	101324.9999999963
-0.7795295295295296 	299.9999999999669 	3.383497155245803e-12 	101324.9999999963
-0.7770270270270272 	299.9999999999573 	2.923871081902225e-12 	101324.9999999964
-0.7745245245245247 	299.9999999999558 	3.19818310234218e-12 	101324.9999999963
-0.7720220220220222 	299.9999999999761 	2.635621848868806e-12 	101324.9999999962
-0.7695195195195199 	299.9999999999771 	2.546829740053814e-12 	101324.9999999963
-0.767017017017017 	299.9999999999891 	2.907245572067626e-12 	101324.9999999964
-0.7645145145145147 	300.0000000000043 	3.151096104526505e-12 	101324.9999999966
-0.7620120120120122 	300.0000000000078 	3.815589461123595e-12 	101324.9999999968
-0.7595095095095097 	299.9999999999672 	3.84116964390474e-12 	101324.9999999969
-0.7570070070070072 	299.9999999999688 	5.49456334285083e-12 	101324.9999999968
-0.7545045045045048 	299.9999999999925 	4.427524789341115e-12 	101324.9999999966
-0.7520020020020022 	299.9999999999806 	4.517717617128656e-12 	101324.9999999964
-0.7494994994994997 	299.9999999999778 	3.644945791257712e-12 	101324.9999999961
-0.7469969969969972 	299.9999999999969 	2.097664200942486e-12 	101324.9999999959
-0.7444944944944945 	299.9999999999929 	2.40132207088464e-12 	101324.9999999959
-0.7419919919919924 	299.9999999999943 	9.735275169720631e-13 	101324.9999999961
-0.7394894894894897 	299.9999999999784 	7.596731196461303e-13 	101324.9999999963
-0.7369869869869872 	299.9999999999935 	2.993174872246877e-13 	101324.9999999964
-0.7344844844844846 	299.9999999999841 	8.439630517104702e-13 	101324.9999999963
-0.7319819819819822 	300.0000000000016 	7.291837504586384e-13 	101324.9999999961
-0.7294794794794797 	299.9999999999993 	1.811488965446939e-12 	101324.9999999961
-0.7269769769769773 	300.0000000000055 	7.80941370112011e-13 	101324.999999996
-0.7244744744744747 	300.0000000000079 	9.374304902800081e-13 	101324.9999999961
-0.721971971971972 	299.999999999978 	7.712452107888616e-13 	101324.9999999962
-0.7194694694694695 	299.9999999999908 	9.050594516246353e-13 	101324.9999999963
-0.7169669669669674 	299.9999999999679 	4.589998493175453e-13 	101324.9999999964
-0.7144644644644647 	299.9999999999875 	1.382858738693974e-13 	101324.9999999966
-0.711961961961962 	300.0000000000045 	1.24107798761038e-13 	101324.9999999964
-0.7094594594594597 	300.0000000000061 	7.938260270067982e-13 	101324.9999999964
-0.7069569569569573 	300.0000000000106 	1.197458471879005e-12 	101324.9999999964
-0.7044544544544545 	300.0000000000128 	3.875959670380452e-13 	101324.9999999965
-0.7019519519519523 	300.0000000000036 	5.249623818241618e-13 	101324.9999999966
-0.6994494494494495 	299.9999999999666 	4.483949643320817e-13 	101324.9999999964
-0.6969469469469471 	299.9999999999725 	1.080436057446323e-12 	101324.9999999965
-0.6944444444444446 	299.9999999999796 	1.426714794899469e-12 	101324.9999999964
-0.6919419419419421 	300.0000000000118 	1.578028392345159e-12 	101324.9999999964
-0.6894394394394396 	299.9999999999981 	1.203599093525207e-12 	101324.9999999964
-0.6869369369369374 	300.0000000000047 	1.412493222051968e-12 	101324.9999999965
-0.6844344344344344 	300.0000000000091 	8.27156258595902e-13 	101324.9999999965
-0.6819319319319321 	299.9999999999808 	1.244124195410357e-12 	101324.9999999966
-0.6794294294294296 	299.9999999999728 	1.282209667210862e-12 	101324.9999999968
-0.6769269269269272 	299.9999999999603 	1.303091944606456e-12 	101324.9999999967
-0.6744244244244245 	299.9999999999843 	6.997088227048409e-13 	101324.9999999968
-0.6719219219219222 	299.999999999981 	1.536128639085082e-13 	101324.9999999969
-0.6694194194194195 	299.9999999999991 	4.628982872726396e-13 	101324.9999999967
-0.6669169169169172 	300.0000000000075 	6.023127725205692e-13 	101324.9999999965
-0.6644144144144146 	299.9999999999815 	6.344785842968398e-13 	101324.9999999964
-0.661911911911912 	299.999999999983 	4.694028444582145e-13 	101324.9999999966
-0.6594094094094097 	299.9999999999872 	1.005970454050136e-12 	101324.9999999966
-0.656906906906907 	299.9999999999707 	8.025918073285271e-13 	101324.9999999967
-0.6544044044044046 	299.9999999999733 	2.081948918132901e-12 	101324.9999999967
-0.6519019019019021 	299.9999999999945 	1.229016602697973e-12 	101324.9999999968
-0.6493993993993996 	300.0000000000117 	2.180616644445039e-12 	101324.9999999968
-0.6468968968968971 	300.0000000000156 	1.91022436874132e-12 	101324.9999999967
-0.6443943943943946 	299.9999999999975 	1.494485127766502e-12 	101324.9999999966
-0.6418918918918921 	299.9999999999966 	1.503734934782404e-12 	101324.9999999964
-0.6393893893893897 	299.9999999999978 	1.11852555503295e-12 	101324.9999999963
-0.6368868868868871 	299.999999999987 	6.917396514891939e-13 	101324.9999999965
-0.6343843843843846 	299.9999999999981 	6.577249281792166e-13 	101324.9999999966
-0.6318818818818821 	299.9999999999784 	4.758335856756784e-13 	101324.9999999966
-0.6293793793793795 	300.0000000000018 	3.907659757243908e-13 	101324.9999999967
-0.6268768768768773 	300.0000000000078 	4.42169057458692e-13 	101324.9999999969
-0.6243743743743745 	299.9999999999901 	4.231064984902069e-13 	101324.9999999971
-0.6218718718718721 	300.0000000000025 	1.723794946182845e-12 	101324.9999999973
-0.6193693693693696 	299.9999999999712 	1.495485282773454e-12 	101324.9999999973
-0.6168668668668671 	299.9999999999914 	2.328087084614495e-12 	101324.9999999973
-0.6143643643643645 	300.0000000000067 	1.761540554463787e-12 	101324.9999999974
-0.6118618618618621 	299.9999999999936 	2.19155816100438e-12 	101324.9999999973
-0.6093593593593596 	299.999999999993 	1.459125595383507e-12 	101324.9999999973
-0.6068568568568571 	299.9999999999931 	9.766079535572329e-13 	101324.9999999973
-0.6043543543543546 	299.999999999982 	5.976811774360331e-13 	101324.9999999972
-0.6018518518518521 	299.9999999999849 	1.310673038174672e-12 	101324.9999999971
-0.5993493493493496 	299.9999999999727 	1.432821093768209e-12 	101324.999999997
-0.5968468468468471 	299.9999999999781 	2.163844411158738e-12 	101324.9999999969
-0.5943443443443446 	299.999999999997 	1.336926905206621e-12 	101324.9999999967
-0.591841841841842 	299.99999999998 	1.76843924608498e-12 	101324.9999999966
-0.5893393393393397 	299.9999999999767 	1.275084319373862e-12 	101324.9999999964
-0.5868368368368371 	299.9999999999953 	1.413551534961149e-12 	101324.9999999964
-0.5843343343343346 	300 	2.048937663957463e-12 	101324.9999999966
-0.5818318318318321 	300.0000000000139 	1.647202107267138e-12 	101324.9999999967
-0.5793293293293297 	299.9999999999933 	1.54885536370806e-12 	101324.9999999966
-0.5768268268268271 	300.0000000000013 	1.990226162257844e-12 	101324.9999999966
-0.5743243243243245 	300.0000000000109 	1.007747239319249e-12 	101324.9999999966
-0.5718218218218221 	300.0000000000109 	1.582939491945847e-12 	101324.9999999967
-0.5693193193193196 	300.0000000000212 	1.906396303127822e-12 	101324.9999999967
-0.5668168168168171 	299.9999999999939 	1.004852345157199e-12 	101324.9999999966
-0.5643143143143147 	299.9999999999743 	1.484011505428895e-12 	101324.9999999964
-0.5618118118118121 	300.000000000006 	6.375121695268196e-13 	101324.9999999964
-0.5593093093093094 	300.0000000000164 	1.598551600123674e-12 	101324.9999999964
-0.5568068068068072 	300.0000000000081 	9.625920299666464e-13 	101324.9999999963
-0.5543043043043046 	300.0000000000096 	1.035402202173685e-12 	101324.9999999964
-0.551801801801802 	299.9999999999784 	5.396229965393978e-13 	101324.9999999966
-0.5492992992992995 	299.9999999999989 	5.461598754878609e-13 	101324.9999999966
-0.5467967967967969 	300.0000000000076 	6.724580706816368e-13 	101324.9999999968
-0.5442942942942947 	300.0000000000048 	1.073682449816062e-12 	101324.9999999971
-0.5417917917917919 	299.9999999999815 	9.482132626342689e-13 	101324.9999999971
-0.5392892892892895 	299.9999999999687 	1.336558018927478e-12 	101324.9999999972
-0.536786786786787 	299.99999999998 	7.073331698400913e-13 	101324.9999999975
-0.5342842842842846 	299.9999999999833 	9.756036908433472e-13 	101324.9999999975
-0.531781781781782 	299.9999999999706 	2.773004493255963e-13 	101324.9999999976
-0.5292792792792794 	299.9999999999677 	2.155808123435748e-12 	101324.9999999973
-0.526776776776777 	299.9999999999595 	1.241579308293563e-12 	101324.999999997
-0.5242742742742745 	299.9999999999903 	3.010829505464842e-12 	101324.9999999971
-0.521771771771772 	300.0000000000068 	2.997633900270135e-12 	101324.9999999973
-0.5192692692692695 	299.9999999999817 	3.429401035391899e-12 	101324.9999999973
-0.516766766766767 	300.0000000000008 	3.324518755268078e-12 	101324.9999999974
-0.5142642642642645 	299.9999999999842 	2.738075714990947e-12 	101324.9999999976
-0.511761761761762 	299.9999999999775 	2.47873084553559e-12 	101324.9999999975
-0.5092592592592596 	299.9999999999874 	1.974216690679253e-12 	101324.9999999975
-0.506756756756757 	299.9999999999754 	1.468468564345213e-12 	101324.9999999972
-0.5042542542542544 	299.9999999999985 	2.050091942190888e-12 	101324.9999999972
-0.5017517517517521 	300.0000000000138 	8.657286624060234e-13 	101324.999999997
-0.4992492492492494 	300.0000000000155 	1.408054120769858e-12 	101324.9999999968
-0.496746746746747 	299.9999999999953 	4.648124883274945e-13 	101324.9999999966
-0.4942442442442445 	299.9999999999712 	1.164383062027428e-12 	101324.9999999966
-0.4917417417417421 	299.9999999999712 	7.218740796026149e-13 	101324.9999999968
-0.4892392392392395 	299.999999999979 	1.2159507481866e-12 	101324.9999999969
-0.486736736736737 	299.9999999999795 	6.340708684362617e-13 	101324.9999999967
-0.4842342342342345 	299.9999999999636 	1.925950511473457e-12 	101324.9999999966
-0.481731731731732 	300.0000000000163 	9.449728359399e-13 	101324.9999999967
-0.4792292292292296 	300.0000000000106 	2.304477980279988e-12 	101324.9999999967
-0.4767267267267268 	299.9999999999812 	7.732245024834656e-13 	101324.9999999966
-0.4742242242242246 	300.0000000000005 	3.020170278522914e-12 	101324.9999999967
-0.471721721721722 	299.9999999999818 	1.301359718238834e-12 	101324.9999999968
-0.4692192192192195 	299.9999999999928 	1.925847768524189e-12 	101324.999999997
-0.4667167167167169 	299.9999999999604 	8.833863816588786e-13 	101324.999999997
-0.4642142142142145 	299.999999999997 	1.256046943201497e-12 	101324.9999999971
-0.461711711711712 	300.0000000000085 	6.043932527244015e-13 	101324.9999999971
-0.4592092092092094 	300.0000000000031 	1.089498811493764e-12 	101324.9999999971
-0.456706706706707 	300.0000000000238 	6.034992525247178e-13 	101324.999999997
-0.4542042042042045 	299.9999999999734 	1.140886089160428e-12 	101324.9999999971
-0.451701701701702 	299.9999999999779 	1.099921070980643e-12 	101324.9999999969
-0.4491991991991995 	299.9999999999822 	1.03704518524875e-12 	101324.9999999966
-0.4466966966966969 	299.9999999999811 	2.146890401024126e-13 	101324.9999999967
-0.4441941941941945 	299.9999999999976 	7.706649311082969e-13 	101324.9999999969
-0.441691691691692 	299.9999999999826 	4.743144319705916e-13 	101324.9999999968
-0.4391891891891895 	299.9999999999949 	2.284055413984494e-12 	101324.9999999967
-0.436686686686687 	299.9999999999866 	1.290051997963053e-12 	101324.9999999968
-0.4341841841841846 	299.9999999999996 	3.243274646846424e-12 	101324.9999999969
-0.431681681681682 	299.9999999999776 	7.504584455116042e-13 	101324.9999999968
-0.4291791791791794 	299.999999999968 	2.206472675711242e-12 	101324.999999997
-0.426676676676677 	299.9999999999621 	1.000540703906265e-12 	101324.9999999972
-0.4241741741741744 	299.9999999999864 	2.605261638227097e-12 	101324.9999999972
-0.421671671671672 	300.0000000000031 	1.791102809563055e-12 	101324.9999999973
-0.4191691691691694 	300.0000000000226 	1.7117562874134e-12 	101324.9999999972
-0.4166666666666669 	300.0000000000271 	3.776032579628932e-13 	101324.9999999972
-0.4141641641641645 	299.9999999999721 	1.297358274459975e-13 	101324.9999999971
-0.411661661661662 	300.0000000000015 	1.055513227746047e-13 	101324.9999999969
-0.4091591591591594 	300.0000000000053 	4.375733631684506e-13 	101324.9999999969
-0.406656656656657 	299.9999999999774 	1.527512056838274e-13 	101324.9999999968
-0.4041541541541545 	300.0000000000078 	4.408511681406673e-13 	101324.9999999967
-0.401651651651652 	299.9999999999662 	5.210610047870761e-13 	101324.9999999967
-0.3991491491491494 	300.0000000000019 	1.730030452605172e-12 	101324.9999999968
-0.396646646646647 	299.9999999999811 	1.803219362274e-12 	101324.9999999969
-0.3941441441441444 	299.9999999999914 	2.301358551794213e-12 	101324.999999997
-0.3916416416416419 	299.9999999999716 	1.702745639832724e-12 	101324.9999999971
-0.3891391391391395 	299.999999999982 	1.939608600365883e-12 	101324.9999999972
-0.3866366366366368 	299.9999999999813 	4.461763217263861e-13 	101324.999999997
-0.3841341341341344 	300.000000000001 	1.730758811444652e-12 	101324.9999999971
-0.381631631631632 	299.9999999999782 	1.124927299364633e-12 	101324.9999999971
-0.3791291291291294 	300.0000000000019 	6.906752263690678e-13 	101324.9999999972
-0.3766266266266269 	300.0000000000105 	2.987464366823648e-13 	101324.9999999971
-0.3741241241241244 	300.000000000011 	1.151843141190421e-12 	101324.999999997
-0.371621621621622 	300.0000000000101 	8.398335270756414e-13 	101324.9999999969
-0.3691191191191194 	300.0000000000051 	1.804945596078881e-12 	101324.9999999969
-0.366616616616617 	300.0000000000056 	1.450164972773596e-12 	101324.999999997
-0.3641141141141143 	299.9999999999893 	1.438772412758913e-12 	101324.9999999969
-0.3616116116116119 	299.9999999999737 	1.320561472024913e-12 	101324.9999999968
-0.3591091091091095 	299.9999999999896 	7.838699388018223e-13 	101324.9999999966
-0.356606606606607 	299.9999999999923 	3.371680230787846e-13 	101324.9999999966
-0.3541041041041044 	299.9999999999984 	7.29549214439552e-13 	101324.9999999967
-0.3516016016016019 	300.0000000000102 	1.47158628699075e-12 	101324.9999999968
-0.3490990990990994 	299.9999999999976 	6.217726107160106e-13 	101324.9999999965
-0.346596596596597 	300.0000000000124 	2.311367498085061e-12 	101324.9999999965
-0.3440940940940944 	300.0000000000151 	7.824263863129776e-13 	101324.9999999965
-0.3415915915915919 	300.0000000000133 	2.36869128608506e-12 	101324.9999999966
-0.3390890890890895 	299.9999999999922 	7.80273320489206e-13 	101324.9999999964
-0.3365865865865869 	300.0000000000054 	1.233964307350386e-12 	101324.9999999963
-0.3340840840840844 	299.9999999999944 	8.158490874749314e-13 	101324.9999999961
-0.3315815815815819 	300.0000000000095 	1.514875241350934e-12 	101324.9999999963
-0.3290790790790794 	300.0000000000123 	1.606229844426865e-12 	101324.9999999962
-0.3265765765765769 	299.9999999999706 	1.673026468668848e-12 	101324.9999999963
-0.3240740740740744 	300.000000000001 	1.428874671730583e-12 	101324.9999999963
-0.3215715715715718 	300.0000000000069 	2.210271067411398e-12 	101324.9999999967
-0.3190690690690695 	299.9999999999729 	1.30621169621809e-12 	101324.9999999966
-0.3165665665665668 	299.9999999999951 	1.749826038025394e-12 	101324.9999999965
-0.3140640640640644 	299.9999999999972 	2.807462456417023e-13 	101324.9999999966
-0.311561561561562 	299.9999999999673 	2.182703672058224e-12 	101324.9999999968
-0.3090590590590593 	299.9999999999993 	1.180604134972156e-12 	101324.9999999966
-0.3065565565565568 	300.0000000000031 	3.190428141660557e-12 	101324.9999999965
-0.3040540540540545 	299.9999999999977 	1.012432670862139e-12 	101324.9999999962
-0.3015515515515518 	300.0000000000118 	3.271770114070861e-12 	101324.999999996
-0.2990490490490494 	299.9999999999715 	1.587841178230267e-12 	101324.9999999959
-0.2965465465465469 	299.9999999999984 	2.565406681754594e-12 	101324.9999999959
-0.2940440440440444 	299.9999999999946 	1.99508539140173e-12 	101324.999999996
-0.2915415415415418 	300.000000000006 	2.19060126622368e-12 	101324.9999999961
-0.2890390390390395 	300.0000000000075 	2.82872854160672e-12 	101324.9999999963
-0.2865365365365368 	299.9999999999864 	1.405534136806567e-12 	101324.9999999963
-0.2840340340340343 	299.9999999999981 	2.792857036839118e-12 	101324.999999996
-0.2815315315315318 	299.9999999999633 	1.193623664514574e-12 	101324.9999999957
-0.2790290290290295 	299.9999999999853 	2.179278680420284e-12 	101324.9999999956
-0.2765265265265269 	300.0000000000053 	1.056139892145883e-12 	101324.9999999956
-0.2740240240240244 	300.000000000008 	1.705311523191841e-12 	101324.9999999956
-0.2715215215215219 	300.0000000000071 	2.40317183508691e-12 	101324.9999999955
-0.2690190190190194 	299.9999999999735 	2.864699931013368e-12 	101324.9999999956
-0.2665165165165169 	299.9999999999959 	3.879966397774036e-12 	101324.9999999958
-0.2640140140140144 	299.9999999999904 	3.469872345480735e-12 	101324.9999999957
-0.2615115115115119 	299.9999999999976 	5.108882791325551e-12 	101324.9999999959
-0.2590090090090094 	299.9999999999653 	3.469973791002465e-12 	101324.9999999959
-0.2565065065065068 	299.9999999999951 	3.819565545560505e-12 	101324.9999999958
-0.2540040040040044 	299.9999999999927 	3.155147602053943e-12 	101324.999999996
-0.2515015015015019 	300.0000000000106 	2.873285533331354e-12 	101324.9999999961
-0.2489989989989994 	300.0000000000173 	3.707590372327983e-12 	101324.9999999963
-0.2464964964964968 	299.9999999999906 	2.168079668599882e-12 	101324.9999999959
-0.2439939939939944 	299.9999999999911 	4.391956589906703e-12 	101324.9999999957
-0.2414914914914919 	299.999999999981 	2.189959784514181e-12 	101324.999999996
-0.2389889889889893 	299.999999999996 	4.54587563196991e-12 	101324.9999999958
-0.2364864864864869 	300.0000000000088 	2.288594465451768e-12 	101324.9999999957
-0.2339839839839843 	299.9999999999759 	4.610658649691244e-12 	101324.9999999956
-0.2314814814814819 	299.9999999999891 	2.364764707091941e-12 	101324.9999999959
-0.2289789789789792 	299.9999999999638 	4.441635549033064e-12 	101324.999999996
-0.2264764764764769 	299.9999999999744 	3.21290590572378e-12 	101324.9999999963
-0.2239739739739743 	299.9999999999868 	4.305499476175604e-12 	101324.9999999966
-0.2214714714714718 	299.9999999999742 	3.737593276525714e-12 	101324.9999999964
-0.2189689689689693 	299.9999999999842 	3.015114565018515e-12 	101324.9999999963
-0.2164664664664669 	299.9999999999895 	4.050609229209253e-12 	101324.9999999963
-0.2139639639639643 	299.9999999999688 	2.441715446379748e-12 	101324.9999999963
-0.2114614614614618 	299.9999999999865 	3.19768947472009e-12 	101324.9999999961
-0.2089589589589593 	300.0000000000003 	2.991561057483705e-12 	101324.9999999961
-0.2064564564564568 	300.0000000000007 	2.68488056290475e-12 	101324.9999999963
-0.2039539539539543 	299.9999999999644 	3.185953981161921e-12 	101324.9999999964
-0.2014514514514518 	299.9999999999673 	1.257366159560187e-12 	101324.9999999964
-0.1989489489489494 	299.9999999999885 	3.147661120076033e-12 	101324.9999999962
-0.1964464464464468 	300.0000000000044 	7.327329305935795e-13 	101324.999999996
-0.1939439439439443 	299.9999999999995 	3.443503158207624e-12 	101324.9999999959
-0.1914414414414418 	299.9999999999695 	2.705702060758641e-12 	101324.999999996
-0.1889389389389393 	299.9999999999981 	3.934245033659051e-12 	101324.9999999962
-0.1864364364364368 	300.0000000000109 	4.083451969309856e-12 	101324.999999996
-0.1839339339339343 	299.9999999999876 	3.91619754251491e-12 	101324.9999999957
-0.1814314314314318 	299.9999999999937 	4.071696411552785e-12 	101324.9999999958
-0.1789289289289293 	299.9999999999558 	4.555169118765547e-12 	101324.999999996
-0.1764264264264268 	299.9999999999889 	4.155444942700647e-12 	101324.9999999959
-0.1739239239239243 	299.999999999956 	4.240242393680355e-12 	101324.9999999959
-0.1714214214214218 	299.9999999999951 	2.740253975043204e-12 	101324.9999999959
-0.1689189189189193 	299.9999999999753 	3.510091579043894e-12 	101324.9999999957
-0.1664164164164168 	299.9999999999982 	1.89636145725386e-12 	101324.9999999956
-0.1639139139139143 	299.9999999999929 	4.876286908641762e-12 	101324.9999999957
-0.1614114114114118 	300.0000000000064 	1.28239912053319e-12 	101324.9999999957
-0.1589089089089093 	300.0000000000003 	6.813712143678706e-12 	101324.9999999959
-0.1564064064064068 	299.9999999999866 	6.717782734498076e-13 	101324.9999999959
-0.1539039039039043 	299.999999999998 	7.394450978263012e-12 	101324.9999999959
-0.1514014014014018 	300.0000000000103 	1.969760733030218e-12 	101324.9999999958
-0.1488988988988993 	299.9999999999989 	7.779035598436954e-12 	101324.9999999956
-0.1463963963963968 	300.0000000000011 	3.055555434880853e-12 	101324.9999999955
-0.1438938938938943 	299.9999999999836 	6.669731779650159e-12 	101324.9999999957
-0.1413913913913918 	299.9999999999654 	3.561606760958882e-12 	101324.9999999959
-0.1388888888888893 	299.9999999999881 	5.151496718315626e-12 	101324.9999999958
-0.1363863863863868 	299.999999999952 	3.897087096138687e-12 	101324.9999999958
-0.1338838838838843 	299.9999999999704 	3.909377197879212e-12 	101324.9999999955
-0.1313813813813818 	299.9999999999968 	2.940805471278416e-12 	101324.9999999954
-0.1288788788788793 	299.9999999999816 	3.476840565575068e-12 	101324.9999999953
-0.1263763763763768 	299.999999999988 	2.870456094762826e-12 	101324.9999999954
-0.1238738738738743 	299.9999999999725 	3.752163067281213e-12 	101324.9999999951
-0.1213713713713717 	299.9999999999962 	2.470622299098972e-12 	101324.999999995
-0.1188688688688693 	300.0000000000074 	4.694040180486577e-12 	101324.9999999949
-0.1163663663663668 	299.9999999999559 	2.642641989442691e-12 	101324.9999999949
-0.1138638638638643 	299.9999999999936 	5.404840980436119e-12 	101324.9999999954
-0.1113613613613618 	299.9999999999941 	2.796528710706342e-12 	101324.9999999954
-0.1088588588588592 	299.9999999999914 	6.06058717336699e-12 	101324.9999999955
-0.1063563563563568 	299.999999999984 	2.932245436004652e-12 	101324.9999999956
-0.1038538538538543 	299.9999999999935 	5.482857910586894e-12 	101324.9999999954
-0.1013513513513517 	300.0000000000043 	4.104900072154615e-12 	101324.9999999953
-0.09884884884884926 	299.9999999999803 	5.383126533259586e-12 	101324.9999999952
-0.09634634634634676 	299.9999999999597 	4.12361789981488e-12 	101324.9999999952
-0.09384384384384425 	299.9999999999627 	4.18276559399321e-12 	101324.9999999951
-0.09134134134134177 	300.000000000006 	3.536588459212509e-12 	101324.9999999952
-0.08883883883883925 	300.0000000000041 	4.097086031938584e-12 	101324.9999999952
-0.08633633633633674 	299.9999999999774 	3.536914298911706e-12 	101324.9999999952
-0.08383383383383426 	300.0000000000011 	3.403846153057166e-12 	101324.9999999953
-0.08133133133133173 	299.999999999986 	3.950567245442216e-12 	101324.9999999955
-0.07882882882882926 	299.999999999953 	3.943753347676635e-12 	101324.9999999958
-0.07632632632632676 	299.9999999999839 	4.008881805956405e-12 	101324.9999999957
-0.07382382382382424 	299.9999999999551 	3.431798211115052e-12 	101324.9999999957
-0.07132132132132173 	300.0000000000039 	2.792201943475529e-12 	101324.9999999956
-0.06881881881881925 	299.9999999999829 	2.336382421648819e-12 	101324.9999999954
-0.06631631631631671 	299.999999999953 	1.846946824591425e-12 	101324.9999999956
-0.06381381381381425 	299.9999999999812 	1.370284046222091e-12 	101324.9999999954
-0.06131131131131173 	299.9999999999824 	1.605431461898151e-12 	101324.9999999953
-0.05880880880880923 	299.9999999999667 	1.611471238136497e-12 	101324.9999999952
-0.05630630630630672 	299.9999999999831 	1.781865391987302e-12 	101324.9999999953
-0.05380380380380424 	300.0000000000064 	1.869919666249884e-12 	101324.9999999956
-0.05130130130130173 	300.0000000000069 	1.651443914073947e-12 	101324.9999999958
-0.04879879879879922 	299.9999999999762 	1.290967394858394e-12 	101324.9999999957
-0.04629629629629672 	299.9999999999709 	6.315759103951593e-13 	101324.9999999952
-0.04379379379379422 	299.9999999999602 	9.787997827690933e-13 	101324.9999999954
-0.04129129129129173 	299.9999999999923 	7.099178802834159e-13 	101324.9999999953
-0.03878878878878922 	299.9999999999931 	1.339304036657951e-12 	101324.9999999954
-0.03628628628628671 	299.9999999999919 	1.014754447387599e-12 	101324.9999999954
-0.03378378378378422 	299.9999999999683 	1.195693251010038e-12 	101324.9999999952
-0.03128128128128172 	299.9999999999843 	2.51693052765571e-13 	101324.9999999952
-0.02877877877877922 	299.9999999999838 	5.34871897847056e-13 	101324.9999999955
-0.0262762762762767 	299.9999999999565 	1.90256126475487e-13 	101324.9999999956
-0.02377377377377422 	300.000000000007 	3.473218226164046e-13 	101324.9999999957
-0.0212712712712717 	299.9999999999571 	6.478021622760092e-13 	101324.9999999955
-0.01876876876876921 	299.9999999999864 	2.487957497582997e-14 	101324.9999999953
-0.01626626626626671 	300.0000000000032 	9.186743309062368e-13 	101324.9999999953
-0.0137637637637642 	299.9999999999824 	4.531488800321055e-13 	101324.9999999952
-0.0112612612612617 	300.0000000000035 	5.66140968165873e-13 	101324.999999995
-0.008758758758759198 	299.9999999999971 	5.763246187692273e-13 	101324.9999999952
-0.006256256256256697 	299.9999999999522 	7.444472655240927e-13 	101324.9999999953
-0.003753753753754195 	299.9999999999789 	7.799938155750194e-14 	101324.9999999953
-0.001251251251251693 	299.9999999999665 	6.484444142074813e-13 	101324.9999999952
0.00125125125125081 	299.9999999999791 	5.747776841319648e-13 	101324.9999999952
0.003753753753753312 	299.9999999999832 	1.273586097327151e-12 	101324.9999999952
0.006256256256255817 	299.9999999999509 	9.428301688653804e-13 	101324.999999995
0.008758758758758317 	299.9999999999944 	3.181137288649172e-13 	101324.999999995
0.01126126126126082 	300.0000000000026 	2.104815705926589e-13 	101324.9999999951
0.01376376376376332 	299.9999999999852 	3.348929591635212e-13 	101324.9999999953
0.01626626626626582 	300.0000000000023 	5.4651605035155e-13 	101324.9999999954
0.01876876876876833 	299.9999999999806 	4.694677034610008e-13 	101324.9999999958
0.02127127127127083 	299.9999999999882 	6.334686982359242e-13 	101324.9999999958
0.02377377377377332 	299.9999999999981 	6.36797242692075e-13 	101324.9999999958
0.02627627627627583 	299.9999999999591 	6.238995212282219e-13 	101324.9999999958
0.02877877877877833 	299.9999999999994 	1.126423736695984e-12 	101324.9999999957
0.03128128128128083 	299.9999999999744 	7.848699556043485e-13 	101324.9999999954
0.03378378378378333 	299.9999999999548 	1.336457118835654e-12 	101324.9999999954
0.03628628628628584 	299.9999999999898 	2.054603337916289e-12 	101324.9999999951
0.03878878878878834 	299.9999999999923 	2.159410536021562e-12 	101324.999999995
0.04129129129129084 	299.9999999999868 	2.446609200944324e-12 	101324.9999999951
0.04379379379379333 	299.9999999999712 	2.910725745485481e-12 	101324.9999999951
0.04629629629629585 	299.9999999999504 	3.596804724549932e-12 	101324.999999995
0.04879879879879834 	299.9999999999783 	4.147994160449285e-12 	101324.999999995
0.05130130130130085 	300.0000000000034 	3.756372119058998e-12 	101324.999999995
0.05380380380380335 	300.0000000000107 	2.804891573899102e-12 	101324.9999999954
0.05630630630630584 	299.9999999999945 	2.476901948178821e-12 	101324.9999999956
0.05880880880880836 	299.9999999999671 	2.510320800419218e-12 	101324.9999999957
0.06131131131131085 	299.9999999999895 	3.196308546383357e-12 	101324.9999999959
0.06381381381381336 	299.9999999999816 	2.753528899098544e-12 	101324.9999999958
0.06631631631631586 	299.9999999999501 	2.275093460679437e-12 	101324.9999999959
0.06881881881881835 	299.9999999999761 	2.055148456354756e-12 	101324.9999999962
0.07132132132132088 	299.9999999999986 	1.443527827442036e-12 	101324.9999999961
0.07382382382382337 	299.9999999999587 	1.542789951683508e-12 	101324.999999996
0.07632632632632587 	299.9999999999861 	1.873570749976665e-12 	101324.9999999963
0.07882882882882837 	299.9999999999721 	1.964588159430082e-12 	101324.9999999961
0.08133133133133086 	299.9999999999966 	3.111857470659623e-12 	101324.999999996
0.08383383383383337 	299.9999999999967 	3.239415655686304e-12 	101324.9999999961
0.08633633633633589 	299.999999999958 	4.14304871622006e-12 	101324.9999999959
0.08883883883883838 	300.0000000000048 	4.673851071605358e-12 	101324.9999999961
0.09134134134134086 	299.9999999999954 	4.025600855451183e-12 	101324.9999999961
0.09384384384384339 	299.9999999999569 	4.635016983711569e-12 	101324.999999996
0.09634634634634588 	299.9999999999845 	4.265952919027661e-12 	101324.9999999959
0.09884884884884838 	299.9999999999877 	4.041883692792625e-12 	101324.9999999959
0.1013513513513509 	300.0000000000124 	2.889523407084736e-12 	101324.9999999959
0.1038538538538534 	299.9999999999752 	2.269267303136912e-12 	101324.999999996
0.1063563563563559 	300.0000000000048 	2.682567360333064e-12 	101324.9999999959
0.1088588588588584 	300.0000000000093 	1.912717169290178e-12 	101324.9999999959
0.1113613613613609 	299.9999999999741 	2.199039162739672e-12 	101324.9999999959
0.1138638638638634 	299.9999999999787 	2.361154679861492e-12 	101324.9999999958
0.1163663663663659 	299.9999999999749 	3.250133890977186e-12 	101324.9999999956
0.1188688688688684 	299.9999999999834 	3.487913308976542e-12 	101324.9999999955
0.1213713713713709 	299.9999999999955 	3.900043902409174e-12 	101324.9999999954
0.1238738738738734 	299.9999999999649 	3.860466550400197e-12 	101324.9999999956
0.1263763763763759 	299.9999999999939 	4.011715615103648e-12 	101324.9999999954
0.1288788788788784 	299.9999999999941 	3.63219035079024e-12 	101324.9999999955
0.1313813813813809 	299.9999999999936 	4.219030029287973e-12 	101324.9999999956
0.1338838838838834 	299.9999999999855 	4.353101442544636e-12 	101324.9999999955
0.1363863863863859 	300.0000000000106 	4.370811981546622e-12 	101324.9999999955
0.1388888888888884 	300.000000000017 	3.875332319541165e-12 	101324.9999999957
0.1413913913913909 	299.9999999999985 	3.811706024634937e-12 	101324.9999999958
0.1438938938938934 	299.9999999999965 	3.293744724196072e-12 	101324.9999999957
0.1463963963963959 	299.9999999999836 	3.165112845743281e-12 	101324.9999999956
0.1488988988988985 	299.9999999999616 	3.736723420842148e-12 	101324.9999999961
0.1514014014014009 	299.9999999999839 	3.415917871672025e-12 	101324.9999999962
0.1539039039039035 	299.9999999999804 	4.282429038472779e-12 	101324.9999999961
0.1564064064064059 	299.9999999999816 	2.676923196615275e-12 	101324.9999999958
0.1589089089089084 	299.9999999999882 	4.835746774612442e-12 	101324.9999999954
0.1614114114114109 	299.9999999999866 	2.945245000094966e-12 	101324.9999999952
0.1639139139139134 	299.9999999999636 	4.081644883954779e-12 	101324.9999999952
0.166416416416416 	299.9999999999974 	4.073727816928142e-12 	101324.9999999953
0.1689189189189185 	300.0000000000123 	4.232273867749384e-12 	101324.9999999954
0.1714214214214209 	299.9999999999922 	4.965246134525587e-12 	101324.9999999954
0.1739239239239235 	299.9999999999945 	4.385645947894043e-12 	101324.9999999957
0.1764264264264259 	299.9999999999804 	4.790410913983793e-12 	101324.9999999958
0.1789289289289284 	300.0000000000029 	2.059440777999262e-12 	101324.9999999958
0.181431431431431 	299.9999999999864 	4.046877515158411e-12 	101324.9999999958
0.1839339339339334 	299.9999999999895 	2.608001474040058e-12 	101324.9999999958
0.186436436436436 	299.9999999999714 	4.059736360045843e-12 	101324.9999999956
0.1889389389389385 	299.9999999999907 	4.200203758999026e-12 	101324.9999999954
0.191441441441441 	299.9999999999901 	3.79331480260137e-12 	101324.9999999956
0.1939439439439434 	299.9999999999672 	4.752083470170632e-12 	101324.9999999956
0.196446446446446 	299.9999999999808 	3.523192288836744e-12 	101324.9999999958
0.1989489489489485 	299.999999999987 	5.586830527437271e-12 	101324.999999996
0.2014514514514509 	299.9999999999923 	3.947379383698273e-12 	101324.9999999961
0.2039539539539535 	299.9999999999941 	4.453218308570504e-12 	101324.9999999959
0.2064564564564559 	299.9999999999818 	3.847299350643777e-12 	101324.999999996
0.2089589589589585 	299.9999999999915 	4.409730883109199e-12 	101324.9999999959
0.211461461461461 	299.999999999976 	4.423997947660021e-12 	101324.9999999958
0.2139639639639635 	299.9999999999959 	4.180179595244608e-12 	101324.9999999957
0.2164664664664659 	300.0000000000013 	4.526165516515275e-12 	101324.9999999958
0.2189689689689684 	299.999999999999 	3.636150178888937e-12 	101324.9999999957
0.221471471471471 	299.9999999999992 	5.253968797907115e-12 	101324.9999999958
0.2239739739739735 	299.9999999999803 	3.733042194929019e-12 	101324.9999999959
0.226476476476476 	299.9999999999931 	5.003633466795983e-12 	101324.9999999957
0.2289789789789785 	299.9999999999993 	4.055510458997547e-12 	101324.9999999958
0.231481481481481 	299.9999999999933 	3.475397755933296e-12 	101324.999999996
0.2339839839839835 	299.9999999999923 	3.854782226236994e-12 	101324.9999999961
0.236486486486486 	300.0000000000088 	2.973293945427434e-12 	101324.999999996
0.2389889889889885 	299.9999999999995 	3.856393718587786e-12 	101324.9999999959
0.241491491491491 	299.9999999999681 	2.400233473437629e-12 	101324.9999999959
0.2439939939939935 	299.9999999999943 	4.74754705126519e-12 	101324.9999999961
0.246496496496496 	299.9999999999929 	2.799998623691312e-12 	101324.9999999959
0.2489989989989985 	300.0000000000096 	3.608758880829707e-12 	101324.9999999962
0.251501501501501 	300.0000000000071 	2.252618923024956e-12 	101324.9999999962
0.2540040040040035 	299.9999999999943 	1.807977932705206e-12 	101324.9999999958
0.256506506506506 	300.0000000000065 	2.312579998917392e-12 	101324.9999999958
0.2590090090090086 	299.9999999999616 	1.760914619984701e-12 	101324.9999999957
0.261511511511511 	300.0000000000035 	3.807910252412868e-12 	101324.9999999957
0.2640140140140135 	299.9999999999935 	1.49734828485347e-12 	101324.9999999958
0.2665165165165161 	299.9999999999721 	2.584663914772616e-12 	101324.9999999961
0.2690190190190185 	300.0000000000074 	1.560730824816958e-12 	101324.999999996
0.271521521521521 	299.9999999999994 	1.708527676178924e-12 	101324.999999996
0.2740240240240235 	300.0000000000038 	1.962927980243037e-12 	101324.9999999962
0.276526526526526 	300.0000000000006 	1.213113555498177e-12 	101324.9999999961
0.2790290290290286 	299.9999999999753 	1.880765637300806e-12 	101324.9999999961
0.281531531531531 	299.9999999999654 	6.301177426374441e-13 	101324.9999999962
0.2840340340340335 	299.9999999999917 	2.416202726792809e-12 	101324.9999999962
0.2865365365365361 	299.9999999999825 	9.690159401864523e-13 	101324.9999999958
0.2890390390390385 	299.9999999999954 	1.794214294695212e-12 	101324.9999999956
0.291541541541541 	299.9999999999961 	1.400963930148022e-12 	101324.9999999956
0.2940440440440436 	299.9999999999955 	1.281883690598082e-12 	101324.9999999955
0.296546546546546 	299.9999999999934 	1.410016926176161e-12 	101324.9999999957
0.2990490490490486 	299.9999999999681 	5.39794588722739e-13 	101324.9999999961
0.3015515515515511 	300.0000000000103 	2.354756645791997e-12 	101324.999999996
0.3040540540540535 	299.9999999999907 	1.320953238630714e-12 	101324.9999999961
0.3065565565565562 	299.9999999999969 	3.097687606933662e-12 	101324.9999999961
0.3090590590590585 	299.9999999999926 	9.536864858937269e-13 	101324.9999999959
0.3115615615615611 	299.9999999999693 	2.720855769589184e-12 	101324.999999996
0.3140640640640635 	299.9999999999973 	1.061914423806888e-12 	101324.9999999963
0.316566566566566 	299.9999999999932 	2.222490972120077e-12 	101324.9999999966
0.3190690690690687 	299.9999999999799 	9.373728131879025e-13 	101324.9999999967
0.3215715715715711 	300.0000000000034 	1.501478229098879e-12 	101324.9999999967
0.3240740740740735 	299.9999999999956 	5.852069589798266e-13 	101324.9999999967
0.326576576576576 	299.9999999999566 	7.399231180901287e-13 	101324.9999999967
0.3290790790790786 	299.9999999999998 	4.32259193051174e-13 	101324.9999999968
0.3315815815815811 	300.0000000000169 	4.422272370291898e-13 	101324.9999999965
0.3340840840840836 	299.9999999999981 	4.28800567433051e-13 	101324.9999999966
0.3365865865865861 	300.0000000000258 	7.958057616867654e-13 	101324.9999999966
0.3390890890890886 	300.0000000000197 	2.815281656191774e-13 	101324.9999999966
0.3415915915915911 	300.0000000000001 	3.448154224256008e-13 	101324.9999999965
0.3440940940940935 	299.999999999977 	1.243163126500386e-12 	101324.9999999965
0.3465965965965962 	300.0000000000167 	1.000556340263362e-12 	101324.9999999967
0.3490990990990985 	300.0000000000121 	3.732629320453489e-13 	101324.9999999969
0.3516016016016011 	299.9999999999923 	2.437846834634638e-13 	101324.9999999967
0.3541041041041035 	300.000000000004 	4.100542998381381e-13 	101324.9999999968
0.3566066066066061 	299.9999999999828 	6.286311296025367e-13 	101324.9999999968
0.3591091091091085 	299.9999999999667 	6.634660433124665e-13 	101324.9999999966
0.3616116116116112 	299.9999999999743 	1.066699169358246e-12 	101324.9999999965
0.3641141141141137 	299.9999999999691 	1.258373891655413e-12 	101324.9999999964
0.3666166166166161 	299.9999999999671 	1.444797460977075e-12 	101324.9999999967
0.3691191191191185 	300.0000000000118 	2.223823851024207e-12 	101324.9999999968
0.371621621621621 	300.0000000000072 	8.624049752019488e-13 	101324.9999999968
0.3741241241241237 	300.0000000000207 	1.405003608772973e-12 	101324.9999999968
0.3766266266266261 	300.0000000000088 	5.447544805419398e-13 	101324.9999999968
0.3791291291291286 	299.9999999999926 	6.74078820137896e-13 	101324.9999999968
0.3816316316316311 	299.9999999999678 	6.408915463451749e-13 	101324.9999999967
0.3841341341341336 	300.0000000000017 	6.365226575364333e-13 	101324.9999999966
0.3866366366366362 	299.9999999999968 	9.062165887824178e-13 	101324.9999999966
0.3891391391391387 	299.9999999999816 	7.211266646500022e-13 	101324.9999999968
0.391641641641641 	299.9999999999987 	8.723313783043405e-13 	101324.9999999968
0.3941441441441436 	300.0000000000039 	6.935967143370644e-13 	101324.9999999967
0.3966466466466462 	300.0000000000001 	1.346965935452695e-12 	101324.9999999966
0.3991491491491486 	299.9999999999794 	1.179861407338276e-12 	101324.9999999964
0.4016516516516512 	299.9999999999666 	1.505059418601993e-12 	101324.9999999965
0.4041541541541536 	299.999999999981 	4.643296533590973e-13 	101324.9999999964
0.4066566566566561 	299.9999999999797 	1.734706042821303e-12 	101324.9999999964
0.4091591591591587 	299.9999999999976 	1.067253191624456e-12 	101324.9999999964
0.4116616616616612 	300.0000000000045 	1.175130071331335e-12 	101324.9999999966
0.4141641641641635 	300.0000000000164 	1.0586443461431e-12 	101324.9999999966
0.4166666666666662 	299.9999999999982 	2.445417671744611e-12 	101324.9999999966
0.4191691691691687 	299.9999999999757 	2.955722224530813e-12 	101324.9999999966
0.421671671671671 	300.0000000000049 	2.645728711445721e-12 	101324.9999999965
0.4241741741741737 	299.9999999999875 	3.842436983811156e-12 	101324.9999999964
0.4266766766766761 	299.9999999999788 	1.086237216351746e-12 	101324.9999999964
0.4291791791791785 	300.0000000000089 	3.654335288165401e-12 	101324.9999999963
0.4316816816816812 	300.000000000002 	6.997106468642524e-13 	101324.9999999963
0.4341841841841836 	299.9999999999909 	3.35003494461909e-12 	101324.9999999962
0.4366866866866862 	299.9999999999667 	8.048713562467744e-13 	101324.9999999965
0.4391891891891885 	299.9999999999979 	2.16337906319049e-12 	101324.9999999966
0.4416916916916913 	299.9999999999956 	1.480190796056422e-12 	101324.9999999968
0.4441941941941936 	299.9999999999946 	2.043527932384297e-12 	101324.9999999968
0.4466966966966961 	299.9999999999692 	1.822149129262239e-12 	101324.9999999968
0.4491991991991987 	299.9999999999949 	1.762448591550982e-12 	101324.9999999967
0.4517017017017012 	299.9999999999944 	2.754244724215076e-12 	101324.9999999968
0.4542042042042035 	299.999999999994 	2.295181567345383e-12 	101324.9999999967
0.4567067067067062 	299.9999999999975 	2.512752107444642e-12 	101324.9999999967
0.4592092092092087 	299.9999999999703 	1.566176225681898e-12 	101324.9999999967
0.4617117117117112 	300.0000000000073 	1.382361624632425e-12 	101324.9999999967
0.4642142142142137 	299.9999999999855 	1.41441157591894e-12 	101324.9999999966
0.4667167167167162 	299.9999999999963 	1.897648753536399e-12 	101324.9999999966
0.4692192192192187 	299.9999999999821 	2.815363421767056e-12 	101324.9999999963
0.4717217217217212 	300.0000000000056 	3.458641791951843e-12 	101324.9999999963
0.4742242242242236 	299.9999999999813 	4.110051435816971e-12 	101324.9999999962
0.4767267267267262 	299.9999999999909 	3.829866051112971e-12 	101324.9999999966
0.4792292292292287 	300.0000000000055 	4.156821647944974e-12 	101324.9999999964
0.4817317317317312 	300.0000000000121 	3.782753141784625e-12 	101324.9999999964
0.4842342342342336 	299.999999999993 	3.807726383525499e-12 	101324.9999999966
0.4867367367367362 	299.9999999999816 	3.972961581370882e-12 	101324.9999999966
0.4892392392392387 	300.0000000000097 	3.832041959642173e-12 	101324.9999999967
0.4917417417417412 	300.0000000000012 	4.7810031084013e-12 	101324.9999999966
0.4942442442442437 	299.9999999999611 	3.945181381465721e-12 	101324.9999999965
0.4967467467467462 	299.9999999999682 	4.440278570777075e-12 	101324.9999999966
0.4992492492492487 	299.9999999999662 	2.219498030766379e-12 	101324.9999999964
0.5017517517517511 	299.9999999999803 	3.393973624994403e-12 	101324.9999999964
0.5042542542542537 	299.999999999986 	2.795818206788627e-12 	101324.9999999966
0.5067567567567562 	299.9999999999786 	3.239201375567951e-12 	101324.9999999966
0.5092592592592589 	299.9999999999876 	2.922463912238768e-12 	101324.9999999967
0.5117617617617611 	299.9999999999835 	2.433348595691358e-12 	101324.9999999967
0.5142642642642637 	299.9999999999952 	3.206399393886189e-12 	101324.9999999966
0.5167667667667663 	299.999999999989 	1.908165520875447e-12 	101324.9999999966
0.5192692692692688 	299.9999999999685 	3.642202078139862e-12 	101324.9999999968
0.5217717717717714 	299.999999999972 	1.008810224940202e-12 	101324.9999999967
0.5242742742742736 	299.9999999999722 	2.916552136910787e-12 	101324.9999999968
0.5267767767767763 	299.9999999999828 	5.843484471457428e-13 	101324.9999999967
0.5292792792792789 	299.9999999999744 	1.973754788002654e-12 	101324.9999999967
0.5317817817817813 	299.9999999999634 	6.339329776225734e-13 	101324.9999999967
0.5342842842842837 	300.0000000000065 	1.182622304693061e-12 	101324.9999999967
0.5367867867867864 	300.0000000000002 	1.012729163191505e-12 	101324.9999999968
0.5392892892892888 	299.9999999999824 	8.513485974954786e-13 	101324.9999999968
0.5417917917917912 	300.0000000000001 	6.662689152970546e-13 	101324.9999999967
0.5442942942942938 	299.9999999999908 	9.803154637411657e-13 	101324.9999999964
0.5467967967967964 	299.9999999999806 	8.501522205089187e-13 	101324.9999999963
0.5492992992992988 	299.9999999999721 	1.024278113078649e-12 	101324.9999999964
0.5518018018018012 	299.9999999999724 	7.569056036509499e-13 	101324.9999999965
0.5543043043043039 	300.0000000000075 	9.635704114100324e-13 	101324.9999999966
0.5568068068068063 	299.999999999995 	9.075064319786591e-13 	101324.9999999965
0.5593093093093087 	299.9999999999624 	1.485477435283523e-12 	101324.9999999963
0.5618118118118114 	299.9999999999839 	5.377444638419407e-13 	101324.9999999963
0.5643143143143137 	299.9999999999768 	4.96453583894407e-13 	101324.9999999963
0.5668168168168163 	299.9999999999956 	4.189309645828157e-13 	101324.9999999961
0.5693193193193188 	300.0000000000144 	9.592109803790645e-13 	101324.9999999959
0.5718218218218213 	300.0000000000127 	1.280920273313163e-12 	101324.999999996
0.5743243243243239 	300.0000000000048 	1.335041240745469e-12 	101324.999999996
0.5768268268268262 	300.0000000000006 	2.152412289206166e-12 	101324.999999996
0.5793293293293288 	299.9999999999807 	1.006268922773654e-12 	101324.9999999961
0.5818318318318314 	299.9999999999698 	2.544125683171714e-12 	101324.9999999964
0.5843343343343338 	299.9999999999928 	1.272038054577315e-12 	101324.9999999966
0.5868368368368363 	299.9999999999874 	2.35043778503606e-12 	101324.9999999968
0.5893393393393387 	299.9999999999743 	8.513372442916417e-13 	101324.9999999966
0.5918418418418413 	299.9999999999754 	2.163489845907002e-12 	101324.9999999963
0.5943443443443439 	300.0000000000052 	1.776272227732912e-12 	101324.9999999962
0.5968468468468463 	300.0000000000067 	2.035984758206558e-12 	101324.9999999962
0.5993493493493487 	300.0000000000189 	1.554475151199379e-12 	101324.9999999963
0.6018518518518514 	299.9999999999911 	1.856451297754923e-12 	101324.9999999962
0.6043543543543537 	299.9999999999978 	1.805847641683816e-12 	101324.9999999963
0.6068568568568564 	299.9999999999916 	1.847948931862904e-12 	101324.9999999966
0.6093593593593587 	299.9999999999692 	1.679989364538114e-12 	101324.9999999967
0.6118618618618614 	299.9999999999688 	1.57419322041191e-12 	101324.9999999968
0.6143643643643638 	300.0000000000029 	1.335703791145907e-12 	101324.9999999967
0.6168668668668662 	299.9999999999935 	1.826845542900501e-12 	101324.9999999964
0.6193693693693688 	299.9999999999819 	1.107693203220236e-12 	101324.9999999961
0.6218718718718714 	299.9999999999862 	2.105069099677229e-12 	101324.999999996
0.6243743743743737 	299.9999999999717 	1.181900207533411e-12 	101324.9999999958
0.6268768768768762 	299.9999999999677 	2.161450365549919e-12 	101324.9999999956
0.629379379379379 	299.999999999976 	1.162749652021428e-12 	101324.9999999958
0.6318818818818812 	299.9999999999833 	1.716802939420693e-12 	101324.9999999959
0.6343843843843838 	300.0000000000041 	1.573842419856683e-12 	101324.999999996
0.6368868868868864 	299.9999999999914 	1.790321167270812e-12 	101324.9999999961
0.6393893893893888 	299.9999999999695 	2.217245564859953e-12 	101324.999999996
0.6418918918918912 	300.0000000000016 	1.114301654392759e-12 	101324.9999999959
0.6443943943943939 	299.9999999999948 	2.878237228104942e-12 	101324.9999999958
0.6468968968968963 	299.9999999999901 	1.325939633320321e-12 	101324.9999999958
0.6493993993993988 	299.9999999999876 	2.160383412164354e-12 	101324.9999999958
0.6519019019019012 	299.9999999999847 	8.703420733688898e-13 	101324.9999999958
0.6544044044044038 	299.9999999999578 	1.853501184070275e-12 	101324.9999999956
0.6569069069069065 	299.9999999999837 	5.332009561360279e-13 	101324.9999999957
0.6594094094094087 	299.9999999999806 	1.365568776175031e-12 	101324.9999999956
0.6619119119119113 	299.9999999999775 	5.192588019983105e-13 	101324.9999999956
0.664414414414414 	299.9999999999967 	5.621695676993082e-13 	101324.9999999955
0.6669169169169162 	300.0000000000043 	4.075835722092276e-13 	101324.9999999957
0.6694194194194188 	299.9999999999934 	6.507216189179253e-13 	101324.9999999957
0.6719219219219214 	299.9999999999729 	3.383163450765002e-13 	101324.9999999958
0.674424424424424 	299.9999999999907 	6.15333888662738e-13 	101324.9999999958
0.6769269269269262 	299.9999999999658 	3.631050866687583e-13 	101324.9999999958
0.679429429429429 	300.0000000000015 	5.364334413218593e-13 	101324.9999999958
0.6819319319319311 	299.9999999999888 	4.655806977918554e-13 	101324.9999999959
0.6844344344344341 	299.9999999999962 	7.675362386191825e-13 	101324.9999999961
0.686936936936936 	299.9999999999951 	4.701227190085449e-13 	101324.999999996
0.6894394394394392 	299.9999999999942 	5.070063464737078e-13 	101324.999999996
0.6919419419419413 	299.9999999999939 	6.017436467118457e-14 	101324.9999999961
0.694444444444444 	299.9999999999806 	1.019676001306036e-13 	101324.9999999961
0.6969469469469463 	299.9999999999702 	2.471085353992511e-13 	101324.9999999962
0.6994494494494489 	299.9999999999644 	5.977042947505716e-13 	101324.9999999963
0.7019519519519515 	299.9999999999927 	9.606903036687352e-13 	101324.9999999961
0.7044544544544538 	299.9999999999795 	1.032499184987913e-12 	101324.9999999959
0.7069569569569564 	299.9999999999977 	1.488008247479998e-12 	101324.9999999958
0.7094594594594589 	299.9999999999849 	8.943599457339195e-13 	101324.9999999958
0.7119619619619615 	299.9999999999628 	1.637015240532873e-12 	101324.9999999957
0.7144644644644638 	299.9999999999766 	9.183300919876457e-13 	101324.9999999956
0.7169669669669665 	299.9999999999673 	1.341737168241303e-12 	101324.9999999958
0.7194694694694688 	299.9999999999971 	3.982579607423436e-13 	101324.999999996
0.7219719719719715 	299.9999999999972 	6.823601211133933e-13 	101324.9999999961
0.7244744744744737 	300.0000000000009 	8.587165457806376e-13 	101324.9999999961
0.7269769769769764 	299.9999999999968 	7.895549568775505e-13 	101324.999999996
0.7294794794794791 	299.9999999999937 	1.735576160520433e-12 	101324.9999999958
0.7319819819819813 	299.9999999999923 	1.048303059409601e-12 	101324.9999999958
0.7344844844844839 	299.9999999999691 	1.125006691316013e-12 	101324.9999999957
0.7369869869869864 	299.9999999999819 	5.684392881709309e-13 	101324.9999999957
0.739489489489489 	299.9999999999756 	2.07685803583394e-13 	101324.9999999958
0.7419919919919914 	299.9999999999714 	7.347299935657059e-13 	101324.9999999958
0.7444944944944939 	299.9999999999902 	1.390685022442782e-12 	101324.9999999958
0.7469969969969963 	299.9999999999875 	1.482191032725898e-12 	101324.9999999959
0.7494994994994989 	299.999999999976 	2.464628386445212e-12 	101324.9999999958
0.7520020020020015 	299.9999999999857 	1.652297505435913e-12 	101324.9999999957
0.7545045045045039 	299.9999999999862 	2.694363858215172e-12 	101324.9999999957
0.7570070070070062 	299.9999999999767 	7.16616041446178e-13 	101324.9999999958
0.7595095095095092 	299.9999999999692 	1.966215918884456e-12 	101324.9999999959
0.7620120120120112 	300.0000000000003 	1.354022105005555e-12 	101324.9999999959
0.7645145145145138 	299.9999999999932 	1.292582155337892e-12 	101324.9999999959
0.7670170170170165 	299.9999999999711 	1.78898569680057e-12 	101324.9999999956
0.7695195195195191 	299.9999999999674 	1.13541744146662e-12 	101324.9999999955
0.7720220220220213 	299.999999999975 	1.853303408897955e-12 	101324.9999999955
0.7745245245245239 	299.9999999999768 	1.251203000820425e-12 	101324.9999999955
0.7770270270270263 	299.9999999999865 	1.323601378533701e-12 	101324.9999999956
0.779529529529529 	299.9999999999886 	3.882333894627045e-13 	101324.9999999955
0.7820320320320313 	299.9999999999861 	5.455344432332654e-13 	101324.9999999956
0.784534534534534 	299.999999999999 	5.224672198846637e-13 	101324.9999999958
0.7870370370370364 	299.9999999999967 	7.963738689777493e-13 	101324.9999999958
0.7895395395395389 	299.9999999999899 	1.32773353949827e-12 	101324.9999999957
0.7920420420420413 	299.9999999999907 	1.284231125661401e-12 	101324.9999999957
0.794544544544544 	299.9999999999953 	2.28787394552265e-12 	101324.9999999956
0.7970470470470463 	300.0000000000025 	1.569161616981027e-12 	101324.9999999955
0.799549549549549 	299.9999999999926 	2.146763076685189e-12 	101324.9999999954
0.8020520520520515 	299.999999999995 	9.615068815323326e-13 	101324.9999999955
0.8045545545545539 	299.9999999999779 	1.682029966156392e-12 	101324.9999999956
0.8070570570570563 	299.9999999999963 	1.00996665998013e-12 	101324.9999999957
0.8095595595595589 	299.9999999999854 	1.380873153603282e-12 	101324.9999999959
0.8120620620620614 	299.9999999999724 	1.506776371297663e-12 	101324.9999999958
0.8145645645645638 	299.9999999999941 	1.332598897299927e-12 	101324.9999999958
0.8170670670670666 	299.999999999993 	1.888644738335355e-12 	101324.9999999958
0.8195695695695689 	299.9999999999879 	1.422255125854518e-12 	101324.999999996
0.8220720720720714 	299.9999999999755 	1.502259331482478e-12 	101324.9999999961
0.8245745745745739 	299.9999999999997 	7.908214177613617e-13 	101324.9999999961
0.8270770770770765 	299.9999999999903 	8.832409146109541e-13 	101324.9999999961
0.8295795795795788 	299.9999999999791 	1.316964286271325e-13 	101324.9999999963
0.8320820820820815 	300.0000000000076 	4.344907823410021e-13 	101324.9999999963
0.834584584584584 	300.000000000004 	1.059129905747369e-12 	101324.9999999961
0.8370870870870865 	299.9999999999869 	1.446114156286525e-12 	101324.9999999959
0.8395895895895891 	299.9999999999662 	7.151845420337751e-13 	101324.9999999958
0.8420920920920915 	299.9999999999709 	5.85395489223367e-13 	101324.9999999955
0.844594594594594 	299.9999999999692 	1.545600716497386e-13 	101324.9999999955
0.8470970970970964 	299.9999999999745 	4.494628691713418e-13 	101324.9999999955
0.8495995995995991 	299.9999999999916 	8.118648367702463e-13 	101324.9999999955
0.8521021021021015 	299.9999999999905 	1.061770451677349e-12 	101324.9999999957
0.8546046046046039 	299.9999999999892 	9.02476523108931e-13 	101324.9999999959
0.8571071071071066 	299.9999999999964 	1.842396022002456e-12 	101324.9999999961
0.8596096096096089 	299.99999999998 	1.585544421237692e-12 	101324.9999999962
0.8621121121121116 	299.9999999999692 	1.554586747189116e-12 	101324.9999999963
0.8646146146146139 	299.9999999999934 	7.649615156352305e-13 	101324.9999999963
0.8671171171171166 	299.9999999999897 	1.094146645689651e-12 	101324.9999999963
0.8696196196196189 	299.9999999999812 	8.077586790932174e-13 	101324.9999999962
0.8721221221221216 	299.9999999999843 	1.286888193369574e-12 	101324.9999999962
0.874624624624624 	299.9999999999993 	1.246554351747366e-12 	101324.9999999959
0.8771271271271264 	300.0000000000024 	6.276099579372162e-13 	101324.9999999955
0.879629629629629 	299.9999999999965 	2.375734053826398e-12 	101324.9999999946
0.8821321321321317 	299.9999999999897 	6.816299901628855e-12 	101324.999999993
0.8846346346346339 	299.9999999999637 	1.678299637898354e-11 	101324.9999999889
0.8871371371371364 	299.9999999999642 	4.474834290858086e-11 	101324.9999999787
0.8896396396396391 	299.9999999999433 	1.088495159445729e-10 	101324.999999954
0.8921421421421414 	299.9999999998954 	2.641998506505699e-10 	101324.9999998944
0.8946446446446441 	299.9999999997889 	6.301176771272959e-10 	101324.999999753
0.8971471471471464 	299.9999999995126 	1.486588167268045e-09 	101324.9999994211
0.8996496496496489 	299.9999999988509 	3.466817012115394e-09 	101324.999998653
0.9021521521521517 	299.9999999973603 	7.988260626613781e-09 	101324.9999968967
0.9046546546546541 	299.9999999940168 	1.818579215853058e-08 	101324.9999929308
0.9071571571571564 	299.9999999865219 	4.088692866635478e-08 	101324.9999840897
0.9096596596596589 	299.9999999700684 	9.076571660525678e-08 	101324.9999646369
0.9121621621621616 	299.9999999343719 	1.988977463743077e-07 	101324.999922405
0.9146646646646639 	299.9999998578692 	4.301184674437413e-07 	101324.9998319691
0.9171671671671666 	299.9999996963413 	9.176276857639761e-07 	101324.9996410123
0.9196696696696689 	299.9999993601974 	1.930758723463448e-06 	101324.9992435776
0.9221721721721714 	299.9999986708321 	4.005222834003762e-06 	101324.9984285663
0.9246746746746741 	299.9999972785023 	8.188546997636134e-06 	101324.9967824981
0.9271771771771765 	299.9999945102085 	1.649314513216645e-05 	101324.9935096602
0.9296796796796791 	299.9999890942977 	3.271449897573841e-05 	101324.9871066414
0.9321821821821816 	299.9999786737127 	6.387473658053862e-05 	101324.9747868603
0.9346846846846838 	299.9999589665458 	0.000122706750947196 	101324.9514880209
0.9371871871871866 	299.9999223563491 	0.0002318151282232469 	101324.9082055769
0.9396896896896891 	299.9998555935438 	0.0004304430866222669 	101324.8292753915
0.9421921921921914 	299.9997361675164 	0.0007851236046529936 	101324.6880845833
0.9446946946946939 	299.9995267856627 	0.001405836669094194 	101324.4405447478
0.9471971971971965 	299.9991673200917 	0.002469494116781169 	101324.0155715028
0.9496996996996991 	299.998563638887 	0.004252372442918414 	101323.301881723
0.9522022022022016 	299.9975730686657 	0.007172105773760257 	101322.1308100774
0.9547047047047038 	299.9959870305336 	0.01183748179562304 	101320.255787748
0.9572072072072064 	299.9935128714583 	0.01909993224698406 	101317.3308784463
0.9597097097097093 	299.9897592510303 	0.03009381320069869 	101312.8935333371
0.9622122122122114 	299.9842326199035 	0.04624343652040429 	101306.3604848234
0.964714714714714 	299.976355921821 	0.0692046301824276 	101297.0499493029
0.9672172172172167 	299.9655236023672 	0.1007005131145463 	101284.2467864451
0.969719719719719 	299.9512074456754 	0.1422105925370092 	101267.3277461315
0.9722222222222214 	299.9331231037879 	0.1944865994034773 	101245.9583647452
0.9747247247247239 	299.9114546943587 	0.2569055224278973 	101220.3582253849
0.9772272272272267 	299.8871120983378 	0.3267516944306083 	101191.604371146
0.9797297297297292 	299.8619328556733 	0.3987324300120226 	101161.8686671042
0.9822322322322313 	299.8386014193574 	0.4653013320670994 	101134.3210732994
0.9847347347347344 	299.8200962331334 	0.5181664019067904 	101112.476086235
0.9872372372372363 	299.8088323119272 	0.5506089259542259 	101099.1812272078
0.9897397397397389 	299.8058507304295 	0.5597402532200403 	101095.66103344
0.9922422422422417 	299.8103244255884 	0.547892142067917 	101100.940898207
0.9947447447447441 	299.8195680480346 	0.5226174300889906 	101111.8546318262
0.9972472472472468 	299.8296174024346 	0.494984333636236 	101123.7178801172
0.999749749749749 	299.836455009344 	0.47597504676158 	101131.789838616
1.002252252252252 	299.8377660303065 	0.4718835506475979 	101133.3384801638
1.004754754754754 	299.8340768184273 	0.4814013411668661 	101128.98285666
1.007257257257256 	299.8283452652719 	0.4966012666640782 	101122.214959449
1.009759759759759 	299.8242893385604 	0.5075173741017103 	101117.4270063831
1.012262262262261 	299.8241986265764 	0.5080465956469336 	101117.3191482201
1.014764764764764 	299.8275085502665 	0.4995646592565151 	101121.2266489816
1.017267267267267 	299.8313869934939 	0.4894293204790064 	101125.8065206509
1.019769769769769 	299.8329355218567 	0.4851925869453699 	101127.6349889016
1.022272272272272 	299.8314323770477 	0.4887956792107379 	101125.8604485393
1.024774774774774 	299.8287676942806 	0.4954952312607944 	101122.7140335257
1.027277277277277 	299.8275863872403 	0.4985740021501842 	101121.3188986857
1.029779779779779 	299.8288264807557 	0.4955901169012161 	101122.7825495709
1.032282282282282 	299.8309747911402 	0.4902305039613936 	101125.3195114844
1.034784784784784 	299.8318177663234 	0.4879884244190337 	101126.3151398241
1.037287287287286 	299.8308112551089 	0.4902843078959319 	101125.1268978639
1.039789789789789 	299.8295047398976 	0.4934177117056281 	101123.5838610469
1.042292292292291 	299.8295624868248 	0.4933370877561383 	101123.6518118117
1.044794794794794 	299.830799212313 	0.4903970372613269 	101125.1118382552
1.047297297297296 	299.8316155541108 	0.4883561770495506 	101126.076102714
1.049799799799799 	299.8311836227216 	0.4892268628822312 	101125.5664213332
1.052302302302302 	299.8304331409724 	0.4909161623961305 	101124.6798354195
1.054804804804804 	299.8305776274692 	0.4905983731585056 	101124.8501143734
1.057307307307306 	299.8313912162904 	0.4887111197248241 	101125.810996481
1.059809809809809 	299.8317231027354 	0.4878467270397644 	101126.2029927459
1.062312312312312 	299.8313216215299 	0.4886364526320431 	101125.7289078042
1.064814814814814 	299.8310916673515 	0.4891099089679613 	101125.4571955158
1.067317317317317 	299.8315162147176 	0.4881551130913846 	101125.9583210076
1.069819819819819 	299.8319435781264 	0.487140339571659 	101126.4630742699
1.072322322322321 	299.8318304904942 	0.487270232515334 	101126.329670026
1.074824824824824 	299.8316427125561 	0.4876035140320273 	101126.1078086444
1.077327327327327 	299.8318914140901 	0.4870389051597337 	101126.4012068041
1.079829829829829 	299.8322194902493 	0.4862724109367785 	101126.7886784167
1.082332332332332 	299.8321907004786 	0.4862225951483327 	101126.7548696501
1.084834834834834 	299.8321129420721 	0.4863049323100491 	101126.662757061
1.087337337337337 	299.8323289983794 	0.4858094021267974 	101126.9176712878
1.089839839839839 	299.8325452314033 	0.4852845596882296 	101127.1733052272
1.092342342342342 	299.8325233853632 	0.4852218023581918 	101127.1474381167
1.094844844844844 	299.8325528255723 	0.4850850743370247 	101127.1819986156
1.097347347347347 	299.8327606981003 	0.4846056317356645 	101127.4274948205
1.099849849849849 	299.8328726820056 	0.4842868051783389 	101127.5598952318
1.102352352352352 	299.8328739513342 	0.4841830621346735 	101127.5611355099
1.104854854854854 	299.8329946911925 	0.4838739059939849 	101127.703527497
1.107357357357357 	299.8331528434308 	0.4834839522858754 	101127.8904978233
1.109859859859859 	299.8331974838648 	0.4832917563261396 	101127.9431146386
1.112362362362362 	299.8332693558918 	0.4830652613009252 	101128.0277970367
1.114864864864865 	299.8334168838263 	0.4827048388240771 	101128.2020293296
1.117367367367367 	299.8334980052539 	0.4824486347850204 	101128.2978749574
1.119869869869869 	299.8335599723334 	0.4822333618299573 	101128.3709176418
1.122372372372372 	299.8336872696501 	0.4819125980326588 	101128.5211638063
1.124874874874874 	299.8337837771548 	0.4816335969589038 	101128.6352289849
1.127377377377377 	299.8338509396124 	0.4814061234488243 	101128.7143736009
1.129879879879879 	299.8339649189656 	0.4811085168629562 	101128.8488264518
1.132382382382382 	299.8340639389066 	0.4808280742768871 	101128.9658325584
1.134884884884884 	299.8341382334793 	0.4805881294321624 	101129.0536089297
1.137387387387387 	299.8342457923056 	0.4803016493423478 	101129.1805381194
1.139889889889889 	299.8343423969895 	0.4800269822672338 	101129.2944832224
1.142392392392392 	299.8344231661714 	0.4797775311111641 	101129.3897786848
1.144894894894894 	299.8345276916065 	0.4794964286551517 	101129.5131467358
1.147397397397397 	299.8346202669749 	0.4792287086299445 	101129.6224134135
1.149899899899899 	299.8347065461959 	0.4789718547663085 	101129.7242588034
1.152402402402402 	299.834808517855 	0.4786948461523945 	101129.8446656149
1.154904904904904 	299.8348979929627 	0.4784328684931625 	101129.9501857386
1.157407407407407 	299.8349894388365 	0.4781709153908293 	101130.058060756
1.159909909909909 	299.8350878939289 	0.4778993044401212 	101130.1743350246
1.162412412412412 	299.8351763011921 	0.4776395492235553 	101130.2786816923
1.164914914914914 	299.8352713280937 	0.477373906774154 	101130.3908468376
1.167417417417417 	299.8353655467931 	0.4771084232505224 	101130.5020480772
1.169919919919919 	299.8354556356791 	0.476848856462895 	101130.6084266924
1.172422422422422 	299.8355514521322 	0.4765837526401784 	101130.7214744616
1.174924924924925 	299.8356428000351 	0.4763229957901429 	101130.8291444172
1.177427427427427 	299.835735845923 	0.4760619634188888 	101130.9388975311
1.179929929929929 	299.8358295539014 	0.4757999542663605 	101131.0495511252
1.182432432432432 	299.8359207750145 	0.4755412467670169 	101131.1572422964
1.184934934934934 	299.8360148203562 	0.4752810544457153 	101131.2681674667
1.187437437437437 	299.8361066660692 	0.4750229098877238 	101131.3764204008
1.189939939939939 	299.8361994751947 	0.4747648012865663 	101131.4860231732
1.192442442442442 	299.8362919985795 	0.4745073755296663 	101131.5954310587
1.194944944944944 	299.8363841736948 	0.4742515553478629 	101131.7040704911
1.197447447447447 	299.8364773773959 	0.4739959088035079 	101131.8138341669
1.199949949949949 	299.8365694091104 	0.4737422214087649 	101131.9222724219
1.202452452452452 	299.8366621356806 	0.4734887926175578 	101132.0317594638
1.204954954954955 	299.8367540983749 	0.4732366401505725 	101132.1404389754
1.207457457457457 	299.8368465997281 	0.4729858510818882 	101132.2495318693
1.20995995995996 	299.8369390508187 	0.472736222761806 	101132.3584346714
1.212462462462462 	299.837031440439 	0.4724874514434716 	101132.4672903072
1.214964964964964 	299.8371240504104 	0.4722413140487118 	101132.576316007
1.217467467467467 	299.8372163514625 	0.4719942291860277 	101132.6851143915
1.219969969969969 	299.8373086742929 	0.4717535456305189 	101132.7941719472
1.222472472472472 	299.8374010085577 	0.4715010115517162 	101132.9029951493
1.224974974974975 	299.8374936314924 	0.4712855975804395 	101133.01206683
1.227477477477477 	299.8375861602341 	0.470974805031774 	101133.1209253589
1.229979979979979 	299.8376790855991 	0.4709172466461272 	101133.2302744412
1.232482482482482 	299.8377718117395 	0.4698657465946413 	101133.3389940177
1.234984984984984 	299.8378678755835 	0.4713845827534926 	101133.452955389
1.237487487487487 	299.8379589148678 	0.4674863979527012 	101133.5569827246
1.239989989989989 	299.8380447128876 	0.4711812231013918 	101133.6630331693
1.242492492492492 	299.8381529384859 	0.4689263187492705 	101133.7803133294
1.244994994994994 	299.8377183255392 	0.4653181038766048 	101133.8614328925
1.247497497497497 	299.4681653695214 	0.471773666864981 	101133.9806479625
1.249999999999999 	303.9463796513787 	0.4685218767737446 	101134.0931676078
