-1.25 	257.7836037248986 	0.00216606610301657 	101325.0069115038
-1.247497497497497 	300.1402438393853 	0.00203644096869083 	101325.00000424
-1.244994994994995 	300.000900590939 	0.001791657492234008 	101325.0064814231
-1.242492492492492 	300.0000022655328 	0.001552710448087189 	101324.9997508813
-1.23998998998999 	300.0000048284396 	0.001327478381404696 	101325.0057391087
-1.237487487487487 	299.9999997977609 	0.001116448169006867 	101324.9997334071
-1.234984984984985 	300.0000046493594 	0.0009198488780479872 	101325.0055209494
-1.232482482482482 	300.0000002530895 	0.0007376394578703895 	101325.0002724949
-1.22997997997998 	300.0000045551432 	0.0005696017857364212 	101325.0054079298
-1.227477477477477 	300.0000004008995 	0.0004154639674307399 	101325.0004522083
-1.224974974974975 	300.000004027278 	0.0002750686827785827 	101325.004782138
-1.222472472472472 	300.0000002306199 	0.0001479542763844692 	101325.0002579034
-1.21996996996997 	300.0000034507841 	4.788898979634817e-05 	101325.0041006884
-1.217467467467467 	300.0000001179171 	6.879454258179585e-05 	101325.0001237236
-1.214964964964965 	300.0000030358324 	0.0001595790635003411 	101325.0036051402
-1.212462462462462 	300.0000000782507 	0.0002390566408093028 	101325.00007476
-1.20995995995996 	300.0000026670278 	0.0003084170080827571 	101325.0031668079
-1.207457457457457 	300.0000000098578 	0.000367959316012832 	101324.9999984254
-1.204954954954955 	300.0000024029401 	0.0004181574954116866 	101325.0028575457
-1.202452452452452 	300.0000000760552 	0.000460490003181065 	101325.0000756236
-1.19994994994995 	300.0000023712038 	0.0004942689351197267 	101325.0028162925
-1.197447447447447 	300.000000277988 	0.0005217977691345549 	101325.0003125741
-1.194944944944945 	300.0000022648288 	0.0005422764646205023 	101325.0026881366
-1.192442442442442 	300.0000000923104 	0.0005566565500278991 	101325.0000972442
-1.18993993993994 	300.0000019127815 	0.000566312518201173 	101325.0022794158
-1.187437437437437 	299.9999997268254 	0.0005706281245459779 	101324.9996698864
-1.184934934934935 	300.0000013134666 	0.0005712292711137615 	101325.0015682788
-1.182432432432432 	299.9999994777424 	0.0005674854602486083 	101324.9993709355
-1.17992992992993 	300.0000011115103 	0.0005610850362003683 	101325.0013244144
-1.177427427427427 	299.9999993178709 	0.0005514596294073194 	101324.9991798399
-1.174924924924925 	300.0000010093183 	0.0005395568657220633 	101325.0012027716
-1.172422422422422 	299.9999994255638 	0.0005258449414652444 	101324.9993084534
-1.16991991991992 	300.0000010726038 	0.0005100251543327348 	101325.0012783147
-1.167417417417417 	299.9999994614464 	0.0004931356177557759 	101324.9993564814
-1.164914914914915 	300.0000009337811 	0.0004752531984793381 	101325.0011142436
-1.162412412412412 	299.9999993180124 	0.0004561152214616709 	101324.9991842007
-1.15990990990991 	300.0000006954785 	0.0004370642354151209 	101325.0008309196
-1.157407407407407 	299.9999991176815 	0.0004169553584013837 	101324.9989486287
-1.154904904904904 	300.0000003957375 	0.0003974237412972888 	101325.0004762104
-1.152402402402403 	299.9999988468198 	0.0003768663470103646 	101324.9986308173
-1.1498998998999 	300.0000000377809 	0.0003578933270399452 	101325.0000538905
-1.147397397397397 	299.9999985456232 	0.0003373964800501227 	101324.9982765095
-1.144894894894895 	299.999999691907 	0.0003189443915166967 	101324.9996421828
-1.142392392392392 	299.9999983645173 	0.0002996405976471492 	101324.9980589415
-1.13988988988989 	299.9999996571122 	0.0002815891110568463 	101324.999597322
-1.137387387387387 	299.9999986417302 	0.0002637729282534779 	101324.9983873371
-1.134884884884885 	299.9999999364888 	0.0002467171171618409 	101324.9999264038
-1.132382382382382 	299.9999987960561 	0.0002298993538081708 	101324.9985733502
-1.12987987987988 	299.9999997338095 	0.0002147272487849122 	101324.9996941003
-1.127377377377377 	299.999998438302 	0.0001982253993472792 	101324.9981530625
-1.124874874874875 	299.99999914645 	0.0001854196131425415 	101324.9989951401
-1.122372372372372 	299.9999978459749 	0.0001698268083657606 	101324.9974521726
-1.11986986986987 	299.9999986815736 	0.0001578244275052984 	101324.9984423832
-1.117367367367367 	299.999997823096 	0.0001442703754753369 	101324.9974228176
-1.114864864864865 	299.9999988292909 	0.0001331967264395282 	101324.998616263
-1.112362362362362 	299.9999979822262 	0.0001209316965807256 	101324.997613614
-1.10985985985986 	299.9999988043608 	0.0001111374196546554 	101324.9985886635
-1.107357357357357 	299.9999979783937 	9.981874295874315e-05 	101324.9976100606
-1.104854854854855 	299.999998735257 	9.124773717000772e-05 	101324.9985058103
-1.102352352352353 	299.9999979855809 	8.047540960212779e-05 	101324.9976175046
-1.09984984984985 	299.9999984451022 	7.267110488582853e-05 	101324.9981608223
-1.097347347347347 	299.999997915787 	6.179829883579708e-05 	101324.9975343277
-1.094844844844845 	299.9999980867254 	5.442816493289553e-05 	101324.9977372197
-1.092342342342342 	299.9999978850778 	4.407387923012865e-05 	101324.9974997003
-1.08983983983984 	299.9999978043063 	3.804702981032044e-05 	101324.9974054942
-1.087337337337337 	299.9999976890717 	2.89787796382473e-05 	101324.997269773
-1.084834834834835 	299.9999975957978 	2.478075001216456e-05 	101324.9971583242
-1.082332332332332 	299.9999975337748 	1.725110249390656e-05 	101324.9970845379
-1.07982982982983 	299.9999975021429 	1.456975873065332e-05 	101324.9970457986
-1.077327327327327 	299.9999975433444 	8.660411713993102e-06 	101324.9970940282
-1.074824824824825 	299.9999975621358 	7.127146639713708e-06 	101324.9971161443
-1.072322322322323 	299.9999976675955 	7.499167879320336e-06 	101324.9972415452
-1.06981981981982 	299.9999975955407 	6.35864109326196e-06 	101324.9971570039
-1.067317317317317 	299.9999975703678 	7.409787379282653e-06 	101324.9971277214
-1.064814814814815 	299.9999974419157 	7.341543346526693e-06 	101324.9969758875
-1.062312312312312 	299.9999973068726 	7.80475259395572e-06 	101324.9968161563
-1.05980980980981 	299.9999971767502 	8.167625573683402e-06 	101324.9966622788
-1.057307307307307 	299.9999970786689 	8.447235248663569e-06 	101324.9965462749
-1.054804804804805 	299.9999970258292 	8.601608133050976e-06 	101324.9964835361
-1.052302302302302 	299.9999970154736 	8.637514080446695e-06 	101324.9964710073
-1.0497997997998 	299.99999703333 	8.592507595189624e-06 	101324.9964921101
-1.047297297297297 	299.9999970618082 	8.514992834428208e-06 	101324.9965260241
-1.044794794794795 	299.999997086457 	8.446035893007401e-06 	101324.9965555298
-1.042292292292292 	299.9999970986175 	8.411825069832189e-06 	101324.9965700505
-1.03978978978979 	299.999997094014 	8.426001459383447e-06 	101324.9965645174
-1.037287287287287 	299.9999970700288 	8.496513068161747e-06 	101324.9965360494
-1.034784784784785 	299.9999970241047 	8.630136985096315e-06 	101324.9964817682
-1.032282282282283 	299.9999969547644 	8.829622047172648e-06 	101324.9963999632
-1.02977977977978 	299.9999968655382 	9.083721463887101e-06 	101324.9962945601
-1.027277277277277 	299.9999967685967 	9.357518217901793e-06 	101324.9961798107
-1.024774774774775 	299.9999966844173 	9.594099917096803e-06 	101324.9960798289
-1.022272272272272 	299.999996635069 	9.731988150625614e-06 	101324.9960211086
-1.01976976976977 	299.999996635117 	9.731029690215835e-06 	101324.9960212909
-1.017267267267267 	299.9999966840073 	9.594126735765444e-06 	101324.9960796753
-1.014764764764765 	299.9999967640682 	9.371765009213584e-06 	101324.9961747617
-1.012262262262262 	299.9999968458032 	9.146097325262829e-06 	101324.9962712904
-1.00975975975976 	299.999996898926 	9.000696615978266e-06 	101324.9963335969
-1.007257257257257 	299.9999969037282 	8.98839126800225e-06 	101324.9963389515
-1.004754754754755 	299.9999968582382 	9.114014492862232e-06 	101324.9962854935
-1.002252252252252 	299.9999967776266 	9.336510797579305e-06 	101324.9961911084
-0.9997497497497498 	299.9999966867069 	9.589692219144849e-06 	101324.9960842105
-0.9972472472472473 	299.9999966093521 	9.809448669649123e-06 	101324.9959922178
-0.9947447447447449 	299.9999965610582 	9.950833735215484e-06 	101324.995933665
-0.9922422422422421 	299.9999965473473 	9.994580720899585e-06 	101324.9959160581
-0.9897397397397399 	299.9999965659357 	9.943406157442596e-06 	101324.9959379497
-0.9872372372372376 	299.9999966108396 	9.813765109338044e-06 	101324.9959923286
-0.9847347347347346 	299.9999966742394 	9.630403971997366e-06 	101324.9960689371
-0.9822322322322323 	299.9999967465781 	9.423892069435845e-06 	101324.9961550856
-0.9797297297297296 	299.999996815848 	9.22949073847518e-06 	101324.9962362099
-0.9772272272272275 	299.9999968685739 	9.084005909685828e-06 	101324.9962971673
-0.9747247247247248 	299.999996892543 	9.01901953055776e-06 	101324.9963246969
-0.9722222222222224 	299.9999968808067 	9.0510752785303e-06 	101324.9963113661
-0.9697197197197196 	299.9999968360192 	9.172815346215417e-06 	101324.9962597961
-0.9672172172172175 	299.9999967712197 	9.349504667596939e-06 	101324.9961845558
-0.9647147147147147 	299.9999967072916 	9.525354838408329e-06 	101324.9961094838
-0.9622122122122124 	299.9999966666375 	9.638633824282257e-06 	101324.9960608644
-0.9597097097097099 	299.9999966666251 	9.63901318954074e-06 	101324.9960595548
-0.9572072072072073 	299.999996714858 	9.503681695376929e-06 	101324.9961151186
-0.9547047047047047 	299.9999968072246 	9.24408351306799e-06 	101324.9962230851
-0.9522022022022023 	299.9999969285628 	8.901533396737767e-06 	101324.9963659886
-0.9496996996996998 	299.9999970576754 	8.535620580512077e-06 	101324.996518641
-0.9471971971971973 	299.9999971730244 	8.207716447063363e-06 	101324.9966552265
-0.9446946946946947 	299.9999972572488 	7.96655733826895e-06 	101324.9967551397
-0.9421921921921923 	299.9999973011618 	7.83911469410099e-06 	101324.9968072059
-0.93968968968969 	299.9999973046417 	7.826215205372412e-06 	101324.9968113578
-0.9371871871871872 	299.9999972762446 	7.902961444518676e-06 	101324.9967778387
-0.9346846846846848 	299.9999972310717 	8.027107166377898e-06 	101324.9967245937
-0.9321821821821823 	299.9999971857405 	8.153071591121628e-06 	101324.9966712036
-0.9296796796796799 	299.9999971531753 	8.243780881703223e-06 	101324.9966328749
-0.9271771771771771 	299.999997142036 	8.273447525188504e-06 	101324.9966199268
-0.9246746746746748 	299.9999971577647 	8.227251436596344e-06 	101324.9966386479
-0.9221721721721724 	299.9999972007752 	8.104621995475115e-06 	101324.9966895423
-0.9196696696696698 	299.9999972656287 	7.919582188702507e-06 	101324.9967662804
-0.9171671671671672 	299.999997344565 	7.694085036033539e-06 	101324.9968596161
-0.9146646646646649 	299.9999974317367 	7.444050692051804e-06 	101324.9969625115
-0.9121621621621623 	299.9999975232928 	7.180874444453098e-06 	101324.9970706148
-0.9096596596596597 	299.9999976141304 	6.920329778417624e-06 	101324.9971780807
-0.9071571571571573 	299.9999976982457 	6.678403145433717e-06 	101324.9972775956
-0.9046546546546547 	299.9999977715676 	6.465956493593054e-06 	101324.9973644323
-0.9021521521521524 	299.9999978346767 	6.281257139588252e-06 	101324.9974393115
-0.8996496496496498 	299.9999978912173 	6.114608284273619e-06 	101324.9975062851
-0.8971471471471473 	299.9999979449011 	5.957137134825063e-06 	101324.9975697891
-0.894644644644645 	299.9999979986235 	5.799455077672025e-06 	101324.9976333577
-0.892142142142142 	299.9999980556045 	5.631961327191807e-06 	101324.9977008329
-0.8896396396396397 	299.9999981195847 	5.444765457540297e-06 	101324.9977765794
-0.8871371371371374 	299.9999981929652 	5.231801817898305e-06 	101324.9978634917
-0.8846346346346349 	299.9999982743314 	4.998492109736411e-06 	101324.9979596721
-0.8821321321321324 	299.9999983569867 	4.762488803540888e-06 	101324.9980573136
-0.8796296296296297 	299.9999984327438 	4.544426262694174e-06 	101324.9981468952
-0.8771271271271271 	299.9999984980718 	4.353335168903489e-06 	101324.9982242504
-0.8746246246246248 	299.9999985569 	4.179692719281863e-06 	101324.9982938539
-0.8721221221221224 	299.9999986169608 	4.003783138478295e-06 	101324.9983648117
-0.8696196196196196 	299.9999986843532 	3.808617109972589e-06 	101324.9984443568
-0.8671171171171175 	299.9999987612122 	3.586719710073319e-06 	101324.9985350789
-0.8646146146146148 	299.9999988465253 	3.340344096727631e-06 	101324.998636074
-0.8621121121121121 	299.999998937422 	3.078602000128357e-06 	101324.9987436967
-0.8596096096096097 	299.999999029226 	2.814071031767662e-06 	101324.998852278
-0.857107107107107 	299.9999991175445 	2.559474368789054e-06 	101324.9989566287
-0.8546046046046049 	299.9999992003904 	2.319806284971119e-06 	101324.9990543374
-0.8521021021021022 	299.9999992792343 	2.089616069036814e-06 	101324.9991474478
-0.8495995995995997 	299.9999993576295 	1.861127475814194e-06 	101324.9992403219
-0.8470970970970974 	299.9999994375767 	1.628258530438139e-06 	101324.9993352171
-0.8445945945945946 	299.9999995194252 	1.390058701408126e-06 	101324.999432074
-0.8420920920920922 	299.9999996041862 	1.14511909141531e-06 	101324.9995319835
-0.8395895895895897 	299.9999996934386 	8.87351072015755e-07 	101324.9996371017
-0.8370870870870872 	299.9999997883085 	6.136723205815608e-07 	101324.999748974
-0.8345845845845846 	299.9999998879425 	3.265774869793701e-07 	101324.9998667955
-0.8320820820820823 	299.9999999887762 	1.182441891413696e-07 	101324.999986395
-0.8295795795795798 	300.0000000879778 	2.537996802440505e-07 	101325.0001041182
-0.8270770770770772 	300.0000001849779 	5.355554340654404e-07 	101325.0002189565
-0.8245745745745746 	300.0000002801872 	8.110500056223623e-07 	101325.000331492
-0.8220720720720721 	300.0000003728589 	1.078076521878206e-06 	101325.0004407971
-0.8195695695695699 	300.000000461201 	1.333408704202313e-06 	101325.0005449665
-0.817067067067067 	300.0000005459882 	1.580441111818377e-06 	101325.0006451131
-0.8145645645645651 	300.000000631987 	1.831658993441755e-06 	101325.0007467964
-0.8120620620620621 	300.000000724582 	2.10065770870956e-06 	101325.0008562507
-0.8095595595595597 	300.0000008250564 	2.391061412476318e-06 	101325.0009751847
-0.8070570570570572 	300.0000009299633 	2.694024395984336e-06 	101325.0010995338
-0.8045545545545546 	300.00000103467 	2.996763329275803e-06 	101325.001223455
-0.8020520520520523 	300.0000011372308 	3.293342223945349e-06 	101325.0013443933
-0.7995495495495494 	300.0000012389127 	3.586793630965335e-06 	101325.0014640279
-0.7970470470470474 	300.0000013410782 	3.88101829513008e-06 	101325.0015843828
-0.7945445445445446 	300.0000014422498 	4.173092993243073e-06 	101325.0017040181
-0.7920420420420423 	300.0000015392014 	4.455850392333648e-06 	101325.0018193406
-0.7895395395395397 	300.0000016316753 	4.728427299414205e-06 	101325.0019297344
-0.7870370370370371 	300.0000017242634 	5.000925830970524e-06 	101325.0020399554
-0.7845345345345348 	300.0000018226412 	5.286369877107809e-06 	101325.0021561858
-0.7820320320320323 	300.0000019281631 	5.587859249372474e-06 	101325.0022799057
-0.7795295295295296 	300.0000020362334 	5.895111506900596e-06 	101325.0024062924
-0.7770270270270272 	300.0000021407075 	6.193604547253236e-06 	101325.0025286408
-0.7745245245245247 	300.0000022387529 	6.477337772499022e-06 	101325.0026442037
-0.7720220220220222 	300.0000023331464 	6.753550820949955e-06 	101325.0027563135
-0.7695195195195199 	300.000002429556 	7.036388159130868e-06 	101325.0028713987
-0.767017017017017 	300.0000025319647 	7.334778200626097e-06 	101325.0029935061
-0.7645145145145147 	300.0000026391073 	7.64478366720076e-06 	101325.0031207645
-0.7620120120120122 	300.0000027457052 	7.953245791631201e-06 	101325.0032470726
-0.7595095095095097 	300.0000028474631 	8.250049364059734e-06 	101325.0033678308
-0.7570070070070072 	300.0000029450073 	8.536231530024503e-06 	101325.003483899
-0.7545045045045048 	300.0000030415214 	8.818930479680255e-06 	101325.0035990348
-0.7520020020020022 	300.0000031376959 	9.099038544973722e-06 	101325.0037137962
-0.7494994994994997 	300.0000032308909 	9.369362630976115e-06 	101325.0038243223
-0.7469969969969972 	300.0000033199285 	9.627760587547806e-06 	101325.0039288817
-0.7444944944944945 	300.0000034100788 	9.88909138126573e-06 	101325.0040340433
-0.7419919919919924 	300.0000035102055 	1.017638260615002e-05 	101325.0041507736
-0.7394894894894897 	300.0000036228513 	1.049689033079012e-05 	101325.004282832
-0.7369869869869872 	300.000003739937 	1.083015219513943e-05 	101325.0044208059
-0.7344844844844846 	300.0000038488589 	1.114424423772547e-05 	101325.004549878
-0.7319819819819822 	300.0000039441733 	1.142364680909685e-05 	101325.0046631684
-0.7294794794794797 	300.0000040305465 	1.167878355050589e-05 	101325.0047660891
-0.7269769769769773 	300.0000041162654 	1.192985630395159e-05 	101325.0048681869
-0.7244744744744747 	300.0000042047319 	1.21863816454188e-05 	101325.0049733585
-0.721971971971972 	300.0000042941407 	1.244486468933654e-05 	101325.0050792024
-0.7194694694694695 	300.0000043831757 	1.270159942212313e-05 	101325.0051836199
-0.7169669669669674 	300.0000044736052 	1.296115233292653e-05 	101325.0052889067
-0.7144644644644647 	300.0000045683811 	1.323071329656601e-05 	101325.0053987665
-0.711961961961962 	300.0000046667109 	1.350974441742798e-05 	101325.0055131452
-0.7094594594594597 	300.0000047642604 	1.378867243431347e-05 	101325.0056275963
-0.7069569569569573 	300.0000048571649 	1.405784549526415e-05 	101325.0057376252
-0.7044544544544545 	300.0000049453153 	1.431610078277722e-05 	101325.0058427634
-0.7019519519519523 	300.000005031624 	1.45694701810922e-05 	101325.0059459703
-0.6994494494494495 	300.000005118135 	1.482212298276963e-05 	101325.0060493243
-0.6969469469469471 	300.0000052035278 	1.507002747884953e-05 	101325.0061509581
-0.6944444444444446 	300.0000052843154 	1.530524074561607e-05 	101325.0062469858
-0.6919419419419421 	300.0000053599355 	1.552703762671157e-05 	101325.0063368044
-0.6894394394394396 	300.0000054346472 	1.574705115724823e-05 	101325.0064257262
-0.6869369369369374 	300.0000055145485 	1.597987490123497e-05 	101325.0065206919
-0.6844344344344344 	300.0000056002702 	1.622674417690822e-05 	101325.0066224625
-0.6819319319319321 	300.0000056851899 	1.647096978688331e-05 	101325.0067231918
-0.6794294294294296 	300.0000057620518 	1.669416008144996e-05 	101325.006813978
-0.6769269269269272 	300.000005831524 	1.689843874854815e-05 	101325.0068956069
-0.6744244244244245 	300.0000059036331 	1.710856722756952e-05 	101325.0069798838
-0.6719219219219222 	300.0000059870425 	1.734643388273267e-05 	101325.007077602
-0.6694194194194195 	300.0000060781753 	1.760258485760991e-05 	101325.0071847657
-0.6669169169169172 	300.0000061612716 	1.783806655833155e-05 	101325.0072831118
-0.6644144144144146 	300.0000062231508 	1.802030196272677e-05 	101325.0073569949
-0.661911911911912 	300.0000062676296 	1.815824133428423e-05 	101325.0074103063
-0.6594094094094097 	300.00000631327 	1.829780370736557e-05 	101325.0074646173
-0.656906906906907 	300.0000063758778 	1.847848304801004e-05 	101325.0075385815
-0.6544044044044046 	300.0000064531339 	1.869492558965454e-05 	101325.0076295554
-0.6519019019019021 	300.0000065277121 	1.890509225919075e-05 	101325.007717342
-0.6493993993993996 	300.0000065868137 	1.907810485165516e-05 	101325.0077869547
-0.6468968968968971 	300.0000066372226 	1.923113943177267e-05 	101325.007846362
-0.6443943943943946 	300.0000066990224 	1.941321447418375e-05 	101325.0079190971
-0.6418918918918921 	300.0000067829694 	1.964901657648193e-05 	101325.0080176891
-0.6393893893893897 	300.0000068744267 	1.990028404405975e-05 	101325.0081250918
-0.6368868868868871 	300.0000069426928 	2.008975121184028e-05 	101325.0082053839
-0.6343843843843846 	300.0000069690306 	2.017185615601096e-05 	101325.0082365994
-0.6318818818818821 	300.0000069677598 	2.018543259568393e-05 	101325.0082357365
-0.6293793793793795 	300.0000069791375 	2.023347453054299e-05 	101325.0082499338
-0.6268768768768773 	300.0000070364478 	2.040029853453669e-05 	101325.0083183984
-0.6243743743743745 	300.0000071366442 	2.067592380934468e-05 	101325.008437223
-0.6218718718718721 	300.0000072395002 	2.095607750301181e-05 	101325.008558954
-0.6193693693693696 	300.0000072990075 	2.112281803019658e-05 	101325.0086294924
-0.6168668668668671 	300.0000073015152 	2.114094853436681e-05 	101325.008632369
-0.6143643643643645 	300.0000072774061 	2.109020273277596e-05 	101325.0086037829
-0.6118618618618621 	300.0000072779773 	2.110391880946537e-05 	101325.0086045118
-0.6093593593593596 	300.0000073346187 	2.126269775830295e-05 	101325.0086714761
-0.6068568568568571 	300.0000074327027 	2.15280645811749e-05 	101325.0087874147
-0.6043543543543546 	300.000007522183 	2.176923470004896e-05 	101325.0088930825
-0.6018518518518521 	300.000007555657 	2.186237819786949e-05 	101325.0089322886
-0.5993493493493496 	300.0000075246978 	2.178660895546826e-05 	101325.0088952038
-0.5968468468468471 	300.0000074682396 	2.164452917083917e-05 	101325.0088279306
-0.5943443443443446 	300.0000074452089 	2.159159039165794e-05 	101325.008800332
-0.591841841841842 	300.0000074929083 	2.172641608701633e-05 	101325.0088568394
-0.5893393393393397 	300.000007600614 	2.202029756711453e-05 	101325.0089847672
-0.5868368368368371 	300.0000077160408 	2.233444032056677e-05 	101325.0091220776
-0.5843343343343346 	300.0000077801177 	2.251174740078681e-05 	101325.0091987601
-0.5818318318318321 	300.0000077657189 	2.247953381797648e-05 	101325.0091823457
-0.5793293293293297 	300.0000076950843 	2.229662277399658e-05 	101325.0090990177
-0.5768268268268271 	300.0000076256908 	2.211515019287797e-05 	101325.0090164988
-0.5743243243243245 	300.0000076131518 	2.208394804091787e-05 	101325.0090007674
-0.5718218218218221 	300.0000076770343 	2.22557186850333e-05 	101325.0090752977
-0.5693193193193196 	300.0000077884438 	2.255348897102931e-05 	101325.0092061133
-0.5668168168168171 	300.0000078864074 	2.28143436018048e-05 	101325.0093214602
-0.5643143143143147 	300.000007913023 	2.288213379288616e-05 	101325.0093526916
-0.5618118118118121 	300.000007845629 	2.269612770980587e-05 	101325.0092727414
-0.5593093093093094 	300.0000077109008 	2.232947816413473e-05 	101325.0091132753
-0.5568068068068072 	300.0000075733802 	2.195731938036301e-05 	101325.0089505854
-0.5543043043043046 	300.0000075039769 	2.177301317714641e-05 	101325.0088685483
-0.551801801801802 	300.0000075467471 	2.189669344377798e-05 	101325.0089195276
-0.5492992992992995 	300.0000076978423 	2.231630762409062e-05 	101325.0090988465
-0.5467967967967969 	300.0000079041494 	2.288666057825425e-05 	101325.0093439067
-0.5442942942942947 	300.0000080855124 	2.338674296561983e-05 	101325.0095597856
-0.5417917917917919 	300.0000081658507 	2.360559630652648e-05 	101325.0096562881
-0.5392892892892895 	300.000008100929 	2.342063177052896e-05 	101325.0095806796
-0.536786786786787 	300.0000078951434 	2.284449850979389e-05 	101325.0093378233
-0.5342842842842846 	300.0000076017748 	2.202477515275335e-05 	101325.0089906719
-0.531781781781782 	300.000007305096 	2.119525296674361e-05 	101325.0086388851
-0.5292792792792794 	300.0000070927014 	2.060152160804111e-05 	101325.0083861365
-0.526776776776777 	300.0000070314635 	2.043209753340444e-05 	101325.0083118308
-0.5242742742742745 	300.0000071511298 	2.076991904503859e-05 	101325.0084513559
-0.521771771771772 	300.0000074356247 	2.157010892795915e-05 	101325.0087861732
-0.5192692692692695 	300.0000078267196 	2.267080175521172e-05 	101325.0092477956
-0.516766766766767 	300.000008240572 	2.383703604344386e-05 	101325.009736893
-0.5142642642642645 	300.0000085886199 	2.481864529715846e-05 	101325.0101489746
-0.511761761761762 	300.0000087951805 	2.539916590665423e-05 	101325.0103942783
-0.5092592592592596 	300.0000088073687 	2.542683852755304e-05 	101325.0104100554
-0.506756756756757 	300.0000086004388 	2.483045278289162e-05 	101325.0101669719
-0.5042542542542544 	300.0000081788733 	2.36211640582066e-05 	101325.0096699408
-0.5017517517517521 	300.0000075721096 	2.188203888302174e-05 	101325.0089537677
-0.4992492492492494 	300.0000068277763 	1.974764484564418e-05 	101325.008074695
-0.496746746746747 	300.0000060024291 	1.737822399560358e-05 	101325.0070995667
-0.4942442442442445 	300.0000051522363 	1.49332231430806e-05 	101325.0060947335
-0.4917417417417421 	300.000004325099 	1.254973404478944e-05 	101325.0051168624
-0.4892392392392395 	300.0000035563006 	1.033005051129169e-05 	101325.0042077323
-0.486736736736737 	300.0000028680195 	8.339508282794717e-06 	101325.00339369
-0.4842342342342345 	300.0000022711391 	6.61080451984287e-06 	101325.0026877066
-0.481731731731732 	300.0000017679643 	5.150946995470351e-06 	101325.0020922744
-0.4792292292292296 	300.000001353915 	3.948445042314734e-06 	101325.0016023986
-0.4767267267267268 	300.0000010207939 	2.980007961065888e-06 	101325.0012083176
-0.4742242242242246 	300.0000007584047 	2.215976071934572e-06 	101325.0008977521
-0.471721721721722 	300.0000005554646 	1.624607147988432e-06 	101325.0006576141
-0.4692192192192195 	300.0000004013634 	1.174926633562414e-06 	101325.0004751958
-0.4667167167167169 	300.0000002861591 	8.386549109011853e-07 	101325.0003389113
-0.4642142142142145 	300.0000002015855 	5.911045335509818e-07 	101325.0002386797
-0.461711711711712 	300.0000001402615 	4.115765013192526e-07 	101325.0001660533
-0.4592092092092094 	300.000000096439 	2.832073492234847e-07 	101325.0001141705
-0.456706706706707 	300.0000000656005 	1.926648428273216e-07 	101325.0000776054
-0.4542042042042045 	300.0000000439887 	1.296198397568049e-07 	101325.0000521683
-0.451701701701702 	300.0000000292446 	8.627356520356004e-08 	101325.000034692
-0.4491991991991995 	300.0000000192267 	5.6820698057167e-08 	101325.0000228285
-0.4466966966966969 	300.000000012497 	3.704706686824559e-08 	101325.0000148686
-0.4441941941941945 	300.000000008091 	2.39121453533982e-08 	101325.0000095873
-0.441691691691692 	300.000000005126 	1.529139829198503e-08 	101325.0000061211
-0.4391891891891895 	300.0000000032624 	9.680707708325621e-09 	101325.0000038698
-0.436686686686687 	300.000000002015 	6.079841076735606e-09 	101325.0000024228
-0.4341841841841846 	300.0000000012744 	3.776771997013331e-09 	101325.0000015016
-0.431681681681682 	300.0000000007259 	2.33305001562584e-09 	101325.000000921
-0.4291791791791794 	300.0000000003978 	1.422846947938646e-09 	101325.0000005584
-0.426676676676677 	300.0000000001805 	8.659959998750501e-10 	101325.0000003339
-0.4241741741741744 	300.000000000136 	5.177787596220067e-10 	101325.0000001966
-0.421671671671672 	300.0000000001074 	3.118594080941014e-10 	101325.0000001128
-0.4191691691691694 	300.0000000001185 	1.830628244365622e-10 	101325.0000000623
-0.4166666666666669 	300.000000000105 	1.104414319053105e-10 	101325.0000000324
-0.4141641641641645 	299.999999999943 	6.382956523563918e-11 	101325.0000000146
-0.411661661661662 	300.0000000000186 	3.904084189336416e-11 	101325.0000000041
-0.4091591591591594 	300.0000000000026 	2.223134162545937e-11 	101324.9999999979
-0.406656656656657 	299.9999999999323 	1.520451028755779e-11 	101324.9999999945
-0.4041541541541545 	300.0000000000238 	7.75933824613892e-12 	101324.9999999925
-0.401651651651652 	299.9999999999045 	8.086495052501859e-12 	101324.9999999914
-0.3991491491491494 	299.9999999999939 	1.558312498053437e-12 	101324.9999999908
-0.396646646646647 	299.9999999999507 	5.200838966723489e-12 	101324.9999999904
-0.3941441441441444 	299.9999999999739 	2.554797898137266e-12 	101324.9999999903
-0.3916416416416419 	299.9999999999173 	4.045819080091461e-12 	101324.9999999903
-0.3891391391391395 	299.9999999999557 	2.445186609569919e-12 	101324.9999999902
-0.3866366366366368 	299.9999999999513 	2.307926963332135e-12 	101324.99999999
-0.3841341341341344 	299.9999999999914 	1.163920807845215e-12 	101324.99999999
-0.381631631631632 	299.9999999999428 	1.396487661788794e-12 	101324.9999999898
-0.3791291291291294 	300.0000000000062 	5.276361656299565e-13 	101324.9999999898
-0.3766266266266269 	300.0000000000289 	5.740038023138947e-13 	101324.99999999
-0.3741241241241244 	300.000000000032 	1.61430104673224e-12 	101324.9999999903
-0.371621621621622 	300.000000000019 	9.392287368242642e-13 	101324.9999999905
-0.3691191191191194 	300.0000000000047 	2.644758736079341e-12 	101324.9999999905
-0.366616616616617 	300.0000000000052 	1.31294247422326e-12 	101324.9999999904
-0.3641141141141143 	299.9999999999524 	3.451057848043713e-12 	101324.9999999904
-0.3616116116116119 	299.9999999999413 	1.547128935481582e-12 	101324.9999999906
-0.3591091091091095 	299.9999999999862 	3.289529413588226e-12 	101324.9999999907
-0.356606606606607 	299.9999999999803 	2.908578011520082e-12 	101324.9999999908
-0.3541041041041044 	299.9999999999843 	2.972347899588249e-12 	101324.9999999909
-0.3516016016016019 	300.000000000004 	3.942459439130305e-12 	101324.9999999908
-0.3490990990990994 	299.9999999999887 	2.594716712088959e-12 	101324.9999999907
-0.346596596596597 	300.0000000000508 	4.760446437626565e-12 	101324.9999999908
-0.3440940940940944 	300.00000000006 	2.216200491913925e-12 	101324.9999999907
-0.3415915915915919 	300.0000000000242 	4.481181555471559e-12 	101324.9999999905
-0.3390890890890895 	299.9999999999791 	2.182784877856642e-12 	101324.9999999904
-0.3365865865865869 	300.0000000000229 	3.411289834464784e-12 	101324.9999999902
-0.3340840840840844 	300.0000000000033 	1.829713952740013e-12 	101324.9999999901
-0.3315815815815819 	300.0000000000242 	2.498169896138841e-12 	101324.9999999902
-0.3290790790790794 	300.0000000000238 	1.223408727349907e-12 	101324.9999999901
-0.3265765765765769 	299.9999999999121 	2.05478884908643e-12 	101324.9999999901
-0.3240740740740744 	299.9999999999948 	8.124231629254965e-13 	101324.9999999902
-0.3215715715715718 	300.0000000000082 	2.200487714662424e-12 	101324.9999999903
-0.3190690690690695 	299.9999999999214 	1.256539333163323e-12 	101324.9999999903
-0.3165665665665668 	299.9999999999907 	1.839700165078544e-12 	101324.9999999903
-0.3140640640640644 	300.0000000000113 	2.176571455862229e-12 	101324.9999999901
-0.311561561561562 	299.9999999999122 	3.011514200090362e-12 	101324.9999999901
-0.3090590590590593 	299.9999999999933 	3.013986648888085e-12 	101324.9999999898
-0.3065565565565568 	300.0000000000028 	4.267376339566499e-12 	101324.9999999899
-0.3040540540540545 	299.9999999999991 	3.179679097114149e-12 	101324.9999999898
-0.3015515515515518 	300.0000000000368 	4.186463978646659e-12 	101324.99999999
-0.2990490490490494 	299.9999999999404 	1.670945858153678e-12 	101324.9999999902
-0.2965465465465469 	299.9999999999833 	2.187669459728077e-12 	101324.9999999903
-0.2940440440440444 	299.9999999999968 	3.350951041555746e-13 	101324.9999999906
-0.2915415415415418 	300.0000000000039 	1.705771173833615e-12 	101324.9999999907
-0.2890390390390395 	300.0000000000063 	1.991194346429997e-12 	101324.9999999907
-0.2865365365365368 	299.9999999999789 	1.316323657075039e-12 	101324.9999999909
-0.2840340340340343 	299.9999999999994 	3.314925449889918e-12 	101324.9999999911
-0.2815315315315318 	299.9999999999206 	1.150534723634081e-12 	101324.9999999909
-0.2790290290290295 	299.9999999999616 	2.699876183069258e-12 	101324.9999999907
-0.2765265265265269 	300.0000000000159 	1.613033523682779e-12 	101324.9999999905
-0.2740240240240244 	300.0000000000273 	2.669525065995909e-12 	101324.99999999
-0.2715215215215219 	300.0000000000218 	2.763448280428252e-12 	101324.9999999899
-0.2690190190190194 	299.9999999999318 	2.712267340199187e-12 	101324.9999999898
-0.2665165165165169 	299.9999999999995 	3.272917254365508e-12 	101324.9999999899
-0.2640140140140144 	299.9999999999562 	2.636854327567571e-12 	101324.99999999
-0.2615115115115119 	300.0000000000009 	4.312480048865381e-12 	101324.9999999899
-0.2590090090090094 	299.9999999999204 	3.195715481206178e-12 	101324.9999999899
-0.2565065065065068 	299.9999999999926 	3.983520689026647e-12 	101324.9999999901
-0.2540040040040044 	299.9999999999966 	4.516239093635897e-12 	101324.9999999901
-0.2515015015015019 	300.0000000000413 	3.524909029624345e-12 	101324.9999999902
-0.2489989989989994 	300.0000000000487 	5.888727070981801e-12 	101324.9999999901
-0.2464964964964968 	299.9999999999901 	3.002036259820179e-12 	101324.9999999902
-0.2439939939939944 	300.000000000001 	6.660181723204584e-12 	101324.9999999902
-0.2414914914914919 	299.9999999999686 	1.86387503801552e-12 	101324.9999999905
-0.2389889889889893 	300.0000000000018 	5.929912461480588e-12 	101324.9999999908
-0.2364864864864869 	300.0000000000296 	1.685946408074535e-12 	101324.9999999908
-0.2339839839839843 	299.9999999999188 	5.951784011682013e-12 	101324.9999999907
-0.2314814814814819 	299.9999999999792 	1.114157555575357e-12 	101324.9999999907
-0.2289789789789792 	299.9999999999046 	4.384325089962711e-12 	101324.9999999908
-0.2264764764764769 	299.9999999999405 	1.530413117690983e-12 	101324.9999999909
-0.2239739739739743 	299.9999999999533 	4.107651016220121e-12 	101324.9999999908
-0.2214714714714718 	299.9999999999325 	3.506899745218143e-12 	101324.9999999906
-0.2189689689689693 	299.9999999999634 	3.526304987027827e-12 	101324.9999999904
-0.2164664664664669 	299.999999999975 	4.192414735953821e-12 	101324.9999999901
-0.2139639639639643 	299.9999999999177 	2.67023986257521e-12 	101324.9999999897
-0.2114614614614618 	299.9999999999699 	3.129499955830567e-12 	101324.9999999896
-0.2089589589589593 	299.9999999999901 	3.304705700142275e-12 	101324.9999999895
-0.2064564564564568 	299.9999999999891 	3.37602678196589e-12 	101324.9999999891
-0.2039539539539543 	299.9999999998932 	5.134465674667744e-12 	101324.999999989
-0.2014514514514518 	299.9999999999427 	2.755265168178127e-12 	101324.9999999888
-0.1989489489489494 	299.9999999999634 	5.818143168056665e-12 	101324.9999999888
-0.1964464464464468 	299.9999999999902 	2.122790135712668e-12 	101324.9999999888
-0.1939439439439443 	299.9999999999891 	5.498237368898885e-12 	101324.9999999891
-0.1914414414414418 	299.9999999999043 	2.421580295635318e-12 	101324.9999999894
-0.1889389389389393 	300.0000000000114 	4.616959885599051e-12 	101324.9999999894
-0.1864364364364368 	300.0000000000508 	3.404082754431689e-12 	101324.9999999896
-0.1839339339339343 	299.9999999999715 	4.80456640218772e-12 	101324.9999999895
-0.1814314314314318 	299.9999999999944 	2.849756253068214e-12 	101324.9999999899
-0.1789289289289293 	299.9999999998873 	5.138609571501105e-12 	101324.9999999901
-0.1764264264264268 	299.9999999999761 	1.866510893214052e-12 	101324.9999999901
-0.1739239239239243 	299.999999999886 	5.102213829774109e-12 	101324.99999999
-0.1714214214214218 	299.9999999999801 	6.730768959635956e-13 	101324.9999999901
-0.1689189189189193 	299.9999999999386 	5.893068676021029e-12 	101324.9999999903
-0.1664164164164168 	299.9999999999981 	1.79291901184045e-12 	101324.9999999901
-0.1639139139139143 	299.9999999999815 	7.286829820983595e-12 	101324.99999999
-0.1614114114114118 	300.0000000000295 	3.621634716931137e-12 	101324.99999999
-0.1589089089089093 	300.0000000000012 	8.388665821054152e-12 	101324.9999999901
-0.1564064064064068 	299.9999999999828 	5.16893602164139e-12 	101324.99999999
-0.1539039039039043 	299.9999999999885 	8.337208665230136e-12 	101324.99999999
-0.1514014014014018 	300.0000000000273 	4.510569959428924e-12 	101324.9999999899
-0.1488988988988993 	299.9999999999844 	8.201079061330516e-12 	101324.9999999898
-0.1463963963963968 	299.9999999999964 	2.958561114151515e-12 	101324.9999999898
-0.1438938938938943 	299.9999999999469 	6.842911407930518e-12 	101324.9999999896
-0.1413913913913918 	299.9999999999155 	1.201879918628885e-12 	101324.9999999897
-0.1388888888888893 	299.9999999999754 	5.982820674315862e-12 	101324.9999999897
-0.1363863863863868 	299.9999999998749 	1.178742399275549e-12 	101324.9999999898
-0.1338838838838843 	299.9999999998963 	4.857116237284326e-12 	101324.9999999901
-0.1313813813813818 	299.999999999994 	1.570630541006609e-12 	101324.99999999
-0.1288788788788793 	299.9999999999509 	5.242499777134607e-12 	101324.9999999899
-0.1263763763763768 	299.9999999999656 	2.04219344972493e-12 	101324.9999999898
-0.1238738738738743 	299.9999999999135 	5.878664708112102e-12 	101324.9999999897
-0.1213713713713717 	299.9999999999645 	1.623226276102961e-12 	101324.9999999896
-0.1188688688688693 	300.0000000000023 	6.364785929135494e-12 	101324.9999999896
-0.1163663663663668 	299.9999999998903 	1.015456585380572e-12 	101324.9999999897
-0.1138638638638643 	299.9999999999911 	6.839579199894672e-12 	101324.9999999893
-0.1113613613613618 	299.9999999999848 	5.85186000455045e-13 	101324.9999999892
-0.1088588588588592 	299.9999999999729 	6.350003743946592e-12 	101324.9999999892
-0.1063563563563568 	299.9999999999375 	1.332589173530213e-12 	101324.9999999892
-0.1038538538538543 	299.9999999999606 	4.310613610060955e-12 	101324.9999999894
-0.1013513513513517 	300.0000000000157 	1.266796484085404e-12 	101324.9999999894
-0.09884884884884926 	299.9999999999315 	2.952892217160116e-12 	101324.9999999895
-0.09634634634634676 	299.9999999998653 	1.192823465731875e-12 	101324.9999999894
-0.09384384384384425 	299.9999999999171 	1.421639118653736e-12 	101324.9999999894
-0.09134134134134177 	300.0000000000243 	5.088912446241365e-13 	101324.9999999893
-0.08883883883883925 	300.0000000000104 	1.801236267751699e-12 	101324.9999999894
-0.08633633633633674 	299.9999999999421 	9.845804522714156e-13 	101324.9999999894
-0.08383383383383426 	300.0000000000122 	2.054646739061665e-12 	101324.9999999895
-0.08133133133133173 	299.9999999999649 	2.071584320690526e-12 	101324.9999999894
-0.07882882882882926 	299.9999999998614 	2.123436831009804e-12 	101324.9999999898
-0.07632632632632676 	299.999999999946 	2.030178048114023e-12 	101324.9999999901
-0.07382382382382424 	299.9999999998799 	2.701316204383272e-12 	101324.9999999901
-0.07132132132132173 	300.0000000000167 	2.387366021288883e-12 	101324.9999999904
-0.06881881881881925 	299.9999999999446 	2.974236415697673e-12 	101324.9999999904
-0.06631631631631671 	299.999999999879 	2.3964827842046e-12 	101324.9999999905
-0.06381381381381425 	299.9999999999579 	2.642562811215178e-12 	101324.9999999901
-0.06131131131131173 	299.999999999961 	2.816467285541768e-12 	101324.9999999899
-0.05880880880880923 	299.9999999999089 	2.927295761520845e-12 	101324.9999999899
-0.05630630630630672 	299.9999999999714 	2.976216400742907e-12 	101324.9999999899
-0.05380380380380424 	300.0000000000172 	3.24732690604247e-12 	101324.99999999
-0.05130130130130173 	300.0000000000134 	3.042728810602672e-12 	101324.9999999902
-0.04879879879879922 	299.9999999999246 	2.755648034854503e-12 	101324.9999999902
-0.04629629629629672 	299.9999999999049 	1.935369501245077e-12 	101324.9999999899
-0.04379379379379422 	299.999999999923 	1.25983703217941e-12 	101324.9999999897
-0.04129129129129173 	299.9999999999727 	6.118507761691077e-13 	101324.9999999898
-0.03878878878878922 	299.9999999999813 	4.736569973676749e-13 	101324.9999999898
-0.03628628628628671 	299.9999999999782 	3.242469487357453e-13 	101324.9999999896
-0.03378378378378422 	299.9999999999094 	2.561155171239126e-13 	101324.9999999895
-0.03128128128128172 	299.9999999999567 	2.080087282997265e-13 	101324.9999999895
-0.02877877877877922 	299.9999999999574 	4.228949544547989e-13 	101324.9999999895
-0.0262762762762767 	299.9999999998859 	2.075919898023077e-13 	101324.9999999894
-0.02377377377377422 	300.0000000000209 	6.837609786917414e-14 	101324.9999999894
-0.0212712712712717 	299.9999999998896 	6.480348010073665e-14 	101324.9999999894
-0.01876876876876921 	299.9999999999549 	6.73506093748028e-13 	101324.9999999892
-0.01626626626626671 	300.0000000000138 	2.148298095973034e-13 	101324.999999989
-0.0137637637637642 	299.9999999999605 	1.796770017718391e-13 	101324.9999999889
-0.0112612612612617 	300.0000000000149 	2.646261799338876e-13 	101324.9999999891
-0.008758758758759198 	299.9999999999895 	2.350475755763862e-13 	101324.9999999894
-0.006256256256256697 	299.9999999998669 	4.77369015909428e-13 	101324.9999999894
-0.003753753753754195 	299.9999999999441 	1.515614769626256e-12 	101324.9999999895
-0.001251251251251693 	299.9999999999136 	1.146714493437365e-12 	101324.9999999898
0.00125125125125081 	299.9999999999457 	1.196313491195975e-12 	101324.99999999
0.003753753753753312 	299.9999999999529 	4.002672689231294e-14 	101324.99999999
0.006256256256255817 	299.9999999998643 	9.146739125582646e-13 	101324.9999999901
0.008758758758758317 	299.999999999993 	7.87685690443866e-13 	101324.9999999901
0.01126126126126082 	300.0000000000093 	9.376529643706793e-13 	101324.99999999
0.01376376376376332 	299.9999999999602 	4.798675816047069e-13 	101324.9999999897
0.01626626626626582 	300.0000000000142 	7.749505617848759e-13 	101324.9999999897
0.01876876876876833 	299.9999999999451 	6.486559580312798e-13 	101324.9999999897
0.02127127127127083 	299.9999999999644 	1.174105909723366e-12 	101324.9999999893
0.02377377377377332 	299.9999999999946 	1.086397596688652e-12 	101324.9999999893
0.02627627627627583 	299.9999999998811 	1.282497549054041e-12 	101324.9999999894
0.02877877877877833 	300.0000000000094 	1.441026961123606e-12 	101324.9999999897
0.03128128128128083 	299.9999999999417 	1.087248122788826e-12 	101324.99999999
0.03378378378378333 	299.9999999998888 	1.645714941772629e-12 	101324.9999999897
0.03628628628628584 	299.9999999999627 	1.535631772395369e-12 	101324.9999999896
0.03878878878878834 	299.9999999999748 	1.666612459375971e-12 	101324.9999999897
0.04129129129129084 	299.9999999999721 	1.14216839126821e-12 	101324.9999999899
0.04379379379379333 	299.9999999999339 	1.312232883877989e-12 	101324.9999999902
0.04629629629629585 	299.9999999998718 	1.135658733431063e-12 	101324.9999999902
0.04879879879879834 	299.9999999999487 	1.559987131892554e-12 	101324.9999999902
0.05130130130130085 	300.0000000000149 	7.680654952644003e-13 	101324.9999999901
0.05380380380380335 	300.0000000000244 	3.446805382858938e-13 	101324.9999999901
0.05630630630630584 	299.9999999999928 	2.26715679878081e-13 	101324.9999999901
0.05880880880880836 	299.9999999999073 	4.836214689031001e-13 	101324.9999999903
0.06131131131131085 	299.9999999999629 	4.268898909233076e-13 	101324.9999999905
0.06381381381381336 	299.999999999951 	8.98864517607175e-13 	101324.9999999904
0.06631631631631586 	299.9999999998766 	1.212792779570676e-12 	101324.9999999905
0.06881881881881835 	299.9999999999493 	2.016348086998034e-12 	101324.9999999904
0.07132132132132088 	299.9999999999841 	1.750017863459214e-12 	101324.9999999904
0.07382382382382337 	299.999999999881 	2.415455734831598e-12 	101324.9999999902
0.07632632632632587 	299.9999999999619 	2.534358400098148e-12 	101324.99999999
0.07882882882882837 	299.9999999999312 	2.328382183007743e-12 	101324.9999999897
0.08133133133133086 	299.9999999999751 	2.20199893762819e-12 	101324.9999999896
0.08383383383383337 	299.9999999999803 	1.611120681532765e-12 	101324.9999999897
0.08633633633633589 	299.9999999998929 	2.138270493601727e-12 	101324.9999999899
0.08883883883883838 	300.0000000000043 	1.989045217668114e-12 	101324.9999999899
0.09134134134134086 	299.9999999999745 	7.937322701893514e-13 	101324.9999999897
0.09384384384384339 	299.9999999998777 	1.099968039530427e-12 	101324.9999999897
0.09634634634634588 	299.9999999999634 	8.970288900563272e-13 	101324.9999999897
0.09884884884884838 	299.9999999999673 	1.183908594744578e-13 	101324.9999999896
0.1013513513513509 	300.0000000000181 	5.072723722353844e-14 	101324.9999999893
0.1038538538538534 	299.9999999999462 	4.833254541233796e-13 	101324.9999999892
0.1063563563563559 	300.0000000000132 	2.656078528981326e-13 	101324.9999999894
0.1088588588588584 	300.0000000000264 	4.854060148633107e-13 	101324.9999999894
0.1113613613613609 	299.9999999998996 	4.060985364003609e-13 	101324.9999999895
0.1138638638638634 	299.9999999999398 	7.474014989569426e-13 	101324.9999999892
0.1163663663663659 	299.9999999999452 	5.67180183533834e-13 	101324.9999999891
0.1188688688688684 	299.9999999999574 	1.735787843550038e-13 	101324.9999999891
0.1213713713713709 	299.9999999999957 	4.824654767950981e-14 	101324.9999999892
0.1238738738738734 	299.9999999999154 	3.006853130539871e-13 	101324.9999999891
0.1263763763763759 	299.9999999999813 	4.734240023659612e-13 	101324.9999999891
0.1288788788788784 	299.9999999999831 	2.711354500994044e-13 	101324.9999999892
0.1313813813813809 	299.9999999999818 	6.202847660533383e-13 	101324.9999999892
0.1338838838838834 	299.9999999999687 	5.596215134624444e-13 	101324.9999999891
0.1363863863863859 	300.0000000000236 	7.23880343702973e-14 	101324.9999999893
0.1388888888888884 	300.0000000000553 	3.892300124535029e-13 	101324.9999999893
0.1413913913913909 	300.0000000000049 	8.933302643775657e-13 	101324.9999999894
0.1438938938938934 	299.9999999999896 	1.746558038392445e-13 	101324.9999999893
0.1463963963963959 	299.9999999999484 	1.227814406586719e-12 	101324.9999999894
0.1488988988988985 	299.999999999895 	1.299321664902226e-12 	101324.9999999895
0.1514014014014009 	299.9999999999653 	5.631170463335457e-13 	101324.9999999896
0.1539039039039035 	299.9999999999576 	2.746114767991e-12 	101324.9999999895
0.1564064064064059 	299.9999999999202 	6.126712270906051e-13 	101324.9999999897
0.1589089089089084 	299.9999999999715 	3.206740891149681e-12 	101324.9999999897
0.1614114114114109 	299.9999999999665 	6.722523098417376e-13 	101324.9999999897
0.1639139139139134 	299.9999999999022 	3.315244416726619e-12 	101324.99999999
0.166416416416416 	300.0000000000073 	2.128372993598959e-12 	101324.9999999899
0.1689189189189185 	300.0000000000394 	2.206087870188785e-12 	101324.9999999897
0.1714214214214209 	300.0000000000113 	2.932049192912968e-12 	101324.9999999896
0.1739239239239235 	299.9999999999912 	2.284858194330163e-12 	101324.9999999897
0.1764264264264259 	299.9999999999633 	4.582386173760058e-12 	101324.9999999898
0.1789289289289284 	300.0000000000083 	2.222511788825289e-12 	101324.9999999896
0.181431431431431 	299.999999999958 	4.237461431098621e-12 	101324.9999999894
0.1839339339339334 	299.9999999999665 	2.527412497816408e-12 	101324.9999999892
0.186436436436436 	299.9999999999171 	3.463844350338589e-12 	101324.9999999888
0.1889389389389385 	299.9999999999785 	2.818342279550558e-12 	101324.9999999887
0.191441441441441 	299.9999999999726 	2.567409707763475e-12 	101324.9999999884
0.1939439439439434 	299.9999999999022 	3.71118993674258e-12 	101324.9999999882
0.196446446446446 	299.9999999999333 	2.11757875581949e-12 	101324.9999999884
0.1989489489489485 	299.9999999999591 	4.188838545552499e-12 	101324.9999999886
0.2014514514514509 	299.9999999999807 	1.737697047354384e-12 	101324.9999999889
0.2039539539539535 	299.9999999999901 	2.419321434095151e-12 	101324.9999999891
0.2064564564564559 	299.9999999999499 	1.317798130643552e-12 	101324.999999989
0.2089589589589585 	299.9999999999828 	1.520565887873351e-12 	101324.9999999889
0.211461461461461 	299.9999999999194 	1.816201639585331e-12 	101324.999999989
0.2139639639639635 	299.9999999999758 	1.244665547702771e-12 	101324.9999999893
0.2164664664664659 	300.0000000000074 	2.561816896945703e-12 	101324.9999999895
0.2189689689689684 	300.000000000007 	6.677951878114031e-13 	101324.9999999897
0.221471471471471 	300.0000000000006 	3.208485087452792e-12 	101324.99999999
0.2239739739739735 	299.9999999999486 	1.397320328972253e-12 	101324.9999999898
0.226476476476476 	299.9999999999827 	3.513274401713412e-12 	101324.9999999897
0.2289789789789785 	299.9999999999899 	2.606373008862396e-12 	101324.9999999896
0.231481481481481 	299.999999999964 	2.638885708576616e-12 	101324.9999999898
0.2339839839839835 	299.9999999999945 	2.81357479928379e-12 	101324.9999999896
0.236486486486486 	300.0000000000269 	1.675998568120989e-12 	101324.9999999896
0.2389889889889885 	299.999999999999 	3.044766817808829e-12 	101324.9999999896
0.241491491491491 	299.9999999999022 	9.063238056105632e-13 	101324.9999999896
0.2439939939939935 	299.9999999999732 	3.994941583448662e-12 	101324.9999999896
0.246496496496496 	299.9999999999898 	1.378091826126926e-12 	101324.9999999894
0.2489989989989985 	300.0000000000417 	2.699150689448446e-12 	101324.9999999897
0.251501501501501 	300.0000000000355 	1.428448124209053e-12 	101324.9999999897
0.2540040040040035 	299.9999999999844 	1.580374790426669e-12 	101324.9999999899
0.256506506506506 	300.0000000000284 	1.911092049576278e-12 	101324.9999999899
0.2590090090090086 	299.9999999999014 	8.956767099809148e-13 	101324.9999999899
0.261511511511511 	300.0000000000054 	3.345861372882055e-12 	101324.9999999897
0.2640140140140135 	299.9999999999918 	9.018305697723737e-13 	101324.9999999897
0.2665165165165161 	299.9999999999224 	2.216084263456296e-12 	101324.9999999893
0.2690190190190185 	300.0000000000125 	9.095410925508757e-13 	101324.9999999891
0.271521521521521 	300.0000000000153 	1.411125670384305e-12 	101324.9999999891
0.2740240240240235 	300.0000000000157 	1.242564819779206e-12 	101324.9999999892
0.276526526526526 	300.0000000000064 	7.905996485243301e-13 	101324.9999999892
0.2790290290290286 	299.9999999999297 	1.25160417409114e-12 	101324.9999999891
0.281531531531531 	299.999999999911 	3.258920699717125e-13 	101324.9999999894
0.2840340340340335 	299.9999999999768 	1.325222653402943e-12 	101324.9999999896
0.2865365365365361 	299.9999999999521 	2.98302490046209e-13 	101324.9999999898
0.2890390390390385 	299.9999999999932 	1.137564311042579e-12 	101324.9999999898
0.291541541541541 	299.9999999999936 	1.267075475212652e-12 	101324.9999999896
0.2940440440440436 	299.9999999999905 	1.718893246270234e-13 	101324.9999999894
0.296546546546546 	299.9999999999874 	1.486122398804345e-12 	101324.9999999891
0.2990490490490486 	299.9999999999246 	2.259289916077138e-12 	101324.999999989
0.3015515515515511 	300.0000000000391 	2.89610621174606e-12 	101324.9999999887
0.3040540540540535 	300.0000000000092 	3.481679624985489e-12 	101324.999999989
0.3065565565565562 	299.9999999999826 	3.482502920190379e-12 	101324.9999999892
0.3090590590590585 	299.9999999999831 	2.413850732374018e-12 	101324.9999999894
0.3115615615615611 	299.9999999999249 	3.265514210916038e-12 	101324.9999999894
0.3140640640640635 	300.0000000000101 	1.394879386546194e-12 	101324.9999999894
0.316566566566566 	299.999999999993 	2.185106123280765e-12 	101324.9999999893
0.3190690690690687 	299.9999999999373 	1.629553316430951e-12 	101324.9999999894
0.3215715715715711 	300.0000000000152 	1.501659789118194e-12 	101324.9999999895
0.3240740740740735 	299.9999999999969 	1.6600130804577e-12 	101324.9999999894
0.326576576576576 	299.999999999892 	5.835353392905202e-13 	101324.9999999892
0.3290790790790786 	300.0000000000078 	1.666807975936936e-12 	101324.9999999891
0.3315815815815811 	300.0000000000394 	6.995408352084792e-13 	101324.9999999891
0.3340840840840836 	299.9999999999836 	1.699365946423373e-12 	101324.9999999889
0.3365865865865861 	300.0000000000603 	5.881039965848014e-13 	101324.9999999891
0.3390890890890886 	300.0000000000514 	1.045504681957292e-12 	101324.9999999892
0.3415915915915911 	299.9999999999997 	1.208103651373425e-12 	101324.9999999894
0.3440940940940935 	299.9999999999495 	7.031514133064875e-13 	101324.9999999894
0.3465965965965962 	300.0000000000356 	1.504815101586493e-12 	101324.9999999896
0.3490990990990985 	300.0000000000276 	8.534519296447007e-14 	101324.9999999895
0.3516016016016011 	299.9999999999882 	4.75389633225838e-13 	101324.9999999893
0.3541041041041035 	300.0000000000052 	4.141930997084975e-13 	101324.999999989
0.3566066066066061 	299.9999999999458 	1.135147867051237e-12 	101324.999999989
0.3591091091091085 	299.9999999999115 	7.549186624438138e-13 	101324.999999989
0.3616116116116112 	299.9999999999314 	2.235638635073734e-12 	101324.9999999891
0.3641141141141137 	299.9999999999245 	1.799682325663951e-12 	101324.999999989
0.3666166166166161 	299.9999999999176 	3.008047169147439e-12 	101324.999999989
0.3691191191191185 	300.0000000000463 	2.573248428805937e-12 	101324.9999999891
0.371621621621621 	300.0000000000139 	3.158069532008504e-12 	101324.9999999892
0.3741241241241237 	300.0000000000592 	1.918568880595032e-12 	101324.9999999893
0.3766266266266261 	300.0000000000336 	2.642896836946721e-12 	101324.9999999893
0.3791291291291286 	299.9999999999834 	8.380686315728989e-13 	101324.9999999891
0.3816316316316311 	299.9999999999176 	2.251035237458028e-12 	101324.9999999889
0.3841341341341336 	300.0000000000181 	1.270543314727703e-12 	101324.9999999888
0.3866366366366362 	299.9999999999983 	2.074304534821903e-12 	101324.999999989
0.3891391391391387 	299.9999999999493 	3.32641305168404e-13 	101324.9999999893
0.391641641641641 	299.9999999999974 	1.75055864279853e-12 	101324.9999999893
0.3941441441441436 	300.0000000000084 	4.005660481179362e-13 	101324.9999999892
0.3966466466466462 	299.9999999999991 	1.676643449725856e-12 	101324.9999999895
0.3991491491491486 	299.9999999999439 	7.188948931927451e-13 	101324.9999999893
0.4016516516516512 	299.9999999999002 	1.529417983862252e-12 	101324.9999999892
0.4041541541541536 	299.9999999999386 	7.90227047887469e-13 	101324.9999999891
0.4066566566566561 	299.9999999999401 	1.528494983148593e-12 	101324.9999999892
0.4091591591591587 	299.9999999999908 	7.219759625125537e-13 	101324.9999999893
0.4116616616616612 	300.0000000000063 	1.592663580310025e-12 	101324.9999999895
0.4141641641641635 	300.0000000000497 	1.115185194828015e-12 	101324.9999999897
0.4166666666666662 	299.9999999999969 	1.157331456591468e-12 	101324.9999999899
0.4191691691691687 	299.9999999999334 	2.122466193111662e-12 	101324.9999999897
0.421671671671671 	300.0000000000168 	1.658405740633211e-12 	101324.9999999896
0.4241741741741737 	299.999999999975 	2.794211870826101e-12 	101324.9999999898
0.4266766766766761 	299.99999999995 	2.714832756678913e-12 	101324.9999999898
0.4291791791791785 	300.0000000000222 	3.077554770605466e-12 	101324.9999999899
0.4316816816816812 	300.0000000000119 	3.617656863864894e-12 	101324.9999999899
0.4341841841841836 	299.999999999981 	2.402851927883356e-12 	101324.9999999897
0.4366866866866862 	299.9999999999071 	2.351530301249795e-12 	101324.9999999895
0.4391891891891885 	299.9999999999813 	2.315479528372229e-12 	101324.9999999894
0.4416916916916913 	299.9999999999772 	1.149722084385739e-12 	101324.9999999894
0.4441941941941936 	299.9999999999842 	1.574189280622338e-12 	101324.9999999893
0.4466966966966961 	299.9999999999067 	1.073698862970791e-12 	101324.9999999893
0.4491991991991987 	299.9999999999761 	4.278700954531389e-13 	101324.9999999891
0.4517017017017012 	299.9999999999712 	1.209198981865554e-12 	101324.999999989
0.4542042042042035 	299.9999999999865 	1.081458341156811e-12 	101324.999999989
0.4567067067067062 	299.9999999999969 	7.003822830832099e-13 	101324.9999999891
0.4592092092092087 	299.9999999999194 	1.076981841738876e-12 	101324.9999999891
0.4617117117117112 	300.0000000000201 	1.314430807534899e-12 	101324.9999999892
0.4642142142142137 	299.9999999999566 	1.329682853801965e-12 	101324.9999999894
0.4667167167167162 	299.9999999999935 	1.342386736926785e-12 	101324.9999999896
0.4692192192192187 	299.9999999999483 	1.425627961998327e-12 	101324.9999999897
0.4717217217217212 	300.0000000000148 	1.573214958523523e-12 	101324.9999999897
0.4742242242242236 	299.999999999954 	9.096534684423567e-13 	101324.9999999899
0.4767267267267262 	299.9999999999634 	1.188684304173391e-12 	101324.9999999898
0.4792292292292287 	300.0000000000201 	1.073083652906121e-12 	101324.9999999897
0.4817317317317312 	300.0000000000371 	8.646626005042874e-13 	101324.9999999899
0.4842342342342336 	299.9999999999798 	1.278911923321072e-12 	101324.9999999897
0.4867367367367362 	299.9999999999515 	7.995712317992634e-13 	101324.9999999897
0.4892392392392387 	300.0000000000309 	1.559404972673718e-12 	101324.99999999
0.4917417417417412 	300.0000000000084 	7.301511056715112e-13 	101324.9999999901
0.4942442442442437 	299.9999999998996 	1.223691155514432e-12 	101324.99999999
0.4967467467467462 	299.9999999999198 	1.083069272894391e-12 	101324.99999999
0.4992492492492487 	299.9999999999136 	1.224008043076093e-12 	101324.9999999901
0.5017517517517511 	299.9999999999561 	1.090348874726988e-13 	101324.9999999901
0.5042542542542537 	299.999999999964 	3.973646417059396e-13 	101324.9999999901
0.5067567567567562 	299.9999999999428 	7.154817165342196e-13 	101324.9999999901
0.5092592592592589 	299.9999999999621 	1.286983176140643e-12 	101324.9999999903
0.5117617617617611 	299.9999999999591 	2.736583731679902e-12 	101324.99999999
0.5142642642642637 	299.999999999993 	1.446741322369361e-12 	101324.9999999901
0.5167667667667663 	299.999999999975 	3.87426024734076e-12 	101324.99999999
0.5192692692692688 	299.9999999999121 	1.769158551592602e-12 	101324.99999999
0.5217717717717714 	299.9999999999421 	5.745144665510299e-12 	101324.9999999899
0.5242742742742736 	299.9999999999412 	2.015118964526761e-12 	101324.99999999
0.5267767767767763 	299.99999999996 	5.621635998432023e-12 	101324.9999999898
0.5292792792792789 	299.9999999999381 	2.345298744117227e-12 	101324.9999999899
0.5317817817817813 	299.9999999999035 	6.067590077391866e-12 	101324.9999999899
0.5342842842842837 	300.0000000000173 	4.614462702713408e-12 	101324.9999999901
0.5367867867867864 	300.0000000000031 	6.050993563106271e-12 	101324.9999999901
0.5392892892892888 	299.9999999999536 	4.177915662827448e-12 	101324.9999999904
0.5417917917917912 	300.0000000000015 	5.15469427190606e-12 	101324.9999999906
0.5442942942942938 	299.9999999999801 	3.81841639014071e-12 	101324.9999999904
0.5467967967967964 	299.9999999999395 	4.642581212295825e-12 	101324.9999999902
0.5492992992992988 	299.9999999999373 	3.210895679699663e-12 	101324.9999999901
0.5518018018018012 	299.9999999999367 	3.844825100259012e-12 	101324.99999999
0.5543043043043039 	300.000000000021 	2.410391864136406e-12 	101324.99999999
0.5568068068068063 	299.999999999991 	2.92646464086167e-12 	101324.9999999899
0.5593093093093087 	299.9999999999 	1.374487906463797e-12 	101324.9999999897
0.5618118118118114 	299.9999999999555 	3.297591150162059e-12 	101324.99999999
0.5643143143143137 	299.9999999999328 	1.990610393290275e-12 	101324.9999999904
0.5668168168168163 	299.9999999999879 	3.223272123624034e-12 	101324.9999999905
0.5693193193193188 	300.0000000000314 	2.889011644929181e-12 	101324.9999999906
0.5718218218218213 	300.0000000000259 	2.306812150497328e-12 	101324.9999999908
0.5743243243243239 	300.0000000000064 	3.06101818625966e-12 	101324.9999999908
0.5768268268268262 	300.0000000000031 	1.598053233201988e-12 	101324.9999999908
0.5793293293293288 	299.9999999999406 	4.192213268529777e-12 	101324.9999999906
0.5818318318318314 	299.9999999999135 	2.365544212170964e-12 	101324.9999999907
0.5843343343343338 	299.999999999984 	5.587455037636785e-12 	101324.9999999906
0.5868368368368363 	299.999999999977 	1.674600585302555e-12 	101324.9999999905
0.5893393393393387 	299.9999999999444 	5.047735667748276e-12 	101324.9999999903
0.5918418418418413 	299.9999999999408 	2.544923701036905e-12 	101324.99999999
0.5943443443443439 	300.0000000000178 	5.134682561687367e-12 	101324.9999999899
0.5968468468468463 	300.0000000000185 	3.352533546783994e-12 	101324.9999999898
0.5993493493493487 	300.000000000042 	4.781262270874643e-12 	101324.9999999898
0.6018518518518514 	299.9999999999817 	3.211183565397993e-12 	101324.99999999
0.6043543543543537 	299.9999999999944 	4.064760951052893e-12 	101324.9999999899
0.6068568568568564 	299.9999999999811 	2.604795728753805e-12 	101324.99999999
0.6093593593593587 	299.999999999927 	3.886466761445905e-12 	101324.99999999
0.6118618618618614 	299.999999999919 	2.79960944718594e-12 	101324.9999999904
0.6143643643643638 	300.0000000000146 	3.747280108060223e-12 	101324.9999999906
0.6168668668668662 	299.9999999999844 	2.075989277000148e-12 	101324.9999999905
0.6193693693693688 	299.9999999999557 	3.553898330855509e-12 	101324.9999999905
0.6218718718718714 	299.9999999999642 	1.953124632135692e-12 	101324.9999999902
0.6243743743743737 	299.9999999999302 	4.444938349010442e-12 	101324.9999999903
0.6268768768768762 	299.9999999999167 	3.532357975581925e-12 	101324.9999999902
0.629379379379379 	299.9999999999479 	4.918582196423979e-12 	101324.9999999902
0.6318818818818812 	299.999999999972 	4.65016640298395e-12 	101324.9999999901
0.6343843843843838 	300.0000000000178 	4.157928667082753e-12 	101324.99999999
0.6368868868868864 	299.9999999999844 	4.827455336406365e-12 	101324.99999999
0.6393893893893888 	299.9999999999172 	3.693427682146675e-12 	101324.9999999898
0.6418918918918912 	300.0000000000023 	6.237845630054528e-12 	101324.9999999898
0.6443943943943939 	299.9999999999787 	3.337084090376292e-12 	101324.99999999
0.6468968968968963 	299.9999999999852 	7.543886441477713e-12 	101324.9999999901
0.6493993993993988 	299.9999999999756 	3.935857095439712e-12 	101324.99999999
0.6519019019019012 	299.9999999999759 	7.585233837829984e-12 	101324.9999999902
0.6544044044044038 	299.9999999998952 	4.403477656128584e-12 	101324.9999999903
0.6569069069069065 	299.999999999948 	7.498301944441692e-12 	101324.9999999903
0.6594094094094087 	299.9999999999567 	4.900598304340824e-12 	101324.9999999904
0.6619119119119113 	299.9999999999507 	7.327775901338961e-12 	101324.9999999907
0.664414414414414 	300.0000000000089 	5.414807607157743e-12 	101324.9999999909
0.6669169169169162 	300.0000000000146 	6.918169844114174e-12 	101324.999999991
0.6694194194194188 	299.9999999999783 	5.249753278228009e-12 	101324.999999991
0.6719219219219214 	299.9999999999143 	6.814367919440043e-12 	101324.9999999909
0.674424424424424 	299.9999999999717 	5.476033735045809e-12 	101324.9999999911
0.6769269269269262 	299.9999999999106 	6.16314198700979e-12 	101324.9999999915
0.679429429429429 	300.0000000000022 	5.074272433459495e-12 	101324.9999999916
0.6819319319319311 	299.9999999999754 	5.535343614461508e-12 	101324.9999999914
0.6844344344344341 	299.9999999999943 	4.824322967990012e-12 	101324.9999999913
0.686936936936936 	299.999999999996 	5.754946050829824e-12 	101324.9999999913
0.6894394394394392 	299.9999999999999 	4.96258532676086e-12 	101324.9999999914
0.6919419419419413 	299.999999999985 	5.078126816440405e-12 	101324.9999999917
0.694444444444444 	299.9999999999296 	5.190030103072376e-12 	101324.9999999918
0.6969469469469463 	299.9999999999187 	4.899482849094867e-12 	101324.9999999917
0.6994494494494489 	299.999999999917 	5.397812685891436e-12 	101324.9999999915
0.7019519519519515 	299.9999999999841 	4.27763377731946e-12 	101324.9999999914
0.7044544544544538 	299.9999999999496 	5.726182095567628e-12 	101324.9999999914
0.7069569569569564 	299.9999999999982 	3.83812382420418e-12 	101324.9999999915
0.7094594594594589 	299.9999999999644 	6.007347578965007e-12 	101324.9999999915
0.7119619619619615 	299.9999999999093 	3.878088678910107e-12 	101324.9999999915
0.7144644644644638 	299.9999999999552 	6.10032893197492e-12 	101324.9999999916
0.7169669669669665 	299.9999999999175 	5.26514200038616e-12 	101324.9999999914
0.7194694694694688 	299.999999999988 	6.478305654971958e-12 	101324.9999999912
0.7219719719719715 	299.9999999999851 	5.407518406411563e-12 	101324.999999991
0.7244744744744737 	300.0000000000089 	5.768985089403839e-12 	101324.9999999908
0.7269769769769764 	299.9999999999981 	5.245827035714672e-12 	101324.9999999909
0.7294794794794791 	299.9999999999851 	4.119501024893824e-12 	101324.9999999911
0.7319819819819813 	299.9999999999775 	5.687899856170236e-12 	101324.9999999913
0.7344844844844839 	299.999999999916 	4.172833414000433e-12 	101324.9999999913
0.7369869869869864 	299.9999999999459 	5.4179656055022e-12 	101324.9999999915
0.739489489489489 	299.9999999999374 	5.061254033841699e-12 	101324.9999999917
0.7419919919919914 	299.9999999999222 	4.90106764686705e-12 	101324.9999999919
0.7444944944944939 	299.9999999999785 	5.477881754496897e-12 	101324.9999999921
0.7469969969969963 	299.9999999999624 	3.871324588553621e-12 	101324.9999999922
0.7494994994994989 	299.9999999999344 	6.173996074674481e-12 	101324.9999999924
0.7520020020020015 	299.9999999999654 	3.939995031978231e-12 	101324.9999999925
0.7545045045045039 	299.9999999999627 	6.934037095211841e-12 	101324.9999999926
0.7570070070070062 	299.9999999999396 	4.656136146241489e-12 	101324.9999999925
0.7595095095095092 	299.9999999999288 	6.741101983997876e-12 	101324.9999999924
0.7620120120120112 	300.0000000000089 	5.762821229310024e-12 	101324.9999999925
0.7645145145145138 	299.9999999999886 	5.49310957952612e-12 	101324.9999999926
0.7670170170170165 	299.9999999999339 	5.5518216919773e-12 	101324.9999999928
0.7695195195195191 	299.9999999999217 	4.687569176106994e-12 	101324.999999993
0.7720220220220213 	299.9999999999292 	6.98657391469827e-12 	101324.9999999931
0.7745245245245239 	299.9999999999251 	5.383636200479085e-12 	101324.9999999931
0.7770270270270263 	299.9999999999731 	7.448145221088926e-12 	101324.999999993
0.779529529529529 	299.9999999999816 	6.324924142470318e-12 	101324.999999993
0.7820320320320313 	299.9999999999686 	7.036420529075707e-12 	101324.9999999931
0.784534534534534 	300.0000000000026 	6.848221241961182e-12 	101324.9999999931
0.7870370370370364 	299.9999999999986 	6.42265497024727e-12 	101324.999999993
0.7895395395395389 	299.9999999999968 	7.380058019800301e-12 	101324.9999999929
0.7920420420420413 	299.9999999999793 	6.484029485183519e-12 	101324.9999999928
0.794544544544544 	299.9999999999663 	8.134508400285659e-12 	101324.9999999929
0.7970470470470463 	300.0000000000015 	6.525536264607766e-12 	101324.9999999932
0.799549549549549 	299.9999999999858 	9.909903712090538e-12 	101324.9999999934
0.8020520520520515 	299.9999999999862 	7.483457109241797e-12 	101324.9999999935
0.8045545545545539 	299.9999999999428 	9.730392252139813e-12 	101324.9999999936
0.8070570570570563 	299.9999999999748 	8.704122890490354e-12 	101324.9999999937
0.8095595595595589 	299.9999999999513 	9.319763109202769e-12 	101324.9999999938
0.8120620620620614 	299.9999999999361 	9.027793957639861e-12 	101324.9999999941
0.8145645645645638 	300.0000000000014 	8.381305335776499e-12 	101324.9999999942
0.8170670670670666 	300.0000000000001 	9.059244203796714e-12 	101324.9999999942
0.8195695695695689 	299.9999999999825 	8.053327962843156e-12 	101324.9999999942
0.8220720720720714 	299.9999999999434 	1.101436050328772e-11 	101324.999999994
0.8245745745745739 	299.9999999999933 	8.640490778186757e-12 	101324.9999999941
0.8270770770770765 	299.9999999999692 	9.814413443861486e-12 	101324.999999994
0.8295795795795788 	299.9999999999493 	8.378739736844871e-12 	101324.9999999939
0.8320820820820815 	300.0000000000123 	9.205012965541336e-12 	101324.9999999936
0.834584584584584 	300.0000000000053 	8.613581470898197e-12 	101324.9999999933
0.8370870870870865 	299.9999999999662 	8.748708513293852e-12 	101324.9999999934
0.8395895895895891 	299.9999999999239 	9.442830715080733e-12 	101324.9999999935
0.8420920920920915 	299.999999999939 	8.485094533287851e-12 	101324.9999999937
0.844594594594594 	299.9999999999393 	8.854823513228282e-12 	101324.9999999939
0.8470970970970964 	299.9999999999588 	9.214126213287545e-12 	101324.9999999937
0.8495995995995991 	299.999999999988 	9.443201186166031e-12 	101324.9999999936
0.8521021021021015 	299.9999999999791 	1.014433395906624e-11 	101324.9999999936
0.8546046046046039 	299.999999999975 	9.119844291394553e-12 	101324.9999999936
0.8571071071071066 	300.0000000000006 	9.987137133527567e-12 	101324.9999999938
0.8596096096096089 	299.9999999999638 	7.495228022031448e-12 	101324.9999999941
0.8621121121121116 	299.9999999999313 	1.009298114886134e-11 	101324.9999999942
0.8646146146146139 	299.9999999999968 	7.808972470765915e-12 	101324.9999999943
0.8671171171171166 	299.9999999999729 	9.227036284082323e-12 	101324.9999999942
0.8696196196196189 	299.9999999999417 	8.48520545793465e-12 	101324.9999999942
0.8721221221221216 	299.9999999999773 	9.191882632782634e-12 	101324.9999999942
0.874624624624624 	300.0000000000011 	9.175663235149903e-12 	101324.9999999943
0.8771271271271264 	299.9999999999984 	9.154413909417453e-12 	101324.9999999943
0.879629629629629 	300.0000000000053 	1.009653032105372e-11 	101324.9999999942
0.8821321321321317 	299.9999999999825 	8.797185621778512e-12 	101324.9999999943
0.8846346346346339 	299.9999999999184 	1.127964492544824e-11 	101324.9999999942
0.8871371371371364 	299.9999999999563 	8.913984742776834e-12 	101324.999999994
0.8896396396396391 	299.9999999999594 	1.060078027353033e-11 	101324.9999999938
0.8921421421421414 	299.9999999999591 	9.534243253135365e-12 	101324.999999994
0.8946446446446441 	299.9999999999819 	1.072189636909291e-11 	101324.9999999941
0.8971471471471464 	299.9999999999997 	1.061583188643447e-11 	101324.999999994
0.8996496496496489 	299.9999999999799 	1.068448534598963e-11 	101324.9999999942
0.9021521521521517 	299.9999999999692 	1.167046292919482e-11 	101324.9999999946
0.9046546546546541 	299.9999999999961 	1.042218027309607e-11 	101324.9999999947
0.9071571571571564 	299.9999999999528 	1.079326162581376e-11 	101324.9999999946
0.9096596596596589 	299.9999999999454 	1.084059744946036e-11 	101324.9999999946
0.9121621621621616 	300.0000000000043 	1.103871584041885e-11 	101324.9999999948
0.9146646646646639 	299.9999999999758 	1.097564282412113e-11 	101324.9999999948
0.9171671671671666 	299.9999999999476 	1.083881809454411e-11 	101324.9999999948
0.9196696696696689 	300.0000000000063 	1.165612769466968e-11 	101324.9999999949
0.9221721721721714 	299.9999999999964 	9.993928869766981e-12 	101324.9999999951
0.9246746746746741 	299.9999999999362 	1.254748710541546e-11 	101324.999999995
0.9271771771771765 	299.999999999952 	1.033858415842982e-11 	101324.9999999951
0.9296796796796791 	299.9999999999941 	1.250076311184002e-11 	101324.9999999951
0.9321821821821816 	299.9999999999676 	1.103421889448103e-11 	101324.9999999951
0.9346846846846838 	299.9999999999456 	1.193810852570569e-11 	101324.9999999952
0.9371871871871866 	300.0000000000118 	1.111716594222531e-11 	101324.9999999952
0.9396896896896891 	300.000000000012 	1.105098412019315e-11 	101324.9999999952
0.9421921921921914 	300.0000000000085 	1.104241575462865e-11 	101324.999999995
0.9446946946946939 	299.9999999999671 	9.779841062935917e-12 	101324.999999995
0.9471971971971965 	299.9999999999252 	1.226294000316179e-11 	101324.999999995
0.9496996996996991 	299.9999999999649 	1.030495076757098e-11 	101324.9999999952
0.9522022022022016 	299.999999999981 	1.205219761790697e-11 	101324.9999999954
0.9547047047047038 	299.9999999999721 	1.122804142148632e-11 	101324.9999999956
0.9572072072072064 	299.9999999999561 	1.259327460563649e-11 	101324.9999999958
0.9597097097097093 	299.9999999999662 	1.270476379674333e-11 	101324.999999996
0.9622122122122114 	299.9999999999641 	1.260409467997605e-11 	101324.999999996
0.964714714714714 	299.9999999999558 	1.312603877617846e-11 	101324.9999999961
0.9672172172172167 	299.9999999999559 	1.212691537478766e-11 	101324.9999999962
0.969719719719719 	299.9999999999831 	1.30780747390129e-11 	101324.9999999963
0.9722222222222214 	299.999999999982 	1.298330004798074e-11 	101324.9999999964
0.9747247247247239 	299.9999999999731 	1.379038131221548e-11 	101324.9999999966
0.9772272272272267 	300.0000000000047 	1.434451776174791e-11 	101324.9999999968
0.9797297297297292 	299.9999999999907 	1.438574774442773e-11 	101324.9999999968
0.9822322322322313 	299.9999999999935 	1.565085771713784e-11 	101324.9999999967
0.9847347347347344 	299.999999999987 	1.466737818318592e-11 	101324.9999999967
0.9872372372372363 	299.9999999999436 	1.754703872054183e-11 	101324.9999999969
0.9897397397397389 	299.9999999999623 	1.481199780871202e-11 	101324.9999999969
0.9922422422422417 	299.9999999999478 	1.667643377949127e-11 	101324.9999999971
0.9947447447447441 	299.9999999999685 	1.531478729491638e-11 	101324.9999999974
0.9972472472472468 	299.999999999972 	1.657221720105864e-11 	101324.9999999975
0.999749749749749 	299.9999999999667 	1.602180225131452e-11 	101324.9999999975
1.002252252252252 	299.9999999999758 	1.635579892579966e-11 	101324.9999999975
1.004754754754754 	299.9999999999923 	1.602256555881359e-11 	101324.9999999975
1.007257257257256 	299.9999999999743 	1.479988791199669e-11 	101324.9999999975
1.009759759759759 	299.999999999965 	1.663274425602574e-11 	101324.9999999974
1.012262262262261 	299.9999999999633 	1.490806294030279e-11 	101324.9999999972
1.014764764764764 	299.9999999999339 	1.72755901475318e-11 	101324.9999999969
1.017267267267267 	299.9999999999237 	1.627148922745079e-11 	101324.9999999969
1.019769769769769 	299.9999999999778 	1.71120661078318e-11 	101324.9999999968
1.022272272272272 	299.9999999999906 	1.653248630462529e-11 	101324.9999999967
1.024774774774774 	299.9999999999882 	1.648360523816014e-11 	101324.9999999966
1.027277277277277 	299.9999999999822 	1.765983916755184e-11 	101324.9999999964
1.029779779779779 	300.0000000000118 	1.651284995482122e-11 	101324.9999999963
1.032282282282282 	300.0000000000117 	1.683894176274815e-11 	101324.9999999962
1.034784784784784 	300.0000000000014 	1.567852625251312e-11 	101324.9999999963
1.037287287287286 	299.9999999999683 	1.623648024156086e-11 	101324.9999999964
1.039789789789789 	299.9999999999708 	1.627519065722813e-11 	101324.9999999967
1.042292292292291 	300.0000000000077 	1.661657133948127e-11 	101324.9999999967
1.044794794794794 	300.0000000000281 	1.67781861505017e-11 	101324.9999999967
1.047297297297296 	300.000000000048 	1.563370435678549e-11 	101324.9999999967
1.049799799799799 	299.999999999995 	1.746593512851766e-11 	101324.9999999967
1.052302302302302 	299.9999999999551 	1.573741744430007e-11 	101324.9999999969
1.054804804804804 	299.9999999999341 	1.795588164805213e-11 	101324.999999997
1.057307307307306 	299.9999999999206 	1.680249429795758e-11 	101324.9999999971
1.059809809809809 	299.9999999999623 	1.803857169629602e-11 	101324.9999999972
1.062312312312312 	299.9999999999569 	1.715833190967416e-11 	101324.9999999974
1.064814814814814 	299.9999999999502 	1.736076146123654e-11 	101324.9999999974
1.067317317317317 	299.999999999925 	1.694743753553011e-11 	101324.9999999974
1.069819819819819 	299.9999999999301 	1.677910608554362e-11 	101324.9999999974
1.072322322322321 	299.9999999999974 	1.863326270197994e-11 	101324.9999999973
1.074824824824824 	300.0000000000157 	1.675451904440176e-11 	101324.9999999972
1.077327327327327 	300.0000000000346 	1.856729691668787e-11 	101324.9999999972
1.079829829829829 	300.0000000000472 	1.721672622657412e-11 	101324.9999999971
1.082332332332332 	300.0000000000115 	1.812165496973804e-11 	101324.999999997
1.084834834834834 	299.9999999999814 	1.763541617596825e-11 	101324.9999999971
1.087337337337337 	299.9999999999425 	1.749345326414509e-11 	101324.9999999972
1.089839839839839 	299.99999999993 	1.890947963905735e-11 	101324.9999999971
1.092342342342342 	299.9999999999687 	1.722042818880196e-11 	101324.9999999973
1.094844844844844 	299.9999999999668 	1.84018550551529e-11 	101324.9999999975
1.097347347347347 	299.9999999999371 	1.723027107909955e-11 	101324.9999999976
1.099849849849849 	299.9999999999272 	2.039731906119945e-11 	101324.9999999977
1.102352352352352 	299.9999999999553 	1.823174029343592e-11 	101324.9999999978
1.104854854854854 	299.9999999999745 	2.063889044628331e-11 	101324.9999999977
1.107357357357357 	299.9999999999566 	1.913764786777459e-11 	101324.9999999975
1.109859859859859 	299.9999999999526 	2.085113851203307e-11 	101324.9999999975
1.112362362362362 	300.0000000000201 	1.978334448453042e-11 	101324.9999999978
1.114864864864865 	300.0000000000189 	2.016996846201357e-11 	101324.9999999979
1.117367367367367 	299.9999999999687 	2.113291833047933e-11 	101324.999999998
1.119869869869869 	299.9999999999299 	1.934116692546829e-11 	101324.999999998
1.122372372372372 	299.9999999999645 	2.106912520627004e-11 	101324.999999998
1.124874874874874 	299.9999999999574 	1.985083643220146e-11 	101324.999999998
1.127377377377377 	299.999999999962 	2.07358726984427e-11 	101324.999999998
1.129879879879879 	300.0000000000215 	1.985395028405472e-11 	101324.9999999979
1.132382382382382 	300.0000000000421 	2.07413590879306e-11 	101324.9999999978
1.134884884884884 	300.0000000000096 	2.044409140576634e-11 	101324.9999999977
1.137387387387387 	300.0000000000159 	2.063841479667794e-11 	101324.9999999978
1.139889889889889 	299.9999999999644 	2.259204184820745e-11 	101324.9999999979
1.142392392392392 	299.999999999954 	2.153492143647834e-11 	101324.9999999981
1.144894894894894 	300.0000000000174 	2.300816133144381e-11 	101324.9999999983
1.147397397397397 	299.9999999999959 	2.157446503553449e-11 	101324.9999999984
1.149899899899899 	299.9999999999349 	2.259699828377644e-11 	101324.9999999985
1.152402402402402 	299.9999999999256 	2.233126128912783e-11 	101324.9999999984
1.154904904904904 	299.9999999999627 	2.352292165386778e-11 	101324.999999998
1.157407407407407 	299.9999999999623 	2.263129779771778e-11 	101324.9999999976
1.159909909909909 	299.9999999999337 	2.258722398359188e-11 	101324.9999999975
1.162412412412412 	299.999999999928 	2.444703676475187e-11 	101324.9999999976
1.164914914914914 	299.9999999999537 	2.326235443464256e-11 	101324.9999999977
1.167417417417417 	299.9999999999635 	2.491423826552077e-11 	101324.999999998
1.169919919919919 	300.0000000000201 	2.313161266857094e-11 	101324.9999999983
1.172422422422422 	300.0000000000482 	2.34959602917161e-11 	101324.9999999983
1.174924924924925 	299.9999999999917 	2.144940408884405e-11 	101324.9999999983
1.177427427427427 	299.9999999999586 	2.15570566553421e-11 	101324.9999999984
1.179929929929929 	300.0000000000105 	2.221397975395533e-11 	101324.9999999985
1.182432432432432 	300.0000000000406 	2.023446871462711e-11 	101324.9999999985
1.184934934934934 	300.0000000000024 	2.184374442258504e-11 	101324.9999999985
1.187437437437437 	299.9999999999685 	2.116115452312217e-11 	101324.9999999983
1.189939939939939 	299.9999999999584 	2.270546183649027e-11 	101324.9999999985
1.192442442442442 	299.9999999999281 	2.190998401358944e-11 	101324.9999999986
1.194944944944944 	299.9999999999324 	2.303561939520215e-11 	101324.9999999985
1.197447447447447 	299.9999999999922 	2.223113728690267e-11 	101324.9999999984
1.199949949949949 	300.0000000000123 	2.239033193852537e-11 	101324.9999999983
1.202452452452452 	299.9999999999547 	2.337642817431678e-11 	101324.9999999984
1.204954954954955 	299.999999999947 	2.187774831941081e-11 	101324.9999999984
1.207457457457457 	299.9999999999766 	2.346503671858165e-11 	101324.9999999984
1.20995995995996 	299.9999999999717 	2.274884827135712e-11 	101324.9999999985
1.212462462462462 	299.9999999999881 	2.422675613428539e-11 	101324.9999999987
1.214964964964964 	299.9999999999876 	2.318366253243515e-11 	101324.9999999985
1.217467467467467 	299.9999999999778 	2.417495661612775e-11 	101324.9999999986
1.219969969969969 	299.9999999999666 	2.313353714075725e-11 	101324.9999999987
1.222472472472472 	300.0000000000201 	2.375672995319209e-11 	101324.9999999988
1.224974974974975 	300.0000000000455 	2.481599047905637e-11 	101324.9999999987
1.227477477477477 	299.9999999999951 	2.358363955207117e-11 	101324.9999999985
1.229979979979979 	299.9999999999835 	2.55660498993662e-11 	101324.9999999984
1.232482482482482 	299.9999999999525 	2.453119013779205e-11 	101324.9999999983
1.234984984984984 	299.9999999999495 	2.645742144304348e-11 	101324.9999999983
1.237487487487487 	299.9999999999728 	2.506557924562394e-11 	101324.9999999985
1.239989989989989 	299.999999999974 	2.558001191566741e-11 	101324.9999999988
1.242492492492492 	300.000000000007 	2.580035907831204e-11 	101324.999999999
1.244994994994994 	299.9999999999764 	2.398939959454033e-11 	101324.9999999991
1.247497497497497 	299.9999999999893 	2.53949996415177e-11 	101324.9999999991
1.249999999999999 	300.0000000002889 	2.464419194371506e-11 	101324.9999999992
