-1.25 	300 	0.07204084276959029 	101295.6107373854
-1.247497497497497 	299.9745578849661 	0.07079192795283984 	101296.1600248036
-1.244994994994995 	299.9760580185427 	0.06919095600452463 	101296.7180678602
-1.242492492492492 	299.9765504969072 	0.06800627687364874 	101297.280400176
-1.23998998998999 	299.977028989292 	0.06651738385544728 	101297.8467179681
-1.237487487487487 	299.9775131862466 	0.0651516244652084 	101298.4190560274
-1.234984984984985 	299.9780017276061 	0.06373730776113515 	101298.9965077964
-1.232482482482482 	299.9784944301277 	0.06230893253309079 	101299.5788794258
-1.22997997997998 	299.978990591588 	0.06087085804855653 	101300.1653423883
-1.227477477477477 	299.9794902122914 	0.05942325712424256 	101300.7558968916
-1.224974974974975 	299.9799944362044 	0.05796483980699921 	101301.3518936824
-1.222472472472472 	299.9805027514686 	0.05649454915145405 	101301.9527296997
-1.21996996996997 	299.9810144741423 	0.05500781700518189 	101302.5575960935
-1.217467467467467 	299.9815289774818 	0.05351102271697317 	101303.1657500146
-1.214964964964965 	299.9820470365885 	0.05201411670902592 	101303.7781107336
-1.212462462462462 	299.9825689012433 	0.0505058831166248 	101304.3949721525
-1.20995995995996 	299.9830932040803 	0.04898704730881927 	101305.0147174348
-1.207457457457457 	299.9836206262394 	0.04745592735700754 	101305.6381539236
-1.204954954954955 	299.9841514527855 	0.0459136512390245 	101306.2656165237
-1.202452452452452 	299.9846849186606 	0.04437252029083909 	101306.8962008503
-1.19994994994995 	299.9852210749445 	0.04282298022540017 	101307.5299694424
-1.197447447447447 	299.9857613407027 	0.04125828456439821 	101308.1685984562
-1.194944944944945 	299.9863041880729 	0.03968233742842477 	101308.8102795877
-1.192442442442442 	299.9868470332014 	0.0381047287931827 	101309.4519611403
-1.18993993993994 	299.9873925216349 	0.03652671224961078 	101310.0967732393
-1.187437437437437 	299.9879438941813 	0.03493431773049504 	101310.7485431472
-1.184934934934935 	299.9884972232908 	0.03333320099174534 	101311.4026259817
-1.182432432432432 	299.9890487269728 	0.03173160584399044 	101312.0545537338
-1.17992992992993 	299.9896014410622 	0.0301275605066078 	101312.7079167733
-1.177427427427427 	299.9901582422222 	0.02851753134364213 	101313.3661157998
-1.174924924924925 	299.9907182557305 	0.02689653424779383 	101314.0281149391
-1.172422422422422 	299.9912807934582 	0.0252667674718552 	101314.6930995124
-1.16991991991992 	299.9918460112978 	0.02362914756362994 	101315.3612536385
-1.167417417417417 	299.9924119794188 	0.02198948600250037 	101316.0302965624
-1.164914914914915 	299.9929758356344 	0.02035764792910674 	101316.6968476737
-1.162412412412412 	299.9935366711438 	0.01873235554261439 	101317.3598343742
-1.15990990990991 	299.9940976322205 	0.01710423500124177 	101318.0229733114
-1.157407407407407 	299.9946643623173 	0.0154603938858626 	101318.6929324252
-1.154904904904904 	299.9952395020244 	0.01379574675354437 	101319.3728336981
-1.152402402402403 	299.9958198755846 	0.01211675952663715 	101320.0589255133
-1.1498998998999 	299.9963998179923 	0.01043856603441138 	101320.7445127802
-1.147397397397397 	299.9969740436582 	0.008776215350432949 	101321.4233478275
-1.144894894894895 	299.9975413827437 	0.007130982333404361 	101322.0940452442
-1.142392392392392 	299.9981051853936 	0.00549697564632631 	101322.7605619737
-1.13988988988989 	299.9986694959184 	0.003861918885486191 	101323.427678028
-1.137387387387387 	299.999236766677 	0.002215057618702749 	101324.0982924724
-1.134884884884885 	299.9998100973214 	0.000773297003957295 	101324.7760706474
-1.132382382382382 	300.0003876171314 	0.001113666119344247 	101325.4588020419
-1.12987987987988 	300.0009647774436 	0.002785064351814346 	101326.1411120707
-1.127377377377377 	300.001540566579 	0.004453036667590187 	101326.8218070905
-1.124874874874875 	300.0021151655593 	0.00611763675363918 	101327.5011011898
-1.122372372372372 	300.0026887969713 	0.007779435607446627 	101328.1792570637
-1.11986986986987 	300.0032615972532 	0.0094388129350672 	101328.8564352533
-1.117367367367367 	300.0038336110509 	0.01109590163308333 	101329.5326880264
-1.114864864864865 	300.0044048169727 	0.01275064414138448 	101330.2079896084
-1.112362362362362 	300.0049751538187 	0.01440286592328484 	101330.8822673115
-1.10985985985986 	300.0055445388545 	0.01605233011806209 	101331.5554232107
-1.107357357357357 	300.0061128788624 	0.01769876700506232 	101332.2273467598
-1.104854854854855 	300.0066800751674 	0.01934189042291945 	101332.8979213666
-1.102352352352353 	300.00724602682 	0.02098140810075713 	101333.5670276115
-1.09984984984985 	300.0078106318865 	0.02261702464240974 	101334.2345447676
-1.097347347347347 	300.0083737876709 	0.02424844196728341 	101334.9003515799
-1.094844844844845 	300.0089353915253 	0.02587536257601893 	101335.5643266474
-1.092342342342342 	300.0094953408844 	0.02749748985811155 	101336.2263486221
-1.08983983983984 	300.0100535333158 	0.02911452592039646 	101336.8862963332
-1.087337337337337 	300.0106098664974 	0.03072617424261351 	101337.5440488502
-1.084834834834835 	300.0111642384429 	0.0323321404031552 	101338.1994855593
-1.082332332332332 	300.0117165475726 	0.03393212919151561 	101338.8524861824
-1.07982982982983 	300.012266692392 	0.03552584633086663 	101339.5029308515
-1.077327327327327 	300.0128145719474 	0.03711300008708896 	101340.1507001852
-1.074824824824825 	300.0133600857683 	0.03869329910032578 	101340.795675292
-1.072322322322323 	300.0139031337384 	0.04026645291205852 	101341.4377377778
-1.06981981981982 	300.0144436161877 	0.04183217306439096 	101342.0767696979
-1.067317317317317 	300.0149814336897 	0.04339017196429888 	101342.7126536388
-1.064814814814815 	300.0155164876719 	0.04494016315287486 	101343.3452728118
-1.062312312312312 	300.0160486799174 	0.04648186268620827 	101343.9745110678
-1.05980980980981 	300.0165779126739 	0.04801498782897261 	101344.6002529374
-1.057307307307307 	300.0171040889484 	0.04953925637318062 	101345.2223835266
-1.054804804804805 	300.0176271121219 	0.05105438886491533 	101345.8407885444
-1.052302302302302 	300.0181468861103 	0.05256010781765137 	101346.4553543993
-1.0497997997998 	300.0186633153454 	0.05405613605533725 	101347.0659681988
-1.047297297297297 	300.0191763052767 	0.05554219892603005 	101347.6725178502
-1.044794794794795 	300.0196857619021 	0.05701802439932631 	101348.2748920222
-1.042292292292292 	300.0201915913736 	0.05848334139328321 	101348.8729801362
-1.03978978978979 	300.0206937008023 	0.05993788109420098 	101349.4666724153
-1.037287287287287 	300.0211919985085 	0.06138137691478422 	101350.0558598231
-1.034784784784785 	300.0216863933036 	0.06281356351593581 	101350.6404342201
-1.032282282282283 	300.0221767938419 	0.06423417841119476 	101351.2202883503
-1.02977977977978 	300.0226631096918 	0.06564296154048026 	101351.7953157476
-1.027277277277277 	300.0231452526572 	0.06703965383254815 	101352.365410877
-1.024774774774775 	300.0236231348464 	0.06842399898875531 	101352.9304690449
-1.022272272272272 	300.0240966673679 	0.06979574352662317 	101353.4903864395
-1.01976976976977 	300.0245657621765 	0.07115463503127779 	101354.0450602078
-1.017267267267267 	300.0250303343053 	0.07250042375866581 	101354.5943883405
-1.014764764764765 	300.0254903004789 	0.07383286324657524 	101355.1382699135
-1.012262262262262 	300.0259455751342 	0.07515170852821146 	101355.6766050626
-1.00975975975976 	300.0263960716593 	0.07645671744672071 	101356.2092948594
-1.007257257257257 	300.0268417074931 	0.07774765108341167 	101356.7362415575
-1.004754754754755 	300.0272824047792 	0.07902427217535715 	101357.2573483903
-1.002252252252252 	300.0277180849221 	0.08028634652944958 	101357.7725196381
-0.9997497497497498 	300.0281486644116 	0.08153364350223911 	101358.2816609463
-0.9972472472472473 	300.0285740589772 	0.08276593411094434 	101358.7846789105
-0.9947447447447449 	300.0289941914335 	0.08398299225081853 	101359.2814811422
-0.9922422422422421 	300.0294089921487 	0.08518459514367423 	101359.7719765327
-0.9897397397397399 	300.0298183896759 	0.08637052209654361 	101360.2560750138
-0.9872372372372376 	300.0302223039256 	0.0875405561972698 	101360.733687908
-0.9847347347347346 	300.030620651396 	0.08869448358409721 	101361.2047277753
-0.9822322322322323 	300.0310133559349 	0.08983209175648665 	101361.6691079162
-0.9797297297297296 	300.0314003539729 	0.09095317210452675 	101362.1267430739
-0.9772272272272275 	300.0317815861517 	0.09205751987541209 	101362.5775494371
-0.9747247247247248 	300.0321569841261 	0.09314493209255383 	101363.0214441696
-0.9722222222222224 	300.0325264685326 	0.09421520955532861 	101363.458345973
-0.9697197197197196 	300.0328899585988 	0.09526815660315816 	101363.8881747483
-0.9672172172172175 	300.0332473846989 	0.09630357938227725 	101364.3108512736
-0.9647147147147147 	300.0335986922823 	0.09732128794225305 	101364.7262980716
-0.9622122122122124 	300.0339438320764 	0.09832109595060402 	101365.1344389333
-0.9597097097097099 	300.0342827469496 	0.09930281969627525 	101365.5351986536
-0.9572072072072073 	300.034615366886 	0.1002662799053774 	101365.9285040719
-0.9547047047047047 	300.0349416152266 	0.1012113003178385 	101366.3142832554
-0.9522022022022023 	300.0352614197964 	0.1021377065835819 	101366.6924648724
-0.9496996996996998 	300.035574722755 	0.1030453287801621 	101367.0629794488
-0.9471971971971973 	300.0358814792958 	0.1039340001768803 	101367.425758885
-0.9446946946946947 	300.0361816484777 	0.104803556699217 	101367.7807360863
-0.9421921921921923 	300.0364751848883 	0.1056538401437112 	101368.1278463815
-0.93968968968969 	300.0367620321587 	0.1064846955976696 	101368.4670265474
-0.9371871871871872 	300.0370421247018 	0.1072959694178963 	101368.7982137215
-0.9346846846846848 	300.0373153968193 	0.1080875129597785 	101369.1213471492
-0.9321821821821823 	300.0375817890493 	0.108859181488167 	101369.4363678128
-0.9296796796796799 	300.0378412506779 	0.1096108319068287 	101369.7432170509
-0.9271771771771771 	300.0380937405806 	0.1103423258193257 	101370.0418382687
-0.9246746746746748 	300.0383392242322 	0.111053529184502 	101370.3321769977
-0.9221721721721724 	300.0385776680537 	0.1117443100704469 	101370.6141790948
-0.9196696696696698 	300.0388090361482 	0.1124145417868821 	101370.8877925038
-0.9171671671671672 	300.0390332895085 	0.1130641032043377 	101371.1529681669
-0.9146646646646649 	300.0392503841605 	0.113692875384283 	101371.4096574142
-0.9121621621621623 	300.0394602738195 	0.1143007423920524 	101371.6578124397
-0.9096596596596597 	300.0396629143258 	0.1148875930632863 	101371.8973882292
-0.9071571571571573 	300.0398582630319 	0.1154533193864945 	101372.1283406911
-0.9046546546546547 	300.0400462791375 	0.1159978159204152 	101372.3506261762
-0.9021521521521524 	300.0402269258696 	0.1165209826787724 	101372.5642041009
-0.8996496496496498 	300.0404001699915 	0.1170227250923449 	101372.7690361889
-0.8971471471471473 	300.0405659791526 	0.1175029501728574 	101372.9650840651
-0.894644644644645 	300.0407243225477 	0.1179615676040916 	101373.1523107218
-0.892142142142142 	300.0408751724638 	0.118398493354911 	101373.3306820549
-0.8896396396396397 	300.0410185020581 	0.1188136468279356 	101373.5001651063
-0.8871371371371374 	300.0411542848665 	0.1192069491358127 	101373.6607274713
-0.8846346346346349 	300.0412824968323 	0.1195783278988827 	101373.8123394544
-0.8821321321321324 	300.0414031160971 	0.1199277173972142 	101373.9549744966
-0.8796296296296297 	300.0415161211339 	0.1202550530273655 	101374.0886064143
-0.8771271271271271 	300.0416214898765 	0.1205602714446702 	101374.2132087178
-0.8746246246246248 	300.0417192031848 	0.1208433166528387 	101374.3287583449
-0.8721221221221224 	300.0418092450184 	0.1211041393337912 	101374.4352361157
-0.8696196196196196 	300.041891597771 	0.1213426887315381 	101374.5326211451
-0.8671171171171175 	300.0419662433587 	0.1215589148341802 	101374.6208917373
-0.8646146146146148 	300.0420331694715 	0.1217527811581744 	101374.7000334775
-0.8621121121121121 	300.0420923672397 	0.1219242576726127 	101374.7700356429
-0.8596096096096097 	300.0421438218636 	0.1220733041322881 	101374.8308806755
-0.857107107107107 	300.0421875196352 	0.1221998862464578 	101374.8825526229
-0.8546046046046049 	300.04222345925 	0.1223039942548534 	101374.9250496024
-0.8521021021021022 	300.042251638034 	0.1223856153200659 	101374.9583685907
-0.8495995995995997 	300.0422720411391 	0.1224447152143716 	101374.9824920485
-0.8470970970970974 	300.0422846616729 	0.1224812787986408 	101374.997411754
-0.8445945945945946 	300.0422895108808 	0.1224953247474709 	101375.0031407651
-0.8420920920920922 	300.0422865879543 	0.1224868466106132 	101374.9996779247
-0.8395895895895897 	300.0422758712827 	0.1224558052375992 	101374.9869992702
-0.8370870870870872 	300.0422573657111 	0.1224022118600132 	101374.9651094005
-0.8345845845845846 	300.042231100284 	0.122326126588024 	101374.934042268
-0.8320820820820823 	300.0421970744406 	0.1222275501631611 	101374.8937976251
-0.8295795795795798 	300.0421552629692 	0.122106437942764 	101374.8443456003
-0.8270770770770772 	300.0421056828336 	0.1219628355849489 	101374.7857063071
-0.8245745745745746 	300.0420483827366 	0.1217968481875083 	101374.7179374171
-0.8220720720720721 	300.0419833583358 	0.1216084693774431 	101374.6410337021
-0.8195695695695699 	300.0419105698753 	0.1213976295200669 	101374.5549481836
-0.817067067067067 	300.0418300490106 	0.1211644116750705 	101374.4597184637
-0.8145645645645651 	300.0417418753435 	0.1209089894636207 	101374.355438581
-0.8120620620620621 	300.0416460422671 	0.1206313533105156 	101374.2421006288
-0.8095595595595597 	300.0415424829771 	0.1203313805653365 	101374.1196257476
-0.8070570570570572 	300.0414312386911 	0.1200091838595818 	101373.988062866
-0.8045545545545546 	300.0413124377661 	0.1196650466002865 	101373.8475636187
-0.8020520520520523 	300.041186085303 	0.1192989823886469 	101373.698133966
-0.7995495495495494 	300.0410520664383 	0.1189107669718588 	101373.5396381908
-0.7970470470470474 	300.0409104055529 	0.1185004881944355 	101373.3721052962
-0.7945445445445446 	300.0407613009463 	0.1180685909515399 	101373.1957698038
-0.7920420420420423 	300.0406048129836 	0.1176152048019109 	101373.0107029585
-0.7895395395395397 	300.0404407619217 	0.1171399567137154 	101372.8166922164
-0.7870370370370371 	300.0402690869912 	0.1166427598568341 	101372.6136659618
-0.7845345345345348 	300.0400900548002 	0.1161242304953539 	101372.4019395579
-0.7820320320320323 	300.0399038756021 	0.1155848266706294 	101372.1817614977
-0.7795295295295296 	300.0397103445866 	0.1150240989474949 	101371.9528895259
-0.7770270270270272 	300.0395092002478 	0.1144415171934347 	101371.7150145174
-0.7745245245245247 	300.0393006721627 	0.1138376505056908 	101371.4684082559
-0.7720220220220222 	300.0390852351288 	0.113213566621566 	101371.2136321727
-0.7695195195195199 	300.0388628596887 	0.1125691775350358 	101370.9506511935
-0.767017017017017 	300.0386330203063 	0.1119033271892163 	101370.67884377
-0.7645145145145147 	300.038395598143 	0.1112158316956355 	101370.3980699421
-0.7620120120120122 	300.0381512581936 	0.1105082521412506 	101370.1091163758
-0.7595095095095097 	300.037900538664 	0.109781785123686 	101369.812619132
-0.7570070070070072 	300.0376429714763 	0.1090353296856564 	101369.5080242087
-0.7545045045045048 	300.0373777320405 	0.1082670574548541 	101369.1943568647
-0.7520020020020022 	300.0371050197278 	0.1074775454738073 	101368.8718537582
-0.7494994994994997 	300.0368260308189 	0.1066695981110822 	101368.5419293677
-0.7469969969969972 	300.0365413100161 	0.1058444106777632 	101368.2052271349
-0.7444944944944945 	300.0362498239028 	0.1049995335118117 	101367.8605246951
-0.7419919919919924 	300.0359503391974 	0.1041321804556418 	101367.5063643863
-0.7394894894894897 	300.0356433716736 	0.1032437199212976 	101367.1433572687
-0.7369869869869872 	300.0353308371187 	0.1023387041029493 	101366.7737684986
-0.7344844844844846 	300.0350135460523 	0.1014189403412614 	101366.398555287
-0.7319819819819822 	300.0346898816003 	0.1004805105822222 	101366.0158048489
-0.7294794794794797 	300.0343577569582 	0.09951855176196582 	101365.6230509534
-0.7269769769769773 	300.0340175742845 	0.09853423835581203 	101365.2207709506
-0.7244744744744747 	300.0336722014779 	0.09753453779446172 	101364.8123562978
-0.721971971971972 	300.0333235689441 	0.09652397125270587 	101364.4000875644
-0.7194694694694695 	300.0329699972863 	0.09549832040599883 	101363.9819768801
-0.7169669669669674 	300.0326078864812 	0.0944489012774816 	101363.5537683835
-0.7144644644644647 	300.0322361444862 	0.09337330832131677 	101363.114173777
-0.711961961961962 	300.0318580596889 	0.09227977621290159 	101362.6670834974
-0.7094594594594597 	300.0314779677409 	0.09117887463900029 	101362.2176225905
-0.7069569569569573 	300.0310961956543 	0.0900711756787948 	101361.7661738145
-0.7044544544544545 	300.0307081696853 	0.08894527456820281 	101361.3073272064
-0.7019519519519523 	300.0303091767599 	0.08778967385289886 	101360.8355126075
-0.6994494494494495 	300.029899853395 	0.08660627502275635 	101360.3514874465
-0.6969469469469471 	300.029486255421 	0.08541033042607474 	101359.8624142097
-0.6944444444444446 	300.0290739326906 	0.08421557599764534 	101359.3748521597
-0.6919419419419421 	300.0286619417771 	0.08301937059822039 	101358.8876802716
-0.6894394394394396 	300.0282431643429 	0.08180369668723542 	101358.3924795612
-0.6869369369369374 	300.0278110737022 	0.08055228258495287 	101357.8815358519
-0.6844344344344344 	300.0273665092432 	0.07926759859412646 	101357.3558479794
-0.6819319319319321 	300.0269176900438 	0.07797069934313913 	101356.8251377894
-0.6794294294294296 	300.0264730267576 	0.07668289037569577 	101356.2993473424
-0.6769269269269272 	300.0260332142523 	0.07540566792737038 	101355.7792918375
-0.6744244244244245 	300.0255899686176 	0.07411763332216446 	101355.255171704
-0.6719219219219222 	300.0251328538031 	0.0727920767210492 	101354.7146490085
-0.6694194194194195 	300.0246584489439 	0.07142049755830804 	101354.1536852192
-0.6669169169169172 	300.024173948694 	0.07002175756969084 	101353.5807933563
-0.6644144144144146 	300.0236919177721 	0.06862844976262177 	101353.01083047
-0.661911911911912 	300.023220324745 	0.06726109881521841 	101352.4532129158
-0.6594094094094097 	300.0227558822 	0.06591090671676832 	101351.9040467336
-0.656906906906907 	300.0222860179874 	0.06454492568536624 	101351.3484640115
-0.6544044044044046 	300.0217980437599 	0.06313004193834706 	101350.7714659125
-0.6519019019019021 	300.0212887106749 	0.06165799297652746 	101350.1692189093
-0.6493993993993996 	300.020767149002 	0.06015303716216341 	101349.5525246193
-0.6468968968968971 	300.0202490316215 	0.0586565902171678 	101348.939914196
-0.6443943943943946 	300.0197460615818 	0.05719952381350179 	101348.3452183503
-0.6418918918918921 	300.0192580144056 	0.05578108535158442 	101347.7681626066
-0.6393893893893897 	300.0187725351143 	0.05436827841165866 	101347.1941334842
-0.6368868868868871 	300.0182726128753 	0.0529157226287339 	101346.6030196372
-0.6343843843843846 	300.0177469387514 	0.05139332126425361 	101345.9814576524
-0.6318818818818821 	300.0171968984425 	0.04980498873557385 	101345.3310958145
-0.6293793793793795 	300.0166361841237 	0.04818763801191057 	101344.6681290429
-0.6268768768768773 	300.016083416188 	0.04659144241671903 	101344.0145712918
-0.6243743743743745 	300.0155520452447 	0.0450529213854873 	101343.3864169667
-0.6218718718718721 	300.0150435440941 	0.04357563712939224 	101342.7852336715
-0.6193693693693696 	300.0145463625657 	0.04212805476812813 	101342.1973034026
-0.6168668668668671 	300.0140413832123 	0.04065851582166949 	101341.6002076408
-0.6143643643643645 	300.0135111240282 	0.03911924714919564 	101340.9732467159
-0.6118618618618621 	300.0129474708986 	0.03748808648272242 	101340.3068059089
-0.6093593593593596 	300.0123553326901 	0.03577859655483856 	101339.6066984734
-0.6068568568568571 	300.0117507616087 	0.03403491657675649 	101338.8919087693
-0.6043543543543546 	300.0111545577749 	0.0323143256374699 	101338.187028795
-0.6018518518518521 	300.0105842979013 	0.03066539447067767 	101337.5128339803
-0.5993493493493496 	300.0100480456448 	0.02911051861493973 	101336.8788495801
-0.5968468468468471 	300.0095417901424 	0.02763864231429733 	101336.2803250421
-0.5943443443443446 	300.0090510175847 	0.02620939479505829 	101335.7000951054
-0.591841841841842 	300.0085553300336 	0.02476577766204571 	101335.1140420996
-0.5893393393393397 	300.0080342551707 	0.02325040895365802 	101334.4979644753
-0.5868368368368371 	300.0074725556441 	0.02162050513923798 	101333.8338533381
-0.5843343343343346 	300.0068638570499 	0.01985817179775341 	101333.1141802137
-0.5818318318318321 	300.0062119962835 	0.01797426162336131 	101332.3434889676
-0.5793293293293297 	300.0055300571129 	0.01600570142396749 	101331.5372540459
-0.5768268268268271 	300.0048375502361 	0.01400759341098955 	101330.71854507
-0.5743243243243245 	300.0041565544078 	0.01204245277623812 	101329.9134646366
-0.5718218218218221 	300.0035078896433 	0.01016962659460995 	101329.1466243854
-0.5693193193193196 	300.0029084442102 	0.008437644133235432 	101328.4379859125
-0.5668168168168171 	300.0023699405106 	0.0068804391746016 	101327.8014031735
-0.5643143143143147 	300.0018987646101 	0.005516704980054406 	101327.2444211929
-0.5618118118118121 	300.0014964942058 	0.004351323325617402 	101326.7689011071
-0.5593093093093094 	300.0011608311374 	0.003377987186692064 	101326.3721231767
-0.5568068068068072 	300.0008866913325 	0.002582301198595169 	101326.048074848
-0.5543043043043046 	300.000667266842 	0.001944825929056149 	101325.7887064191
-0.551801801801802 	300.0004949447444 	0.001443726259105281 	101325.5850174287
-0.5492992992992995 	300.000362027308 	0.001056855473168933 	101325.4279073597
-0.5467967967967969 	300.0002612404371 	0.0007632371369265478 	101325.3087772712
-0.5442942942942947 	300.0001860504786 	0.0005439926275733341 	101325.219903623
-0.5417917917917919 	300.0001308215681 	0.0003828096451092021 	101325.1546243581
-0.5392892892892895 	300.0000908539632 	0.0002660642464546262 	101325.1073839955
-0.536786786786787 	300.0000623409852 	0.0001827059973021305 	101325.0736828336
-0.5342842842842846 	300.0000422774889 	0.0001240002196461714 	101325.0499688171
-0.531781781781782 	300.000028345448 	8.320102148528564e-05 	101325.0335020224
-0.5292792792792794 	300.0000187941405 	5.520739347047155e-05 	101325.0222130472
-0.526776776776777 	300.0000123266501 	3.623659392161559e-05 	101325.01456899
-0.5242742742742745 	300.0000079995909 	2.353376195324829e-05 	101325.0094546934
-0.521771771771772 	300.0000051380169 	1.512641886133081e-05 	101325.0060725148
-0.5192692692692695 	300.0000032667483 	9.624581672764981e-06 	101325.003860945
-0.516766766766767 	300.0000020566039 	6.063529028837934e-06 	101325.0024306264
-0.5142642642642645 	300.0000012822072 	3.783171731378128e-06 	101325.0015154202
-0.511761761761762 	300.0000007918358 	2.338099682360447e-06 	101325.0009358891
-0.5092592592592596 	300.0000004844937 	1.431611204572572e-06 	101325.0005726304
-0.506756756756757 	300.0000002937008 	8.686149830707305e-07 	101325.0003471848
-0.5042542542542544 	300.000000176519 	5.223188490933005e-07 	101325.0002086208
-0.5017517517517521 	300.0000001051804 	3.113411756490429e-07 	101325.0001242612
-0.4992492492492494 	300.0000000621296 	1.8398410780026e-07 	101325.0000733772
-0.496746746746747 	300.0000000363485 	1.078117981248583e-07 	101325.0000429627
-0.4942442442442445 	300.0000000210563 	6.264882682632271e-08 	101325.000024945
-0.4917417417417421 	300.0000000120997 	3.611357778997708e-08 	101325.0000143641
-0.4892392392392395 	300.0000000069033 	2.064865900278637e-08 	101325.0000082036
-0.486736736736737 	300.0000000038989 	1.171857924766709e-08 	101325.0000046467
-0.4842342342342345 	300.0000000021358 	6.595548964871492e-09 	101325.0000026095
-0.481731731731732 	300.0000000012692 	3.688669501918268e-09 	101325.0000014525
-0.4792292292292296 	300.000000000707 	2.043890326589761e-09 	101325.0000008004
-0.4767267267267268 	300.0000000003137 	1.129716899651502e-09 	101325.0000004357
-0.4742242242242246 	300.0000000001891 	6.140143384365557e-10 	101325.0000002334
-0.471721721721722 	300.0000000000555 	3.368180759405469e-10 	101325.000000122
-0.4692192192192195 	300.0000000000188 	1.786146777932899e-10 	101325.0000000611
-0.4667167167167169 	299.999999999935 	9.877940226966072e-11 	101325.0000000279
-0.4642142142142145 	300.0000000000117 	5.122973627767266e-11 	101325.0000000101
-0.461711711711712 	300.0000000000206 	3.012452931253662e-11 	101325.0000000008
-0.4592092092092094 	300.0000000000177 	1.532794206457759e-11 	101324.999999996
-0.456706706706707 	300.0000000000545 	1.14001855919917e-11 	101324.9999999935
-0.4542042042042045 	299.9999999999328 	5.851654461336652e-12 	101324.9999999924
-0.451701701701702 	299.9999999999491 	5.30889548794689e-12 	101324.9999999917
-0.4491991991991995 	299.9999999999516 	2.59159199921485e-12 	101324.9999999912
-0.4466966966966969 	299.9999999999339 	4.102991997747499e-12 	101324.9999999909
-0.4441941941941945 	299.9999999999919 	1.264475174729004e-12 	101324.9999999906
-0.441691691691692 	299.9999999999518 	3.175790416812986e-12 	101324.9999999904
-0.4391891891891895 	299.9999999999825 	3.454455183965815e-12 	101324.9999999903
-0.436686686686687 	299.9999999999643 	3.417944531834372e-12 	101324.9999999903
-0.4341841841841846 	299.9999999999937 	3.402216670732117e-12 	101324.9999999904
-0.431681681681682 	299.999999999943 	4.436988267614823e-12 	101324.9999999903
-0.4291791791791794 	299.9999999999007 	1.738232870501001e-12 	101324.9999999905
-0.426676676676677 	299.9999999999074 	3.682470334328616e-12 	101324.9999999906
-0.4241741741741744 	299.999999999965 	1.25657760126121e-12 	101324.9999999905
-0.421671671671672 	300.0000000000055 	2.447500027722626e-12 	101324.9999999906
-0.4191691691691694 	300.0000000000514 	9.282651356398591e-13 	101324.9999999909
-0.4166666666666669 	300.0000000000598 	2.689283109368944e-12 	101324.9999999912
-0.4141641641641645 	299.9999999999293 	1.349660007181102e-12 	101324.9999999914
-0.411661661661662 	300.0000000000068 	2.587376782412942e-12 	101324.9999999912
-0.4091591591591594 	300.0000000000029 	1.340475274028525e-12 	101324.9999999912
-0.406656656656657 	299.999999999932 	3.23857208176744e-12 	101324.9999999915
-0.4041541541541545 	300.000000000016 	1.265307065574583e-12 	101324.9999999916
-0.401651651651652 	299.9999999999158 	3.839975155906797e-12 	101324.9999999915
-0.3991491491491494 	299.9999999999984 	1.091729797581652e-12 	101324.9999999913
-0.396646646646647 	299.9999999999521 	5.747804916549885e-12 	101324.9999999913
-0.3941441441441444 	299.9999999999727 	1.476909224336501e-12 	101324.9999999912
-0.3916416416416419 	299.9999999999277 	5.013443893641571e-12 	101324.999999991
-0.3891391391391395 	299.9999999999548 	1.033601749968042e-12 	101324.9999999909
-0.3866366366366368 	299.9999999999553 	3.354147776384164e-12 	101324.9999999909
-0.3841341341341344 	299.9999999999982 	1.624653043406954e-12 	101324.999999991
-0.381631631631632 	299.999999999952 	2.99161401814624e-12 	101324.9999999908
-0.3791291291291294 	300.0000000000066 	2.157399983605936e-12 	101324.9999999911
-0.3766266266266269 	300.0000000000198 	2.123121940895038e-12 	101324.9999999911
-0.3741241241241244 	300.0000000000244 	2.53830356453845e-12 	101324.999999991
-0.371621621621622 	300.0000000000173 	1.178819458410193e-12 	101324.9999999911
-0.3691191191191194 	300.0000000000043 	4.454068364746962e-12 	101324.9999999912
-0.366616616616617 	300.000000000009 	1.513644293321735e-12 	101324.9999999914
-0.3641141141141143 	299.9999999999606 	3.799084102095009e-12 	101324.9999999913
-0.3616116116116119 	299.9999999999432 	1.701546208141982e-12 	101324.9999999914
-0.3591091091091095 	299.9999999999869 	2.888259089997267e-12 	101324.9999999913
-0.356606606606607 	299.9999999999793 	2.273215536747603e-12 	101324.9999999912
-0.3541041041041044 	299.9999999999808 	2.017672987359735e-12 	101324.9999999913
-0.3516016016016019 	300.0000000000026 	3.07395483811046e-12 	101324.9999999912
-0.3490990990990994 	299.9999999999841 	1.693331812146359e-12 	101324.9999999911
-0.346596596596597 	300.0000000000455 	3.819412804804417e-12 	101324.9999999914
-0.3440940940940944 	300.0000000000549 	1.583689466260044e-12 	101324.9999999914
-0.3415915915915919 	300.0000000000198 	4.224388473402343e-12 	101324.9999999915
-0.3390890890890895 	299.999999999976 	2.133931322630169e-12 	101324.9999999912
-0.3365865865865869 	300.0000000000219 	3.927132041734651e-12 	101324.9999999908
-0.3340840840840844 	300.000000000007 	2.613106613991029e-12 	101324.9999999912
-0.3315815815815819 	300.0000000000271 	3.321233793998985e-12 	101324.9999999911
-0.3290790790790794 	300.0000000000163 	2.105758702890306e-12 	101324.9999999908
-0.3265765765765769 	299.9999999999251 	2.794607917429172e-12 	101324.9999999909
-0.3240740740740744 	299.9999999999949 	8.429742322193493e-13 	101324.9999999907
-0.3215715715715718 	300.0000000000064 	2.442164673211578e-12 	101324.9999999911
-0.3190690690690695 	299.999999999923 	6.859664600869365e-13 	101324.9999999912
-0.3165665665665668 	299.9999999999894 	3.068164956664738e-12 	101324.9999999912
-0.3140640640640644 	300.0000000000037 	6.138841416690821e-13 	101324.9999999911
-0.311561561561562 	299.9999999999234 	4.238673343502177e-12 	101324.9999999909
-0.3090590590590593 	299.9999999999929 	1.031490281737945e-12 	101324.9999999907
-0.3065565565565568 	300.0000000000018 	6.508537156327604e-12 	101324.9999999908
-0.3040540540540545 	300.0000000000201 	1.354819380560808e-12 	101324.9999999912
-0.3015515515515518 	300.0000000000357 	6.768316334577704e-12 	101324.9999999912
-0.2990490490490494 	299.9999999999403 	3.0413631345244e-12 	101324.9999999912
-0.2965465465465469 	299.9999999999811 	5.49184089478104e-12 	101324.9999999911
-0.2940440440440444 	300.0000000000005 	3.2176773341788e-12 	101324.9999999911
-0.2915415415415418 	299.9999999999977 	4.32504011162514e-12 	101324.9999999909
-0.2890390390390395 	299.9999999999989 	3.9364391860633e-12 	101324.999999991
-0.2865365365365368 	299.9999999999774 	3.723318102644685e-12 	101324.999999991
-0.2840340340340343 	300.0000000000028 	5.379423264650751e-12 	101324.9999999913
-0.2815315315315318 	299.9999999999246 	3.691365775944662e-12 	101324.9999999915
-0.2790290290290295 	299.9999999999578 	5.052504760118443e-12 	101324.9999999912
-0.2765265265265269 	300.0000000000134 	3.578803770984845e-12 	101324.9999999914
-0.2740240240240244 	300.0000000000326 	3.951165862509734e-12 	101324.9999999916
-0.2715215215215219 	300.000000000016 	4.245079064148331e-12 	101324.9999999917
-0.2690190190190194 	299.999999999942 	3.753348987124256e-12 	101324.9999999918
-0.2665165165165169 	299.999999999998 	4.400041259438288e-12 	101324.9999999922
-0.2640140140140144 	299.999999999967 	2.695163201106054e-12 	101324.9999999923
-0.2615115115115119 	300 	4.296604905519902e-12 	101324.9999999921
-0.2590090090090094 	299.9999999999322 	2.409478583133805e-12 	101324.999999992
-0.2565065065065068 	299.9999999999963 	3.387738761786503e-12 	101324.9999999921
-0.2540040040040044 	300.0000000000044 	3.58193361507601e-12 	101324.9999999919
-0.2515015015015019 	300.0000000000421 	3.536267141089773e-12 	101324.999999992
-0.2489989989989994 	300.00000000005 	5.656831944067389e-12 	101324.9999999921
-0.2464964964964968 	299.9999999999948 	3.070966668942007e-12 	101324.9999999919
-0.2439939939939944 	299.9999999999991 	6.502352923877491e-12 	101324.999999992
-0.2414914914914919 	299.9999999999761 	2.333362600070808e-12 	101324.9999999917
-0.2389889889889893 	300.0000000000055 	7.063412306918571e-12 	101324.9999999914
-0.2364864864864869 	300.0000000000238 	2.596715717624006e-12 	101324.9999999913
-0.2339839839839843 	299.9999999999231 	6.559245186567442e-12 	101324.9999999912
-0.2314814814814819 	299.9999999999803 	2.094130418605098e-12 	101324.9999999912
-0.2289789789789792 	299.9999999999169 	5.06559523856996e-12 	101324.9999999911
-0.2264764764764769 	299.9999999999418 	1.880938678639741e-12 	101324.9999999912
-0.2239739739739743 	299.9999999999548 	2.885107244926747e-12 	101324.9999999913
-0.2214714714714718 	299.9999999999355 	1.689184086177077e-12 	101324.9999999915
-0.2189689689689693 	299.9999999999674 	1.035222009573389e-12 	101324.9999999915
-0.2164664664664669 	299.999999999978 	1.807229749915934e-12 	101324.9999999917
-0.2139639639639643 	299.999999999925 	5.097929890747573e-13 	101324.9999999918
-0.2114614614614618 	299.9999999999718 	1.259062631378926e-12 	101324.999999992
-0.2089589589589593 	299.9999999999951 	5.280149176873675e-13 	101324.9999999922
-0.2064564564564568 	299.9999999999927 	9.182254974445354e-14 	101324.9999999921
-0.2039539539539543 	299.9999999999038 	8.857266332289444e-13 	101324.9999999919
-0.2014514514514518 	299.9999999999518 	1.112159488850822e-12 	101324.9999999916
-0.1989489489489494 	299.9999999999761 	2.328421334654554e-12 	101324.9999999915
-0.1964464464464468 	299.9999999999923 	1.066357920600303e-12 	101324.9999999911
-0.1939439439439443 	299.9999999999856 	2.55857006710069e-12 	101324.9999999907
-0.1914414414414418 	299.9999999999139 	5.123976667687777e-13 	101324.9999999906
-0.1889389389389393 	300.0000000000036 	1.963675998029345e-12 	101324.9999999907
-0.1864364364364368 	300.0000000000411 	7.311066920868993e-13 	101324.9999999912
-0.1839339339339343 	299.9999999999715 	2.583826326444555e-12 	101324.9999999914
-0.1814314314314318 	299.9999999999957 	1.249724670067858e-12 	101324.9999999912
-0.1789289289289293 	299.9999999999013 	3.463906011080064e-12 	101324.9999999912
-0.1764264264264268 	299.9999999999761 	9.031631548104236e-13 	101324.9999999911
-0.1739239239239243 	299.9999999998917 	4.541116053081689e-12 	101324.9999999908
-0.1714214214214218 	299.9999999999876 	1.109893972130677e-12 	101324.999999991
-0.1689189189189193 	299.9999999999511 	6.339721757349885e-12 	101324.9999999909
-0.1664164164164168 	300.0000000000083 	1.027781684954302e-12 	101324.9999999912
-0.1639139139139143 	299.99999999999 	7.08855434071188e-12 	101324.9999999912
-0.1614114114114118 	300.0000000000313 	2.510485588066399e-12 	101324.999999991
-0.1589089089089093 	300.0000000000013 	7.976795729495265e-12 	101324.999999991
-0.1564064064064068 	299.9999999999858 	4.740932222125702e-12 	101324.9999999911
-0.1539039039039043 	299.9999999999937 	6.831382351370299e-12 	101324.9999999911
-0.1514014014014018 	300.0000000000256 	4.664200335416375e-12 	101324.9999999912
-0.1488988988988993 	299.9999999999961 	6.843723206825468e-12 	101324.9999999912
-0.1463963963963968 	300.0000000000028 	3.579943263753081e-12 	101324.9999999912
-0.1438938938938943 	299.9999999999489 	5.678627872297028e-12 	101324.9999999911
-0.1413913913913918 	299.9999999999212 	1.92842899759017e-12 	101324.9999999908
-0.1388888888888893 	299.9999999999793 	4.276113346237132e-12 	101324.9999999906
-0.1363863863863868 	299.9999999998853 	1.221148345372669e-12 	101324.9999999911
-0.1338838838838843 	299.9999999999171 	2.723033530470357e-12 	101324.999999991
-0.1313813813813818 	299.9999999999914 	1.730425492159972e-13 	101324.999999991
-0.1288788788788793 	299.9999999999668 	3.244006568134614e-12 	101324.9999999908
-0.1263763763763768 	299.9999999999696 	2.995100663043002e-13 	101324.9999999911
-0.1238738738738743 	299.9999999999251 	3.090184356458947e-12 	101324.9999999911
-0.1213713713713717 	299.9999999999755 	1.453197132089273e-12 	101324.9999999914
-0.1188688688688693 	300.0000000000039 	3.038675551902723e-12 	101324.9999999913
-0.1163663663663668 	299.9999999999031 	2.375138805672784e-12 	101324.9999999912
-0.1138638638638643 	299.9999999999931 	3.182341460999065e-12 	101324.9999999912
-0.1113613613613618 	299.9999999999879 	3.012362871541016e-12 	101324.9999999908
-0.1088588588588592 	299.9999999999762 	3.654539176132866e-12 	101324.9999999909
-0.1063563563563568 	299.9999999999467 	2.541683221594351e-12 	101324.9999999908
-0.1038538538538543 	299.9999999999701 	3.6412346546863e-12 	101324.9999999908
-0.1013513513513517 	300.0000000000163 	5.524937404719396e-13 	101324.9999999908
-0.09884884884884926 	299.9999999999387 	4.263061611920927e-12 	101324.9999999906
-0.09634634634634676 	299.9999999998871 	1.202519575844643e-12 	101324.9999999904
-0.09384384384384425 	299.9999999999272 	3.562128868281962e-12 	101324.9999999905
-0.09134134134134177 	300.0000000000279 	2.150391905765593e-12 	101324.9999999903
-0.08883883883883925 	300.0000000000048 	4.459225708314865e-12 	101324.9999999905
-0.08633633633633674 	299.9999999999553 	3.672800363691493e-12 	101324.9999999903
-0.08383383383383426 	300.0000000000078 	4.104506699260927e-12 	101324.9999999904
-0.08133133133133173 	299.9999999999632 	4.113459343304148e-12 	101324.9999999902
-0.07882882882882926 	299.9999999998818 	3.334624845653183e-12 	101324.9999999905
-0.07632632632632676 	299.9999999999534 	2.345473474938513e-12 	101324.9999999908
-0.07382382382382424 	299.9999999998888 	1.867217954958145e-12 	101324.9999999907
-0.07132132132132173 	300.0000000000131 	1.230356030818871e-12 	101324.9999999909
-0.06881881881881925 	299.9999999999587 	1.167317139133392e-12 	101324.9999999914
-0.06631631631631671 	299.9999999998937 	5.08910342056736e-13 	101324.9999999919
-0.06381381381381425 	299.9999999999562 	3.723179231441924e-13 	101324.9999999915
-0.06131131131131173 	299.9999999999577 	6.248852685158454e-13 	101324.9999999915
-0.05880880880880923 	299.9999999999071 	8.554319998477121e-13 	101324.9999999916
-0.05630630630630672 	299.9999999999666 	9.671695898998198e-13 	101324.9999999918
-0.05380380380380424 	300.0000000000177 	1.545904353866008e-12 	101324.9999999918
-0.05130130130130173 	300.000000000012 	1.60654162290454e-12 	101324.9999999918
-0.04879879879879922 	299.9999999999402 	1.152343222534057e-12 	101324.999999992
-0.04629629629629672 	299.9999999999321 	3.385096277614353e-13 	101324.9999999918
-0.04379379379379422 	299.9999999999129 	4.346819245025237e-13 	101324.9999999916
-0.04129129129129173 	299.9999999999794 	5.86338988436372e-13 	101324.9999999914
-0.03878878878878922 	299.9999999999857 	5.365311690589795e-13 	101324.9999999911
-0.03628628628628671 	299.9999999999824 	3.480725075473597e-13 	101324.9999999911
-0.03378378378378422 	299.9999999999186 	9.41856050532181e-13 	101324.999999991
-0.03128128128128172 	299.9999999999606 	6.925574925132e-13 	101324.9999999909
-0.02877877877877922 	299.9999999999627 	2.069513246301192e-12 	101324.9999999908
-0.0262762762762767 	299.9999999998999 	1.945074441495406e-12 	101324.9999999907
-0.02377377377377422 	300.0000000000219 	2.171984046033571e-12 	101324.9999999906
-0.0212712712712717 	299.9999999999013 	1.555882989571691e-12 	101324.9999999906
-0.01876876876876921 	299.9999999999667 	8.778670454048403e-13 	101324.9999999906
-0.01626626626626671 	300.0000000000145 	1.397804507752857e-12 	101324.9999999907
-0.0137637637637642 	299.9999999999619 	8.928378819666281e-13 	101324.999999991
-0.0112612612612617 	300.0000000000178 	6.331550770034748e-13 	101324.9999999913
-0.008758758758759198 	299.9999999999911 	3.698629477604393e-13 	101324.9999999909
-0.006256256256256697 	299.9999999998804 	8.521092773924233e-13 	101324.9999999906
-0.003753753753754195 	299.9999999999542 	4.075245477429995e-13 	101324.9999999907
-0.001251251251251693 	299.9999999999279 	4.303192015218522e-13 	101324.9999999909
0.00125125125125081 	299.9999999999558 	1.762394819799044e-13 	101324.9999999915
0.003753753753753312 	299.9999999999615 	4.961004116506539e-13 	101324.9999999918
0.006256256256255817 	299.9999999998876 	5.944317165779411e-13 	101324.9999999919
0.008758758758758317 	299.9999999999854 	1.077394099968478e-12 	101324.9999999919
0.01126126126126082 	300.0000000000051 	1.728510169599831e-12 	101324.9999999917
0.01376376376376332 	299.9999999999699 	2.004780126319243e-12 	101324.9999999915
0.01626626626626582 	300.0000000000119 	1.929029090307663e-12 	101324.9999999914
0.01876876876876833 	299.9999999999545 	2.406397072260768e-12 	101324.9999999913
0.02127127127127083 	299.9999999999654 	2.171532780995588e-12 	101324.9999999914
0.02377377377377332 	299.9999999999976 	1.874634055378797e-12 	101324.9999999915
0.02627627627627583 	299.9999999998955 	2.066828787754682e-12 	101324.9999999912
0.02877877877877833 	300.0000000000092 	1.569567663795683e-12 	101324.9999999909
0.03128128128128083 	299.9999999999447 	2.083550364447862e-12 	101324.9999999909
0.03378378378378333 	299.9999999998963 	7.971628913941162e-13 	101324.9999999909
0.03628628628628584 	299.9999999999676 	4.887638261817838e-13 	101324.999999991
0.03878878878878834 	299.9999999999819 	4.864958504704258e-13 	101324.9999999911
0.04129129129129084 	299.9999999999798 	7.089085113570802e-13 	101324.9999999911
0.04379379379379333 	299.9999999999451 	2.445913219217374e-13 	101324.9999999912
0.04629629629629585 	299.9999999998832 	3.559804037699248e-13 	101324.9999999909
0.04879879879879834 	299.9999999999541 	9.729516887705046e-13 	101324.9999999909
0.05130130130130085 	300.0000000000147 	1.035859447007292e-12 	101324.9999999911
0.05380380380380335 	300.000000000023 	1.585082903757131e-12 	101324.999999991
0.05630630630630584 	299.9999999999964 	1.491890166210278e-12 	101324.9999999913
0.05880880880880836 	299.9999999999187 	1.682216318478816e-12 	101324.9999999913
0.06131131131131085 	299.999999999966 	1.294752165018e-12 	101324.9999999915
0.06381381381381336 	299.9999999999585 	1.400640470499303e-12 	101324.9999999916
0.06631631631631586 	299.9999999998865 	1.172983387510464e-12 	101324.9999999914
0.06881881881881835 	299.9999999999559 	1.824812708940453e-12 	101324.9999999913
0.07132132132132088 	299.9999999999849 	1.433346195646947e-12 	101324.9999999913
0.07382382382382337 	299.9999999998918 	2.311300531791209e-12 	101324.9999999911
0.07632632632632587 	299.99999999997 	2.831456592195902e-12 	101324.9999999914
0.07882882882882837 	299.9999999999369 	3.282326425945993e-12 	101324.9999999914
0.08133133133133086 	299.9999999999809 	3.474636094208936e-12 	101324.9999999914
0.08383383383383337 	299.9999999999847 	2.728510123669202e-12 	101324.9999999917
0.08633633633633589 	299.9999999999025 	2.50010343160282e-12 	101324.9999999918
0.08883883883883838 	300.0000000000032 	2.599707886143572e-12 	101324.9999999917
0.09134134134134086 	299.9999999999744 	1.431421111121321e-12 	101324.9999999916
0.09384384384384339 	299.9999999998887 	2.196146848374136e-12 	101324.9999999915
0.09634634634634588 	299.9999999999635 	2.782635210575807e-12 	101324.9999999916
0.09884884884884838 	299.999999999976 	3.212210926189327e-12 	101324.9999999915
0.1013513513513509 	300.0000000000214 	3.298461589371661e-12 	101324.9999999914
0.1038538538538534 	299.9999999999565 	3.273557322075056e-12 	101324.9999999914
0.1063563563563559 	300.0000000000057 	3.509494348326794e-12 	101324.9999999914
0.1088588588588584 	300.0000000000267 	2.786031440993819e-12 	101324.9999999911
0.1113613613613609 	299.999999999919 	2.491029441503706e-12 	101324.9999999912
0.1138638638638634 	299.9999999999398 	2.756777225372447e-12 	101324.999999991
0.1163663663663659 	299.9999999999443 	3.179799755097974e-12 	101324.9999999907
0.1188688688688684 	299.9999999999753 	4.035476286579516e-12 	101324.9999999907
0.1213713713713709 	299.9999999999984 	3.746465864647864e-12 	101324.9999999908
0.1238738738738734 	299.9999999999249 	4.111063775534422e-12 	101324.999999991
0.1263763763763759 	299.999999999984 	4.540820456817384e-12 	101324.9999999912
0.1288788788788784 	299.9999999999839 	4.845240543762256e-12 	101324.9999999912
0.1313813813813809 	299.9999999999803 	4.511954094622916e-12 	101324.9999999914
0.1338838838838834 	299.9999999999746 	4.353459567179181e-12 	101324.9999999913
0.1363863863863859 	300.0000000000172 	3.195170743809127e-12 	101324.9999999912
0.1388888888888884 	300.0000000000491 	3.291509324776345e-12 	101324.9999999911
0.1413913913913909 	300.0000000000047 	2.170197421437304e-12 	101324.9999999911
0.1438938938938934 	299.9999999999922 	3.215238333470387e-12 	101324.9999999912
0.1463963963963959 	299.9999999999539 	2.028021839435914e-12 	101324.9999999911
0.1488988988988985 	299.9999999999079 	3.655958250223692e-12 	101324.999999991
0.1514014014014009 	299.9999999999696 	1.462582772714951e-12 	101324.9999999909
0.1539039039039035 	299.9999999999658 	3.03749249735701e-12 	101324.9999999908
0.1564064064064059 	299.9999999999249 	5.365087655759135e-13 	101324.999999991
0.1589089089089084 	299.9999999999732 	3.96086814693112e-12 	101324.999999991
0.1614114114114109 	299.9999999999687 	1.925399117058294e-12 	101324.9999999907
0.1639139139139134 	299.9999999999047 	3.961228597099915e-12 	101324.999999991
0.166416416416416 	300.0000000000074 	3.141846215036393e-12 	101324.9999999909
0.1689189189189185 	300.0000000000321 	3.295445046967738e-12 	101324.9999999911
0.1714214214214209 	300.0000000000024 	3.630842820482262e-12 	101324.9999999908
0.1739239239239235 	299.9999999999869 	2.385769483299263e-12 	101324.9999999912
0.1764264264264259 	299.999999999972 	4.618884047765628e-12 	101324.9999999911
0.1789289289289284 	300.0000000000027 	2.330947717062633e-12 	101324.9999999911
0.181431431431431 	299.9999999999568 	4.402408651304208e-12 	101324.9999999909
0.1839339339339334 	299.9999999999623 	2.094969412635171e-12 	101324.9999999907
0.186436436436436 	299.9999999999283 	3.217934129692536e-12 	101324.9999999908
0.1889389389389385 	299.9999999999732 	2.910892287127827e-12 	101324.999999991
0.191441441441441 	299.999999999975 	2.398596432605517e-12 	101324.9999999911
0.1939439439439434 	299.9999999999167 	3.129821671680877e-12 	101324.999999991
0.196446446446446 	299.9999999999471 	1.050213406746025e-12 	101324.9999999911
0.1989489489489485 	299.9999999999571 	2.881537543290855e-12 	101324.9999999908
0.2014514514514509 	299.9999999999844 	1.442468803384603e-12 	101324.9999999908
0.2039539539539535 	299.9999999999925 	2.63907369740908e-12 	101324.9999999909
0.2064564564564559 	299.9999999999524 	2.163096007187393e-12 	101324.9999999911
0.2089589589589585 	299.9999999999879 	2.599600833392395e-12 	101324.9999999906
0.211461461461461 	299.9999999999196 	2.641751695678095e-12 	101324.9999999906
0.2139639639639635 	299.9999999999713 	2.408804711143434e-12 	101324.9999999906
0.2164664664664659 	300.0000000000018 	3.553443721315418e-12 	101324.9999999902
0.2189689689689684 	300.0000000000001 	1.743387336091947e-12 	101324.99999999
0.221471471471471 	299.9999999999942 	3.581184135491735e-12 	101324.9999999899
0.2239739739739735 	299.999999999957 	1.706440506972933e-12 	101324.9999999898
0.226476476476476 	299.9999999999746 	4.358452967960925e-12 	101324.9999999898
0.2289789789789785 	299.9999999999888 	3.883566352953041e-12 	101324.9999999895
0.231481481481481 	299.9999999999878 	4.196693779758171e-12 	101324.9999999895
0.2339839839839835 	299.9999999999839 	4.570123655540686e-12 	101324.9999999894
0.236486486486486 	300.0000000000293 	3.450536266965399e-12 	101324.9999999896
0.2389889889889885 	300.0000000000069 	3.972506834571549e-12 	101324.9999999893
0.241491491491491 	299.9999999999127 	1.544824325445414e-12 	101324.9999999895
0.2439939939939935 	299.9999999999745 	4.14581420770648e-12 	101324.9999999894
0.246496496496496 	299.9999999999899 	1.705163339721472e-12 	101324.9999999896
0.2489989989989985 	300.0000000000396 	3.424190342589189e-12 	101324.9999999901
0.251501501501501 	300.0000000000342 	3.192201694052171e-12 	101324.9999999905
0.2540040040040035 	299.9999999999944 	3.596723708365186e-12 	101324.9999999906
0.256506506506506 	300.0000000000321 	3.967482475348865e-12 	101324.9999999909
0.2590090090090086 	299.9999999999129 	2.423594725074775e-12 	101324.999999991
0.261511511511511 	300.0000000000022 	4.878613989454337e-12 	101324.9999999912
0.2640140140140135 	299.9999999999915 	2.708475420922166e-12 	101324.9999999911
0.2665165165165161 	299.9999999999264 	4.677971317879552e-12 	101324.999999991
0.2690190190190185 	300.0000000000159 	3.254157165616348e-12 	101324.9999999911
0.271521521521521 	300.0000000000226 	3.129380955267125e-12 	101324.9999999911
0.2740240240240235 	300.0000000000263 	2.975353540668457e-12 	101324.9999999914
0.276526526526526 	300.0000000000161 	1.813341021229219e-12 	101324.9999999911
0.2790290290290286 	299.9999999999415 	2.574442219986387e-12 	101324.9999999907
0.281531531531531 	299.9999999999284 	1.712173823605429e-12 	101324.9999999905
0.2840340340340335 	299.999999999983 	3.355844820083131e-12 	101324.9999999906
0.2865365365365361 	299.9999999999591 	1.667445157615099e-12 	101324.9999999904
0.2890390390390385 	299.9999999999991 	1.827103348293966e-12 	101324.9999999906
0.291541541541541 	299.9999999999972 	1.372576794889746e-12 	101324.9999999905
0.2940440440440436 	299.9999999999914 	3.913543309740587e-13 	101324.9999999907
0.296546546546546 	299.999999999994 	1.605576453346057e-12 	101324.9999999909
0.2990490490490486 	299.9999999999356 	1.582604771999441e-12 	101324.9999999911
0.3015515515515511 	300.0000000000376 	3.597985264821112e-12 	101324.9999999909
0.3040540540540535 	299.9999999999987 	3.12425540030191e-12 	101324.9999999909
0.3065565565565562 	299.9999999999997 	3.786974994997214e-12 	101324.9999999906
0.3090590590590585 	299.9999999999923 	2.734091134229403e-12 	101324.9999999904
0.3115615615615611 	299.9999999999425 	2.836452611103648e-12 	101324.9999999905
0.3140640640640635 	300.000000000009 	2.012348565076709e-12 	101324.9999999905
0.316566566566566 	299.9999999999989 	2.085106848102523e-12 	101324.9999999906
0.3190690690690687 	299.9999999999509 	1.02762412498892e-12 	101324.9999999904
0.3215715715715711 	300.0000000000123 	2.498969820534915e-12 	101324.9999999904
0.3240740740740735 	299.9999999999968 	1.119688099216261e-12 	101324.9999999902
0.326576576576576 	299.999999999897 	1.552211044274247e-12 	101324.9999999906
0.3290790790790786 	300.0000000000128 	8.288589538487187e-13 	101324.9999999908
0.3315815815815811 	300.0000000000389 	5.880487259181474e-13 	101324.9999999909
0.3340840840840836 	299.9999999999854 	6.288484679476516e-13 	101324.9999999906
0.3365865865865861 	300.0000000000553 	7.724167210738065e-13 	101324.9999999909
0.3390890890890886 	300.0000000000493 	1.331621453119603e-12 	101324.9999999909
0.3415915915915911 	300.000000000003 	7.314205431894632e-13 	101324.9999999912
0.3440940940940935 	299.999999999957 	1.584059972153956e-12 	101324.9999999911
0.3465965965965962 	300.0000000000369 	8.315114101987931e-13 	101324.9999999912
0.3490990990990985 	300.0000000000294 	9.883615988756499e-13 	101324.9999999909
0.3516016016016011 	299.9999999999902 	3.891452767820772e-13 	101324.9999999908
0.3541041041041035 	300.000000000006 	6.872420084690754e-13 	101324.9999999905
0.3566066066066061 	299.999999999956 	9.233423235089705e-13 	101324.9999999904
0.3591091091091085 	299.9999999999181 	8.054924292158828e-13 	101324.9999999905
0.3616116116116112 	299.9999999999412 	1.784342502735754e-12 	101324.9999999906
0.3641141141141137 	299.9999999999337 	1.818495745213264e-12 	101324.9999999906
0.3666166166166161 	299.9999999999238 	2.592177281980244e-12 	101324.9999999907
0.3691191191191185 	300.0000000000387 	2.563460482780239e-12 	101324.9999999906
0.371621621621621 	300.0000000000139 	2.714559649144189e-12 	101324.9999999905
0.3741241241241237 	300.0000000000529 	1.503676059963944e-12 	101324.9999999905
0.3766266266266261 	300.0000000000311 	2.61982412301422e-12 	101324.9999999904
0.3791291291291286 	299.9999999999858 	8.196756707350482e-13 	101324.9999999903
0.3816316316316311 	299.999999999916 	1.751706577498718e-12 	101324.9999999904
0.3841341341341336 	300.0000000000143 	2.144449606262887e-12 	101324.9999999903
0.3866366366366362 	300.0000000000011 	5.529429065775155e-13 	101324.9999999902
0.3891391391391387 	299.9999999999603 	1.52380766512786e-12 	101324.9999999903
0.391641641641641 	299.9999999999976 	4.456658850406545e-13 	101324.9999999903
0.3941441441441436 	300.000000000006 	8.62288381283315e-13 	101324.9999999903
0.3966466466466462 	299.9999999999977 	6.22309706012852e-13 	101324.9999999903
0.3991491491491486 	299.9999999999451 	1.093671079332e-12 	101324.9999999906
0.4016516516516512 	299.9999999999126 	7.304295543596133e-13 	101324.9999999906
0.4041541541541536 	299.9999999999524 	1.113233721184023e-12 	101324.9999999904
0.4066566566566561 	299.9999999999439 	1.278707635652865e-12 	101324.9999999902
0.4091591591591587 	299.9999999999814 	7.875118583915139e-13 	101324.9999999901
0.4116616616616612 	299.9999999999946 	1.271467169071039e-12 	101324.9999999899
0.4141641641641635 	300.000000000047 	1.133957197971594e-12 	101324.99999999
0.4166666666666662 	299.9999999999981 	1.272156549435034e-12 	101324.9999999899
0.4191691691691687 	299.9999999999424 	2.258141261717689e-12 	101324.9999999901
0.421671671671671 	300.0000000000132 	1.246234650159175e-12 	101324.9999999903
0.4241741741741737 	299.9999999999811 	3.057442449141436e-12 	101324.9999999904
0.4266766766766761 	299.9999999999544 	2.196199940168729e-12 	101324.9999999904
0.4291791791791785 	300.0000000000218 	3.179678898872053e-12 	101324.9999999903
0.4316816816816812 	300.0000000000144 	3.220283480171352e-12 	101324.9999999903
0.4341841841841836 	299.9999999999867 	2.472926951738409e-12 	101324.9999999902
0.4366866866866862 	299.9999999999172 	2.306822353927078e-12 	101324.9999999903
0.4391891891891885 	299.9999999999835 	1.643320444177698e-12 	101324.9999999898
0.4416916916916913 	299.9999999999774 	1.225016058740029e-12 	101324.9999999896
0.4441941941941936 	299.9999999999863 	1.56481333978297e-12 	101324.9999999896
0.4466966966966961 	299.9999999999149 	7.097067390800932e-13 	101324.9999999896
0.4491991991991987 	299.9999999999784 	5.421175876804341e-13 	101324.9999999896
0.4517017017017012 	299.9999999999783 	2.912274192541664e-13 	101324.9999999895
0.4542042042042035 	299.9999999999953 	1.831942187063801e-13 	101324.9999999895
0.4567067067067062 	299.9999999999941 	2.426518532143543e-13 	101324.9999999895
0.4592092092092087 	299.9999999999262 	6.892529119308999e-13 	101324.9999999898
0.4617117117117112 	300.0000000000181 	3.96817879880067e-13 	101324.99999999
0.4642142142142137 	299.9999999999611 	3.563803453231385e-13 	101324.9999999901
0.4667167167167162 	299.999999999989 	1.682350901547698e-13 	101324.9999999901
0.4692192192192187 	299.9999999999548 	1.058985585470049e-13 	101324.9999999899
0.4717217217217212 	300.0000000000119 	1.281938130074539e-13 	101324.99999999
0.4742242242242236 	299.9999999999542 	3.085135371292086e-13 	101324.9999999899
0.4767267267267262 	299.9999999999736 	4.301684263795878e-13 	101324.9999999899
0.4792292292292287 	300.0000000000142 	7.372487034942976e-13 	101324.9999999901
0.4817317317317312 	300.0000000000296 	1.174108564203762e-12 	101324.9999999902
0.4842342342342336 	299.9999999999853 	1.044699006239058e-12 	101324.9999999903
0.4867367367367362 	299.999999999953 	1.901181220587676e-12 	101324.9999999904
0.4892392392392387 	300.0000000000283 	1.122903907405573e-12 	101324.9999999904
0.4917417417417412 	300.0000000000063 	2.726294871137761e-12 	101324.9999999904
0.4942442442442437 	299.9999999999117 	1.20082685989234e-12 	101324.9999999906
0.4967467467467462 	299.9999999999283 	2.264486271114835e-12 	101324.9999999907
0.4992492492492487 	299.9999999999184 	7.205892983249033e-13 	101324.9999999908
0.5017517517517511 	299.9999999999538 	6.586907023769491e-13 	101324.9999999907
0.5042542542542537 	299.9999999999667 	2.115283445754855e-13 	101324.9999999906
0.5067567567567562 	299.9999999999487 	5.968126365455834e-13 	101324.9999999905
0.5092592592592589 	299.9999999999695 	1.22469490901257e-12 	101324.9999999903
0.5117617617617611 	299.9999999999594 	1.120596258955162e-12 	101324.9999999903
0.5142642642642637 	299.9999999999831 	2.056977841965199e-12 	101324.9999999901
0.5167667667667663 	299.9999999999689 	1.729025053541146e-12 	101324.9999999902
0.5192692692692688 	299.9999999999194 	3.312646997182298e-12 	101324.9999999901
0.5217717717717714 	299.9999999999401 	3.315955939986248e-12 	101324.9999999899
0.5242742742742736 	299.9999999999379 	2.995913516257851e-12 	101324.9999999899
0.5267767767767763 	299.9999999999559 	2.986538746180993e-12 	101324.9999999899
0.5292792792792789 	299.999999999938 	2.262133008486117e-12 	101324.99999999
0.5317817817817813 	299.999999999909 	1.909540645302836e-12 	101324.9999999901
0.5342842842842837 	300.0000000000126 	1.551951873887804e-12 	101324.9999999902
0.5367867867867864 	299.9999999999986 	1.245704028661766e-12 	101324.9999999901
0.5392892892892888 	299.9999999999579 	1.177244036132619e-12 	101324.99999999
0.5417917917917912 	300.0000000000031 	2.086553149769323e-12 	101324.9999999901
0.5442942942942938 	299.9999999999823 	1.219076699908985e-12 	101324.9999999899
0.5467967967967964 	299.9999999999529 	2.559148624688593e-12 	101324.9999999898
0.5492992992992988 	299.9999999999448 	2.071858121765827e-12 	101324.99999999
0.5518018018018012 	299.9999999999433 	3.24222385142405e-12 	101324.9999999902
0.5543043043043039 	300.0000000000167 	2.234249063576039e-12 	101324.9999999905
0.5568068068068063 	299.9999999999899 	2.687284615468981e-12 	101324.9999999906
0.5593093093093087 	299.9999999999116 	1.573330614680021e-12 	101324.9999999904
0.5618118118118114 	299.9999999999608 	3.131617295776894e-12 	101324.9999999906
0.5643143143143137 	299.9999999999483 	2.075697679591835e-12 	101324.9999999907
0.5668168168168163 	299.9999999999931 	2.67143870728149e-12 	101324.9999999909
0.5693193193193188 	300.0000000000351 	2.139088747409997e-12 	101324.999999991
0.5718218218218213 	300.0000000000288 	1.364443362931985e-12 	101324.9999999911
0.5743243243243239 	300.0000000000091 	2.207506118689823e-12 	101324.9999999912
0.5768268268268262 	300.0000000000035 	1.322583129666453e-12 	101324.9999999914
0.5793293293293288 	299.9999999999467 	3.017502314962152e-12 	101324.9999999915
0.5818318318318314 	299.9999999999176 	2.182475472027662e-12 	101324.9999999916
0.5843343343343338 	299.9999999999797 	4.372055364684983e-12 	101324.9999999916
0.5868368368368363 	299.9999999999742 	1.495951721640954e-12 	101324.9999999914
0.5893393393393387 	299.9999999999471 	3.150409187756674e-12 	101324.9999999915
0.5918418418418413 	299.9999999999426 	1.30976333990551e-12 	101324.9999999913
0.5943443443443439 	300.0000000000169 	2.428677279216493e-12 	101324.9999999913
0.5968468468468463 	300.0000000000189 	1.086810810124571e-12 	101324.9999999915
0.5993493493493487 	300.0000000000364 	1.710668875723825e-12 	101324.9999999916
0.6018518518518514 	299.9999999999836 	1.081669660781688e-12 	101324.9999999915
0.6043543543543537 	299.9999999999959 	1.648685098052159e-12 	101324.9999999914
0.6068568568568564 	299.9999999999838 	7.920692998166644e-13 	101324.9999999912
0.6093593593593587 	299.9999999999329 	1.975751717369773e-12 	101324.9999999914
0.6118618618618614 	299.9999999999289 	1.072957278601453e-12 	101324.9999999914
0.6143643643643638 	300.0000000000192 	2.080515827808532e-12 	101324.9999999915
0.6168668668668662 	299.9999999999923 	1.293378133621059e-12 	101324.9999999917
0.6193693693693688 	299.9999999999633 	3.039408570100769e-12 	101324.9999999919
0.6218718718718714 	299.9999999999646 	1.804682767670288e-12 	101324.9999999921
0.6243743743743737 	299.9999999999365 	3.391233557952973e-12 	101324.9999999923
0.6268768768768762 	299.9999999999305 	2.106532337928913e-12 	101324.9999999923
0.629379379379379 	299.9999999999615 	2.543083080642987e-12 	101324.9999999923
0.6318818818818812 	299.9999999999785 	1.75846230829196e-12 	101324.9999999921
0.6343843843843838 	300.0000000000188 	1.411162294475346e-12 	101324.9999999921
0.6368868868868864 	299.9999999999827 	2.046470674405574e-12 	101324.9999999922
0.6393893893893888 	299.9999999999238 	1.735007154069001e-12 	101324.9999999923
0.6418918918918912 	300.0000000000022 	3.441220921345705e-12 	101324.9999999923
0.6443943943943939 	299.9999999999748 	3.268285380889484e-12 	101324.9999999922
0.6468968968968963 	299.9999999999841 	3.621376595065522e-12 	101324.9999999921
0.6493993993993988 	299.9999999999771 	2.835980919065847e-12 	101324.9999999919
0.6519019019019012 	299.9999999999789 	4.04897001351962e-12 	101324.999999992
0.6544044044044038 	299.9999999999057 	2.240857898788241e-12 	101324.9999999919
0.6569069069069065 	299.9999999999491 	5.401419857025667e-12 	101324.9999999918
0.6594094094094087 	299.9999999999625 	2.895968535090265e-12 	101324.9999999917
0.6619119119119113 	299.9999999999559 	5.254895513248817e-12 	101324.9999999915
0.664414414414414 	300.0000000000046 	3.126072730181079e-12 	101324.9999999916
0.6669169169169162 	300.0000000000198 	4.08989980348538e-12 	101324.9999999918
0.6694194194194188 	299.9999999999869 	2.529308069196849e-12 	101324.999999992
0.6719219219219214 	299.9999999999221 	4.277151693414739e-12 	101324.9999999923
0.674424424424424 	299.9999999999707 	3.74171659286459e-12 	101324.9999999922
0.6769269269269262 	299.9999999999205 	5.247383576254966e-12 	101324.9999999923
0.679429429429429 	300.0000000000007 	4.766529424204394e-12 	101324.9999999924
0.6819319319319311 	299.9999999999815 	5.351245888059287e-12 	101324.9999999924
0.6844344344344341 	299.9999999999949 	4.086437796551986e-12 	101324.9999999925
0.686936936936936 	299.9999999999907 	4.288038877031189e-12 	101324.9999999926
0.6894394394394392 	299.999999999987 	3.147384507404779e-12 	101324.9999999928
0.6919419419419413 	299.9999999999848 	3.229014648218481e-12 	101324.9999999929
0.694444444444444 	299.9999999999305 	3.09208816876552e-12 	101324.9999999928
0.6969469469469463 	299.9999999999323 	2.934967824397264e-12 	101324.9999999928
0.6994494494494489 	299.9999999999285 	3.447098672738339e-12 	101324.9999999928
0.7019519519519515 	299.9999999999896 	2.286909134577519e-12 	101324.9999999927
0.7044544544544538 	299.9999999999566 	3.296241936859799e-12 	101324.9999999928
0.7069569569569564 	299.9999999999999 	1.628617369331507e-12 	101324.9999999929
0.7094594594594589 	299.9999999999721 	3.782458192761554e-12 	101324.9999999931
0.7119619619619615 	299.9999999999165 	2.808107199898609e-12 	101324.9999999929
0.7144644644644638 	299.9999999999542 	5.163800003329868e-12 	101324.999999993
0.7169669669669665 	299.9999999999281 	4.590231728566689e-12 	101324.999999993
0.7194694694694688 	299.999999999995 	5.989970270234254e-12 	101324.9999999929
0.7219719719719715 	299.9999999999876 	5.297975391833538e-12 	101324.999999993
0.7244744744744737 	300.0000000000045 	5.936543341708442e-12 	101324.999999993
0.7269769769769764 	299.9999999999967 	6.522128453641185e-12 	101324.9999999932
0.7294794794794791 	299.9999999999891 	6.025392612421008e-12 	101324.9999999933
0.7319819819819813 	299.9999999999833 	8.199208715901452e-12 	101324.9999999934
0.7344844844844839 	299.9999999999229 	6.628179173490137e-12 	101324.9999999936
0.7369869869869864 	299.9999999999527 	7.259899661404684e-12 	101324.9999999938
0.739489489489489 	299.9999999999428 	7.040917990796554e-12 	101324.9999999938
0.7419919919919914 	299.9999999999293 	7.52957150884068e-12 	101324.9999999937
0.7444944944944939 	299.9999999999802 	8.690822607064098e-12 	101324.9999999937
0.7469969969969963 	299.999999999976 	6.998894930526429e-12 	101324.9999999939
0.7494994994994989 	299.9999999999441 	8.244061556124073e-12 	101324.999999994
0.7520020020020015 	299.9999999999712 	5.802481512416507e-12 	101324.999999994
0.7545045045045039 	299.999999999968 	8.624947077712776e-12 	101324.9999999941
0.7570070070070062 	299.9999999999444 	5.93910014715933e-12 	101324.9999999938
0.7595095095095092 	299.9999999999374 	6.888855384803334e-12 	101324.9999999936
0.7620120120120112 	300.0000000000082 	5.380084445965028e-12 	101324.9999999934
0.7645145145145138 	299.9999999999916 	5.545626861124821e-12 	101324.9999999937
0.7670170170170165 	299.999999999935 	5.811868744754332e-12 	101324.9999999938
0.7695195195195191 	299.9999999999271 	5.207245932706884e-12 	101324.9999999937
0.7720220220220213 	299.9999999999364 	7.356083864184432e-12 	101324.9999999936
0.7745245245245239 	299.9999999999319 	5.585710041003405e-12 	101324.9999999935
0.7770270270270263 	299.9999999999674 	6.917114741011392e-12 	101324.9999999936
0.779529529529529 	299.9999999999836 	5.615844465562568e-12 	101324.9999999936
0.7820320320320313 	299.9999999999729 	5.73675199890244e-12 	101324.9999999938
0.784534534534534 	300.000000000004 	5.126180491782734e-12 	101324.9999999942
0.7870370370370364 	299.9999999999964 	4.839516498616499e-12 	101324.9999999945
0.7895395395395389 	299.9999999999825 	6.296588896163262e-12 	101324.9999999944
0.7920420420420413 	299.9999999999844 	5.844974998486778e-12 	101324.9999999942
0.794544544544544 	299.9999999999796 	8.322118273050018e-12 	101324.9999999942
0.7970470470470463 	300.000000000002 	6.649810578775439e-12 	101324.9999999945
0.799549549549549 	299.9999999999863 	9.111226436036434e-12 	101324.9999999944
0.8020520520520515 	299.9999999999842 	5.882796337396313e-12 	101324.999999994
0.8045545545545539 	299.9999999999441 	7.160804131114924e-12 	101324.9999999939
0.8070570570570563 	299.9999999999822 	5.300584411648327e-12 	101324.9999999939
0.8095595595595589 	299.9999999999557 	5.734265855355786e-12 	101324.9999999943
0.8120620620620614 	299.9999999999408 	5.459455613582402e-12 	101324.9999999945
0.8145645645645638 	300.0000000000003 	5.05083283788981e-12 	101324.9999999948
0.8170670670670666 	299.9999999999994 	5.41100387864046e-12 	101324.9999999951
0.8195695695695689 	299.9999999999805 	3.862636458780484e-12 	101324.9999999951
0.8220720720720714 	299.9999999999448 	6.192776631687336e-12 	101324.9999999951
0.8245745745745739 	299.9999999999978 	4.852427400359612e-12 	101324.999999995
0.8270770770770765 	299.9999999999756 	7.109040171419754e-12 	101324.9999999951
0.8295795795795788 	299.9999999999559 	6.783288816097411e-12 	101324.9999999952
0.8320820820820815 	300.0000000000136 	7.976846509447084e-12 	101324.9999999955
0.834584584584584 	300.0000000000052 	7.656740132180783e-12 	101324.9999999956
0.8370870870870865 	299.9999999999644 	7.709617294820649e-12 	101324.9999999957
0.8395895895895891 	299.9999999999318 	8.232348972413498e-12 	101324.9999999958
0.8420920920920915 	299.9999999999544 	7.194418376302464e-12 	101324.999999996
0.844594594594594 	299.9999999999458 	6.800338442786095e-12 	101324.9999999961
0.8470970970970964 	299.999999999951 	6.842423066302609e-12 	101324.9999999961
0.8495995995995991 	299.9999999999956 	7.029345097140651e-12 	101324.999999996
0.8521021021021015 	299.9999999999826 	7.645452843447798e-12 	101324.9999999959
0.8546046046046039 	299.99999999997 	6.937456702187837e-12 	101324.9999999957
0.8571071071071066 	299.9999999999958 	8.009370595845421e-12 	101324.9999999955
0.8596096096096089 	299.999999999964 	6.023844641631275e-12 	101324.9999999955
0.8621121121121116 	299.999999999936 	9.086322860225328e-12 	101324.9999999956
0.8646146146146139 	299.9999999999975 	7.51897277015138e-12 	101324.9999999954
0.8671171171171166 	299.9999999999791 	9.776480366566897e-12 	101324.9999999954
0.8696196196196189 	299.9999999999509 	9.246096991222319e-12 	101324.9999999955
0.8721221221221216 	299.99999999998 	1.053821218370921e-11 	101324.9999999956
0.874624624624624 	300.0000000000105 	1.054886192764489e-11 	101324.9999999957
0.8771271271271264 	300.0000000000039 	1.004863440194859e-11 	101324.9999999958
0.879629629629629 	300.000000000002 	1.029704660325687e-11 	101324.9999999959
0.8821321321321317 	299.9999999999827 	8.791452350055771e-12 	101324.9999999957
0.8846346346346339 	299.9999999999308 	1.139310111971824e-11 	101324.9999999956
0.8871371371371364 	299.9999999999618 	9.069166342486559e-12 	101324.9999999956
0.8896396396396391 	299.999999999967 	1.079714985956284e-11 	101324.9999999956
0.8921421421421414 	299.9999999999724 	9.262344354744569e-12 	101324.9999999953
0.8946446446446441 	299.999999999988 	1.000629046906754e-11 	101324.9999999951
0.8971471471471464 	300.0000000000051 	9.964397537542357e-12 	101324.9999999952
0.8996496496496489 	299.9999999999787 	1.015978374179021e-11 	101324.9999999953
0.9021521521521517 	299.9999999999601 	1.116888217499315e-11 	101324.9999999954
0.9046546546546541 	299.9999999999914 	9.831495676342318e-12 	101324.9999999955
0.9071571571571564 	299.9999999999498 	1.016787130618484e-11 	101324.9999999957
0.9096596596596589 	299.9999999999475 	9.960557563559615e-12 	101324.9999999958
0.9121621621621616 	300.0000000000068 	9.92762715106853e-12 	101324.9999999959
0.9146646646646639 	299.9999999999816 	9.791827529300357e-12 	101324.999999996
0.9171671671671666 	299.9999999999525 	1.000104205163332e-11 	101324.9999999961
0.9196696696696689 	300.0000000000022 	1.14418020288624e-11 	101324.999999996
0.9221721721721714 	300.0000000000013 	1.045294136151482e-11 	101324.9999999961
0.9246746746746741 	299.9999999999475 	1.275340264014199e-11 	101324.9999999962
0.9271771771771765 	299.9999999999567 	1.031148045806654e-11 	101324.9999999962
0.9296796796796791 	299.9999999999955 	1.200365787114968e-11 	101324.9999999962
0.9321821821821816 	299.9999999999657 	1.085695973428824e-11 	101324.9999999962
0.9346846846846838 	299.9999999999502 	1.184906066950573e-11 	101324.9999999965
0.9371871871871866 	300.0000000000129 	1.102730792516797e-11 	101324.9999999964
0.9396896896896891 	300.000000000013 	1.100812757642342e-11 	101324.9999999962
0.9421921921921914 	300.0000000000119 	1.182536823703979e-11 	101324.9999999963
0.9446946946946939 	299.9999999999717 	1.126029658206382e-11 	101324.9999999963
0.9471971971971965 	299.9999999999262 	1.38763459619005e-11 	101324.9999999962
0.9496996996996991 	299.9999999999628 	1.213243633222224e-11 	101324.9999999963
0.9522022022022016 	299.9999999999793 	1.442383201908637e-11 	101324.9999999964
0.9547047047047038 	299.9999999999812 	1.354056808870262e-11 	101324.9999999962
0.9572072072072064 	299.9999999999667 	1.426295906070526e-11 	101324.999999996
0.9597097097097093 	299.9999999999652 	1.372446627163775e-11 	101324.9999999959
0.9622122122122114 	299.9999999999579 	1.354833519382167e-11 	101324.9999999958
0.964714714714714 	299.9999999999541 	1.44100383279745e-11 	101324.9999999958
0.9672172172172167 	299.99999999996 	1.369793445453113e-11 	101324.9999999959
0.969719719719719 	299.9999999999837 	1.489284926196571e-11 	101324.999999996
0.9722222222222214 	299.9999999999781 	1.446375699830034e-11 	101324.9999999961
0.9747247247247239 	299.9999999999733 	1.447395876892849e-11 	101324.999999996
0.9772272272272267 	300.0000000000028 	1.480022120602519e-11 	101324.9999999962
0.9797297297297292 	299.9999999999864 	1.523688170136962e-11 	101324.9999999962
0.9822322322322313 	299.999999999987 	1.615388670186447e-11 	101324.9999999962
0.9847347347347344 	299.9999999999878 	1.46585577393015e-11 	101324.9999999964
0.9872372372372363 	299.9999999999508 	1.648428064456308e-11 	101324.9999999967
0.9897397397397389 	299.9999999999745 	1.370941812402606e-11 	101324.9999999969
0.9922422422422417 	299.9999999999567 	1.493261027921899e-11 	101324.9999999971
0.9947447447447441 	299.99999999996 	1.307490165281607e-11 	101324.9999999972
0.9972472472472468 	299.9999999999723 	1.378554614516568e-11 	101324.9999999974
0.999749749749749 	299.9999999999662 	1.299321530605297e-11 	101324.9999999974
1.002252252252252 	299.999999999971 	1.334271034395318e-11 	101324.9999999972
1.004754754754754 	299.9999999999927 	1.333205420426145e-11 	101324.9999999971
1.007257257257256 	299.9999999999765 	1.270351870228752e-11 	101324.9999999972
1.009759759759759 	299.9999999999601 	1.48783755268734e-11 	101324.9999999976
1.012262262262261 	299.9999999999534 	1.301657670232158e-11 	101324.9999999978
1.014764764764764 	299.9999999999341 	1.528857610486518e-11 	101324.9999999979
1.017267267267267 	299.9999999999298 	1.479380938225874e-11 	101324.9999999977
1.019769769769769 	299.9999999999701 	1.639707507886992e-11 	101324.9999999974
1.022272272272272 	299.9999999999824 	1.640465833746592e-11 	101324.9999999972
1.024774774774774 	299.9999999999836 	1.683758505391791e-11 	101324.9999999971
1.027277277277277 	299.9999999999766 	1.796882210613649e-11 	101324.999999997
1.029779779779779 	300.0000000000038 	1.669217131492641e-11 	101324.999999997
1.032282282282282 	300.0000000000056 	1.716807655914909e-11 	101324.9999999969
1.034784784784784 	299.999999999999 	1.705074180476239e-11 	101324.9999999969
1.037287287287286 	299.9999999999717 	1.812289341182925e-11 	101324.999999997
1.039789789789789 	299.9999999999753 	1.791711044469939e-11 	101324.9999999971
1.042292292292291 	300.0000000000065 	1.768129601032821e-11 	101324.9999999972
1.044794794794794 	300.0000000000236 	1.736695686908103e-11 	101324.9999999971
1.047297297297296 	300.000000000043 	1.629854958285174e-11 	101324.9999999971
1.049799799799799 	299.9999999999944 	1.834769097633034e-11 	101324.9999999971
1.052302302302302 	299.9999999999574 	1.678601740143342e-11 	101324.9999999973
1.054804804804804 	299.9999999999388 	1.869698263432374e-11 	101324.9999999973
1.057307307307306 	299.9999999999279 	1.731662633298728e-11 	101324.9999999973
1.059809809809809 	299.9999999999617 	1.784847257889516e-11 	101324.9999999974
1.062312312312312 	299.9999999999555 	1.675842386713592e-11 	101324.9999999976
1.064814814814814 	299.9999999999512 	1.711118264292154e-11 	101324.9999999977
1.067317317317317 	299.9999999999301 	1.70615219115057e-11 	101324.9999999979
1.069819819819819 	299.999999999929 	1.731384509900708e-11 	101324.9999999979
1.072322322322321 	299.999999999995 	1.937032073368013e-11 	101324.9999999978
1.074824824824824 	300.0000000000253 	1.729664587975726e-11 	101324.9999999978
1.077327327327327 	300.0000000000405 	1.88577603344224e-11 	101324.9999999978
1.079829829829829 	300.0000000000409 	1.753153880558027e-11 	101324.9999999977
1.082332332332332 	300.000000000007 	1.841758018009085e-11 	101324.9999999976
1.084834834834834 	299.999999999984 	1.797378464157408e-11 	101324.9999999976
1.087337337337337 	299.9999999999486 	1.79578567740172e-11 	101324.9999999979
1.089839839839839 	299.9999999999352 	1.91973723758768e-11 	101324.9999999978
1.092342342342342 	299.9999999999728 	1.761254505240234e-11 	101324.9999999976
1.094844844844844 	299.999999999973 	1.903862233833953e-11 	101324.9999999978
1.097347347347347 	299.9999999999437 	1.811191279876446e-11 	101324.9999999979
1.099849849849849 	299.9999999999283 	2.096499990940225e-11 	101324.9999999979
1.102352352352352 	299.9999999999529 	1.833568589018283e-11 	101324.9999999981
1.104854854854854 	299.9999999999772 	1.993220019583044e-11 	101324.9999999981
1.107357357357357 	299.9999999999665 	1.802730130666701e-11 	101324.9999999978
1.109859859859859 	299.9999999999545 	1.972607547575319e-11 	101324.9999999979
1.112362362362362 	300.0000000000107 	1.888697615523333e-11 	101324.9999999983
1.114864864864865 	300.0000000000113 	1.89954018142507e-11 	101324.9999999986
1.117367367367367 	299.999999999965 	2.005661949835486e-11 	101324.9999999987
1.119869869869869 	299.9999999999305 	1.873735414597047e-11 	101324.9999999987
1.122372372372372 	299.9999999999626 	2.038901387426359e-11 	101324.9999999987
1.124874874874874 	299.9999999999694 	1.932007687652536e-11 	101324.9999999987
1.127377377377377 	299.9999999999817 	2.058970811021781e-11 	101324.9999999987
1.129879879879879 	300.0000000000215 	1.985426545120646e-11 	101324.9999999985
1.132382382382382 	300.0000000000349 	2.002146076341651e-11 	101324.9999999983
1.134884884884884 	300.0000000000072 	1.896439592361858e-11 	101324.9999999982
1.137387387387387 	300.0000000000173 	1.87972862223859e-11 	101324.9999999983
1.139889889889889 	299.9999999999694 	2.051050555884884e-11 	101324.9999999984
1.142392392392392 	299.9999999999604 	2.010395333394407e-11 	101324.9999999983
1.144894894894894 	300.0000000000204 	2.271066595949775e-11 	101324.9999999981
1.147397397397397 	300.0000000000045 	2.184562743493092e-11 	101324.9999999981
1.149899899899899 	299.9999999999453 	2.255289015490559e-11 	101324.9999999981
1.152402402402402 	299.9999999999304 	2.169963113994875e-11 	101324.9999999979
1.154904904904904 	299.9999999999688 	2.288293289926163e-11 	101324.9999999978
1.157407407407407 	299.9999999999721 	2.225797072038364e-11 	101324.9999999982
1.159909909909909 	299.9999999999426 	2.18681937077639e-11 	101324.9999999983
1.162412412412412 	299.9999999999374 	2.286563286206423e-11 	101324.9999999983
1.164914914914914 	299.9999999999699 	2.089356166616632e-11 	101324.9999999986
1.167417417417417 	299.9999999999634 	2.243673516450218e-11 	101324.9999999987
1.169919919919919 	300.0000000000037 	2.126411328085657e-11 	101324.9999999987
1.172422422422422 	300.0000000000413 	2.210599470564315e-11 	101324.9999999989
1.174924924924925 	299.9999999999934 	2.06907057342602e-11 	101324.9999999993
1.177427427427427 	299.9999999999702 	2.146508215106271e-11 	101324.9999999997
1.179929929929929 	300.0000000000213 	2.283795759208435e-11 	101324.9999999999
1.182432432432432 	300.0000000000487 	2.143399869063317e-11 	101324.9999999997
1.184934934934934 	300.0000000000156 	2.257576025770865e-11 	101324.9999999994
1.187437437437437 	299.9999999999911 	2.15745024156291e-11 	101324.9999999995
1.189939939939939 	299.9999999999827 	2.263363003917399e-11 	101324.9999999996
1.192442442442442 	299.9999999999452 	2.153281216517408e-11 	101324.9999999998
1.194944944944944 	299.9999999999453 	2.269967479550167e-11 	101324.9999999997
1.197447447447447 	299.9999999999986 	2.207452783355634e-11 	101324.9999999995
1.199949949949949 	300.0000000000116 	2.2721356480841e-11 	101324.9999999995
1.202452452452452 	299.9999999999623 	2.41046272560359e-11 	101324.9999999994
1.204954954954955 	299.9999999999569 	2.265913139544922e-11 	101324.9999999995
1.207457457457457 	299.9999999999836 	2.386318952297942e-11 	101324.9999999993
1.20995995995996 	299.9999999999798 	2.267275265186836e-11 	101324.999999999
1.212462462462462 	299.9999999999923 	2.366617276722278e-11 	101324.999999999
1.214964964964964 	299.9999999999907 	2.23964609635765e-11 	101324.999999999
1.217467467467467 	299.9999999999826 	2.307606022438948e-11 	101324.9999999992
1.219969969969969 	299.9999999999718 	2.154414338300436e-11 	101324.9999999994
1.222472472472472 	300.0000000000216 	2.161632301612055e-11 	101324.9999999995
1.224974974974975 	300.0000000000481 	2.25148428506441e-11 	101324.9999999995
1.227477477477477 	299.9999999999964 	2.123332575919659e-11 	101324.9999999993
1.229979979979979 	299.999999999982 	2.321454598723127e-11 	101324.9999999992
1.232482482482482 	299.999999999957 	2.21596955730146e-11 	101324.9999999993
1.234984984984984 	299.9999999999585 	2.393180937318085e-11 	101324.9999999995
1.237487487487487 	299.9999999999839 	2.243270728639424e-11 	101324.9999999997
1.239989989989989 	299.9999999999852 	2.267133951740147e-11 	101324.9999999997
1.242492492492492 	300.0000000000153 	2.284873616543889e-11 	101324.9999999999
1.244994994994994 	299.9999999999881 	2.12088621679227e-11 	101325.0000000001
1.247497497497497 	299.9999999999854 	2.272606071706719e-11 	101325.0000000001
1.249999999999999 	300 	2.195064782028993e-11 	101325.0000000001
