-1.25 	300 	0.0006878526533649108 	101325
-1.247497497497497 	299.993110322779 	0.01322940561365611 	101318.091781917
-1.244994994994995 	299.9887912693601 	0.03426478366324937 	101311.7427477549
-1.242492492492492 	299.9832508086993 	0.0491278442706251 	101305.198489655
-1.23998998998999 	299.9780695462809 	0.06329031718233943 	101299.0766293926
-1.237487487487487 	299.9732953130638 	0.07718450479259953 	101293.433544209
-1.234984984984985 	299.9690370933329 	0.08947936491282897 	101288.4007025473
-1.232482482482482 	299.9653347036843 	0.1002257759589714 	101284.0249065045
-1.22997997997998 	299.9622601885708 	0.1091326070120119 	101280.3912293318
-1.227477477477477 	299.9599493311548 	0.1158494844899921 	101277.6601589176
-1.224974974974975 	299.9583650080772 	0.1203708112468503 	101275.787691983
-1.222472472472472 	299.9575004145998 	0.1228169861959729 	101274.7658432572
-1.21996996996997 	299.9574208215261 	0.1230484187998703 	101274.6717871894
-1.217467467467467 	299.9581385626889 	0.1209707519398345 	101275.5199399126
-1.214964964964965 	299.9596540288872 	0.1166009781028199 	101277.310824159
-1.212462462462462 	299.9619580422854 	0.1098976706243548 	101280.033640962
-1.20995995995996 	299.9649973300517 	0.1011165229878736 	101283.6254954886
-1.207457457457457 	299.9686677625265 	0.09060541227597119 	101287.963407155
-1.204954954954955 	299.9728464692625 	0.07854626400367647 	101292.9021817946
-1.202452452452452 	299.9775011503518 	0.0650695850611652 	101298.4037214286
-1.19994994994995 	299.9825874858391 	0.05032667369305771 	101304.4157295595
-1.197447447447447 	299.9879873100965 	0.03466518269388816 	101310.7985371424
-1.194944944944945 	299.9935849831699 	0.01847431979227063 	101317.4155466198
-1.192442442442442 	299.999272838603 	0.008165063510541401 	101324.1395079407
-1.18993993993994 	300.004977787096 	0.01447146705937675 	101330.8839643381
-1.187437437437437 	300.01060755212 	0.03068961138354163 	101337.5398897188
-1.184934934934935 	300.0160685850834 	0.04647879218174945 	101343.9966176668
-1.182432432432432 	300.021272762523 	0.06152207210399702 	101350.1499543102
-1.17992992992993 	300.0260968511293 	0.07546846910137285 	101355.8541561562
-1.177427427427427 	300.0304236116082 	0.08797301201401592 	101360.9704663024
-1.174924924924925 	300.0341720271567 	0.09879041299338007 	101365.403087323
-1.172422422422422 	300.0372737618434 	0.1077884842817301 	101369.0710860711
-1.16991991991992 	300.0396876421846 	0.1148047590960991 	101371.9257514698
-1.167417417417417 	300.0414031693153 	0.1197482139740519 	101373.9546236781
-1.164914914914915 	300.0423842781522 	0.1225115609254772 	101375.1149355983
-1.162412412412412 	300.0425750908667 	0.1230068304831036 	101375.3406274148
-1.15990990990991 	300.0419518811717 	0.121216354586842 	101374.6036709254
-1.157407407407407 	300.0405205736235 	0.1170996987617768 	101372.9111371955
-1.154904904904904 	300.0383128292609 	0.1107446081779195 	101370.3004270374
-1.152402402402403 	300.0353954958024 	0.1023000975371082 	101366.8505525747
-1.1498998998999 	300.0318394247538 	0.09200994663743679 	101362.6454762743
-1.147397397397397 	300.0277146394372 	0.08014096995408376 	101357.7680236768
-1.144894894894895 	300.0230979188377 	0.06679879712975428 	101352.3090531664
-1.142392392392392 	300.0180649408086 	0.05221265300901668 	101346.3581475376
-1.13988988988989 	300.0127050251991 	0.03667484046876833 	101340.0208842991
-1.137387387387387 	300.0071292372608 	0.02051190409033706 	101333.428712798
-1.134884884884885 	300.0014356972727 	0.007779778635417265 	101326.6976140916
-1.132382382382382 	299.9957117416347 	0.01243514783566872 	101319.9308708216
-1.12987987987988 	299.9900343008933 	0.02886760147002676 	101313.2194575959
-1.127377377377377 	299.9844950067749 	0.04487569573803285 	101306.6715936224
-1.124874874874875 	299.9792236739554 	0.06008624143167716 	101300.4407814958
-1.122372372372372 	299.9743606471224 	0.07410399922988847 	101294.6928041868
-1.11986986986987 	299.969996366098 	0.0867094765113018 	101289.5345269526
-1.117367367367367 	299.9662062032311 	0.09770770346589737 	101285.054982072
-1.114864864864865 	299.9630349038766 	0.1069370863011887 	101281.3069156032
-1.112362362362362 	299.9605131333767 	0.114223740871101 	101278.3265869469
-1.10985985985986 	299.9587009903192 	0.1193827805620778 	101276.1848677721
-1.107357357357357 	299.9576702212423 	0.1223536365095845 	101274.9666179344
-1.104854854854855 	299.9574402879454 	0.1230033086680769 	101274.6948709663
-1.102352352352353 	299.9580288017266 	0.1213092146345743 	101275.3903032273
-1.09984984984985 	299.9594099342322 	0.1173326761807924 	101277.0224359294
-1.097347347347347 	299.9615342194685 	0.1111341548299251 	101279.5328379557
-1.094844844844845 	299.9643569386885 	0.1029674180456421 	101282.8687359295
-1.092342342342342 	299.9678330079513 	0.09298247680292196 	101286.9769030802
-1.08983983983984 	299.9718789753233 	0.08129137862438809 	101291.7587510762
-1.087337337337337 	299.9764526321433 	0.06808660869537292 	101297.1644900652
-1.084834834834835 	299.9814631989769 	0.05357364990061909 	101303.0868638092
-1.082332332332332 	299.9867956356894 	0.03813329089091071 	101309.3899669357
-1.07982982982983 	299.9923319252134 	0.0221324154842285 	101315.93435508
-1.077327327327327 	299.9979572684943 	0.00722774338821573 	101322.5843194598
-1.074824824824825 	300.0036292456809 	0.01056396368172267 	101329.2897350649
-1.072322322322323 	300.0092779312506 	0.02685652063401138 	101335.9679480926
-1.06981981981982 	300.0147756494177 	0.04275857299964746 	101342.4679794808
-1.067317317317317 	300.0200042396745 	0.05788278304381573 	101348.650124567
-1.064814814814815 	300.0248622148375 	0.07192896029336127 	101354.3943137609
-1.062312312312312 	300.0292693021108 	0.08465360457073104 	101359.6055606597
-1.05980980980981 	300.033158316696 	0.09587552513696547 	101364.2043939054
-1.057307307307307 	300.0364545438733 	0.1054176041561271 	101368.1023594268
-1.054804804804805 	300.0390895575708 	0.113047911937974 	101371.2185139823
-1.052302302302302 	300.0410096736803 	0.1185655393278313 	101373.4893089734
-1.0497997997998 	300.0421571471016 	0.1218367131678548 	101374.8463766327
-1.047297297297297 	300.0425034053644 	0.1228315068681974 	101375.2559115786
-1.044794794794795 	300.0420544898859 	0.121552435836609 	101374.7250574986
-1.042292292292292 	300.0408230383899 	0.1180014587486376 	101373.2688636954
-1.03978978978979 	300.0388329228634 	0.1122456825420796 	101370.9155029083
-1.037287287287287 	300.0361235307074 	0.1043666068374312 	101367.7115306407
-1.034784784784785 	300.0327310413969 	0.09456221128992091 	101363.6998674512
-1.032282282282283 	300.0287303405339 	0.08304536919464842 	101358.9691019577
-1.02977977977978 	300.0242164491832 	0.06998083303947759 	101353.6316846919
-1.027277277277277 	300.0192706477432 	0.05565067378460228 	101347.7837752663
-1.024774774774775 	300.0139751200124 	0.04031526368595964 	101341.5225917406
-1.022272272272272 	300.0084324140362 	0.02427888123007176 	101334.9694558413
-1.01976976976977 	300.0027328912971 	0.007864024062840699 	101328.2312018197
-1.017267267267267 	299.9969883966002 	0.009661113905918667 	101321.4401171729
-1.014764764764765 	299.9912838738101 	0.02525946307903879 	101314.6966006163
-1.012262262262262 	299.9857225179466 	0.04133613261163364 	101308.1226072455
-1.00975975975976 	299.9804287148473 	0.05663075475693018 	101301.8651766012
-1.007257257257257 	299.9755099831178 	0.07083897255949759 	101296.0513013066
-1.004754754754755 	299.9710363421545 	0.08377066423475983 	101290.7637312025
-1.002252252252252 	299.9670919920865 	0.09520631476630781 	101286.1019047168
-0.9997497497497498 	299.9637403022416 	0.1049121431711438 	101282.1406354464
-0.9972472472472473 	299.9610550844483 	0.1126360812379156 	101278.967129654
-0.9947447447447449 	299.9591089730269 	0.1182041747749839 	101276.667093673
-0.9922422422422421 	299.9579452480744 	0.1215747442578098 	101275.2916943662
-0.9897397397397399 	299.9575593203537 	0.122671895487169 	101274.835578694
-0.9872372372372376 	299.9579688250804 	0.121516326932324 	101275.3194914632
-0.9847347347347346 	299.9591569263936 	0.1180915482660181 	101276.7234946151
-0.9822322322322323 	299.961104423272 	0.1124348361990549 	101279.024972604
-0.9797297297297296 	299.9637679183805 	0.1047471740006417 	101282.1726693789
-0.9772272272272275 	299.9670879005079 	0.09516270364422502 	101286.0963272038
-0.9747247247247248 	299.9709881183834 	0.08386648083872469 	101290.7059034644
-0.9722222222222224 	299.9754245983383 	0.07103665699546889 	101295.949452147
-0.9697197197197196 	299.9803134461054 	0.0568693398183 	101301.7279142142
-0.9672172172172175 	299.9855635656745 	0.04167774729073453 	101307.9336462166
-0.9647147147147147 	299.9910572561302 	0.02580549588776416 	101314.4275892322
-0.9622122122122124 	299.9966694514442 	0.009579739729440994 	101321.0619605885
-0.9597097097097099 	300.0023246962082 	0.009284090531532761 	101327.7475165189
-0.9572072072072073 	300.0079427819396 	0.02295432764715563 	101334.3894845698
-0.9547047047047047 	300.0134236135744 	0.03882380563989302 	101340.8694798693
-0.9522022022022023 	300.0186768228091 	0.05403600953740212 	101347.0806346478
-0.9496996996996998 	300.0236095359514 	0.06830886133146505 	101352.9131459316
-0.9471971971971973 	300.0281401420708 	0.08140772369411352 	101358.2703953442
-0.9446946946946947 	300.0321784098854 	0.09305612785040185 	101363.0456709606
-0.9421921921921923 	300.0356274474329 	0.1030445026000786 	101367.1243199007
-0.93968968968969 	300.0384171722569 	0.1111227306675381 	101370.4233896737
-0.9371871871871872 	300.0405030740368 	0.1170928583507995 	101372.8902385489
-0.9346846846846848 	300.0418336709593 	0.1209024893166223 	101374.4638708047
-0.9321821821821823 	300.0423871792535 	0.1224765245777524 	101375.1185070066
-0.9296796796796799 	300.0421501662496 	0.1217985886469505 	101374.8382407596
-0.9271771771771771 	300.0411190013179 	0.118850538555699 	101373.6188743963
-0.9246746746746748 	300.039317430477 	0.1136410694389599 	101371.4884927828
-0.9221721721721724 	300.0367899033527 	0.1063074115146193 	101368.4995886311
-0.9196696696696698 	300.0335660503142 	0.09700939410538244 	101364.687310511
-0.9171671671671672 	300.0297211415814 	0.0859273974414929 	101360.1407531986
-0.9146646646646649 	300.0253276842651 	0.07321046165808986 	101354.9456739015
-0.9121621621621623 	300.0204606865051 	0.05909390299966985 	101349.1909028821
-0.9096596596596597 	300.0152114520358 	0.0438904169652689 	101342.9844048582
-0.9071571571571573 	300.0096973094728 	0.02792219897798326 	101336.4649565307
-0.9046546546546547 	300.0040110033438 	0.01156838001341724 	101329.7422735678
-0.9021521521521524 	299.9982936047952 	0.009020657659193031 	101322.9831283343
-0.8996496496496498 	299.9926064996324 	0.02144267047880842 	101316.2601380578
-0.8971471471471473 	299.9870262374212 	0.0375630983628672 	101309.6637355143
-0.894644644644645 	299.9816680487066 	0.05305571412558439 	101303.3301203217
-0.892142142142142 	299.9766405930241 	0.06756737093651759 	101297.3876977494
-0.8896396396396397 	299.9720378919078 	0.08084751960207176 	101291.9475275513
-0.8871371371371374 	299.9679655346038 	0.09265971041911128 	101287.1343765731
-0.8846346346346349 	299.964486474064 	0.1027313632442955 	101283.0225551549
-0.8821321321321324 	299.9616690002404 	0.1108625531145964 	101279.6927108419
-0.8796296296296297 	299.9595737878266 	0.1168858129994968 	101277.2164846746
-0.8771271271271271 	299.958239728285 	0.1207274402366562 	101275.6397631816
-0.8746246246246248 	299.9576824570271 	0.1223216621734484 	101274.9811490662
-0.8721221221221224 	299.9579250228127 	0.1216398655250991 	101275.2677880587
-0.8696196196196196 	299.9589437599105 	0.1186921619473015 	101276.4716246509
-0.8671171171171175 	299.9607170826206 	0.1135441582954035 	101278.5672665993
-0.8646146146146148 	299.9632071993354 	0.1063528699519786 	101281.5100567471
-0.8621121121121121 	299.9663593633318 	0.09724756398226181 	101285.2353559919
-0.8596096096096097 	299.9701198471095 	0.08635917555103846 	101289.6797472929
-0.857107107107107 	299.9744491647008 	0.07385632445003357 	101294.7965824873
-0.8546046046046049 	299.9792510502133 	0.05995745747189307 	101300.4722148728
-0.8521021021021022 	299.9844253260658 	0.04497979545932947 	101306.588247763
-0.8495995995995997 	299.989852084287 	0.02931445495345963 	101313.0030089503
-0.8470970970970974 	299.9954053656258 	0.01325584173432483 	101319.5676648418
-0.8445945945945946 	300.0010052159898 	0.008196967785394711 	101326.1876452373
-0.8420920920920922 	300.0065900208377 	0.01906881895004243 	101332.7902032989
-0.8395895895895897 	300.0120775923704 	0.0349711481031502 	101339.2780890958
-0.8370870870870872 	300.0173752001346 	0.05028686520029541 	101345.5416784187
-0.8345845845845846 	300.0223838650337 	0.06476307828827914 	101351.4639199248
-0.8320820820820823 	300.0270107836863 	0.07812979034582881 	101356.9349859873
-0.8295795795795798 	300.0311621037694 	0.09011162620151306 	101361.8439138524
-0.8270770770770772 	300.0347502048427 	0.1005074580848698 	101366.0869658325
-0.8245745745745746 	300.0377063494404 	0.1090365559497162 	101369.5828234831
-0.8220720720720721 	300.0399715562673 	0.1155410085394785 	101372.2616953825
-0.8195695695695699 	300.0414875095366 	0.1198945465798514 	101374.0545101803
-0.817067067067067 	300.0422260117392 	0.1220267986684561 	101374.9279494921
-0.8145645645645651 	300.042176703279 	0.1219141240394612 	101374.8696432814
-0.8120620620620621 	300.0413454841204 	0.1195203590243552 	101373.8867271016
-0.8095595595595597 	300.0397521421525 	0.1149036041902096 	101372.0025953247
-0.8070570570570572 	300.0374187821999 	0.108132639633534 	101369.2432860765
-0.8045545545545546 	300.0343708746768 	0.09934887748992269 	101365.6390685916
-0.8020520520520523 	300.0306766838411 	0.08869190919357994 	101361.2706938656
-0.7995495495495494 	300.0264069086737 	0.07631276773803246 	101356.2218371247
-0.7970470470470474 	300.0216425746574 	0.06250588274717517 	101350.5884018627
-0.7945445445445446 	300.0164782752809 	0.04754595153338349 	101344.4822512747
-0.7920420420420423 	300.01101889813 	0.03177818487461683 	101338.0275027101
-0.7895395395395397 	300.0053694905811 	0.01551841153655343 	101331.3483650582
-0.7870370370370371 	299.999660311738 	0.007544180483392669 	101324.5988708059
-0.7845345345345348 	299.9939477807904 	0.01756498326664586 	101317.8457472597
-0.7820320320320323 	299.9883169663133 	0.03381744454415281 	101311.1895054859
-0.7795295295295296 	299.9828910447097 	0.04949450563650347 	101304.7757813594
-0.7770270270270272 	299.9777798278154 	0.06424527576362726 	101298.7342770177
-0.7745245245245247 	299.973083825197 	0.07783420387355824 	101293.1837948541
-0.7720220220220222 	299.9688983336695 	0.08997907741115994 	101288.2368940251
-0.7695195195195199 	299.9652833111798 	0.1004328507070442 	101283.9643378233
-0.767017017017017 	299.9623203278159 	0.1089692368331937 	101280.4625335657
-0.7645145145145147 	299.9600787296828 	0.1154187960449643 	101277.8132834822
-0.7620120120120122 	299.9585868257322 	0.1197366080992922 	101276.0500265649
-0.7595095095095097 	299.9578584167339 	0.1218170627332347 	101275.1891494816
-0.7570070070070072 	299.9579133911166 	0.1216721605110431 	101275.2540861728
-0.7545045045045048 	299.9587392228862 	0.1192620929008513 	101276.2299828474
-0.7520020020020022 	299.9603369340437 	0.114609400931254 	101278.1180587955
-0.7494994994994997 	299.962678771005 	0.107896887884321 	101280.885599466
-0.7469969969969972 	299.9656955841854 	0.09917410294226336 	101284.4509222534
-0.7444944944944945 	299.9693284474464 	0.08866964841044093 	101288.7444415168
-0.7419919919919924 	299.9735215753612 	0.07657304602702913 	101293.7003053064
-0.7394894894894897 	299.9781812715227 	0.06304699827759871 	101299.2078010942
-0.7369869869869872 	299.9832303099877 	0.04844591937671053 	101305.1757400701
-0.7344844844844846 	299.9885690473463 	0.0330223640794778 	101311.4864010026
-0.7319819819819822 	299.9940655091677 	0.01711053208463418 	101317.98379521
-0.7294794794794797 	299.9996379824818 	0.006230521447692487 	101324.5713664704
-0.7269769769769773 	300.0052064675404 	0.01509254543352266 	101331.1545293933
-0.7244744744744747 	300.0107044037539 	0.03099837599688538 	101337.6545924183
-0.721971971971972 	300.0160457004029 	0.0464339930490067 	101343.969772941
-0.7194694694694695 	300.021126156071 	0.06113169512080981 	101349.9768170525
-0.7169669669669674 	300.0258503350142 	0.07477376567025584 	101355.562846168
-0.7144644644644647 	300.0301187673003 	0.08710275534374046 	101360.6101981837
-0.711961961961962 	300.0338374042937 	0.09785508189844896 	101365.0075787175
-0.7094594594594597 	300.036936774579 	0.1068097128982729 	101368.6727856515
-0.7069569569569573 	300.0393640164932 	0.1138044891079341 	101371.5432447599
-0.7044544544544545 	300.0410619613444 	0.1186924369438758 	101373.5512851396
-0.7019519519519523 	300.0420018749821 	0.1214067661943522 	101374.662912844
-0.6994494494494495 	300.0421654690832 	0.1218754132358655 	101374.8564002982
-0.6969469469469471 	300.0415482329398 	0.1200970348362158 	101374.1265121527
-0.6944444444444446 	300.0401624023038 	0.1160934890287578 	101372.4877711282
-0.6919419419419421 	300.0380232980598 	0.1098744604157482 	101369.9581956673
-0.6894394394394396 	300.0351365773341 	0.1015539671900459 	101366.5445695146
-0.6869369369369374 	300.0315592578364 	0.09121770984388472 	101362.3143685236
-0.6844344344344344 	300.0273665076935 	0.07908339983615327 	101357.3565545081
-0.6819319319319321 	300.0226653108072 	0.06550080179962313 	101351.7977241124
-0.6794294294294296 	300.0175769218848 	0.0507699018635077 	101345.7812836827
-0.6769269269269272 	300.0122099345479 	0.03524586044582892 	101339.4357063345
-0.6744244244244245 	300.0066332664124 	0.01916118011573024 	101332.8425079573
-0.6719219219219222 	300.0009587059758 	0.005235453682689265 	101326.1338683327
-0.6694194194194195 	299.9952337292749 	0.013843569911244 	101319.3659548152
-0.6669169169169172 	299.9895482763766 	0.03024952520847027 	101312.645063785
-0.6644144144144146 	299.984050144375 	0.04612729973942669 	101306.1458953814
-0.661911911911912 	299.9788743033863 	0.06109968660053217 	101300.0279721138
-0.6594094094094097 	299.9741163100522 	0.07484962168637156 	101294.4041626266
-0.656906906906907 	299.9698449323164 	0.08719424998367245 	101289.3557053907
-0.6544044044044046 	299.9661178183217 	0.09798678895604891 	101284.9506722608
-0.6519019019019021 	299.9629896347702 	0.107023438122209 	101281.2535801356
-0.6493993993993996 	299.9605407277739 	0.114095460571648 	101278.3593586307
-0.6468968968968971 	299.9588479016339 	0.1189545419359233 	101276.3586251542
-0.6443943943943946 	299.9579679736107 	0.1214648212290764 	101275.3186643076
-0.6418918918918921 	299.957918441324 	0.1216188762643181 	101275.2601066542
-0.6393893893893897 	299.9586671481242 	0.1194902222750722 	101276.1448451462
-0.6368868868868871 	299.9601303458736 	0.1152672126359747 	101277.8739742225
-0.6343843843843846 	299.9622484948496 	0.1091225833956832 	101280.3771530337
-0.6318818818818821 	299.9649777613858 	0.1012058788378011 	101283.602624513
-0.6293793793793795 	299.9683169066727 	0.09154541174294407 	101287.5489888927
-0.6268768768768773 	299.9722737965187 	0.08009341884170634 	101292.2255732787
-0.6243743743743745 	299.9768339583416 	0.06691971457659529 	101297.6156387068
-0.6218718718718721 	299.9819031013087 	0.05223104124820256 	101303.6073188688
-0.6193693693693696 	299.987353574063 	0.03649694282307899 	101310.0497341201
-0.6168668668668671 	299.992986372777 	0.02026957527290761 	101316.7081727649
-0.6143643643643645 	299.9986124826724 	0.004037061788376029 	101323.359096164
-0.6118618618618621 	300.004071314232 	0.01177578248632282 	101329.8125831932
-0.6093593593593596 	300.0092858245674 	0.02685823705874845 	101335.9775154376
-0.6068568568568571 	300.0142710293867 	0.04132162041693248 	101341.8715817747
-0.6043543543543546 	300.0190846926377 	0.05528154772595158 	101347.5630708205
-0.6018518518518521 	300.0237668320777 	0.06883626744415178 	101353.0992666683
-0.5993493493493496 	300.0282925511232 	0.08190601727023883 	101358.4507197683
-0.5968468468468471 	300.0325518675161 	0.09417493136464999 	101363.4873802232
-0.5943443443443446 	300.0363588786046 	0.1051149618916702 	101367.9893494263
-0.591841841841842 	300.0394835516053 	0.114074899889309 	101371.6845686122
-0.5893393393393397 	300.0416960811048 	0.1204053220720723 	101374.3011972408
-0.5868368368368371 	300.0428126575561 	0.1235880850072154 	101375.6217659076
-0.5843343343343346 	300.0427330612706 	0.1233424164833526 	101375.5276318376
-0.5818318318318321 	300.041462399641 	0.1196876080050362 	101374.0250900881
-0.5793293293293297 	300.039115510188 	0.112952108639655 	101371.2498401083
-0.5768268268268271 	300.0359003080246 	0.1037275276202988 	101367.4477412823
-0.5743243243243245 	300.0320857581592 	0.09277827436612256 	101362.9369698995
-0.5718218218218221 	300.027961550997 	0.08092752829817444 	101358.0601574256
-0.5693193193193196 	300.0237974877489 	0.06894376940997041 	101353.1363648428
-0.5668168168168171 	300.0198119246778 	0.05745391656159008 	101348.423783779
-0.5643143143143147 	300.0161578479132 	0.04690264788399451 	101344.1032815813
-0.5618118118118121 	300.0129255970525 	0.03755578436830175 	101340.2816372768
-0.5593093093093094 	300.0101532171404 	0.02952801958183851 	101337.0037950041
-0.5568068068068072 	300.0078389659926 	0.0228184637259939 	101334.2676602538
-0.5543043043043046 	300.0059536428553 	0.01734604287978829 	101332.0386809955
-0.551801801801802 	300.0044514491962 	0.01298083368414201 	101330.2626899112
-0.5492992992992995 	300.0032787318805 	0.009569395926467337 	101328.8762401948
-0.5467967967967969 	300.0023804445566 	0.006953580522683579 	101327.814243945
-0.5442942942942947 	300.0017044911787 	0.004983238592485431 	101327.0151051169
-0.5417917917917919 	300.0012042906334 	0.00352378813259132 	101326.4237503795
-0.5392892892892895 	300.0008399714853 	0.002459800629906708 	101325.9930404033
-0.536786786786787 	300.0005785956926 	0.001695754565370424 	101325.6840337644
-0.5342842842842846 	300.000393758393 	0.001154957194811809 	101325.4655135024
-0.531781781781782 	300.0002648394319 	0.0007774331208393891 	101325.3131016471
-0.5292792792792794 	300.0001761071541 	0.0005173660477426524 	101325.208199665
-0.526776776776777 	300.0001158100841 	0.0003404899624235665 	101325.136914635
-0.5242742742742745 	300.0000753383678 	0.0002216701623114001 	101325.0890676078
-0.521771771771772 	300.0000484957131 	0.0001427986168925816 	101325.0573332918
-0.5192692692692695 	300.0000308970194 	9.104681015939355e-05 	101325.0365276068
-0.516766766766767 	300.0000194877827 	5.746896769635959e-05 	101325.0230391535
-0.5142642642642645 	300.0000121712387 	3.591929566745407e-05 	101325.0143893331
-0.511761761761762 	300.0000075288486 	2.22351969196332e-05 	101325.0089009476
-0.5092592592592596 	300.0000046135314 	1.363516234592492e-05 	101325.0054543243
-0.506756756756757 	300.0000028010644 	8.28456802909088e-06 	101325.003311601
-0.5042542542542544 	300.0000016853935 	4.988247107836242e-06 	101325.0019925373
-0.5017517517517521 	300.0000010051549 	2.976950604289551e-06 	101325.0011882874
-0.4992492492492494 	300.0000005942619 	1.761209062470151e-06 	101325.0007025136
-0.496746746746747 	300.0000003483019 	1.033089717404074e-06 	101325.0004117886
-0.4942442442442445 	300.0000002023992 	6.009168250222816e-07 	101325.0002393565
-0.4917417417417421 	300.0000001166547 	3.466665026896645e-07 	101325.0001379839
-0.4892392392392395 	300.0000000667 	1.983709904457834e-07 	101325.0000789006
-0.486736736736737 	300.0000000378234 	1.126152016675113e-07 	101325.0000447562
-0.4842342342342345 	300.0000000212273 	6.342818200723869e-08 	101325.0000251878
-0.481731731731732 	300.0000000119426 	3.545527749324344e-08 	101325.0000140643
-0.4792292292292296 	300.0000000066229 	1.966528016735521e-08 	101325.0000077921
-0.4767267267267268 	300.0000000035756 	1.083255951621758e-08 	101325.0000042833
-0.4742242242242246 	300.0000000019714 	5.91817571478037e-09 	101325.0000023352
-0.471721721721722 	300.0000000010212 	3.216347258403738e-09 	101325.000001262
-0.4692192192192195 	300.0000000005431 	1.731085951544641e-09 	101325.0000006753
-0.4667167167167169 	300.0000000002086 	9.294345318841133e-10 	101325.0000003568
-0.4642142142142145 	300.0000000001579 	4.918069186407016e-10 	101325.0000001851
-0.461711711711712 	300.0000000001023 	2.619862902850821e-10 	101325.0000000929
-0.4592092092092094 	300.0000000000541 	1.356302032949472e-10 	101325.0000000441
-0.456706706706707 	300.0000000000735 	7.26801788569784e-11 	101325.0000000185
-0.4542042042042045 	299.9999999999466 	3.693242196240345e-11 	101325.0000000052
-0.451701701701702 	299.9999999999567 	2.12276313969263e-11 	101324.9999999984
-0.4491991991991995 	299.9999999999584 	1.044823875933461e-11 	101324.9999999949
-0.4466966966966969 	299.9999999999526 	8.342646820580517e-12 	101324.999999993
-0.4441941941941945 	299.9999999999886 	3.294343659466656e-12 	101324.9999999921
-0.441691691691692 	299.9999999999507 	5.664311898650414e-12 	101324.9999999918
-0.4391891891891895 	299.9999999999885 	1.264247038155165e-12 	101324.9999999915
-0.436686686686687 	299.9999999999671 	5.106608664446012e-12 	101324.9999999913
-0.4341841841841846 	299.9999999999933 	2.719835508925795e-12 	101324.9999999914
-0.431681681681682 	299.9999999999405 	4.718165433221313e-12 	101324.9999999915
-0.4291791791791794 	299.9999999999214 	1.248658471983152e-12 	101324.9999999918
-0.426676676676677 	299.9999999999038 	3.9762640322436e-12 	101324.9999999918
-0.4241741741741744 	299.999999999965 	1.03884314577567e-12 	101324.9999999917
-0.421671671671672 	300.0000000000048 	3.494131444925817e-12 	101324.9999999913
-0.4191691691691694 	300.0000000000549 	1.391850311748828e-12 	101324.999999991
-0.4166666666666669 	300.0000000000636 	3.674399531563665e-12 	101324.9999999908
-0.4141641641641645 	299.9999999999285 	2.376277194592021e-12 	101324.999999991
-0.411661661661662 	300.0000000000031 	3.514093168957812e-12 	101324.999999991
-0.4091591591591594 	300.0000000000013 	2.395588180102416e-12 	101324.999999991
-0.406656656656657 	299.9999999999338 	4.261513606011965e-12 	101324.9999999912
-0.4041541541541545 	300.0000000000149 	2.502152081215117e-12 	101324.9999999912
-0.401651651651652 	299.9999999999152 	5.42742790676334e-12 	101324.999999991
-0.3991491491491494 	300.0000000000021 	2.046213645432153e-12 	101324.9999999909
-0.396646646646647 	299.9999999999541 	6.617090259451718e-12 	101324.9999999912
-0.3941441441441444 	299.9999999999803 	1.603964087220716e-12 	101324.9999999913
-0.3916416416416419 	299.9999999999311 	4.953643076348675e-12 	101324.9999999914
-0.3891391391391395 	299.9999999999532 	1.041613757900698e-12 	101324.9999999916
-0.3866366366366368 	299.9999999999552 	2.551378779242855e-12 	101324.9999999915
-0.3841341341341344 	299.9999999999965 	9.466284135115151e-13 	101324.9999999912
-0.381631631631632 	299.9999999999436 	1.56343232794092e-12 	101324.9999999909
-0.3791291291291294 	300.000000000002 	8.674819788234493e-13 	101324.9999999909
-0.3766266266266269 	300.0000000000246 	1.344548541641396e-12 	101324.9999999909
-0.3741241241241244 	300.0000000000267 	2.833683282707463e-12 	101324.9999999908
-0.371621621621622 	300.0000000000236 	1.541864131502324e-12 	101324.9999999908
-0.3691191191191194 	300.0000000000043 	4.318491189206493e-12 	101324.9999999907
-0.366616616616617 	300.0000000000088 	1.021216656913153e-12 	101324.9999999907
-0.3641141141141143 	299.9999999999603 	3.550123604983114e-12 	101324.9999999907
-0.3616116116116119 	299.9999999999455 	1.164830366178287e-12 	101324.9999999906
-0.3591091091091095 	299.9999999999853 	2.218750819151913e-12 	101324.9999999906
-0.356606606606607 	299.9999999999727 	1.415156738030771e-12 	101324.9999999908
-0.3541041041041044 	299.9999999999905 	1.447091072550011e-12 	101324.999999991
-0.3516016016016019 	300.0000000000109 	2.85076382704705e-12 	101324.9999999911
-0.3490990990990994 	299.9999999999931 	1.31533215365576e-12 	101324.9999999911
-0.346596596596597 	300.0000000000453 	3.603640498625263e-12 	101324.9999999909
-0.3440940940940944 	300.0000000000539 	1.363419706343844e-12 	101324.999999991
-0.3415915915915919 	300.0000000000171 	3.867990908853709e-12 	101324.999999991
-0.3390890890890895 	299.9999999999783 	2.119155190833569e-12 	101324.9999999912
-0.3365865865865869 	300.0000000000184 	3.682324291388313e-12 	101324.9999999912
-0.3340840840840844 	300.0000000000036 	2.535859135863377e-12 	101324.9999999911
-0.3315815815815819 	300.0000000000212 	3.361109628768373e-12 	101324.9999999911
-0.3290790790790794 	300.000000000021 	2.235386454571909e-12 	101324.9999999911
-0.3265765765765769 	299.9999999999197 	3.046556005859012e-12 	101324.9999999911
-0.3240740740740744 	299.9999999999935 	1.216504299715968e-12 	101324.9999999912
-0.3215715715715718 	300.0000000000044 	2.842175659578197e-12 	101324.9999999912
-0.3190690690690695 	299.9999999999271 	6.264430878755251e-13 	101324.9999999908
-0.3165665665665668 	299.9999999999912 	2.905188433507472e-12 	101324.9999999906
-0.3140640640640644 	300.0000000000034 	5.38404278275507e-13 	101324.9999999905
-0.311561561561562 	299.99999999992 	4.680893258562649e-12 	101324.9999999907
-0.3090590590590593 	299.9999999999915 	1.131493657522051e-12 	101324.9999999907
-0.3065565565565568 	300.000000000004 	6.005090053510966e-12 	101324.999999991
-0.3040540540540545 	300.000000000006 	1.308789433130559e-12 	101324.9999999911
-0.3015515515515518 	300.0000000000414 	6.441676661191991e-12 	101324.999999991
-0.2990490490490494 	299.9999999999482 	2.708252288541367e-12 	101324.9999999911
-0.2965465465465469 	299.9999999999851 	4.879190741989608e-12 	101324.9999999908
-0.2940440440440444 	300.000000000001 	3.38548351823322e-12 	101324.9999999906
-0.2915415415415418 	300.0000000000041 	4.038730907928721e-12 	101324.9999999907
-0.2890390390390395 	300.0000000000047 	4.384994650070199e-12 	101324.9999999909
-0.2865365365365368 	299.9999999999769 	3.177837257922468e-12 	101324.9999999906
-0.2840340340340343 	300.0000000000005 	4.066996061828353e-12 	101324.9999999905
-0.2815315315315318 	299.9999999999225 	1.137953375662285e-12 	101324.9999999904
-0.2790290290290295 	299.9999999999538 	2.596818447008353e-12 	101324.9999999903
-0.2765265265265269 	300.0000000000052 	9.127559596988461e-13 	101324.9999999907
-0.2740240240240244 	300.0000000000277 	1.396830191906398e-12 	101324.9999999911
-0.2715215215215219 	300.0000000000177 	9.480037068182152e-13 	101324.9999999912
-0.2690190190190194 	299.9999999999444 	8.046647062957462e-13 	101324.9999999914
-0.2665165165165169 	299.9999999999982 	2.130012246418893e-12 	101324.9999999915
-0.2640140140140144 	299.999999999966 	1.841006858575477e-12 	101324.9999999915
-0.2615115115115119 	300.0000000000039 	4.300384198819257e-12 	101324.9999999917
-0.2590090090090094 	299.9999999999293 	3.019328684071333e-12 	101324.9999999916
-0.2565065065065068 	299.9999999999943 	4.141161358064245e-12 	101324.9999999914
-0.2540040040040044 	299.9999999999962 	4.694389332214065e-12 	101324.9999999912
-0.2515015015015019 	300.0000000000442 	3.409122547775346e-12 	101324.999999991
-0.2489989989989994 	300.00000000005 	5.080448669151655e-12 	101324.9999999908
-0.2464964964964968 	299.9999999999888 	1.827660591529983e-12 	101324.9999999907
-0.2439939939939944 	299.9999999999947 	5.762601350376158e-12 	101324.9999999905
-0.2414914914914919 	299.9999999999663 	1.53723781723899e-12 	101324.9999999903
-0.2389889889889893 	300.0000000000027 	5.895634202122718e-12 	101324.9999999904
-0.2364864864864869 	300.0000000000243 	2.091629252392919e-12 	101324.9999999906
-0.2339839839839843 	299.9999999999235 	6.725553462429339e-12 	101324.9999999907
-0.2314814814814819 	299.9999999999807 	2.835125103359465e-12 	101324.9999999908
-0.2289789789789792 	299.9999999999158 	6.951794876996769e-12 	101324.9999999907
-0.2264764764764769 	299.9999999999416 	4.586070111018354e-12 	101324.9999999906
-0.2239739739739743 	299.9999999999521 	6.354017802176551e-12 	101324.9999999908
-0.2214714714714718 	299.9999999999386 	4.994440340121067e-12 	101324.999999991
-0.2189689689689693 	299.9999999999657 	3.705860077912529e-12 	101324.9999999909
-0.2164664664664669 	299.9999999999834 	4.449840156086052e-12 	101324.9999999908
-0.2139639639639643 	299.9999999999286 	2.421317770925717e-12 	101324.999999991
-0.2114614614614618 	299.9999999999731 	3.309991178857465e-12 	101324.9999999911
-0.2089589589589593 	299.9999999999888 	3.1107031862128e-12 	101324.9999999911
-0.2064564564564568 	299.9999999999876 	3.140904447012351e-12 	101324.9999999908
-0.2039539539539543 	299.9999999999038 	4.504749127325262e-12 	101324.9999999907
-0.2014514514514518 	299.999999999945 	1.961469515569616e-12 	101324.9999999906
-0.1989489489489494 	299.9999999999687 	4.87534152014864e-12 	101324.9999999908
-0.1964464464464468 	299.9999999999915 	1.182642299261975e-12 	101324.9999999908
-0.1939439439439443 	299.9999999999907 	5.438492789384198e-12 	101324.9999999909
-0.1914414414414418 	299.9999999999147 	3.559966200184163e-12 	101324.999999991
-0.1889389389389393 	300.000000000009 	5.55200808803818e-12 	101324.999999991
-0.1864364364364368 	300.0000000000427 	3.614830137075625e-12 	101324.999999991
-0.1839339339339343 	299.9999999999725 	4.725253186264963e-12 	101324.9999999909
-0.1814314314314318 	299.9999999999961 	2.993368745039056e-12 	101324.9999999907
-0.1789289289289293 	299.9999999998961 	4.405097787900813e-12 	101324.9999999908
-0.1764264264264268 	299.9999999999823 	1.572770115805698e-12 	101324.9999999909
-0.1739239239239243 	299.9999999998963 	4.177191574092886e-12 	101324.9999999909
-0.1714214214214218 	299.9999999999889 	5.220911779831143e-13 	101324.9999999909
-0.1689189189189193 	299.9999999999504 	5.060739889965145e-12 	101324.9999999909
-0.1664164164164168 	300.0000000000021 	1.521559250760706e-12 	101324.9999999905
-0.1639139139139143 	299.99999999998 	6.803802464132122e-12 	101324.9999999904
-0.1614114114114118 	300.0000000000263 	2.553662006484769e-12 	101324.9999999903
-0.1589089089089093 	299.9999999999919 	9.720519253271498e-12 	101324.9999999902
-0.1564064064064068 	299.9999999999829 	2.995429637354941e-12 	101324.99999999
-0.1539039039039043 	299.9999999999885 	1.054646873414616e-11 	101324.99999999
-0.1514014014014018 	300.0000000000273 	1.958511870626071e-12 	101324.9999999901
-0.1488988988988993 	299.9999999999801 	9.902675179534985e-12 	101324.9999999902
-0.1463963963963968 	299.999999999997 	1.007358542532345e-12 	101324.9999999902
-0.1438938938938943 	299.9999999999446 	9.214986098394584e-12 	101324.9999999904
-0.1413913913913918 	299.9999999999214 	2.728130517695634e-12 	101324.9999999907
-0.1388888888888893 	299.9999999999779 	7.8857253100171e-12 	101324.9999999907
-0.1363863863863868 	299.9999999998857 	2.492808438333744e-12 	101324.9999999909
-0.1338838838838843 	299.999999999907 	5.239162096740801e-12 	101324.9999999906
-0.1313813813813818 	299.9999999999937 	2.294967656088174e-12 	101324.9999999904
-0.1288788788788793 	299.9999999999574 	5.010485278182016e-12 	101324.9999999902
-0.1263763763763768 	299.9999999999676 	2.17239382753731e-12 	101324.9999999901
-0.1238738738738743 	299.9999999999246 	5.245046000613325e-12 	101324.9999999902
-0.1213713713713717 	299.9999999999787 	1.591647142245056e-12 	101324.9999999904
-0.1188688688688693 	300.000000000007 	6.012162036097311e-12 	101324.9999999905
-0.1163663663663668 	299.9999999999028 	8.671336914903985e-13 	101324.9999999907
-0.1138638638638643 	299.9999999999864 	5.456779710820575e-12 	101324.9999999909
-0.1113613613613618 	299.9999999999812 	7.307112396867886e-13 	101324.999999991
-0.1088588588588592 	299.9999999999768 	6.252931082331396e-12 	101324.999999991
-0.1063563563563568 	299.999999999949 	4.646267202785468e-13 	101324.999999991
-0.1038538538538543 	299.9999999999703 	5.882792118637413e-12 	101324.9999999909
-0.1013513513513517 	300.0000000000172 	1.47684005940508e-12 	101324.9999999907
-0.09884884884884926 	299.9999999999376 	4.869459092682269e-12 	101324.9999999906
-0.09634634634634676 	299.9999999998912 	1.163224462415879e-12 	101324.9999999908
-0.09384384384384425 	299.9999999999258 	3.15053062758811e-12 	101324.9999999907
-0.09134134134134177 	300.0000000000255 	1.251993555342608e-12 	101324.9999999908
-0.08883883883883925 	300.0000000000048 	3.247347297538301e-12 	101324.9999999906
-0.08633633633633674 	299.9999999999502 	2.274980134818542e-12 	101324.9999999907
-0.08383383383383426 	300.0000000000092 	2.978127835002972e-12 	101324.9999999908
-0.08133133133133173 	299.9999999999639 	2.561694298798238e-12 	101324.9999999907
-0.07882882882882926 	299.9999999998759 	2.214164870257704e-12 	101324.9999999909
-0.07632632632632676 	299.9999999999585 	1.94346424511159e-12 	101324.999999991
-0.07382382382382424 	299.9999999998946 	1.833803402514677e-12 	101324.9999999908
-0.07132132132132173 	300.0000000000116 	1.682339424860534e-12 	101324.9999999907
-0.06881881881881925 	299.9999999999554 	1.829887340461589e-12 	101324.9999999906
-0.06631631631631671 	299.9999999998889 	1.239461523823962e-12 	101324.9999999907
-0.06381381381381425 	299.9999999999504 	7.301672688853452e-13 	101324.9999999907
-0.06131131131131173 	299.999999999952 	5.419857010134974e-13 	101324.9999999907
-0.05880880880880923 	299.9999999999129 	2.522361369698007e-13 	101324.9999999908
-0.05630630630630672 	299.9999999999648 	6.407969823651817e-13 	101324.999999991
-0.05380380380380424 	300.0000000000171 	4.019969397123911e-13 	101324.9999999909
-0.05130130130130173 	300.0000000000124 	5.105591429721161e-13 	101324.9999999908
-0.04879879879879922 	299.9999999999389 	3.186026126631061e-13 	101324.9999999907
-0.04629629629629672 	299.9999999999268 	1.339618166691337e-12 	101324.9999999908
-0.04379379379379422 	299.9999999999143 	1.025965758515837e-12 	101324.9999999908
-0.04129129129129173 	299.9999999999739 	1.015027439630569e-12 	101324.9999999908
-0.03878878878878922 	299.9999999999819 	2.152900951696742e-13 	101324.9999999906
-0.03628628628628671 	299.999999999982 	1.873709092987668e-13 	101324.9999999904
-0.03378378378378422 	299.9999999999234 	5.793831641888804e-15 	101324.9999999904
-0.03128128128128172 	299.9999999999644 	8.677123449627857e-13 	101324.9999999904
-0.02877877877877922 	299.9999999999646 	3.298218175977209e-13 	101324.9999999904
-0.0262762762762767 	299.9999999998947 	6.533606923918032e-13 	101324.9999999904
-0.02377377377377422 	300.0000000000207 	2.78906782933547e-13 	101324.9999999905
-0.0212712712712717 	299.9999999998985 	7.885193167795763e-14 	101324.9999999904
-0.01876876876876921 	299.9999999999681 	5.759632942587114e-13 	101324.9999999903
-0.01626626626626671 	300.0000000000139 	5.042942455373456e-13 	101324.9999999905
-0.0137637637637642 	299.9999999999633 	6.2539387780339e-13 	101324.9999999909
-0.0112612612612617 	300.0000000000157 	1.019262155263445e-12 	101324.9999999911
-0.008758758758759198 	299.9999999999962 	1.043644834956653e-12 	101324.9999999909
-0.006256256256256697 	299.9999999998797 	1.659417496895422e-12 	101324.9999999907
-0.003753753753754195 	299.9999999999506 	7.871777297166153e-13 	101324.9999999905
-0.001251251251251693 	299.9999999999222 	1.145037820009535e-12 	101324.9999999905
0.00125125125125081 	299.9999999999528 	8.849253175877994e-14 	101324.9999999907
0.003753753753753312 	299.9999999999618 	1.297537101021131e-13 	101324.9999999905
0.006256256256255817 	299.9999999998811 	3.895832347414857e-13 	101324.9999999904
0.008758758758758317 	299.9999999999882 	1.245199701317645e-13 	101324.9999999906
0.01126126126126082 	300.0000000000099 	4.410774251602924e-13 	101324.9999999906
0.01376376376376332 	299.9999999999663 	1.493918289417937e-12 	101324.9999999908
0.01626626626626582 	300.0000000000098 	1.187629297077692e-12 	101324.9999999911
0.01876876876876833 	299.999999999952 	8.997908953601518e-13 	101324.9999999912
0.02127127127127083 	299.9999999999656 	9.418955217087909e-14 	101324.9999999911
0.02377377377377332 	299.9999999999926 	4.166353141648113e-14 	101324.9999999909
0.02627627627627583 	299.9999999998989 	2.772133790627509e-13 	101324.9999999907
0.02877877877877833 	300.0000000000094 	9.440237975038189e-13 	101324.9999999909
0.03128128128128083 	299.9999999999436 	4.990004276340429e-13 	101324.999999991
0.03378378378378333 	299.999999999899 	7.294309094466087e-13 	101324.999999991
0.03628628628628584 	299.9999999999696 	7.195183890000367e-13 	101324.999999991
0.03878878878878834 	299.9999999999769 	5.133909357467196e-13 	101324.9999999909
0.04129129129129084 	299.9999999999736 	7.213795364929892e-13 	101324.999999991
0.04379379379379333 	299.9999999999402 	7.981311031839831e-13 	101324.9999999909
0.04629629629629585 	299.9999999998852 	9.74838067101923e-13 	101324.9999999908
0.04879879879879834 	299.9999999999511 	6.675850631093897e-13 	101324.9999999906
0.05130130130130085 	300.0000000000133 	7.741821976055018e-13 	101324.9999999906
0.05380380380380335 	300.000000000016 	5.281397186850637e-13 	101324.9999999905
0.05630630630630584 	299.9999999999893 	1.363839704234112e-13 	101324.9999999905
0.05880880880880836 	299.9999999999166 	3.395644738855871e-13 	101324.9999999907
0.06131131131131085 	299.9999999999705 	4.979346754288083e-13 	101324.9999999906
0.06381381381381336 	299.9999999999661 	1.94852592403395e-13 	101324.9999999905
0.06631631631631586 	299.9999999998859 	4.157378974787898e-13 	101324.9999999902
0.06881881881881835 	299.9999999999462 	1.174286920631846e-12 	101324.9999999901
0.07132132132132088 	299.9999999999878 	9.359224315106937e-13 	101324.9999999902
0.07382382382382337 	299.9999999998978 	1.097399131943969e-12 	101324.9999999903
0.07632632632632587 	299.9999999999708 	7.341552917918508e-13 	101324.9999999902
0.07882882882882837 	299.9999999999362 	4.194652964284127e-13 	101324.9999999904
0.08133133133133086 	299.9999999999825 	7.814612886497014e-13 	101324.9999999905
0.08383383383383337 	299.9999999999818 	7.523478619284038e-13 	101324.9999999906
0.08633633633633589 	299.9999999998979 	1.437809992047574e-12 	101324.9999999909
0.08883883883883838 	300.0000000000104 	1.878810127511737e-12 	101324.9999999907
0.09134134134134086 	299.9999999999889 	1.286014495867129e-12 	101324.9999999904
0.09384384384384339 	299.999999999892 	2.032356921935648e-12 	101324.9999999904
0.09634634634634588 	299.9999999999658 	2.356957791196045e-12 	101324.9999999906
0.09884884884884838 	299.9999999999704 	2.740237818700725e-12 	101324.9999999904
0.1013513513513509 	300.000000000021 	2.807622725611358e-12 	101324.9999999905
0.1038538538538534 	299.9999999999461 	2.661747884310282e-12 	101324.9999999907
0.1063563563563559 	300.0000000000199 	2.756656382232143e-12 	101324.9999999907
0.1088588588588584 	300.000000000028 	2.611429407314536e-12 	101324.9999999911
0.1113613613613609 	299.9999999999093 	2.903688074393093e-12 	101324.9999999911
0.1138638638638634 	299.9999999999459 	3.014775040616817e-12 	101324.999999991
0.1163663663663659 	299.9999999999422 	3.488498812102241e-12 	101324.9999999908
0.1188688688688684 	299.9999999999698 	3.812089280070037e-12 	101324.9999999908
0.1213713713713709 	299.9999999999923 	3.617259769896107e-12 	101324.9999999907
0.1238738738738734 	299.9999999999226 	4.335376290764881e-12 	101324.9999999907
0.1263763763763759 	299.999999999985 	4.066789904627667e-12 	101324.9999999904
0.1288788788788784 	299.9999999999868 	3.335397146987621e-12 	101324.9999999904
0.1313813813813809 	299.9999999999858 	3.448305011686925e-12 	101324.9999999903
0.1338838838838834 	299.9999999999736 	3.591467473203102e-12 	101324.9999999903
0.1363863863863859 	300.0000000000266 	3.463379394513146e-12 	101324.9999999901
0.1388888888888884 	300.0000000000488 	3.699300105308104e-12 	101324.9999999904
0.1413913913913909 	300.0000000000009 	2.952004973871042e-12 	101324.9999999904
0.1438938938938934 	299.9999999999937 	3.956195332308214e-12 	101324.9999999904
0.1463963963963959 	299.9999999999583 	2.815501364521692e-12 	101324.9999999908
0.1488988988988985 	299.9999999999046 	4.048747156216843e-12 	101324.9999999907
0.1514014014014009 	299.9999999999701 	2.733788174847682e-12 	101324.9999999906
0.1539039039039035 	299.9999999999611 	4.647310718726578e-12 	101324.9999999905
0.1564064064064059 	299.9999999999312 	1.829885792603345e-12 	101324.9999999904
0.1589089089089084 	299.9999999999782 	4.918623244097133e-12 	101324.9999999905
0.1614114114114109 	299.9999999999739 	2.013588123457054e-12 	101324.9999999906
0.1639139139139134 	299.999999999906 	4.16895072462105e-12 	101324.9999999905
0.166416416416416 	300.0000000000077 	3.620372530199904e-12 	101324.9999999905
0.1689189189189185 	300.0000000000294 	3.404913060040134e-12 	101324.9999999904
0.1714214214214209 	299.9999999999943 	4.169818919637007e-12 	101324.9999999903
0.1739239239239235 	299.9999999999827 	2.360796069687439e-12 	101324.9999999901
0.1764264264264259 	299.999999999965 	4.242304164584517e-12 	101324.9999999901
0.1789289289289284 	300.0000000000078 	1.233632970994962e-12 	101324.9999999902
0.181431431431431 	299.9999999999613 	3.861055583753521e-12 	101324.9999999904
0.1839339339339334 	299.9999999999682 	2.116457677103292e-12 	101324.9999999905
0.186436436436436 	299.9999999999199 	3.777920714283736e-12 	101324.9999999908
0.1889389389389385 	299.9999999999835 	3.528713809168289e-12 	101324.9999999908
0.191441441441441 	299.9999999999774 	2.993033632740996e-12 	101324.9999999905
0.1939439439439434 	299.9999999999148 	3.957394320439413e-12 	101324.9999999904
0.196446446446446 	299.9999999999429 	1.893953043600303e-12 	101324.9999999905
0.1989489489489485 	299.9999999999606 	3.922262802524462e-12 	101324.9999999906
0.2014514514514509 	299.9999999999818 	1.772234575587936e-12 	101324.9999999903
0.2039539539539535 	299.9999999999953 	3.372288032251901e-12 	101324.9999999903
0.2064564564564559 	299.9999999999583 	2.072446216017848e-12 	101324.9999999903
0.2089589589589585 	299.9999999999824 	2.168017759999645e-12 	101324.9999999902
0.211461461461461 	299.9999999999276 	2.342308990134356e-12 	101324.9999999901
0.2139639639639635 	299.9999999999789 	1.774876244162209e-12 	101324.9999999903
0.2164664664664659 	299.9999999999948 	3.269999659650186e-12 	101324.9999999901
0.2189689689689684 	299.9999999999923 	7.106534118139619e-13 	101324.9999999902
0.221471471471471 	299.9999999999927 	2.965514188708121e-12 	101324.9999999901
0.2239739739739735 	299.9999999999547 	6.145557235596733e-13 	101324.9999999902
0.226476476476476 	299.9999999999771 	2.28814439145638e-12 	101324.9999999905
0.2289789789789785 	299.9999999999966 	1.777042829884771e-12 	101324.9999999904
0.231481481481481 	299.9999999999876 	2.2951160058352e-12 	101324.9999999904
0.2339839839839835 	299.9999999999858 	3.529193177309442e-12 	101324.9999999905
0.236486486486486 	300.0000000000227 	2.849479447400449e-12 	101324.9999999906
0.2389889889889885 	300.0000000000072 	4.78377598496233e-12 	101324.9999999906
0.241491491491491 	299.9999999999174 	2.620545196308912e-12 	101324.9999999908
0.2439939939939935 	299.9999999999788 	5.298175957364893e-12 	101324.9999999908
0.246496496496496 	299.9999999999902 	2.64103265491745e-12 	101324.9999999908
0.2489989989989985 	300.0000000000367 	3.946437454760669e-12 	101324.9999999908
0.251501501501501 	300.00000000003 	2.371619405314486e-12 	101324.9999999909
0.2540040040040035 	299.9999999999866 	2.252876241521645e-12 	101324.9999999909
0.256506506506506 	300.0000000000266 	2.400183845917323e-12 	101324.999999991
0.2590090090090086 	299.9999999999018 	9.3688104497159e-13 	101324.9999999909
0.261511511511511 	299.9999999999977 	3.137226113571669e-12 	101324.9999999908
0.2640140140140135 	299.999999999989 	7.513309556130476e-13 	101324.9999999909
0.2665165165165161 	299.9999999999267 	1.385933342428162e-12 	101324.9999999908
0.2690190190190185 	300.0000000000079 	2.252784598559116e-13 	101324.9999999907
0.271521521521521 	300.0000000000107 	2.087211406413573e-13 	101324.9999999905
0.2740240240240235 	300.0000000000177 	2.507765364386603e-13 	101324.9999999905
0.276526526526526 	300.0000000000082 	6.048484502816187e-13 	101324.9999999907
0.2790290290290286 	299.9999999999383 	1.216411504909166e-12 	101324.9999999907
0.281531531531531 	299.9999999999223 	6.445591233772822e-13 	101324.9999999907
0.2840340340340335 	299.9999999999758 	2.161439933005543e-12 	101324.9999999906
0.2865365365365361 	299.9999999999542 	9.131835815732075e-13 	101324.9999999905
0.2890390390390385 	299.9999999999978 	1.727421156082616e-12 	101324.9999999904
0.291541541541541 	299.9999999999963 	1.505933102000503e-12 	101324.9999999905
0.2940440440440436 	299.9999999999866 	5.193520914819601e-13 	101324.9999999904
0.296546546546546 	299.9999999999905 	2.234437817537621e-12 	101324.9999999902
0.2990490490490486 	299.9999999999336 	1.236500583267243e-12 	101324.9999999902
0.3015515515515511 	300.0000000000368 	3.952820396584608e-12 	101324.9999999901
0.3040540540540535 	300.0000000000004 	1.95385924450291e-12 	101324.9999999902
0.3065565565565562 	299.9999999999938 	4.92925170041921e-12 	101324.9999999901
0.3090590590590585 	299.999999999989 	2.037244198836475e-12 	101324.9999999901
0.3115615615615611 	299.9999999999342 	2.882257226129859e-12 	101324.99999999
0.3140640640640635 	300.0000000000045 	1.87769804995209e-12 	101324.9999999898
0.316566566566566 	299.9999999999919 	1.602724723872151e-12 	101324.9999999898
0.3190690690690687 	299.9999999999529 	1.892425474776958e-12 	101324.99999999
0.3215715715715711 	300.0000000000178 	1.198006767044271e-12 	101324.99999999
0.3240740740740735 	300.0000000000015 	1.458268317438629e-12 	101324.9999999902
0.326576576576576 	299.999999999905 	8.602698059372039e-13 	101324.9999999905
0.3290790790790786 	300.0000000000078 	8.141619488709004e-13 	101324.9999999907
0.3315815815815811 	300.0000000000272 	6.4933581176531e-13 	101324.999999991
0.3340840840840836 	299.9999999999883 	4.387256572174592e-13 	101324.9999999907
0.3365865865865861 	300.0000000000547 	1.308170761398593e-12 	101324.9999999907
0.3390890890890886 	300.0000000000488 	9.976165439948428e-13 	101324.9999999906
0.3415915915915911 	300.0000000000007 	1.099846989706675e-12 	101324.9999999906
0.3440940940940935 	299.9999999999478 	9.205280562755014e-13 	101324.9999999906
0.3465965965965962 	300.0000000000334 	2.184507727010436e-12 	101324.9999999905
0.3490990990990985 	300.0000000000264 	9.232497320528749e-13 	101324.9999999903
0.3516016016016011 	299.9999999999873 	1.463707793067655e-12 	101324.9999999903
0.3541041041041035 	300.0000000000038 	1.195991642105401e-12 	101324.9999999904
0.3566066066066061 	299.9999999999523 	2.710730347928514e-13 	101324.9999999904
0.3591091091091085 	299.9999999999168 	1.36080405232261e-12 	101324.99999999
0.3616116116116112 	299.9999999999392 	1.901832949784157e-12 	101324.9999999899
0.3641141141141137 	299.9999999999322 	1.697383025210415e-12 	101324.9999999897
0.3666166166166161 	299.9999999999252 	2.889689043200131e-12 	101324.9999999898
0.3691191191191185 	300.0000000000422 	2.979630207696477e-12 	101324.9999999899
0.371621621621621 	300.0000000000114 	2.652892124036428e-12 	101324.9999999899
0.3741241241241237 	300.0000000000491 	1.982693403020956e-12 	101324.99999999
0.3766266266266261 	300.0000000000278 	2.226126415915667e-12 	101324.9999999899
0.3791291291291286 	299.9999999999801 	1.620903778757497e-12 	101324.9999999899
0.3816316316316311 	299.9999999999178 	1.642747950584972e-12 	101324.9999999897
0.3841341341341336 	300.0000000000119 	1.662333653007571e-12 	101324.9999999899
0.3866366366366362 	299.9999999999982 	1.062996441338498e-12 	101324.9999999902
0.3891391391391387 	299.9999999999529 	1.038006545917729e-12 	101324.9999999901
0.391641641641641 	299.9999999999929 	9.420188451797377e-13 	101324.99999999
0.3941441441441436 	300.0000000000078 	6.747538624300264e-13 	101324.9999999901
0.3966466466466462 	299.9999999999984 	9.742243983562192e-13 	101324.9999999903
0.3991491491491486 	299.9999999999419 	5.067878673504372e-13 	101324.9999999903
0.4016516516516512 	299.9999999999129 	1.461240897229877e-12 	101324.9999999903
0.4041541541541536 	299.9999999999482 	6.907372962447384e-13 	101324.9999999901
0.4066566566566561 	299.9999999999469 	1.580597991456864e-12 	101324.9999999902
0.4091591591591587 	299.9999999999957 	1.004257431236845e-12 	101324.9999999902
0.4116616616616612 	300.0000000000067 	5.716970073938361e-13 	101324.9999999899
0.4141641641641635 	300.0000000000433 	3.831855454560384e-13 	101324.9999999897
0.4166666666666662 	299.9999999999912 	4.823121945773959e-13 	101324.9999999894
0.4191691691691687 	299.9999999999346 	1.363730087608431e-12 	101324.9999999894
0.421671671671671 	300.0000000000077 	1.533156193368544e-12 	101324.9999999892
0.4241741741741737 	299.9999999999738 	3.287427848305349e-12 	101324.9999999892
0.4266766766766761 	299.9999999999495 	1.861969004060567e-12 	101324.9999999892
0.4291791791791785 	300.00000000002 	4.190470445442673e-12 	101324.9999999893
0.4316816816816812 	300.0000000000087 	1.541733097957743e-12 	101324.9999999889
0.4341841841841836 	299.9999999999811 	8.030478507583943e-12 	101324.999999988
0.4366866866866862 	299.9999999999133 	8.129281705738589e-12 	101324.9999999862
0.4391891891891885 	299.9999999999801 	1.879871700649838e-11 	101324.9999999828
0.4416916916916913 	299.9999999999681 	3.259789765418198e-11 	101324.9999999764
0.4441941941941936 	299.9999999999649 	6.616457241200614e-11 	101324.9999999634
0.4466966966966961 	299.9999999998705 	1.286486480878017e-10 	101324.9999999382
0.4491991991991987 	299.9999999998976 	2.532431803157485e-10 	101324.9999998894
0.4517017017017012 	299.9999999998163 	4.911139895531717e-10 	101324.9999997957
0.4542042042042035 	299.9999999996666 	9.458427406832341e-10 	101324.9999996164
0.4567067067067062 	299.9999999993927 	1.808144924901132e-09 	101324.9999992756
0.4592092092092087 	299.9999999987787 	3.430282089132813e-09 	101324.9999986339
0.4617117117117112 	299.9999999978548 	6.46242180584533e-09 	101324.9999974338
0.4642142142142137 	299.999999995917 	1.208863134643535e-08 	101324.9999952056
0.4667167167167162 	299.9999999924731 	2.244911977628107e-08 	101324.9999911004
0.4692192192192187 	299.9999999860889 	4.138243327342519e-08 	101324.9999835928
0.4717217217217212 	299.9999999746175 	7.571859697078403e-08 	101324.9999699682
0.4742242242242236 	299.9999999538092 	1.375042547429001e-07 	101324.9999454347
0.4767267267267262 	299.9999999167616 	2.478047452287957e-07 	101324.9999016066
0.4792292292292287 	299.9999998511028 	4.431346525661308e-07 	101324.9998239379
0.4817317317317312 	299.9999997356486 	7.862129910430622e-07 	101324.9996874242
0.4842342342342336 	299.9999995343373 	1.383779481457482e-06 	101324.9994494786
0.4867367367367362 	299.9999991864692 	2.415774419837894e-06 	101324.9990382525
0.4892392392392387 	299.9999985906002 	4.182597294778551e-06 	101324.9983337029
0.4917417417417412 	299.9999975785689 	7.180771105979832e-06 	101324.9971372573
0.4942442442442437 	299.9999958753813 	1.222256749412557e-05 	101324.9951237961
0.4967467467467462 	299.9999930357123 	2.062283542360979e-05 	101324.991766605
0.4992492492492487 	299.9999883454767 	3.448680738355993e-05 	101324.9862216274
0.5017517517517511 	299.9999806734574 	5.714742787899278e-05 	101324.9771514261
0.5042542542542537 	299.9999682478264 	9.381998767785301e-05 	101324.9624613604
0.5067567567567562 	299.9999483270886 	0.0001525669025114562 	101324.9389103564
0.5092592592592589 	299.9999167224241 	0.0002456957727243272 	101324.9015461892
0.5117617617617611 	299.9998671168204 	0.0003917490503851096 	101324.8429007926
0.5142642642642637 	299.9997901142738 	0.000618280429358129 	101324.751865885
0.5167667667667663 	299.9996719388739 	0.0009656459755679669 	101324.6121554148
0.5192692692692688 	299.9994926988211 	0.001492057171360163 	101324.400252988
0.5217717717717714 	299.9992241310724 	0.002280132849162109 	101324.0827457235
0.5242742742742736 	299.9988267633133 	0.003445126218469725 	101323.6129697769
0.5267767767767763 	299.9982464781885 	0.005144862412904946 	101322.9269487601
0.5292792792792789 	299.9974105487607 	0.007591168687807976 	101321.9387083733
0.5317817817817813 	299.9962233540049 	0.01106217708828266 	101320.5352133222
0.5342842842842837 	299.9945621802635 	0.01591430194122027 	101318.5714078637
0.5367867867867864 	299.9922737781328 	0.02259193219936925 	101315.8661530548
0.5392892892892888 	299.9891726651256 	0.03163196307663566 	101312.2002305251
0.5417917917917912 	299.9850425033884 	0.04365931035803897 	101307.3179887081
0.5442942942942938 	299.9796421963326 	0.05936867389387834 	101300.9345745198
0.5467967967967964 	299.9727185364638 	0.07948730327438472 	101292.7509149185
0.5492992992992988 	299.9640271806991 	0.1047137146869366 	101282.4785460988
0.5518018018018012 	299.9533632975679 	0.1356286100021133 	101269.8758685312
0.5543043043043039 	299.9406022791437 	0.1725770390848963 	101254.7962748865
0.5568068068068063 	299.9257493475281 	0.2155253926580019 	101237.2467432694
0.5593093093093087 	299.9089946933972 	0.2639031730567423 	101217.4528904879
0.5618118118118114 	299.8907680149571 	0.3164484957945449 	101195.92321794
0.5643143143143137 	299.8717810453874 	0.3710966704800876 	101173.4990664809
0.5668168168168163 	299.8530304707539 	0.4249918647494581 	101151.3577299244
0.5693193193193188 	299.8357211759006 	0.4747064534989329 	101130.9215482246
0.5718218218218213 	299.8211124885472 	0.5166669946040815 	101113.6763159825
0.5743243243243239 	299.8103234784484 	0.547701943849186 	101100.9416829477
0.5768268268268262 	299.8041333007982 	0.565607506441158 	101093.6358142652
0.5793293293293288 	299.8028114351215 	0.5696321269347446 	101092.075126148
0.5818318318318314 	299.806006489399 	0.5607859401876991 	101095.8454262575
0.5843343343343338 	299.8127282027627 	0.5418903595491573 	101103.7814652682
0.5868368368368363 	299.8214450064359 	0.5173339011857487 	101114.0709749841
0.5893393393393387 	299.8302590629793 	0.4924924489954203 	101124.4757925045
0.5918418418418413 	299.8372577363102 	0.4727261529132413 	101132.7378860961
0.5943443443443439 	299.8409959575683 	0.4620589258830839 	101137.1511527233
0.5968468468468463 	299.8409270534131 	0.4620318604000652 	101137.0704241704
0.5993493493493487 	299.8375538350369 	0.4712711460327071 	101133.0876227716
0.6018518518518514 	299.8322591936018 	0.4859166564505478 	101126.8357036899
0.6043543543543537 	299.8269139875571 	0.5007416602069781 	101120.5257875041
0.6068568568568564 	299.8233206220498 	0.510765564432876 	101116.2839808687
0.6093593593593587 	299.8225735812288 	0.5129618409260626 	101115.4017534025
0.6118618618618614 	299.8246639104423 	0.5073215258417419 	101117.8691024828
0.6143643643643638 	299.8285298905491 	0.4967463692614259 	101122.4341155654
0.6168668668668662 	299.8325003325874 	0.4858433265207792 	101127.1213080436
0.6193693693693688 	299.8349546091083 	0.4790429842785709 	101130.0187388304
0.6218718718718714 	299.835029824229 	0.4787066569818096 	101130.1080342598
0.6243743743743737 	299.8329977452164 	0.4841259412888234 	101127.7091841749
0.6268768768768762 	299.8300851212497 	0.4919809081362434 	101124.2699549046
0.629379379379379 	299.8278544440818 	0.4980343927677361 	101121.6363011895
0.6318818818818812 	299.8274181535432 	0.4992795518548682 	101121.1210033047
0.6343843843843838 	299.8288634775359 	0.495452534084588 	101122.8269017709
0.6368868868868864 	299.8312601840154 	0.4890288543372643 	101125.6570441712
0.6393893893893888 	299.8332277476495 	0.4837148875620763 	101127.9799237096
0.6418918918918912 	299.8337305680468 	0.4822824064821747 	101128.5735661454
0.6443943943943939 	299.832684126972 	0.4849802698859722 	101127.3382991532
0.6468968968968963 	299.830956812762 	0.4895224254975947 	101125.298653184
0.6493993993993988 	299.8297726261196 	0.4926638882017687 	101123.9006597308
0.6519019019019012 	299.8299076085806 	0.4923447672183863 	101124.0598005678
0.6544044044044038 	299.8311920205443 	0.4889830090360267 	101125.5762228439
0.6569069069069065 	299.8326889230335 	0.4850273911350115 	101127.3437653457
0.6594094094094087 	299.8333920424626 	0.4831203882715743 	101128.1740044128
0.6619119119119113 	299.8329495104001 	0.4841990922136736 	101127.6515371139
0.664414414414414 	299.8318853672659 	0.4869215863624498 	101126.3948541655
0.6669169169169162 	299.8311453533502 	0.4888340923071836 	101125.5212613331
0.6694194194194188 	299.8313427965804 	0.4883386475582574 	101125.7539242924
0.6719219219219214 	299.8322913538755 	0.4858890686554252 	101126.8740176993
0.674424424424424 	299.8332166416611 	0.4834695011350962 	101127.9667615333
0.6769269269269262 	299.833434055324 	0.4828461581167643 	101128.2234245201
0.679429429429429 	299.8329194105703 	0.4841004626708127 	101127.6158584092
0.6819319319319311 	299.8322830160823 	0.485691111662482 	101126.8644086166
0.6844344344344341 	299.8321842768711 	0.4859368863695606 	101126.7475989874
0.686936936936936 	299.832735598181 	0.4845329993889277 	101127.3984242604
0.6894394394394392 	299.8334425316093 	0.4827125900103008 	101128.2333052718
0.6919419419419413 	299.8337148260001 	0.4819681439544896 	101128.5547292096
0.694444444444444 	299.8334331612452 	0.4826152444522268 	101128.2222982549
0.6969469469469463 	299.8330285151847 	0.48359072139905 	101127.744476823
0.6994494494494489 	299.833009215405 	0.4836222220353603 	101127.7215723502
0.7019519519519515 	299.8334436879782 	0.482522303261812 	101128.2344408024
0.7044544544544538 	299.83392865545 	0.4812781695873046 	101128.8071116809
0.7069569569569564 	299.8340507750032 	0.4809172840389095 	101128.9513924637
0.7094594594594589 	299.8338243177902 	0.4814205034310838 	101128.6840273972
0.7119619619619615 	299.8336377644621 	0.4818436176227032 	101128.4635669541
0.7144644644644638 	299.8337934811321 	0.4814378850139218 	101128.6474399403
0.7169669669669665 	299.8341799751562 	0.4804600854298513 	101129.103828869
0.7194694694694688 	299.834437444845 	0.4797812994232631 	101129.4077429884
0.7219719719719715 	299.8343937244138 	0.4798283464479449 	101129.3562693881
0.7244744744744737 	299.8342476374938 	0.4801346489086302 	101129.1836471447
0.7269769769769764 	299.8342961482685 	0.4799841245210582 	101129.2407737599
0.7294794794794791 	299.8345680977581 	0.479294492607555 	101129.5619963252
0.7319819819819813 	299.8348169235566 	0.478648192958679 	101129.8558478847
0.7344844844844839 	299.8348534079461 	0.4785025207615228 	101129.8987809946
0.7369869869869864 	299.8347766257664 	0.478632581745764 	101129.8081995158
0.739489489489489 	299.8348182865151 	0.478492743613477 	101129.8572851755
0.7419919919919914 	299.8350288708011 	0.4779537135531542 	101130.1059167425
0.7444944944944939 	299.8352320785967 	0.4774225232457479 	101130.3459140121
0.7469969969969963 	299.8352830919562 	0.4772433705424272 	101130.4060281008
0.7494994994994989 	299.8352589505252 	0.4772452164847492 	101130.3775179366
0.7520020020020015 	299.8353292952143 	0.4770347099114375 	101130.4606977571
0.7545045045045039 	299.8355122401978 	0.4765623570425052 	101130.6765474098
0.7570070070070062 	299.8356662704757 	0.4761491672462035 	101130.8583563799
0.7595095095095092 	299.8357087716849 	0.475989766039933 	101130.9087381608
0.7620120120120112 	299.8357274806098 	0.4758911840104589 	101130.9307365646
0.7645145145145138 	299.835832856905 	0.4755995448836173 	101131.0549317775
0.7670170170170165 	299.8359935914943 	0.4751779927552909 	101131.2448731573
0.7695195195195191 	299.8361007613725 	0.4748728563331084 	101131.3714501997
0.7720220220220213 	299.8361400135267 	0.474722175341582 	101131.4177067651
0.7745245245245239 	299.8362019224952 	0.4745254873317331 	101131.4907733015
0.7770270270270263 	299.8363299375915 	0.4741816144727832 	101131.6419490944
0.779529529529529 	299.8364588306015 	0.473831682714573 	101131.7941511374
0.7820320320320313 	299.8365309828662 	0.4736059860421999 	101131.8792179564
0.784534534534534 	299.8365865626176 	0.4734197535016986 	101131.9449079633
0.7870370370370364 	299.8366867776214 	0.4731379394386969 	101132.0633030766
0.7895395395395389 	299.8368117496345 	0.4728001297592561 	101132.210686071
0.7920420420420413 	299.8369035360977 	0.4725317315101609 	101132.3190705521
0.794544544544544 	299.8369674285414 	0.4723251024431908 	101132.394689048
0.7970470470470463 	299.8370548142676 	0.4720709995244439 	101132.4976254136
0.799549549549549 	299.8371694723733 	0.4717570494406508 	101132.6329487332
0.8020520520520515 	299.8372679580951 	0.4714748918925876 	101132.7495039611
0.8045545545545539 	299.837341323748 	0.4712477053114259 	101132.8359138238
0.8070570570570563 	299.8374252454696 	0.4710000065479145 	101132.9349349762
0.8095595595595589 	299.8375316102837 	0.4707043084118687 	101133.0606685168
0.8120620620620614 	299.8376306158865 	0.4704226565140771 	101133.1774904469
0.8145645645645638 	299.8377098391425 	0.470182523263648 	101133.2709735841
0.8170670670670666 	299.8377945372241 	0.4699324354644797 	101133.3710350495
0.8195695695695689 	299.837896137181 	0.469647539409848 	101133.4909222166
0.8220720720720714 	299.8379928696055 	0.4693712397028603 	101133.6051241416
0.8245745745745739 	299.8380753156947 	0.4691243583868202 	101133.7024954536
0.8270770770770765 	299.8381623163812 	0.4688695976127863 	101133.8051413079
0.8295795795795788 	299.8382609402918 	0.4685908830042511 	101133.9216301843
0.8320820820820815 	299.8383548811071 	0.4683207280599724 	101134.0325581267
0.834584584584584 	299.8384392599986 	0.4680701711620042 	101134.1321386628
0.8370870870870865 	299.8385284992264 	0.4678107707945569 	101134.2374797792
0.8395895895895891 	299.8386250905848 	0.4675364091901895 	101134.3515625265
0.8420920920920915 	299.838716484069 	0.4672718230839848 	101134.4594206943
0.844594594594594 	299.838802334151 	0.4670185534894516 	101134.5607534192
0.8470970970970964 	299.8388934959687 	0.4667555134648993 	101134.668340617
0.8495995995995991 	299.8389880805211 	0.4664852124789665 	101134.7800806254
0.8521021021021015 	299.83907731736 	0.4662248980286158 	101134.8855423165
0.8546046046046039 	299.8391649906742 	0.4659687794369585 	101134.9887937699
0.8571071071071066 	299.8392572142503 	0.465703712859551 	101135.0977206521
0.8596096096096089 	299.839349460413 	0.4654378156348084 	101135.2068753595
0.8621121121121116 	299.8394378703472 	0.4651799391017755 	101135.3110438627
0.8646146146146139 	299.8395271580163 	0.4649207513829199 	101135.4163381405
0.8671171171171166 	299.8396192413064 	0.4646556624211013 	101135.5253124581
0.8696196196196189 	299.8397096850846 	0.4643940072627375 	101135.63198014
0.8721221221221216 	299.8397980649263 	0.4641364788098478 	101135.7362197782
0.874624624624624 	299.8398884752194 	0.4638749751435822 	101135.8431370494
0.8771271271271264 	299.8399798376106 	0.4636119234170939 	101135.9509270994
0.879629629629629 	299.8400689172641 	0.4633531278908873 	101136.055973634
0.8821321321321317 	299.8401579627195 	0.4630942091800856 	101136.1612603416
0.8846346346346339 	299.8402488983366 	0.4628321920509453 	101136.2685779052
0.8871371371371364 	299.8403387618029 	0.4625720171169191 	101136.374633738
0.8896396396396391 	299.8404274749883 	0.4623139440754785 	101136.4794313815
0.8921421421421414 	299.8405176465981 	0.4620537718000068 	101136.5857520065
0.8946446446446441 	299.8406077602269 	0.4617933075114546 	101136.6922240479
0.8971471471471464 	299.8406966121394 	0.461535098950719 	101136.7971831337
0.8996496496496489 	299.8407860546796 	0.4612762871720421 	101136.9026461212
0.9021521521521517 	299.8408760187023 	0.4610162945846614 	101137.0089338354
0.9046546546546541 	299.8409651219628 	0.4607578768373054 	101137.1141841095
0.9071571571571564 	299.8410541762262 	0.4604999648959812 	101137.2191968501
0.9096596596596589 	299.8411437810298 	0.4602408637658716 	101137.3250666462
0.9121621621621616 	299.8412330303539 	0.4599823922084441 	101137.4304541989
0.9146646646646639 	299.8413219180564 	0.4597248392610923 	101137.5352610932
0.9171671671671666 	299.8414111173321 	0.4594666456984495 	101137.6406775573
0.9196696696696689 	299.8415002713457 	0.4592085876845883 	101137.7460214565
0.9221721721721714 	299.8415892276205 	0.4589513502930521 	101137.8507533108
0.9246746746746741 	299.8416780760265 	0.4586937999339534 	101137.955811356
0.9271771771771765 	299.8417670232472 	0.4584362072579662 	101138.0609862069
0.9296796796796791 	299.8418558446351 	0.4581793498076194 	101138.1656325372
0.9321821821821816 	299.8419445824105 	0.4579223693407839 	101138.270397697
0.9346846846846838 	299.8420333494964 	0.457665238033598 	101138.3753510448
0.9371871871871866 	299.8421219944197 	0.4574087647890726 	101138.4799051
0.9396896896896891 	299.8422105936131 	0.4571523535922382 	101138.5844573743
0.9421921921921914 	299.842299257889 	0.456895757676851 	101138.6891806764
0.9446946946946939 	299.842387720912 	0.4566396679042306 	101138.7935953859
0.9471971971971965 	299.8424760589571 	0.4563837324242159 	101138.8979468348
0.9496996996996991 	299.8425645564977 	0.4561276958007864 	101139.0024363305
0.9522022022022016 	299.8426529718012 	0.4558720822814162 	101139.1066949712
0.9547047047047038 	299.8427411128341 	0.4556166272189361 	101139.2108771541
0.9572072072072064 	299.8428294287495 	0.4553610739538489 	101139.3151538223
0.9597097097097093 	299.8429176914727 	0.4551058286882835 	101139.4192354532
0.9622122122122114 	299.8430057317559 	0.4548507913373057 	101139.5232361974
0.964714714714714 	299.8430938011318 	0.4545958035831418 	101139.6272975751
0.9672172172172167 	299.84318194308 	0.4543411232809224 	101139.7312019642
0.969719719719719 	299.8432698555911 	0.4540866060548904 	101139.8350421872
0.9722222222222214 	299.8433577378542 	0.4538320938572465 	101139.9389061399
0.9747247247247239 	299.8434457388458 	0.4535778342599849 	101140.0426212881
0.9772272272272267 	299.8435335217843 	0.4533237301618978 	101140.1462820247
0.9797297297297292 	299.843621177781 	0.4530696600782769 	101140.2499423026
0.9822322322322313 	299.8437089708625 	0.4528158871668651 	101140.353474307
0.9847347347347344 	299.8437967103244 	0.4525623558122536 	101140.4569676719
0.9872372372372363 	299.8438842064881 	0.4523088492368473 	101140.5604333188
0.9897397397397389 	299.8439718081372 	0.4520554427936873 	101140.6637805978
0.9922422422422417 	299.8440593747335 	0.451802258144289 	101140.7670946189
0.9947447447447441 	299.8441467727519 	0.4515493061109808 	101140.8703599634
0.9972472472472468 	299.8442342132439 	0.4512964923510091 	101140.9735285187
0.999749749749749 	299.8443215488232 	0.4510437710386236 	101141.0766698536
1.002252252252252 	299.8444087452067 	0.4507912446556767 	101141.1797427629
1.004754754754754 	299.8444961395291 	0.4505389048805982 	101141.282732795
1.007257257257256 	299.8445833727455 	0.4502866866894005 	101141.385692386
1.009759759759759 	299.8446703178502 	0.450034692284435 	101141.488576166
1.012262262262261 	299.8447575401165 	0.449782868720192 	101141.5913936582
1.014764764764764 	299.8448447089983 	0.4495310925559991 	101141.6941675069
1.017267267267267 	299.8449315257296 	0.4492795138253282 	101141.7968608528
1.019769769769769 	299.8450184864943 	0.4490281336766334 	101141.8995009601
1.022272272272272 	299.8451054921549 	0.4487769041569184 	101142.0020866805
1.024774774774774 	299.8451921683936 	0.4485259239472735 	101142.1045980602
1.027277277277277 	299.8452789602819 	0.4482750688305778 	101142.2070609031
1.029779779779779 	299.8453658218619 	0.448024265207191 	101142.3094571059
1.032282282282282 	299.8454524447317 	0.4477736113666331 	101142.4117875287
1.034784784784784 	299.8455390421994 	0.447523232512874 	101142.5140695712
1.037287287287286 	299.8456256796653 	0.4472731041928543 	101142.6162850357
1.039789789789789 	299.8457121965061 	0.4470230144532128 	101142.7184453338
1.042292292292291 	299.8457986190462 	0.4467730448365305 	101142.8205480038
1.044794794794794 	299.8458851237236 	0.446523410578639 	101142.9225812175
1.047297297297296 	299.8459715312501 	0.4462739548776801 	101143.0245568307
1.049799799799799 	299.8460577317653 	0.4460245161048751 	101143.1264671515
1.052302302302302 	299.8461441138417 	0.4457752285158345 	101143.2283191642
1.054804804804804 	299.8462304150521 	0.4455261708730237 	101143.3301190987
1.057307307307306 	299.8463163801341 	0.4452773160151915 	101143.4318565916
1.059809809809809 	299.8464025859589 	0.4450286090219647 	101143.5335363542
1.062312312312312 	299.8464887798856 	0.4447800873095108 	101143.6351526695
1.064814814814814 	299.8465746959752 	0.444531799897919 	101143.7367070169
1.067317317317317 	299.8466606513052 	0.4442836316293884 	101143.8382056454
1.069819819819819 	299.8467466407134 	0.4440355929646048 	101143.9396428706
1.072322322322321 	299.8468324841533 	0.4437877835520101 	101144.0410210264
1.074824824824824 	299.8469182382433 	0.4435401144764197 	101144.1423356569
1.077327327327327 	299.8470040804696 	0.443292590151329 	101144.2435880189
1.079829829829829 	299.8470898484145 	0.4430454060394171 	101144.3447844783
1.082332332332332 	299.8471753960517 	0.4427985052491762 	101144.4459243009
1.084834834834834 	299.8472611228008 	0.4425516709321785 	101144.5470106382
1.087337337337337 	299.8473468023901 	0.4423048418912086 	101144.6480373079
1.089839839839839 	299.8474321550806 	0.4420582542446658 	101144.7489993122
1.092342342342342 	299.8475176356721 	0.4418120751688521 	101144.8498968258
1.094844844844844 	299.8476031211326 	0.441566010770396 	101144.9507324019
1.097347347347347 	299.8476884385973 	0.4413199696882015 	101145.0515133062
1.099849849849849 	299.8477736303398 	0.4410741939138511 	101145.1522381605
1.102352352352352 	299.8478590306114 	0.4408287066366908 	101145.2529058497
1.104854854854854 	299.8479443729769 	0.4405834247557253 	101145.353515442
1.107357357357357 	299.8480293884174 	0.4403382814101303 	101145.4540662825
1.109859859859859 	299.8481145188555 	0.4400933185905552 	101145.5545590516
1.112362362362362 	299.8481997008255 	0.4398486359254064 	101145.6549907218
1.114864864864865 	299.8482847038342 	0.4396040805474386 	101145.7553618466
1.117367367367367 	299.8483696021281 	0.4393596436346308 	101145.8556733989
1.119869869869869 	299.8484545799823 	0.4391155833259847 	101145.9559280795
1.122372372372372 	299.8485394970863 	0.4388718257171008 	101146.0561277173
1.124874874874874 	299.8486242169813 	0.4386281554375843 	101146.1562710565
1.127377377377377 	299.8487090755206 	0.4383845494822059 	101146.2563564645
1.129879879879879 	299.8487939011781 	0.4381411036188239 	101146.3563820514
1.132382382382382 	299.8488785066813 	0.437898043794028 	101146.4563491396
1.134884884884884 	299.8489630542146 	0.4376553381025029 	101146.5562574337
1.137387387387387 	299.8490476480064 	0.4374126869440166 	101146.6561061392
1.139889889889889 	299.8491322508381 	0.4371701901499461 	101146.7558964519
1.142392392392392 	299.8492167777313 	0.4369280252951897 	101146.855632574
1.144894894894894 	299.8493012371292 	0.4366861408600503 	101146.955318541
1.147397397397397 	299.8493856441305 	0.4364444799021325 	101147.054953014
1.149899899899899 	299.8494699975046 	0.4362029031232491 	101147.1545311147
1.152402402402402 	299.8495542561917 	0.4359616021459759 	101147.2540471873
1.154904904904904 	299.8496385692135 	0.4357207789925212 	101147.3534994068
1.157407407407407 	299.8497228319326 	0.4354801755234611 	101147.4528907642
1.159909909909909 	299.8498069383771 	0.435239625924403 	101147.5522289984
1.162412412412412 	299.8498910480569 	0.4349992438162498 	101147.6515209013
1.164914914914914 	299.8499751205811 	0.4347591675876925 	101147.7507665244
1.167417417417417 	299.8500591610158 	0.4345194718952076 	101147.8499592449
1.169919919919919 	299.8501430995603 	0.4342801795041509 	101147.9490911213
1.172422422422422 	299.8502270474782 	0.4340410810297265 	101148.0481600112
1.174924924924925 	299.8503110461853 	0.4338020973782015 	101148.1471714288
1.177427427427427 	299.8503949600752 	0.4335634431855845 	101148.246134868
1.179929929929929 	299.850478729818 	0.4333250323066405 	101148.3450550144
1.182432432432432 	299.8505624613005 	0.4330869494042904 	101148.4439276133
1.184934934934934 	299.8506462227432 	0.4328493485641492 	101148.5427439208
1.187437437437437 	299.8507300226427 	0.4326118757059227 	101148.6414996576
1.189939939939939 	299.8508136201461 	0.4323745206861066 	101148.7401986558
1.192442442442442 	299.8508970080841 	0.4321375444329533 	101148.8388493497
1.194944944944944 	299.8509806338005 	0.4319008780590459 	101148.9374573358
1.197447447447447 	299.8510643342839 	0.4316645647270709 	101149.0360216374
1.199949949949949 	299.8511479752356 	0.4314287287709838 	101149.1345375952
1.202452452452452 	299.8512313870355 	0.4311930449632558 	101149.2330016654
1.204954954954955 	299.851314636295 	0.4309575551226811 	101149.3314142135
1.207457457457457 	299.8513980084626 	0.4307225110966862 	101149.4297790712
1.20995995995996 	299.8514814749182 	0.4304878755366743 	101149.5281000032
1.212462462462462 	299.8515648880809 	0.4302529253849195 	101149.6263767943
1.214964964964964 	299.8516483470535 	0.4300195055265133 	101149.7246084968
1.217467467467467 	299.8517316823699 	0.4297837888470075 	101149.8227942867
1.219969969969969 	299.8518147582953 	0.4295542562395761 	101149.9209406357
1.222472472472472 	299.8518979663207 	0.4293085797874965 	101150.0190395205
1.224974974974975 	299.8519812608101 	0.4291074442072851 	101150.1171235644
1.227477477477477 	299.8520645342585 	0.4287642956595976 	101150.2150977968
1.229979979979979 	299.8521481151275 	0.4288371148035833 	101150.313395552
1.232482482482482 	299.8522309018567 	0.4275342517214016 	101150.4105046159
1.234984984984984 	299.8523139399526 	0.4288175584105239 	101150.5089796619
1.237487487487487 	299.8523993989693 	0.4268225647678948 	101150.606625894
1.239989989989989 	299.8524766347718 	0.4278913960450059 	101150.7023161391
1.242492492492492 	299.8525667386688 	0.4284416668445092 	101150.8039241496
1.244994994994994 	299.8503873937843 	0.4252879448572947 	101150.8982704294
1.247497497497497 	299.1913944884969 	0.4274327135185978 	101150.9968112325
1.249999999999999 	301.7262065268602 	0.4267351079578807 	101151.0956988648
